D:\MassHunter\GCMS\1\data\Amal\Constant flow\100C\100C_1ml-min_10C-min_1.D Wed Jul 31 12:23:27 2024
Start of data points
5,84112	26405
5,84525	26248
5,84937	27610
5,85348	27658
5,85762	32707
5,86173	31221
5,86585	33238
5,86998	33250
5,87410	35995
5,87822	34828
5,88235	34693
5,88647	35958
5,89058	36805
5,89470	38606
5,89883	38857
5,90295	39888
5,90707	39667
5,91120	42144
5,91532	42361
5,91943	41830
5,92357	42354
5,92768	44496
5,93180	42876
5,93593	40439
5,94005	41314
5,94417	41201
5,94830	39125
5,95242	42745
5,95653	40570
5,96067	39884
5,96478	40322
5,96890	39614
5,97303	39627
5,97715	37100
5,98127	39689
5,98538	36739
5,98952	38252
5,99363	36450
5,99775	37167
6,00188	34836
6,00600	33895
6,01012	34857
6,01425	36880
6,01837	33561
6,02248	34724
6,02662	32555
6,03073	33440
6,03485	34168
6,03898	33217
6,04310	32443
6,04722	30757
6,05135	30299
6,05547	28454
6,05958	31522
6,06372	31098
6,06783	34433
6,07195	41486
6,07607	49956
6,08020	65954
6,08432	83475
6,08843	105084
6,09257	124223
6,09668	136056
6,10080	143622
6,10493	144421
6,10905	144316
6,11317	137788
6,11730	129276
6,12142	119167
6,12553	109443
6,12967	104224
6,13378	96536
6,13790	89197
6,14203	83734
6,14615	78897
6,15027	75040
6,15440	68848
6,15852	62786
6,16263	60358
6,16675	59387
6,17088	52529
6,17500	49453
6,17912	46070
6,18325	45077
6,18737	43881
6,19148	41707
6,19562	36786
6,19973	36776
6,20385	35954
6,20798	32635
6,21210	33234
6,21622	28331
6,22035	28970
6,22447	26471
6,22858	24917
6,23272	24277
6,23683	22795
6,24095	20111
6,24508	21562
6,24920	19976
6,25332	19802
6,25743	18597
6,26157	20010
6,26568	17940
6,26980	17759
6,27393	17898
6,27805	16276
6,28217	17133
6,28630	15320
6,29042	14273
6,29453	16031
6,29867	15220
6,30278	15230
6,30690	13320
6,31103	13738
6,31515	13619
6,31927	14080
6,32340	14688
6,32752	13165
6,33163	12919
6,33577	12228
6,33988	12264
6,34400	12580
6,34812	11980
6,35225	12439
6,35637	12731
6,36048	12244
6,36462	12051
6,36873	11899
6,37285	13280
6,37698	12320
6,38110	12802
6,38522	12288
6,38935	12471
6,39347	12652
6,39758	11400
6,40172	10939
6,40583	11302
6,40995	11462
6,41408	11339
6,41820	12004
6,42232	11401
6,42645	11162
6,43057	12157
6,43468	11921
6,43880	11401
6,44293	11676
6,44705	10409
6,45117	11789
6,45530	11882
6,45942	11703
6,46353	12180
6,46767	10992
6,47178	10352
6,47590	11415
6,48003	10618
6,48415	10743
6,48827	10869
6,49240	10093
6,49652	10541
6,50063	10196
6,50477	10520
6,50888	11364
6,51300	10568
6,51713	10989
6,52125	11283
6,52537	11107
6,52948	11215
6,53362	10503
6,53773	10861
6,54185	11199
6,54598	10230
6,55010	9774
6,55422	11323
6,55835	10530
6,56247	10575
6,56658	11475
6,57072	10540
6,57483	10873
6,57895	10783
6,58308	10509
6,58720	11080
6,59132	10285
6,59545	10410
6,59957	10522
6,60368	9213
6,60782	9380
6,61193	9620
6,61605	10171
6,62017	10195
6,62430	10228
6,62842	9634
6,63253	9048
6,63667	9719
6,64078	9694
6,64490	9842
6,64903	9490
6,65315	9867
6,65727	9691
6,66140	9178
6,66552	8778
6,66963	8308
6,67377	7968
6,67788	10074
6,68200	9508
6,68613	8444
6,69025	10701
6,69437	9459
6,69850	9985
6,70262	9506
6,70673	9519
6,71085	9999
6,71498	9565
6,71910	9146
6,72322	9470
6,72735	9307
6,73147	9757
6,73558	9731
6,73972	9344
6,74383	9859
6,74795	9018
6,75208	10143
6,75620	9326
6,76032	9097
6,76445	10372
6,76857	9467
6,77268	8752
6,77682	9383
6,78093	9557
6,78505	8965
6,78918	8623
6,79330	7609
6,79742	8295
6,80153	8718
6,80567	9006
6,80978	8478
6,81390	8461
6,81803	7712
6,82215	8056
6,82627	8529
6,83040	9161
6,83452	8584
6,83863	8835
6,84277	9555
6,84688	9320
6,85100	8801
6,85513	8061
6,85925	9319
6,86337	8145
6,86750	8813
6,87162	8798
6,87573	9514
6,87987	10043
6,88398	10056
6,88810	9840
6,89222	10995
6,89635	10550
6,90047	10018
6,90458	10143
6,90872	10044
6,91283	10251
6,91695	10067
6,92108	9287
6,92520	8909
6,92932	9911
6,93345	7841
6,93757	7469
6,94168	8052
6,94582	8305
6,94993	7986
6,95405	8779
6,95818	7977
6,96230	8055
6,96642	8221
6,97055	8799
6,97467	8368
6,97878	7635
6,98290	7348
6,98703	7794
6,99115	7360
6,99527	7496
6,99940	7042
7,00352	7461
7,00763	8535
7,01177	7693
7,01588	7210
7,02000	7836
7,02413	7448
7,02825	8116
7,03237	6931
7,03650	8824
7,04062	7121
7,04473	7076
7,04887	7877
7,05298	7961
7,05710	7994
7,06123	6990
7,06535	7647
7,06947	6757
7,07358	6785
7,07772	7037
7,08183	7349
7,08595	7259
7,09008	7042
7,09420	7201
7,09832	7519
7,10245	7051
7,10657	7118
7,11068	6229
7,11482	6945
7,11893	6124
7,12305	7238
7,12718	7055
7,13130	8233
7,13542	7295
7,13955	6543
7,14367	7368
7,14778	7473
7,15192	6811
7,15603	7099
7,16015	7178
7,16427	6271
7,16840	6605
7,17252	6657
7,17663	6785
7,18077	6914
7,18488	6919
7,18900	6126
7,19313	7021
7,19725	5745
7,20137	6240
7,20550	6381
7,20962	6284
7,21373	6583
7,21787	6292
7,22198	7084
7,22610	6856
7,23023	7262
7,23435	6951
7,23847	7812
7,24260	7986
7,24672	7251
7,25083	6859
7,25497	7799
7,25908	7290
7,26320	7002
7,26732	6815
7,27145	7346
7,27557	6478
7,27968	5650
7,28382	6186
7,28793	6567
7,29205	6233
7,29618	6433
7,30030	5729
7,30442	5900
7,30855	6294
7,31267	6343
7,31678	6550
7,32092	6024
7,32503	7518
7,32915	10966
7,33328	17424
7,33740	31632
7,34152	61005
7,34565	114154
7,34977	184299
7,35388	281124
7,35800	397941
7,36213	498934
7,36625	600573
7,37037	657148
7,37450	691237
7,37862	673038
7,38273	643104
7,38687	596645
7,39098	534236
7,39510	473864
7,39923	415244
7,40335	364819
7,40747	314587
7,41160	272418
7,41572	236604
7,41983	200573
7,42397	170999
7,42808	147925
7,43220	124523
7,43633	106629
7,44045	89012
7,44457	73055
7,44868	63977
7,45282	51843
7,45693	44080
7,46105	37463
7,46518	31594
7,46930	30595
7,47342	27072
7,47755	24329
7,48167	21385
7,48578	21157
7,48992	19489
7,49403	17081
7,49815	16154
7,50228	13198
7,50640	12628
7,51052	12146
7,51465	11632
7,51877	10581
7,52288	8589
7,52702	8963
7,53113	9307
7,53525	8542
7,53937	7950
7,54350	8415
7,54762	7135
7,55173	7400
7,55587	7556
7,55998	7983
7,56410	7677
7,56823	7114
7,57235	6773
7,57647	6928
7,58060	6365
7,58472	7243
7,58883	7574
7,59297	7215
7,59708	6001
7,60120	5705
7,60533	6139
7,60945	6084
7,61357	5642
7,61770	5596
7,62182	6036
7,62593	5495
7,63005	5713
7,63418	5138
7,63830	5083
7,64242	5755
7,64655	6392
7,65067	5756
7,65478	5476
7,65892	5370
7,66303	5496
7,66715	5440
7,67128	5975
7,67540	6311
7,67952	5460
7,68365	5594
7,68777	5739
7,69188	5654
7,69602	5534
7,70013	6201
7,70425	5396
7,70838	6022
7,71250	6493
7,71662	5151
7,72073	4701
7,72487	5646
7,72898	6297
7,73310	4917
7,73723	5911
7,74135	5305
7,74547	5214
7,74960	5329
7,75372	5056
7,75783	4106
7,76197	6289
7,76608	4376
7,77020	3910
7,77433	4892
7,77845	4662
7,78257	4697
7,78670	4865
7,79082	5278
7,79493	4759
7,79907	4981
7,80318	4772
7,80730	4507
7,81142	4988
7,81555	4363
7,81967	4642
7,82378	3904
7,82792	4567
7,83203	4175
7,83615	5849
7,84028	3955
7,84440	3837
7,84852	4738
7,85265	4278
7,85677	3602
7,86088	4488
7,86502	4656
7,86913	4198
7,87325	4659
7,87738	4765
7,88150	5115
7,88562	4263
7,88975	4420
7,89387	4979
7,89798	4897
7,90210	4657
7,90623	5090
7,91035	3777
7,91447	4609
7,91860	4929
7,92272	3937
7,92683	4794
7,93097	4406
7,93508	3829
7,93920	4585
7,94333	4473
7,94745	4632
7,95157	4774
7,95570	4722
7,95982	4646
7,96393	4891
7,96807	4154
7,97218	4082
7,97630	4346
7,98043	4116
7,98455	3662
7,98867	4507
7,99278	3966
7,99692	4219
8,00103	3380
8,00515	4415
8,00928	4189
8,01340	4446
8,01752	4462
8,02165	4214
8,02577	4993
8,02988	4121
8,03402	3959
8,03813	4426
8,04225	4173
8,04638	4165
8,05050	4199
8,05462	5170
8,05875	9624
8,06287	15771
8,06698	31673
8,07112	61530
8,07523	103965
8,07935	165637
8,08347	247392
8,08760	327159
8,09172	399501
8,09583	453296
8,09997	479257
8,10408	479647
8,10820	453946
8,11233	413980
8,11645	361847
8,12057	313804
8,12470	263153
8,12882	220999
8,13293	180353
8,13707	146581
8,14118	118339
8,14530	92929
8,14943	75571
8,15355	62049
8,15767	47725
8,16180	37952
8,16592	32019
8,17003	26302
8,17415	21909
8,17828	19768
8,18240	17399
8,18652	13602
8,19065	13387
8,19477	12018
8,19888	11236
8,20302	10127
8,20713	8668
8,21125	8327
8,21538	7099
8,21950	8400
8,22362	7156
8,22775	5878
8,23187	6011
8,23598	6154
8,24012	5546
8,24423	5630
8,24835	5371
8,25248	5666
8,25660	5419
8,26072	5106
8,26483	5624
8,26897	5852
8,27308	5860
8,27720	6297
8,28133	6858
8,28545	7581
8,28957	8120
8,29370	7040
8,29782	6716
8,30193	7721
8,30607	7382
8,31018	7019
8,31430	6547
8,31843	6940
8,32255	5259
8,32667	6132
8,33080	5520
8,33492	5989
8,33903	5128
8,34317	4633
8,34728	5445
8,35140	5840
8,35552	5250
8,35965	4847
8,36377	5915
8,36788	5117
8,37202	7153
8,37613	6198
8,38025	6047
8,38438	5336
8,38850	5522
8,39262	5213
8,39675	4717
8,40087	4936
8,40498	4469
8,40912	4904
8,41323	3975
8,41735	4490
8,42148	4313
8,42560	3275
8,42972	4359
8,43385	3327
8,43797	3651
8,44208	3933
8,44620	3506
8,45033	3446
8,45445	3355
8,45857	3005
8,46270	3533
8,46682	3559
8,47093	4453
8,47507	3580
8,47918	3331
8,48330	3289
8,48743	3643
8,49155	2879
8,49567	3151
8,49980	2722
8,50392	2620
8,50803	3083
8,51217	3372
8,51628	3049
8,52040	3779
8,52453	2761
8,52865	3188
8,53277	2788
8,53688	3190
8,54102	2427
8,54513	2902
8,54925	3030
8,55338	3697
8,55750	3230
8,56162	3046
8,56575	3445
8,56987	3002
8,57398	2880
8,57812	2711
8,58223	2863
8,58635	3003
8,59048	2952
8,59460	3681
8,59872	3464
8,60285	3032
8,60697	3643
8,61108	2872
8,61522	2974
8,61933	3928
8,62345	3354
8,62757	3492
8,63170	3318
8,63582	3550
8,63993	3676
8,64407	2685
8,64818	3650
8,65230	2840
8,65643	3141
8,66055	3315
8,66467	3533
8,66880	3385
8,67292	3062
8,67703	3018
8,68117	3686
8,68528	3169
8,68940	3244
8,69353	3365
8,69765	3243
8,70177	3309
8,70590	3323
8,71002	3044
8,71413	3322
8,71825	3206
8,72238	3047
8,72650	2990
8,73062	3413
8,73475	3136
8,73887	3016
8,74298	3012
8,74712	2811
8,75123	3274
8,75535	2496
8,75948	2803
8,76360	3288
8,76772	2757
8,77185	3127
8,77597	2706
8,78008	2968
8,78422	3301
8,78833	2781
8,79245	2812
8,79658	3836
8,80070	4426
8,80482	5184
8,80893	10443
8,81307	21706
8,81718	50068
8,82130	101317
8,82543	194227
8,82955	331913
8,83367	524065
8,83780	722571
8,84192	947505
8,84603	1114876
8,85017	1242000
8,85428	1264401
8,85840	1221368
8,86253	1099961
8,86665	951411
8,87077	781375
8,87490	614524
8,87902	478354
8,88313	358131
8,88727	273604
8,89138	202400
8,89550	152043
8,89963	116319
8,90375	89870
8,90787	69633
8,91198	57973
8,91612	47322
8,92023	38087
8,92435	32792
8,92848	27821
8,93260	25093
8,93672	23737
8,94085	19744
8,94497	17226
8,94908	16517
8,95322	15427
8,95733	13174
8,96145	12385
8,96558	11938
8,96970	10740
8,97382	9697
8,97795	9640
8,98207	9802
8,98618	9204
8,99032	8124
8,99443	7758
8,99855	7169
9,00267	6940
9,00680	6626
9,01092	6808
9,01503	5607
9,01917	6424
9,02328	6328
9,02740	5700
9,03153	5445
9,03565	5774
9,03977	5430
9,04390	5560
9,04802	6181
9,05213	7976
9,05627	7863
9,06038	7751
9,06450	6276
9,06863	6399
9,07275	5753
9,07687	3864
9,08100	4290
9,08512	4274
9,08923	4159
9,09335	4010
9,09748	3776
9,10160	3519
9,10572	3792
9,10985	3910
9,11397	3375
9,11808	3935
9,12222	3685
9,12633	3078
9,13045	3373
9,13458	3047
9,13870	3543
9,14282	4363
9,14695	4095
9,15107	3460
9,15518	3869
9,15932	3011
9,16343	3170
9,16755	3265
9,17168	3355
9,17580	3437
9,17992	3341
9,18403	3238
9,18817	3280
9,19228	3607
9,19640	3082
9,20053	2895
9,20465	3066
9,20877	2931
9,21290	3259
9,21702	2657
9,22113	3020
9,22527	2973
9,22938	2720
9,23350	3088
9,23763	3696
9,24175	3114
9,24587	3321
9,25000	3241
9,25412	2551
9,25823	3083
9,26237	3541
9,26648	2758
9,27060	3215
9,27472	2825
9,27885	3266
9,28297	3566
9,28708	3024
9,29122	3315
9,29533	3962
9,29945	3684
9,30358	3416
9,30770	3037
9,31182	3649
9,31595	2689
9,32007	2608
9,32418	2914
9,32832	3840
9,33243	2583
9,33655	3251
9,34068	2308
9,34480	2840
9,34892	3102
9,35305	3003
9,35717	2324
9,36128	2661
9,36540	2571
9,36953	3379
9,37365	3473
9,37777	3318
9,38190	4235
9,38602	5081
9,39013	5306
9,39427	6689
9,39838	7308
9,40250	7370
9,40663	7789
9,41075	8680
9,41487	7944
9,41900	8210
9,42312	7987
9,42723	7369
9,43137	7254
9,43548	5670
9,43960	5883
9,44373	5450
9,44785	5629
9,45197	4569
9,45608	3078
9,46022	3770
9,46433	4075
9,46845	3057
9,47258	3233
9,47670	3115
9,48082	3305
9,48495	3531
9,48907	3476
9,49318	2641
9,49732	2976
9,50143	2359
9,50555	2493
9,50968	2125
9,51380	2384
9,51792	2060
9,52205	2584
9,52617	2468
9,53028	2343
9,53442	3010
9,53853	2469
9,54265	2513
9,54677	1842
9,55090	2214
9,55502	2766
9,55913	3054
9,56327	4536
9,56738	9989
9,57150	20683
9,57563	46359
9,57975	89948
9,58387	161766
9,58800	266749
9,59212	401401
9,59623	549402
9,60037	664990
9,60448	736601
9,60860	766359
9,61273	735546
9,61685	658523
9,62097	541913
9,62510	427818
9,62922	328091
9,63333	241036
9,63745	172276
9,64158	128422
9,64570	94547
9,64982	72111
9,65395	54518
9,65807	42463
9,66218	34683
9,66632	27973
9,67043	24104
9,67455	19673
9,67868	17149
9,68280	13299
9,68692	14147
9,69105	12963
9,69517	11736
9,69928	9253
9,70342	8410
9,70753	8105
9,71165	7984
9,71578	6826
9,71990	6233
9,72402	6759
9,72813	5567
9,73227	5726
9,73638	5410
9,74050	5577
9,74463	4706
9,74875	5009
9,75287	4535
9,75700	3950
9,76112	3755
9,76523	3500
9,76937	3219
9,77348	3587
9,77760	2793
9,78173	3793
9,78585	4025
9,78997	3174
9,79410	3357
9,79822	2847
9,80233	3215
9,80647	3236
9,81058	2721
9,81470	3286
9,81882	2914
9,82295	3246
9,82707	2779
9,83118	2776
9,83532	2185
9,83943	2844
9,84355	2540
9,84768	2681
9,85180	3741
9,85592	2644
9,86005	2518
9,86417	2829
9,86828	2488
9,87242	2659
9,87653	2384
9,88065	2392
9,88478	2506
9,88890	2117
9,89302	2020
9,89715	2484
9,90127	1857
9,90538	2490
9,90950	3105
9,91363	2364
9,91775	2654
9,92187	2506
9,92600	2688
9,93012	2727
9,93423	2221
9,93837	2262
9,94248	2349
9,94660	2453
9,95073	2014
9,95485	3200
9,95897	3318
9,96310	3698
9,96722	4253
9,97133	4618
9,97547	4235
9,97958	5635
9,98370	4931
9,98783	4973
9,99195	4614
9,99607	3795
10,00018	3718
10,00432	3399
10,00843	3306
10,01255	2154
10,01668	2880
10,02080	2650
10,02492	1994
10,02905	2674
10,03317	2469
10,03728	2489
10,04142	2449
10,04553	1985
10,04965	2497
10,05378	2330
10,05790	2198
10,06202	2094
10,06615	1714
10,07027	2432
10,07438	2139
10,07852	1998
10,08263	2284
10,08675	1939
10,09087	1712
10,09500	2123
10,09912	1824
10,10323	2306
10,10737	1970
10,11148	1915
10,11560	2208
10,11973	2540
10,12385	2099
10,12797	2094
10,13210	3664
10,13622	3839
10,14033	4176
10,14447	4560
10,14858	4690
10,15270	4520
10,15683	5165
10,16095	3745
10,16507	3837
10,16920	4283
10,17332	3664
10,17743	2473
10,18155	3268
10,18568	2173
10,18980	3087
10,19392	2842
10,19805	2313
10,20217	3148
10,20628	3170
10,21042	3573
10,21453	1936
10,21865	2181
10,22278	2456
10,22690	2203
10,23102	1551
10,23515	1565
10,23927	2321
10,24338	1786
10,24752	1639
10,25163	1991
10,25575	1950
10,25988	1365
10,26400	1650
10,26812	1872
10,27223	1593
10,27637	1909
10,28048	2090
10,28460	1729
10,28873	1970
10,29285	2186
10,29697	2298
10,30110	2539
10,30522	3216
10,30933	6205
10,31347	14668
10,31758	37039
10,32170	88116
10,32583	175855
10,32995	337019
10,33407	568523
10,33820	853760
10,34232	1172188
10,34643	1488455
10,35057	1719327
10,35468	1790212
10,35880	1717319
10,36292	1513845
10,36705	1244907
10,37117	960504
10,37528	700957
10,37942	491463
10,38353	344323
10,38765	238805
10,39178	177600
10,39590	133209
10,40002	101769
10,40415	80563
10,40827	64528
10,41238	53374
10,41652	47938
10,42063	41041
10,42475	38142
10,42888	32899
10,43300	30272
10,43712	28325
10,44125	25735
10,44537	23454
10,44948	18950
10,45360	17528
10,45773	16979
10,46185	13238
10,46597	13308
10,47010	11638
10,47422	11280
10,47833	9821
10,48247	9587
10,48658	8735
10,49070	8508
10,49483	7731
10,49895	6571
10,50307	6670
10,50720	6279
10,51132	5992
10,51543	5790
10,51957	5933
10,52368	6149
10,52780	4901
10,53193	5199
10,53605	4636
10,54017	5596
10,54430	5924
10,54842	8223
10,55253	7408
10,55665	7967
10,56078	7304
10,56490	6877
10,56902	6458
10,57315	7362
10,57727	7894
10,58138	7954
10,58552	7299
10,58963	7864
10,59375	7177
10,59788	8318
10,60200	6870
10,60612	6860
10,61025	6343
10,61437	5564
10,61848	4425
10,62262	4281
10,62673	3573
10,63085	4269
10,63498	3268
10,63910	3614
10,64322	3043
10,64733	2854
10,65147	2781
10,65558	3392
10,65970	2816
10,66383	2480
10,66795	2597
10,67207	2966
10,67620	3193
10,68032	3374
10,68443	2412
10,68857	3053
10,69268	2876
10,69680	2428
10,70093	4664
10,70505	5239
10,70917	5469
10,71330	4699
10,71742	4774
10,72153	5100
10,72567	5336
10,72978	3579
10,73390	3759
10,73802	3513
10,74215	3145
10,74627	2534
10,75038	3055
10,75452	2497
10,75863	2676
10,76275	2233
10,76688	2183
10,77100	2940
10,77512	2959
10,77925	2662
10,78337	2207
10,78748	2409
10,79162	1913
10,79573	1823
10,79985	1814
10,80398	2062
10,80810	2426
10,81222	2312
10,81635	2006
10,82047	1950
10,82458	2436
10,82870	1717
10,83283	2494
10,83695	2769
10,84107	5730
10,84520	12569
10,84932	27350
10,85343	59577
10,85757	117074
10,86168	209591
10,86580	340189
10,86993	493732
10,87405	656571
10,87817	774286
10,88230	846280
10,88642	840302
10,89053	751325
10,89467	628460
10,89878	494705
10,90290	368205
10,90703	269295
10,91115	190481
10,91527	137246
10,91938	99947
10,92352	73491
10,92763	58301
10,93175	44866
10,93588	37048
10,94000	32075
10,94412	24403
10,94825	20833
10,95237	19959
10,95648	15932
10,96062	13871
10,96473	12221
10,96885	10022
10,97298	8698
10,97710	9085
10,98122	8978
10,98535	6746
10,98947	7603
10,99358	6328
10,99772	5427
11,00183	4924
11,00595	5709
11,01007	6205
11,01420	3854
11,01832	4290
11,02243	4973
11,02657	4210
11,03068	5160
11,03480	4403
11,03893	7743
11,04305	16688
11,04717	38151
11,05130	75838
11,05542	150254
11,05953	266741
11,06367	421868
11,06778	606635
11,07190	783473
11,07603	917709
11,08015	973196
11,08427	922491
11,08840	802278
11,09252	645287
11,09663	492873
11,10075	356586
11,10488	247770
11,10900	174908
11,11312	123434
11,11725	89960
11,12137	69782
11,12548	51033
11,12962	42359
11,13373	33993
11,13785	28114
11,14198	23282
11,14610	18837
11,15022	18417
11,15435	15107
11,15847	14645
11,16258	12516
11,16672	12071
11,17083	9966
11,17495	8589
11,17908	8215
11,18320	7829
11,18732	7951
11,19143	6256
11,19557	6032
11,19968	6627
11,20380	5651
11,20793	4895
11,21205	5737
11,21617	5734
11,22030	5082
11,22442	4697
11,22853	4311
11,23267	3465
11,23678	3916
11,24090	4300
11,24503	2734
11,24915	3249
11,25327	4585
11,25740	4121
11,26152	3351
11,26563	3056
11,26977	2648
11,27388	3888
11,27800	3775
11,28212	2558
11,28625	2675
11,29037	3845
11,29448	3627
11,29862	2632
11,30273	3227
11,30685	3060
11,31098	3536
11,31510	3526
11,31922	2330
11,32335	2443
11,32747	2486
11,33158	3293
11,33572	2683
11,33983	2366
11,34395	2532
11,34808	3110
11,35220	2166
11,35632	2629
11,36045	2349
11,36457	2686
11,36868	2563
11,37280	2702
11,37693	2116
11,38105	2213
11,38517	2394
11,38930	2051
11,39342	2377
11,39753	2468
11,40167	2104
11,40578	1963
11,40990	2492
11,41403	2304
11,41815	2328
11,42227	2572
11,42640	2122
11,43052	2142
11,43463	2253
11,43877	2893
11,44288	2633
11,44700	2524
11,45113	2858
11,45525	2200
11,45937	2058
11,46348	2399
11,46762	2584
11,47173	2195
11,47585	2283
11,47998	2033
11,48410	2478
11,48822	2344
11,49235	2885
11,49647	2617
11,50058	2633
11,50472	2325
11,50883	2117
11,51295	2140
11,51708	1963
11,52120	2245
11,52532	1407
11,52945	2049
11,53357	2066
11,53768	2199
11,54182	1590
11,54593	2333
11,55005	2024
11,55417	3027
11,55830	4413
11,56242	8748
11,56653	20560
11,57067	49513
11,57478	96708
11,57890	184112
11,58303	315991
11,58715	480304
11,59127	657471
11,59540	810588
11,59952	895665
11,60363	902046
11,60777	840835
11,61188	714217
11,61600	566772
11,62013	423893
11,62425	302064
11,62837	212122
11,63250	151690
11,63662	109351
11,64073	80067
11,64485	60916
11,64898	48961
11,65310	37471
11,65722	31762
11,66135	26283
11,66547	22606
11,66958	18616
11,67372	16926
11,67783	14402
11,68195	12164
11,68608	11421
11,69020	11394
11,69432	10133
11,69845	8431
11,70257	7566
11,70668	7217
11,71082	6195
11,71493	7632
11,71905	6106
11,72318	6437
11,72730	4783
11,73142	5801
11,73553	7287
11,73967	7356
11,74378	17526
11,74790	35403
11,75203	86788
11,75615	186597
11,76027	361240
11,76440	636918
11,76852	1006813
11,77263	1488641
11,77677	2007584
11,78088	2506151
11,78500	2889896
11,78913	3025260
11,79325	2902490
11,79737	2512339
11,80150	1982491
11,80562	1431932
11,80973	991203
11,81387	669006
11,81798	452317
11,82210	320796
11,82622	230488
11,83035	173852
11,83447	139257
11,83858	108008
11,84272	90531
11,84683	76845
11,85095	65530
11,85508	55792
11,85920	50480
11,86332	44375
11,86745	39710
11,87157	35208
11,87568	31240
11,87982	28628
11,88393	26835
11,88805	25798
11,89218	21826
11,89630	21960
11,90042	19629
11,90455	18161
11,90867	15400
11,91278	15687
11,91690	13798
11,92103	13906
11,92515	12839
11,92927	11592
11,93340	11040
11,93752	10964
11,94163	10325
11,94577	9394
11,94988	8433
11,95400	7134
11,95813	7516
11,96225	7713
11,96637	8069
11,97050	7782
11,97462	9848
11,97873	9924
11,98287	11973
11,98698	10414
11,99110	8963
11,99523	7206
11,99935	5593
12,00347	5646
12,00758	5802
12,01172	5185
12,01583	5293
12,01995	4868
12,02408	5152
12,02820	4418
12,03232	3308
12,03645	4472
12,04057	3907
12,04468	4467
12,04882	5073
12,05293	4316
12,05705	5382
12,06118	4971
12,06530	4492
12,06942	4517
12,07355	4378
12,07767	4622
12,08178	4252
12,08592	4246
12,09003	3621
12,09415	3672
12,09827	4331
12,10240	3858
12,10652	2833
12,11063	3331
12,11477	3977
12,11888	3647
12,12300	3545
12,12713	4389
12,13125	5508
12,13537	5297
12,13950	4656
12,14362	4358
12,14773	4016
12,15187	4536
12,15598	4706
12,16010	4712
12,16423	7897
12,16835	15280
12,17247	35980
12,17660	75671
12,18072	151538
12,18483	264083
12,18895	425227
12,19308	605403
12,19720	788392
12,20132	919526
12,20545	952173
12,20957	901012
12,21368	788818
12,21782	631248
12,22193	481827
12,22605	340969
12,23018	238482
12,23430	167642
12,23842	122803
12,24255	93468
12,24667	68360
12,25078	53793
12,25492	45993
12,25903	37727
12,26315	30130
12,26728	28807
12,27140	25396
12,27552	22408
12,27965	20297
12,28377	20657
12,28788	19576
12,29200	18153
12,29613	17619
12,30025	16970
12,30437	16086
12,30850	12297
12,31262	11771
12,31673	10352
12,32087	10618
12,32498	11433
12,32910	10993
12,33323	12335
12,33735	14168
12,34147	15282
12,34560	16403
12,34972	14246
12,35383	13462
12,35797	12746
12,36208	11648
12,36620	9527
12,37033	9471
12,37445	5719
12,37857	5863
12,38268	5638
12,38682	4149
12,39093	3834
12,39505	3910
12,39918	4219
12,40330	4107
12,40742	3810
12,41155	4953
12,41567	4990
12,41978	6440
12,42392	14481
12,42803	29737
12,43215	67022
12,43628	135724
12,44040	251095
12,44452	408213
12,44865	596260
12,45277	795427
12,45688	949151
12,46102	1022134
12,46513	1004984
12,46925	890201
12,47337	723907
12,47750	550923
12,48162	399411
12,48573	279083
12,48987	197081
12,49398	138159
12,49810	100999
12,50223	76332
12,50635	59231
12,51047	44904
12,51460	37596
12,51872	29835
12,52283	27437
12,52697	23416
12,53108	20495
12,53520	20158
12,53933	18177
12,54345	15092
12,54757	15363
12,55170	12355
12,55582	13515
12,55993	11502
12,56405	9663
12,56818	9645
12,57230	8810
12,57642	8991
12,58055	8353
12,58467	7131
12,58878	7063
12,59292	6478
12,59703	5713
12,60115	6432
12,60528	6024
12,60940	5596
12,61352	5608
12,61765	4377
12,62177	5452
12,62588	4849
12,63002	6529
12,63413	5246
12,63825	6407
12,64238	6861
12,64650	7160
12,65062	5922
12,65473	5331
12,65887	4649
12,66298	4623
12,66710	4319
12,67123	4545
12,67535	3358
12,67947	4993
12,68360	4095
12,68772	3377
12,69183	4108
12,69597	2834
12,70008	3501
12,70420	3728
12,70833	3641
12,71245	2965
12,71657	3481
12,72070	3189
12,72482	3425
12,72893	4092
12,73307	3068
12,73718	3677
12,74130	4496
12,74542	3320
12,74955	4010
12,75367	3181
12,75778	3550
12,76192	2713
12,76603	3751
12,77015	4253
12,77428	4229
12,77840	3228
12,78252	4113
12,78665	3859
12,79077	4619
12,79488	3049
12,79902	2624
12,80313	3831
12,80725	3656
12,81138	2959
12,81550	3283
12,81962	3032
12,82375	3705
12,82787	4766
12,83198	8760
12,83610	16900
12,84023	39620
12,84435	85890
12,84847	162673
12,85260	294559
12,85672	463387
12,86083	660199
12,86497	862222
12,86908	983832
12,87320	1012258
12,87733	942352
12,88145	801019
12,88557	640324
12,88970	478743
12,89382	342567
12,89793	245000
12,90207	169479
12,90618	126579
12,91030	93727
12,91443	73615
12,91855	55270
12,92267	46378
12,92678	39125
12,93092	32500
12,93503	26598
12,93915	24575
12,94328	21520
12,94740	18692
12,95152	17637
12,95565	15794
12,95977	14147
12,96388	12313
12,96802	12479
12,97213	11209
12,97625	9802
12,98038	9964
12,98450	9104
12,98862	8739
12,99275	7250
12,99687	6296
13,00098	6385
13,00512	6179
13,00923	6450
13,01335	6406
13,01747	7208
13,02160	5886
13,02572	5299
13,02983	5523
13,03397	5120
13,03808	5067
13,04220	4284
13,04633	4879
13,05045	4164
13,05457	4641
13,05870	5279
13,06282	4641
13,06693	3773
13,07107	6075
13,07518	9706
13,07930	20009
13,08343	47049
13,08755	103953
13,09167	202492
13,09580	366078
13,09992	613705
13,10403	931624
13,10815	1303370
13,11228	1664395
13,11640	1978698
13,12052	2144577
13,12465	2118877
13,12877	1920916
13,13288	1578948
13,13702	1186100
13,14113	849297
13,14525	595893
13,14938	409030
13,15350	287647
13,15762	215248
13,16175	160380
13,16587	124347
13,16998	100834
13,17412	84931
13,17823	70328
13,18235	60193
13,18648	51316
13,19060	46329
13,19472	42186
13,19883	35322
13,20297	33862
13,20708	30581
13,21120	28154
13,21533	25145
13,21945	22660
13,22357	22065
13,22770	20632
13,23182	18167
13,23593	16374
13,24007	18500
13,24418	15687
13,24830	13800
13,25243	13976
13,25655	13390
13,26067	13202
13,26480	12083
13,26892	11265
13,27303	11188
13,27717	9365
13,28128	10029
13,28540	9248
13,28952	8597
13,29365	7928
13,29777	8684
13,30188	12383
13,30602	16752
13,31013	32430
13,31425	64470
13,31838	125010
13,32250	227628
13,32662	373973
13,33075	546601
13,33487	746123
13,33898	912671
13,34312	1008993
13,34723	1009023
13,35135	940035
13,35548	785970
13,35960	635303
13,36372	476859
13,36785	349806
13,37197	245868
13,37608	176629
13,38020	127673
13,38433	92214
13,38845	70556
13,39257	61373
13,39670	50670
13,40082	42678
13,40493	37305
13,40907	33276
13,41318	29509
13,41730	27296
13,42143	29843
13,42555	37753
13,42967	63467
13,43380	118556
13,43792	217107
13,44203	393976
13,44617	632010
13,45028	956566
13,45440	1346335
13,45853	1689385
13,46265	1975007
13,46677	2079448
13,47088	1972429
13,47502	1701378
13,47913	1348821
13,48325	1004592
13,48738	713770
13,49150	498134
13,49562	348826
13,49975	253506
13,50387	191920
13,50798	144038
13,51212	119451
13,51623	98243
13,52035	82664
13,52448	70161
13,52860	62003
13,53272	54633
13,53685	46324
13,54097	43222
13,54508	37650
13,54922	33399
13,55333	32590
13,55745	28436
13,56157	27674
13,56570	25160
13,56982	24236
13,57393	22342
13,57807	21677
13,58218	19643
13,58630	18306
13,59043	18958
13,59455	15648
13,59867	14778
13,60280	15699
13,60692	14044
13,61103	13307
13,61517	12894
13,61928	12262
13,62340	11473
13,62753	11307
13,63165	10139
13,63577	9033
13,63990	10183
13,64402	8396
13,64813	10232
13,65225	8636
13,65638	8126
13,66050	8796
13,66462	7987
13,66875	10363
13,67287	13331
13,67698	23663
13,68112	45599
13,68523	94936
13,68935	180491
13,69348	319557
13,69760	492714
13,70172	676674
13,70585	855602
13,70997	956327
13,71408	969338
13,71822	895924
13,72233	736030
13,72645	581343
13,73058	428097
13,73470	312015
13,73882	220555
13,74293	159076
13,74707	118735
13,75118	90504
13,75530	73775
13,75943	59281
13,76355	47406
13,76767	39664
13,77180	35498
13,77592	31031
13,78003	27362
13,78417	25219
13,78828	22099
13,79240	20144
13,79653	17841
13,80065	19061
13,80477	14681
13,80890	14679
13,81302	13310
13,81713	15555
13,82127	13324
13,82538	12590
13,82950	11739
13,83363	12061
13,83775	12405
13,84187	11818
13,84598	13072
13,85012	12248
13,85423	11851
13,85835	13359
13,86248	14349
13,86660	12974
13,87072	12000
13,87485	11780
13,87897	11995
13,88308	11404
13,88722	10642
13,89133	11094
13,89545	11071
13,89958	10038
13,90370	10750
13,90782	9708
13,91195	9596
13,91607	7627
13,92018	7222
13,92432	7069
13,92843	8222
13,93255	7316
13,93667	7837
13,94080	9319
13,94492	12651
13,94903	23431
13,95317	42743
13,95728	91509
13,96140	172413
13,96553	290825
13,96965	454674
13,97377	638398
13,97790	801934
13,98202	895328
13,98613	932540
13,99027	852284
13,99438	731681
13,99850	570802
14,00263	427353
14,00675	313741
14,01087	221444
14,01500	163166
14,01912	119047
14,02323	88663
14,02735	69671
14,03148	57042
14,03560	47286
14,03972	38931
14,04385	34775
14,04797	31495
14,05208	27797
14,05622	26423
14,06033	25560
14,06445	23422
14,06858	21864
14,07270	19316
14,07682	19548
14,08095	17297
14,08507	16349
14,08918	16405
14,09332	15266
14,09743	14248
14,10155	13158
14,10568	12433
14,10980	11473
14,11392	11466
14,11803	10979
14,12217	10437
14,12628	9743
14,13040	10268
14,13453	9777
14,13865	8862
14,14277	9098
14,14690	10568
14,15102	8568
14,15513	9169
14,15927	9265
14,16338	8343
14,16750	9257
14,17163	7820
14,17575	8421
14,17987	8961
14,18400	8725
14,18812	9206
14,19223	9390
14,19637	6903
14,20048	7843
14,20460	7286
14,20872	9008
14,21285	9838
14,21697	8407
14,22108	8770
14,22522	9845
14,22933	8399
14,23345	7742
14,23758	9024
14,24170	7658
14,24582	8587
14,24995	6050
14,25407	6783
14,25818	6098
14,26232	6403
14,26643	6205
14,27055	6907
14,27468	6727
14,27880	5863
14,28292	5555
14,28705	7076
14,29117	6388
14,29528	6534
14,29940	7350
14,30353	9695
14,30765	17365
14,31177	35168
14,31590	77123
14,32002	167367
14,32413	327103
14,32827	588908
14,33238	964016
14,33650	1453557
14,34063	2022206
14,34475	2566968
14,34887	2985261
14,35300	3162107
14,35712	3040204
14,36123	2623066
14,36537	2069555
14,36948	1538201
14,37360	1090514
14,37773	759002
14,38185	544826
14,38597	396848
14,39008	295370
14,39422	232268
14,39833	186380
14,40245	155206
14,40658	127696
14,41070	111359
14,41482	96035
14,41895	84205
14,42307	73700
14,42718	68934
14,43132	63034
14,43543	57267
14,43955	50689
14,44368	47936
14,44780	47018
14,45192	42099
14,45605	39200
14,46017	36609
14,46428	34206
14,46842	32136
14,47253	30622
14,47665	27215
14,48077	26671
14,48490	24237
14,48902	22836
14,49313	22155
14,49727	22106
14,50138	21350
14,50550	19485
14,50963	20950
14,51375	19823
14,51787	17486
14,52200	17692
14,52612	17612
14,53023	19254
14,53437	19947
14,53848	23327
14,54260	31244
14,54673	48112
14,55085	83650
14,55497	140253
14,55910	233736
14,56322	370779
14,56733	519353
14,57145	664226
14,57558	775071
14,57970	827110
14,58382	785812
14,58795	699707
14,59207	580035
14,59618	449933
14,60032	337394
14,60443	248143
14,60855	182336
14,61268	128233
14,61680	100917
14,62092	79153
14,62505	67688
14,62917	59281
14,63328	56008
14,63742	66323
14,64153	93107
14,64565	150859
14,64978	246449
14,65390	382797
14,65802	575522
14,66213	779192
14,66627	965491
14,67038	1062544
14,67450	1070620
14,67863	968196
14,68275	816135
14,68687	646907
14,69100	484862
14,69512	348557
14,69923	257797
14,70337	190325
14,70748	146093
14,71160	119091
14,71573	91861
14,71985	78906
14,72397	70859
14,72810	58735
14,73222	53601
14,73633	47802
14,74047	42755
14,74458	40645
14,74870	38233
14,75282	35201
14,75695	31885
14,76107	29524
14,76518	29337
14,76932	27467
14,77343	24360
14,77755	25045
14,78168	23012
14,78580	21134
14,78992	21310
14,79405	18948
14,79817	19894
14,80228	19316
14,80642	19255
14,81053	18988
14,81465	17450
14,81878	16218
14,82290	16840
14,82702	17395
14,83115	15959
14,83527	15387
14,83938	16338
14,84350	16265
14,84763	15566
14,85175	15803
14,85587	14996
14,86000	15035
14,86412	15019
14,86823	13892
14,87237	12524
14,87648	13656
14,88060	15287
14,88473	16797
14,88885	26497
14,89297	46229
14,89710	89732
14,90122	172802
14,90533	305399
14,90947	484800
14,91358	697485
14,91770	915557
14,92183	1091904
14,92595	1162213
14,93007	1112535
14,93418	974762
14,93832	783017
14,94243	591209
14,94655	441985
14,95068	318482
14,95480	228826
14,95892	174746
14,96305	133275
14,96717	108838
14,97128	95601
14,97542	79679
14,97953	70724
14,98365	57055
14,98778	54907
14,99190	48495
14,99602	44657
15,00015	40857
15,00427	38254
15,00838	36305
15,01252	34645
15,01663	31338
15,02075	31581
15,02487	27246
15,02900	28106
15,03312	27738
15,03723	29119
15,04137	26653
15,04548	25263
15,04960	24765
15,05373	20654
15,05785	21741
15,06197	19513
15,06610	20134
15,07022	19467
15,07433	20500
15,07847	20234
15,08258	19096
15,08670	21205
15,09083	18374
15,09495	16954
15,09907	16806
15,10320	16752
15,10732	16420
15,11143	16905
15,11555	14750
15,11968	13868
15,12380	16652
15,12792	21783
15,13205	30848
15,13617	55046
15,14028	100386
15,14442	188854
15,14853	314926
15,15265	470779
15,15678	668203
15,16090	825875
15,16502	921162
15,16915	931870
15,17327	857464
15,17738	731017
15,18152	576022
15,18563	439841
15,18975	321778
15,19388	235897
15,19800	172281
15,20212	132074
15,20623	105435
15,21037	86226
15,21448	72502
15,21860	63001
15,22273	54682
15,22685	49626
15,23097	44221
15,23510	38959
15,23922	37145
15,24333	33251
15,24747	30625
15,25158	30112
15,25570	28271
15,25983	27408
15,26395	24456
15,26807	24559
15,27220	23299
15,27632	22033
15,28043	21271
15,28457	20573
15,28868	20195
15,29280	20968
15,29692	19487
15,30105	18842
15,30517	19105
15,30928	17875
15,31342	16805
15,31753	17039
15,32165	17272
15,32578	18029
15,32990	15093
15,33402	14537
15,33815	14709
15,34227	15728
15,34638	15201
15,35052	14996
15,35463	13422
15,35875	12371
15,36288	13755
15,36700	14578
15,37112	12955
15,37525	15240
15,37937	13507
15,38348	14780
15,38760	14311
15,39173	12444
15,39585	12659
15,39997	14122
15,40410	13683
15,40822	12098
15,41233	13515
15,41647	12380
15,42058	13730
15,42470	12953
15,42883	14312
15,43295	12072
15,43707	13337
15,44120	12898
15,44532	13950
15,44943	14445
15,45357	17270
15,45768	23771
15,46180	39106
15,46593	66781
15,47005	120811
15,47417	219678
15,47830	364314
15,48242	576100
15,48653	859630
15,49065	1186054
15,49478	1573266
15,49890	1953831
15,50302	2267316
15,50715	2486259
15,51127	2508662
15,51538	2372335
15,51952	2141749
15,52363	1882119
15,52775	1604372
15,53188	1354705
15,53600	1124109
15,54012	907963
15,54425	718879
15,54837	558215
15,55248	427788
15,55662	339561
15,56073	265963
15,56485	216494
15,56898	181490
15,57310	156031
15,57722	138367
15,58133	117329
15,58547	109705
15,58958	97235
15,59370	91207
15,59783	81430
15,60195	78830
15,60607	70330
15,61020	67061
15,61432	63260
15,61843	60397
15,62257	57359
15,62668	51385
15,63080	49630
15,63493	46506
15,63905	44471
15,64317	44008
15,64730	41026
15,65142	41235
15,65553	39310
15,65967	36498
15,66378	38219
15,66790	35376
15,67202	35058
15,67615	32394
15,68027	31849
15,68438	32166
15,68852	32341
15,69263	33491
15,69675	34136
15,70088	34549
15,70500	37993
15,70912	43471
15,71325	60202
15,71737	89088
15,72148	143488
15,72562	229044
15,72973	347165
15,73385	489604
15,73798	630324
15,74210	735457
15,74622	793820
15,75035	791769
15,75447	727864
15,75858	627012
15,76270	507595
15,76683	416993
15,77095	341665
15,77507	309064
15,77920	317866
15,78332	365570
15,78743	467407
15,79157	603987
15,79568	775205
15,79980	952233
15,80393	1107684
15,80805	1267135
15,81217	1356133
15,81630	1414351
15,82042	1418001
15,82453	1365705
15,82867	1234427
15,83278	1066545
15,83690	868337
15,84103	697292
15,84515	541969
15,84927	420277
15,85338	329093
15,85752	263337
15,86163	215594
15,86575	180875
15,86988	159100
15,87400	142025
15,87812	126118
15,88225	111438
15,88637	104781
15,89048	94506
15,89462	87050
15,89873	75304
15,90285	73279
15,90698	68915
15,91110	61116
15,91522	56088
15,91935	53739
15,92347	52404
15,92758	48117
15,93172	46159
15,93583	44302
15,93995	42286
15,94407	39178
15,94820	36884
15,95232	37060
15,95643	38141
15,96057	35921
15,96468	34392
15,96880	32800
15,97293	30977
15,97705	32117
15,98117	28939
15,98530	29193
15,98942	28425
15,99353	26307
15,99767	24962
16,00178	23667
16,00590	27264
16,01003	22653
16,01415	23215
16,01827	24648
16,02240	25806
16,02652	26905
16,03063	34856
16,03475	54796
16,03888	86988
16,04300	132976
16,04712	213892
16,05125	334449
16,05537	486607
16,05948	658238
16,06362	837294
16,06773	969403
16,07185	1027175
16,07598	1012096
16,08010	922388
16,08422	763526
16,08835	618534
16,09247	485264
16,09658	375498
16,10072	290827
16,10483	234996
16,10895	190726
16,11308	156059
16,11720	135212
16,12132	116425
16,12543	102265
16,12957	92664
16,13368	83646
16,13780	77923
16,14193	69610
16,14605	64586
16,15017	61620
16,15430	57203
16,15842	51976
16,16253	53109
16,16667	47632
16,17078	47804
16,17490	44836
16,17903	43661
16,18315	41394
16,18727	40572
16,19140	42228
16,19552	39018
16,19963	39480
16,20377	36502
16,20788	33305
16,21200	33601
16,21612	31721
16,22025	30519
16,22437	28403
16,22848	29062
16,23262	28042
16,23673	26739
16,24085	26586
16,24498	27114
16,24910	25213
16,25322	26212
16,25735	24047
16,26147	26173
16,26558	22443
16,26972	23626
16,27383	24594
16,27795	23179
16,28208	23988
16,28620	23505
16,29032	27605
16,29445	32868
16,29857	47759
16,30268	68710
16,30680	110923
16,31093	176684
16,31505	271383
16,31917	405653
16,32330	539480
16,32742	676279
16,33153	774629
16,33567	825632
16,33978	816318
16,34390	750346
16,34803	655425
16,35215	538608
16,35627	432603
16,36040	339881
16,36452	274078
16,36863	212491
16,37277	173593
16,37688	138099
16,38100	119640
16,38513	104501
16,38925	92633
16,39337	85023
16,39748	88379
16,40162	96825
16,40573	120050
16,40985	160505
16,41398	219709
16,41810	300664
16,42222	397947
16,42635	498014
16,43047	567673
16,43458	625734
16,43872	625574
16,44283	593673
16,44695	537731
16,45108	460914
16,45520	379609
16,45932	301124
16,46345	240365
16,46757	193055
16,47168	158327
16,47582	128779
16,47993	107417
16,48405	90016
16,48817	79989
16,49230	70517
16,49642	63723
16,50053	55735
16,50467	52316
16,50878	50547
16,51290	46794
16,51703	43949
16,52115	42664
16,52527	38775
16,52940	38331
16,53352	36963
16,53763	33589
16,54177	33343
16,54588	33008
16,55000	29420
16,55413	31548
16,55825	31292
16,56237	28757
16,56650	27327
16,57062	26549
16,57473	26984
16,57885	27342
16,58298	28085
16,58710	27175
16,59122	25814
16,59535	24918
16,59947	25593
16,60358	25827
16,60772	25248
16,61183	23713
16,61595	26380
16,62008	33403
16,62420	41261
16,62832	59919
16,63245	91329
16,63657	147898
16,64068	232134
16,64482	346600
16,64893	508835
16,65305	704589
16,65718	928409
16,66130	1188518
16,66542	1425501
16,66953	1654787
16,67367	1795470
16,67778	1826118
16,68190	1725392
16,68603	1513856
16,69015	1251883
16,69427	988190
16,69840	766619
16,70252	600121
16,70663	477290
16,71077	383095
16,71488	312450
16,71900	265582
16,72313	231148
16,72725	202068
16,73137	179544
16,73550	162129
16,73962	145091
16,74373	130841
16,74787	121333
16,75198	113236
16,75610	104568
16,76022	97893
16,76435	92612
16,76847	85226
16,77258	82729
16,77672	75774
16,78083	72247
16,78495	66257
16,78908	63362
16,79320	63572
16,79732	59093
16,80145	56963
16,80557	54804
16,80968	51875
16,81382	50522
16,81793	49335
16,82205	46284
16,82618	45545
16,83030	42452
16,83442	43126
16,83855	39972
16,84267	40658
16,84678	38618
16,85090	39147
16,85503	36966
16,85915	37785
16,86327	36840
16,86740	33747
16,87152	33383
16,87563	31921
16,87977	32314
16,88388	32207
16,88800	32677
16,89213	30725
16,89625	28543
16,90037	31953
16,90450	28955
16,90862	30810
16,91273	26976
16,91687	29411
16,92098	29272
16,92510	28896
16,92923	30285
16,93335	27510
16,93747	26570
16,94158	27762
16,94572	26018
16,94983	26723
16,95395	26217
16,95808	24400
16,96220	25126
16,96632	27863
16,97045	28170
16,97457	36053
16,97868	47917
16,98282	70962
16,98693	108522
16,99105	162390
16,99518	240430
16,99930	338641
17,00342	460055
17,00755	589751
17,01167	713685
17,01578	802068
17,01992	854279
17,02403	838177
17,02815	780056
17,03228	693082
17,03640	583741
17,04052	486872
17,04463	399367
17,04877	320010
17,05288	265145
17,05700	222905
17,06113	183579
17,06525	162845
17,06937	139869
17,07350	125098
17,07762	111058
17,08173	102732
17,08587	90907
17,08998	86262
17,09410	79776
17,09823	74087
17,10235	67417
17,10647	65126
17,11060	61962
17,11472	62431
17,11883	57313
17,12297	56026
17,12708	51677
17,13120	49847
17,13532	46525
17,13945	48759
17,14357	46071
17,14768	44004
17,15182	46451
17,15593	44563
17,16005	45994
17,16418	43967
17,16830	44385
17,17242	43787
17,17655	38548
17,18067	39194
17,18478	36010
17,18892	34266
17,19303	32870
17,19715	30025
17,20128	33140
17,20540	29374
17,20952	30154
17,21365	28455
17,21777	27964
17,22188	30682
17,22600	26999
17,23013	26791
17,23425	25409
17,23837	26280
17,24250	27045
17,24662	23370
17,25073	23137
17,25487	25174
17,25898	23906
17,26310	23034
17,26723	24934
17,27135	24360
17,27547	23425
17,27960	23715
17,28372	23620
17,28783	21933
17,29197	25035
17,29608	23784
17,30020	22263
17,30433	22744
17,30845	20322
17,31257	22820
17,31668	22769
17,32082	21665
17,32493	22223
17,32905	20569
17,33318	24276
17,33730	23433
17,34142	24429
17,34555	24192
17,34967	23071
17,35378	26198
17,35792	24721
17,36203	23270
17,36615	23299
17,37028	21723
17,37440	22390
17,37852	21873
17,38265	20271
17,38677	19196
17,39088	21382
17,39502	18487
17,39913	19191
17,40325	18673
17,40737	17638
17,41150	18090
17,41562	19478
17,41973	18481
17,42387	18892
17,42798	15650
17,43210	18118
17,43623	19204
17,44035	17533
17,44447	19402
17,44860	16185
17,45272	18307
17,45683	17353
17,46097	16915
17,46508	16982
17,46920	17134
17,47333	16850
17,47745	18036
17,48157	18251
17,48570	18712
17,48982	18359
17,49393	19197
17,49805	19206
17,50218	20504
17,50630	20765
17,51042	18992
17,51455	17769
17,51867	19443
17,52278	20710
17,52692	19154
17,53103	18968
17,53515	19628
17,53928	17267
17,54340	18891
17,54752	19016
17,55165	18590
17,55577	17897
17,55988	17091
17,56402	18063
17,56813	19283
17,57225	18342
17,57638	15995
17,58050	17215
17,58462	20029
17,58873	17153
17,59287	18387
17,59698	20159
17,60110	17796
17,60523	18453
17,60935	18080
17,61347	17302
17,61760	18736
17,62172	16688
17,62583	17325
17,62997	15729
17,63408	15930
17,63820	16603
17,64233	15227
17,64645	18165
17,65057	16754
17,65470	16270
17,65882	16905
17,66293	16641
17,66707	17821
17,67118	17298
17,67530	17442
17,67942	17218
17,68355	18055
17,68767	18253
17,69178	19340
17,69592	17443
17,70003	17405
17,70415	17809
17,70828	18443
17,71240	15732
17,71652	15377
17,72065	15993
17,72477	15186
17,72888	16073
17,73302	17334
17,73713	16382
17,74125	15252
17,74538	16642
17,74950	15969
17,75362	15508
17,75775	15193
17,76187	15368
17,76598	17213
17,77010	15255
17,77423	16448
17,77835	16584
17,78247	17663
17,78660	18489
17,79072	18337
17,79483	17517
17,79897	15846
17,80308	17384
17,80720	16995
17,81133	17029
17,81545	16572
17,81957	16510
17,82370	16199
17,82782	16332
17,83193	15939
17,83607	15987
17,84018	15790
17,84430	15529
17,84843	15752
17,85255	14741
17,85667	15151
17,86078	16150
17,86492	16158
17,86903	15936
17,87315	16885
17,87728	15590
17,88140	16299
17,88552	15672
17,88965	15096
17,89377	16104
17,89788	15603
17,90202	16746
17,90613	15850
17,91025	17336
17,91438	16762
17,91850	17346
17,92262	14959
17,92675	17786
17,93087	17193
17,93498	16151
17,93912	16174
17,94323	16541
17,94735	14198
17,95147	15687
17,95560	17429
17,95972	17858
17,96383	15330
17,96797	15069
17,97208	15636
17,97620	15318
17,98033	15545
17,98445	14599
17,98857	15755
17,99270	16444
17,99682	15433
18,00093	16640
18,00507	16066
18,00918	17254
18,01330	16990
18,01743	15861
18,02155	16436
18,02567	15899
18,02980	15639
18,03392	16476
18,03803	15823
18,04215	17029
18,04628	18733
18,05040	23695
18,05452	31877
18,05865	42550
18,06277	60608
18,06688	87018
18,07102	123217
18,07513	174426
18,07925	228166
18,08338	286090
18,08750	345917
18,09162	385853
18,09575	414873
18,09987	426896
18,10398	421435
18,10812	398402
18,11223	366377
18,11635	324271
18,12048	282638
18,12460	241620
18,12872	203671
18,13283	172243
18,13697	145553
18,14108	124284
18,14520	104979
18,14933	95058
18,15345	84535
18,15757	74680
18,16170	67347
18,16582	62356
18,16993	54737
18,17407	51235
18,17818	48411
18,18230	44457
18,18643	44024
18,19055	42590
18,19467	39338
18,19880	38136
18,20292	35029
18,20703	32908
18,21117	33065
18,21528	32930
18,21940	31200
18,22352	29864
18,22765	29583
18,23177	27739
18,23588	27772
18,24002	27199
18,24413	26459
18,24825	25262
18,25238	24976
18,25650	25859
18,26062	25567
18,26475	23374
18,26887	24718
18,27298	24574
18,27712	23810
18,28123	22528
18,28535	23985
18,28948	22106
18,29360	23160
18,29772	21540
18,30185	21641
18,30597	20819
18,31008	22146
18,31420	21018
18,31833	20715
18,32245	19807
18,32657	20044
18,33070	20175
18,33482	20041
18,33893	19356
18,34307	19886
18,34718	21016
18,35130	20120
18,35543	19907
18,35955	19808
18,36367	19335
18,36780	19658
18,37192	20209
18,37603	19154
18,38017	17977
18,38428	18408
18,38840	17916
18,39253	18711
18,39665	18492
18,40077	19731
18,40488	19162
18,40902	18630
18,41313	19389
18,41725	16508
