D:\MassHunter\GCMS\1\data\Amal\Constant flow\140C\140C_1ml-min_6C-min_2.D Fri Aug 30 19:08:35 2024
Start of data points
5,09095,513677
5,09508,496863
5,09920,480285
5,10332,453564
5,10745,430190
5,11157,420300
5,11568,400199
5,11982,385124
5,12393,374098
5,12805,362515
5,13218,347752
5,13630,332363
5,14042,321139
5,14453,313209
5,14867,302615
5,15278,291104
5,15690,279947
5,16103,266905
5,16515,263725
5,16927,254757
5,17340,246120
5,17752,244229
5,18163,235045
5,18577,225475
5,18988,222629
5,19400,209154
5,19813,207776
5,20225,205999
5,20637,199429
5,21050,196201
5,21462,190709
5,21873,186813
5,22287,180942
5,22698,180023
5,23110,173436
5,23522,172311
5,23935,166913
5,24347,167905
5,24758,160462
5,25172,160247
5,25583,155795
5,25995,156076
5,26408,152368
5,26820,150199
5,27232,148208
5,27645,143371
5,28057,141373
5,28468,143888
5,28882,137130
5,29293,138561
5,29705,137665
5,30118,131569
5,30530,133812
5,30942,134515
5,31355,132117
5,31767,131257
5,32178,130712
5,32590,126032
5,33003,125356
5,33415,125187
5,33827,125693
5,34240,120425
5,34652,121559
5,35063,120666
5,35477,117703
5,35888,117219
5,36300,118251
5,36713,112234
5,37125,115353
5,37537,116549
5,37950,113499
5,38362,114515
5,38773,116894
5,39187,111934
5,39598,110769
5,40010,108770
5,40423,109679
5,40835,108490
5,41247,107153
5,41658,106813
5,42072,111302
5,42483,106680
5,42895,109785
5,43308,105482
5,43720,104805
5,44132,106049
5,44545,108473
5,44957,104077
5,45368,104829
5,45782,104949
5,46193,103532
5,46605,103965
5,47018,104952
5,47430,102368
5,47842,102158
5,48255,101729
5,48667,101396
5,49078,99626
5,49492,102582
5,49903,99281
5,50315,99634
5,50727,99935
5,51140,99144
5,51552,95269
5,51963,96245
5,52377,92611
5,52788,95426
5,53200,91205
5,53613,96938
5,54025,94403
5,54437,94261
5,54850,90705
5,55262,95366
5,55673,99382
5,56087,118792
5,56498,144782
5,56910,210623
5,57323,314070
5,57735,455327
5,58147,631422
5,58560,814468
5,58972,974384
5,59383,1085042
5,59795,1171162
5,60208,1191539
5,60620,1200164
5,61032,1185183
5,61445,1152931
5,61857,1131496
5,62268,1094472
5,62682,1049507
5,63093,1011397
5,63505,982133
5,63918,940882
5,64330,907343
5,64742,878934
5,65155,841628
5,65567,808948
5,65978,781239
5,66392,755619
5,66803,725841
5,67215,698206
5,67628,679228
5,68040,648559
5,68452,620319
5,68863,595717
5,69277,573971
5,69688,552525
5,70100,528145
5,70513,504796
5,70925,483291
5,71337,465476
5,71750,441843
5,72162,411377
5,72573,387827
5,72987,361920
5,73398,347056
5,73810,328134
5,74223,308222
5,74635,290865
5,75047,269236
5,75460,261229
5,75872,239809
5,76283,227542
5,76697,215448
5,77108,212258
5,77520,195327
5,77933,181455
5,78345,176197
5,78757,165246
5,79168,160690
5,79582,152324
5,79993,145308
5,80405,141338
5,80818,134624
5,81230,128606
5,81642,125773
5,82055,122540
5,82467,119123
5,82878,113988
5,83292,108354
5,83703,107892
5,84115,102038
5,84528,100218
5,84940,95461
5,85352,92455
5,85765,91249
5,86177,88365
5,86588,89350
5,87002,87467
5,87413,87092
5,87825,87162
5,88237,83215
5,88650,82038
5,89062,81616
5,89473,79176
5,89887,77042
5,90298,75918
5,90710,78074
5,91123,73985
5,91535,76771
5,91947,75631
5,92360,73294
5,92772,73261
5,93183,74485
5,93597,70430
5,94008,74160
5,94420,68974
5,94833,70278
5,95245,70829
5,95657,69237
5,96070,72160
5,96482,71383
5,96893,69996
5,97305,70456
5,97718,70737
5,98130,71091
5,98542,69344
5,98955,68549
5,99367,67748
5,99778,70321
6,00192,67333
6,00603,69761
6,01015,70470
6,01428,70190
6,01840,69933
6,02252,68196
6,02665,70857
6,03077,69938
6,03488,75935
6,03902,86975
6,04313,115415
6,04725,155312
6,05138,218637
6,05550,296687
6,05962,388606
6,06373,483246
6,06787,567134
6,07198,621961
6,07610,663658
6,08023,677107
6,08435,684896
6,08847,687012
6,09260,662009
6,09672,646863
6,10083,619618
6,10497,605404
6,10908,575376
6,11320,558290
6,11733,532775
6,12145,521381
6,12557,494746
6,12970,477380
6,13382,457413
6,13793,440079
6,14207,424227
6,14618,406362
6,15030,386888
6,15442,375048
6,15855,354093
6,16267,341285
6,16678,323115
6,17092,311386
6,17503,287907
6,17915,280504
6,18328,258303
6,18740,245679
6,19152,232455
6,19565,218110
6,19977,204022
6,20388,183820
6,20802,178241
6,21213,167910
6,21625,160686
6,22038,149580
6,22450,140135
6,22862,133926
6,23275,127368
6,23687,119678
6,24098,113947
6,24510,111381
6,24923,107701
6,25335,101326
6,25747,98010
6,26160,95056
6,26572,89142
6,26983,84674
6,27397,82839
6,27808,82041
6,28220,80727
6,28633,74748
6,29045,73084
6,29457,68819
6,29870,68016
6,30282,68940
6,30693,67565
6,31107,64170
6,31518,64610
6,31930,60949
6,32343,61854
6,32755,59825
6,33167,60335
6,33578,57564
6,33992,58204
6,34403,57732
6,34815,56927
6,35228,57914
6,35640,56347
6,36052,55988
6,36465,54275
6,36877,53439
6,37288,54430
6,37702,54352
6,38113,52109
6,38525,49661
6,38938,53307
6,39350,52659
6,39762,51544
6,40175,52882
6,40587,51461
6,40998,52278
6,41412,52031
6,41823,52158
6,42235,51128
6,42647,53746
6,43060,50422
6,43472,52180
6,43883,50367
6,44297,49652
6,44708,49104
6,45120,48865
6,45533,47558
6,45945,49102
6,46357,48891
6,46770,48679
6,47182,46763
6,47593,46150
6,48007,45955
6,48418,47380
6,48830,46887
6,49243,45811
6,49655,45456
6,50067,46841
6,50480,46463
6,50892,45198
6,51303,45337
6,51715,44738
6,52128,43694
6,52540,45741
6,52952,44635
6,53365,46263
6,53777,44306
6,54188,44469
6,54602,43989
6,55013,45094
6,55425,45383
6,55838,44648
6,56250,45345
6,56662,45497
6,57075,44280
6,57487,45572
6,57898,44998
6,58312,42849
6,58723,45789
6,59135,44644
6,59548,43925
6,59960,43325
6,60372,47620
6,60783,51226
6,61197,57814
6,61608,81519
6,62020,115422
6,62433,185255
6,62845,288227
6,63257,430407
6,63670,613860
6,64082,808361
6,64493,1010213
6,64907,1174627
6,65318,1324934
6,65730,1412462
6,66143,1454366
6,66555,1462971
6,66967,1452869
6,67380,1422528
6,67792,1374252
6,68203,1330658
6,68617,1278661
6,69028,1209118
6,69440,1149584
6,69852,1109559
6,70265,1051946
6,70677,997692
6,71088,956447
6,71502,908660
6,71913,853519
6,72325,806328
6,72738,753191
6,73150,711248
6,73562,672619
6,73975,624533
6,74387,575516
6,74798,541704
6,75212,489614
6,75623,455909
6,76035,417094
6,76448,377956
6,76860,347872
6,77272,319587
6,77685,292765
6,78097,266999
6,78508,249256
6,78920,226282
6,79333,205378
6,79745,189803
6,80157,172841
6,80570,161706
6,80982,146614
6,81393,136650
6,81807,128355
6,82218,116665
6,82630,110046
6,83043,101664
6,83455,96330
6,83867,91102
6,84280,88311
6,84692,81565
6,85103,77222
6,85517,72862
6,85928,70579
6,86340,67321
6,86753,63301
6,87165,62447
6,87577,58243
6,87988,56937
6,88402,54323
6,88813,52587
6,89225,52663
6,89638,52643
6,90050,51871
6,90462,51289
6,90875,49991
6,91287,47728
6,91698,47371
6,92112,46756
6,92523,47090
6,92935,43754
6,93348,44430
6,93760,43808
6,94172,42395
6,94585,43294
6,94997,43513
6,95408,41134
6,95822,41758
6,96233,40906
6,96645,41116
6,97057,42098
6,97470,40555
6,97882,42448
6,98293,41095
6,98707,38862
6,99118,40862
6,99530,40313
6,99943,39685
7,00355,40741
7,00767,38311
7,01180,41220
7,01592,39155
7,02003,36494
7,02417,37329
7,02828,38106
7,03240,36431
7,03653,36889
7,04065,37616
7,04477,36833
7,04890,37156
7,05302,37493
7,05713,37172
7,06125,35453
7,06538,36669
7,06950,36692
7,07362,36217
7,07775,35689
7,08187,35596
7,08598,35241
7,09012,35355
7,09423,36771
7,09835,35102
7,10248,34976
7,10660,36215
7,11072,33954
7,11485,36413
7,11897,35385
7,12308,34771
7,12722,36707
7,13133,34874
7,13545,35546
7,13958,34092
7,14370,36187
7,14782,35397
7,15193,34606
7,15607,34304
7,16018,32817
7,16430,33940
7,16843,34107
7,17255,33463
7,17667,34563
7,18080,34634
7,18492,33993
7,18903,32229
7,19317,34855
7,19728,32851
7,20140,33160
7,20553,34176
7,20965,33151
7,21377,33443
7,21790,33659
7,22202,32129
7,22613,32900
7,23027,32665
7,23438,32112
7,23850,32994
7,24262,33471
7,24675,32693
7,25087,32625
7,25498,33068
7,25912,32374
7,26323,31125
7,26735,33196
7,27148,32775
7,27560,33061
7,27972,31161
7,28385,32334
7,28797,34751
7,29208,39105
7,29622,49501
7,30033,63541
7,30445,93719
7,30858,139483
7,31270,203012
7,31682,289670
7,32095,393027
7,32507,500607
7,32918,603924
7,33330,700187
7,33743,771048
7,34155,823612
7,34567,846835
7,34980,854377
7,35392,833022
7,35803,814342
7,36217,782274
7,36628,748310
7,37040,712599
7,37453,670913
7,37865,638595
7,38277,602982
7,38690,565879
7,39102,530478
7,39513,498340
7,39927,465517
7,40338,427558
7,40750,391053
7,41163,367569
7,41575,331020
7,41987,300352
7,42400,273777
7,42812,241154
7,43223,225658
7,43635,207163
7,44048,184513
7,44460,170786
7,44872,153516
7,45285,138923
7,45697,124272
7,46108,115751
7,46522,106553
7,46933,99065
7,47345,93108
7,47758,84037
7,48170,77493
7,48582,72258
7,48995,68597
7,49407,64367
7,49818,59439
7,50232,56917
7,50643,53139
7,51055,51342
7,51468,48086
7,51880,46507
7,52292,45157
7,52703,44362
7,53117,42419
7,53528,41996
7,53940,41628
7,54353,39008
7,54765,38999
7,55177,36518
7,55590,35773
7,56002,35978
7,56413,35220
7,56827,34920
7,57238,34482
7,57650,34153
7,58063,33186
7,58475,32671
7,58887,32822
7,59300,32077
7,59712,32690
7,60123,32877
7,60537,31398
7,60948,32685
7,61360,33585
7,61772,32228
7,62185,33238
7,62597,30407
7,63008,32114
7,63422,31772
7,63833,32814
7,64245,31321
7,64658,28743
7,65070,32044
7,65482,30257
7,65895,31253
7,66307,30745
7,66718,29942
7,67132,30062
7,67543,30135
7,67955,30495
7,68368,30531
7,68780,30764
7,69192,32386
7,69605,31637
7,70017,33483
7,70428,33064
7,70840,33430
7,71253,32183
7,71665,32939
7,72077,32431
7,72490,31852
7,72902,30883
7,73313,30536
7,73727,30782
7,74138,31218
7,74550,31218
7,74963,31043
7,75375,29035
7,75787,28922
7,76200,30235
7,76612,29619
7,77023,29961
7,77437,29048
7,77848,28652
7,78260,27301
7,78673,30770
7,79085,27976
7,79497,29545
7,79908,28927
7,80322,28873
7,80733,27305
7,81145,27079
7,81558,27172
7,81970,27676
7,82382,26315
7,82795,28042
7,83207,27265
7,83618,28900
7,84032,26644
7,84443,26754
7,84855,26142
7,85268,26727
7,85680,25302
7,86092,27266
7,86505,26010
7,86917,24605
7,87328,26099
7,87742,26672
7,88153,26249
7,88565,26552
7,88977,26548
7,89390,25800
7,89802,26451
7,90213,27447
7,90627,24657
7,91038,25174
7,91450,25089
7,91863,26195
7,92275,25843
7,92687,25040
7,93100,25005
7,93512,26050
7,93923,25191
7,94337,25431
7,94748,24240
7,95160,26538
7,95573,25775
7,95985,25897
7,96397,26234
7,96810,26365
7,97222,25316
7,97633,25858
7,98045,26564
7,98458,26631
7,98870,25933
7,99282,26926
7,99695,27935
8,00107,28108
8,00518,29461
8,00932,27994
8,01343,28668
8,01755,29066
8,02168,30270
8,02580,30049
8,02992,28527
8,03405,31112
8,03817,30580
8,04228,30387
8,04642,30216
8,05053,29944
8,05465,30662
8,05878,32824
8,06290,36338
8,06702,51305
8,07113,72781
8,07527,116696
8,07938,188482
8,08350,298710
8,08763,458695
8,09175,649401
8,09587,877084
8,10000,1135428
8,10412,1362553
8,10823,1565347
8,11237,1729225
8,11648,1856986
8,12060,1901382
8,12473,1926229
8,12885,1895046
8,13297,1822489
8,13710,1743527
8,14122,1656310
8,14533,1554543
8,14947,1443195
8,15358,1337060
8,15770,1216925
8,16182,1113301
8,16595,1006308
8,17007,918557
8,17418,813587
8,17832,728317
8,18243,652538
8,18655,569625
8,19068,494084
8,19480,438518
8,19892,386669
8,20305,339249
8,20717,300459
8,21128,264564
8,21542,232761
8,21953,200822
8,22365,186602
8,22778,159654
8,23190,145233
8,23602,128470
8,24015,116175
8,24427,106583
8,24838,96042
8,25250,90091
8,25663,83329
8,26075,76442
8,26487,70328
8,26900,66303
8,27312,64967
8,27723,59283
8,28137,55644
8,28548,52957
8,28960,49621
8,29373,49264
8,29785,48288
8,30197,45127
8,30610,44597
8,31022,44279
8,31433,45820
8,31847,43659
8,32258,43157
8,32670,43415
8,33083,42670
8,33495,42885
8,33907,42254
8,34318,42404
8,34732,40161
8,35143,41703
8,35555,40288
8,35968,39132
8,36380,37970
8,36792,37163
8,37205,36546
8,37617,35813
8,38028,36205
8,38442,34016
8,38853,33211
8,39265,32652
8,39678,31414
8,40090,33006
8,40502,31264
8,40915,29579
8,41327,29274
8,41738,29933
8,42152,28819
8,42563,27621
8,42975,28175
8,43387,27058
8,43800,28715
8,44212,26109
8,44623,26538
8,45037,26675
8,45448,26308
8,45860,26061
8,46273,26007
8,46685,26457
8,47097,25335
8,47510,25561
8,47922,25102
8,48333,25022
8,48747,25434
8,49158,25695
8,49570,26002
8,49983,25078
8,50395,25931
8,50807,28229
8,51220,26595
8,51632,28439
8,52043,27736
8,52455,29778
8,52868,30295
8,53280,31457
8,53692,29050
8,54105,28165
8,54517,30573
8,54928,29436
8,55342,30334
8,55753,29117
8,56165,29262
8,56578,28167
8,56990,27633
8,57402,27147
8,57815,27224
8,58227,24994
8,58638,24740
8,59052,24867
8,59463,24620
8,59875,24686
8,60288,22981
8,60700,24959
8,61112,25481
8,61523,24836
8,61937,22515
8,62348,23871
8,62760,25221
8,63173,22654
8,63585,22776
8,63997,23619
8,64410,23984
8,64822,23016
8,65233,22998
8,65647,22563
8,66058,24022
8,66470,22848
8,66883,22556
8,67295,22506
8,67707,23532
8,68120,24094
8,68532,24246
8,68943,26752
8,69357,31507
8,69768,37979
8,70180,51044
8,70592,76128
8,71005,108960
8,71417,163019
8,71828,236887
8,72242,329472
8,72653,430799
8,73065,548934
8,73478,664319
8,73890,769687
8,74302,851946
8,74715,916089
8,75127,953654
8,75538,966558
8,75952,948349
8,76363,923483
8,76775,867586
8,77188,830575
8,77600,770929
8,78012,714953
8,78425,647440
8,78837,588513
8,79248,529363
8,79660,473563
8,80073,415542
8,80485,371558
8,80897,327416
8,81310,295523
8,81722,252227
8,82133,222060
8,82547,195804
8,82958,167099
8,83370,153672
8,83783,135287
8,84195,120640
8,84607,107972
8,85020,97375
8,85432,87237
8,85843,78407
8,86257,74297
8,86668,66244
8,87080,60813
8,87493,56528
8,87905,53804
8,88317,48785
8,88728,44561
8,89142,43822
8,89553,42473
8,89965,39999
8,90378,39551
8,90790,40646
8,91202,41726
8,91615,47341
8,92027,63197
8,92438,89245
8,92852,132762
8,93263,195168
8,93675,282088
8,94088,392981
8,94500,527947
8,94912,665936
8,95325,796980
8,95737,913689
8,96148,999214
8,96562,1070037
8,96973,1095312
8,97385,1094339
8,97797,1064139
8,98210,1015394
8,98622,956407
8,99033,888088
8,99447,812998
8,99858,728720
9,00270,659216
9,00683,588237
9,01095,518407
9,01507,452655
9,01920,391360
9,02332,343497
9,02743,294683
9,03157,256829
9,03568,224487
9,03980,189679
9,04393,164933
9,04805,145480
9,05217,129650
9,05630,113652
9,06042,102647
9,06453,92159
9,06867,80740
9,07278,76018
9,07690,69163
9,08102,62634
9,08515,56463
9,08927,53602
9,09338,49405
9,09752,47737
9,10163,44625
9,10575,43457
9,10988,40268
9,11400,40716
9,11812,37525
9,12225,36205
9,12637,35584
9,13048,35628
9,13462,32318
9,13873,33834
9,14285,28983
9,14698,31890
9,15110,30091
9,15522,28501
9,15935,28327
9,16347,26966
9,16758,27582
9,17170,28410
9,17583,26258
9,17995,26610
9,18407,25833
9,18820,25211
9,19232,24667
9,19643,25345
9,20057,22853
9,20468,22158
9,20880,25488
9,21293,23853
9,21705,23212
9,22117,22603
9,22530,21439
9,22942,22188
9,23353,22007
9,23767,21983
9,24178,21906
9,24590,21374
9,25003,22264
9,25415,21617
9,25827,21663
9,26238,20632
9,26652,21170
9,27063,20226
9,27475,18566
9,27888,20902
9,28300,21723
9,28712,20541
9,29125,20282
9,29537,21729
9,29948,20405
9,30362,19994
9,30773,19497
9,31185,20063
9,31598,19154
9,32010,21125
9,32422,19618
9,32835,19982
9,33247,19351
9,33658,19103
9,34072,18884
9,34483,19480
9,34895,19859
9,35307,19038
9,35720,18632
9,36132,18847
9,36543,19238
9,36957,19537
9,37368,18038
9,37780,18390
9,38193,16805
9,38605,20112
9,39017,18911
9,39430,18477
9,39842,18350
9,40253,19001
9,40667,18834
9,41078,19725
9,41490,18403
9,41903,19324
9,42315,18905
9,42727,17857
9,43140,18973
9,43552,18471
9,43963,18308
9,44375,18348
9,44788,18654
9,45200,17826
9,45612,18754
9,46025,18074
9,46437,18329
9,46848,17933
9,47262,17861
9,47673,18023
9,48085,17161
9,48498,17671
9,48910,18733
9,49322,16980
9,49735,15031
9,50147,18236
9,50558,17129
9,50972,17215
9,51383,17406
9,51795,17751
9,52208,16418
9,52620,18238
9,53032,18640
9,53443,17732
9,53857,17023
9,54268,18214
9,54680,17048
9,55093,17116
9,55505,17217
9,55917,17806
9,56330,17543
9,56742,17043
9,57153,18295
9,57567,18807
9,57978,19565
9,58390,19953
9,58803,24411
9,59215,32761
9,59627,46116
9,60040,68343
9,60452,107966
9,60863,165235
9,61277,243582
9,61688,344300
9,62100,466489
9,62512,608497
9,62925,736466
9,63337,879796
9,63748,976863
9,64162,1042231
9,64573,1066874
9,64985,1078269
9,65398,1054946
9,65810,1024188
9,66222,955056
9,66635,870132
9,67047,797767
9,67458,710673
9,67872,630532
9,68283,556940
9,68695,477240
9,69108,416131
9,69520,351864
9,69932,306805
9,70345,261246
9,70757,223266
9,71168,194885
9,71580,170121
9,71993,146690
9,72405,127746
9,72817,110996
9,73230,99834
9,73642,92651
9,74053,78170
9,74467,73692
9,74878,64471
9,75290,60822
9,75703,58274
9,76115,52996
9,76527,46712
9,76940,46827
9,77352,43051
9,77763,40125
9,78177,37262
9,78588,36478
9,79000,34703
9,79413,34274
9,79825,32086
9,80237,33870
9,80648,35576
9,81062,40277
9,81473,53608
9,81885,78220
9,82298,127941
9,82710,209183
9,83122,341163
9,83535,536287
9,83947,807232
9,84358,1144843
9,84772,1527103
9,85183,1967019
9,85595,2451527
9,86008,2875211
9,86420,3260532
9,86832,3534777
9,87245,3677258
9,87657,3720642
9,88068,3606010
9,88482,3432178
9,88893,3158549
9,89305,2863063
9,89717,2541387
9,90130,2220743
9,90542,1925979
9,90953,1638557
9,91367,1383245
9,91778,1168920
9,92190,975081
9,92603,811591
9,93015,693501
9,93427,572186
9,93840,488637
9,94252,413388
9,94663,358077
9,95077,316169
9,95488,270858
9,95900,235954
9,96313,216034
9,96725,190495
9,97137,171207
9,97550,155843
9,97962,141724
9,98373,126615
9,98785,114395
9,99198,110798
9,99610,99824
10,00022,91730
10,00435,87704
10,00847,81185
10,01258,77268
10,01672,72338
10,02083,65899
10,02495,65094
10,02908,61119
10,03320,57631
10,03732,57457
10,04145,52163
10,04557,50801
10,04968,47408
10,05382,45731
10,05793,47775
10,06205,42073
10,06618,41177
10,07030,42690
10,07442,39632
10,07853,37706
10,08267,37407
10,08678,34902
10,09090,34874
10,09503,33995
10,09915,34343
10,10327,31297
10,10740,31051
10,11152,33268
10,11563,30088
10,11977,31271
10,12388,28539
10,12800,28256
10,13213,28179
10,13625,27078
10,14037,27984
10,14450,26944
10,14862,27351
10,15273,27662
10,15687,25691
10,16098,24433
10,16510,24680
10,16922,24434
10,17335,23259
10,17747,24153
10,18158,23721
10,18572,23213
10,18983,21558
10,19395,22314
10,19808,22895
10,20220,21958
10,20632,20902
10,21045,22469
10,21457,22010
10,21868,21059
10,22282,21073
10,22693,20609
10,23105,20929
10,23518,19374
10,23930,22639
10,24342,21074
10,24755,21204
10,25167,20364
10,25578,21452
10,25990,21351
10,26403,21782
10,26815,21377
10,27227,19937
10,27640,20970
10,28052,20099
10,28463,19355
10,28877,21349
10,29288,19205
10,29700,18824
10,30113,17938
10,30525,18049
10,30937,20476
10,31350,18668
10,31762,17177
10,32173,19974
10,32587,17872
10,32998,18730
10,33410,18887
10,33823,18270
10,34235,18759
10,34647,19449
10,35058,19558
10,35472,20261
10,35883,18726
10,36295,21344
10,36708,20547
10,37120,18520
10,37532,21863
10,37945,21606
10,38357,20779
10,38768,21965
10,39182,22870
10,39593,26395
10,40005,35750
10,40418,49411
10,40830,73173
10,41242,114125
10,41655,173083
10,42067,255594
10,42478,372153
10,42892,499880
10,43303,651924
10,43715,788519
10,44127,927942
10,44540,1044627
10,44952,1120479
10,45363,1169650
10,45777,1172105
10,46188,1138847
10,46600,1076831
10,47013,983975
10,47425,893075
10,47837,792384
10,48250,689827
10,48662,597349
10,49073,508645
10,49487,428603
10,49898,365913
10,50310,314099
10,50723,260576
10,51135,225224
10,51547,188091
10,51960,163785
10,52372,141446
10,52783,128179
10,53195,112757
10,53608,99368
10,54020,90888
10,54432,81707
10,54845,74150
10,55257,70174
10,55668,65747
10,56082,63252
10,56493,59974
10,56905,55208
10,57318,50840
10,57730,49903
10,58142,48868
10,58555,45340
10,58967,45331
10,59378,43204
10,59792,40600
10,60203,38901
10,60615,35662
10,61028,34680
10,61440,33764
10,61852,33611
10,62265,32595
10,62677,30910
10,63088,29646
10,63500,31699
10,63913,31662
10,64325,30570
10,64737,31537
10,65150,31736
10,65562,30992
10,65973,30841
10,66387,30656
10,66798,29231
10,67210,29911
10,67623,27569
10,68035,28290
10,68447,27386
10,68860,27180
10,69272,25185
10,69683,23425
10,70097,22653
10,70508,22350
10,70920,21925
10,71333,21669
10,71745,21427
10,72157,21037
10,72568,21189
10,72982,20983
10,73393,20438
10,73805,21816
10,74218,22894
10,74630,23678
10,75042,29372
10,75455,38605
10,75867,59024
10,76278,93391
10,76692,147978
10,77103,226780
10,77515,329404
10,77928,470699
10,78340,627687
10,78752,804331
10,79165,968464
10,79577,1120885
10,79988,1236526
10,80402,1308216
10,80813,1339349
10,81225,1307932
10,81637,1241516
10,82050,1145265
10,82462,1028437
10,82873,912911
10,83287,782667
10,83698,672276
10,84110,565948
10,84523,474581
10,84935,398583
10,85347,332535
10,85760,282035
10,86172,242184
10,86583,202184
10,86997,173127
10,87408,150348
10,87820,133995
10,88233,114924
10,88645,101744
10,89057,90950
10,89470,81136
10,89882,74985
10,90293,69047
10,90705,64344
10,91118,57144
10,91530,55576
10,91942,50334
10,92355,48865
10,92767,46472
10,93178,43164
10,93592,40289
10,94003,39438
10,94415,36134
10,94828,33640
10,95240,33396
10,95652,33259
10,96065,31789
10,96477,30975
10,96888,28261
10,97302,28316
10,97713,28188
10,98125,26886
10,98538,26365
10,98950,24569
10,99362,24799
10,99773,25262
11,00187,24081
11,00598,24908
11,01010,23567
11,01423,23234
11,01835,23002
11,02247,21966
11,02660,21605
11,03072,20407
11,03483,23356
11,03897,20348
11,04308,21572
11,04720,20939
11,05133,19890
11,05545,18849
11,05957,19358
11,06370,20645
11,06782,17682
11,07193,18793
11,07607,18627
11,08018,18498
11,08430,19583
11,08842,19678
11,09255,18787
11,09667,17682
11,10078,17510
11,10492,18440
11,10903,18572
11,11315,17486
11,11728,17343
11,12140,18016
11,12552,16889
11,12965,15937
11,13377,14763
11,13788,15627
11,14202,15969
11,14613,17183
11,15025,16105
11,15438,16984
11,15850,16646
11,16262,15446
11,16675,16370
11,17087,15720
11,17498,16481
11,17910,17479
11,18323,16501
11,18735,14602
11,19147,17245
11,19560,15004
11,19972,16687
11,20383,15553
11,20797,15173
11,21208,15653
11,21620,14671
11,22033,16089
11,22445,15371
11,22857,16555
11,23270,15794
11,23682,15188
11,24093,15490
11,24507,16203
11,24918,14776
11,25330,16823
11,25743,15715
11,26155,14507
11,26567,14254
11,26978,17161
11,27392,14982
11,27803,14129
11,28215,15271
11,28628,14985
11,29040,15586
11,29452,15071
11,29865,14938
11,30277,15215
11,30688,14975
11,31102,14969
11,31513,14964
11,31925,16155
11,32338,15731
11,32750,14496
11,33162,14228
11,33575,15528
11,33987,17946
11,34398,23937
11,34812,29883
11,35223,44550
11,35635,68443
11,36047,111727
11,36460,169603
11,36872,251653
11,37283,366454
11,37697,505017
11,38108,672216
11,38520,845177
11,38933,1008636
11,39345,1163610
11,39757,1247061
11,40170,1305461
11,40582,1299863
11,40993,1268119
11,41407,1191309
11,41818,1079363
11,42230,955623
11,42643,828730
11,43055,711315
11,43467,602026
11,43880,510519
11,44292,420082
11,44703,355268
11,45115,295370
11,45528,256944
11,45940,214915
11,46352,183098
11,46765,164205
11,47177,137568
11,47588,122604
11,48002,107466
11,48413,98577
11,48825,87156
11,49238,80948
11,49650,71426
11,50062,68385
11,50475,63878
11,50887,57445
11,51298,54648
11,51712,51540
11,52123,48271
11,52535,44690
11,52948,39940
11,53360,40783
11,53772,37813
11,54183,38185
11,54597,36240
11,55008,32669
11,55420,32074
11,55833,30008
11,56245,29113
11,56657,29900
11,57070,31391
11,57482,28582
11,57893,27281
11,58307,26666
11,58718,24727
11,59130,25567
11,59543,23253
11,59955,24147
11,60367,25573
11,60780,25699
11,61192,22005
11,61603,23363
11,62017,22275
11,62428,21062
11,62840,20687
11,63252,21237
11,63665,20203
11,64077,19986
11,64488,20845
11,64902,22751
11,65313,20578
11,65725,18316
11,66138,19276
11,66550,18663
11,66962,18598
11,67375,17588
11,67787,18229
11,68198,19153
11,68612,16683
11,69023,20044
11,69435,23122
11,69848,27165
11,70260,36345
11,70672,60049
11,71085,101508
11,71497,165679
11,71908,271395
11,72320,431827
11,72733,640641
11,73145,915794
11,73557,1231938
11,73970,1600776
11,74382,1969335
11,74793,2324031
11,75207,2631253
11,75618,2869530
11,76030,2998335
11,76443,2968477
11,76855,2852218
11,77267,2595935
11,77680,2339618
11,78092,2030269
11,78503,1717957
11,78917,1438897
11,79328,1196636
11,79740,983256
11,80153,815063
11,80565,676276
11,80977,561228
11,81388,471088
11,81802,402150
11,82213,346948
11,82625,296037
11,83038,261706
11,83450,227762
11,83862,205274
11,84275,179131
11,84687,162605
11,85098,148657
11,85512,133934
11,85923,123258
11,86335,112129
11,86748,106017
11,87160,96172
11,87572,88821
11,87985,81293
11,88397,80292
11,88808,74333
11,89222,68194
11,89633,67018
11,90045,63322
11,90457,57866
11,90870,58321
11,91282,52458
11,91693,52092
11,92107,48039
11,92518,50220
11,92930,47785
11,93343,43370
11,93755,43856
11,94167,43584
11,94580,40414
11,94992,37136
11,95403,37428
11,95817,35909
11,96228,33847
11,96640,35029
11,97053,33439
11,97465,31831
11,97877,31933
11,98290,31020
11,98702,31153
11,99113,28770
11,99525,30793
11,99938,27663
12,00350,27964
12,00762,26081
12,01175,25055
12,01587,26032
12,01998,24346
12,02412,25087
12,02823,24287
12,03235,25380
12,03648,25793
12,04060,27287
12,04472,33003
12,04885,39381
12,05297,55869
12,05708,83696
12,06122,132571
12,06533,199123
12,06945,302448
12,07358,436245
12,07770,597626
12,08182,784435
12,08593,968935
12,09007,1128583
12,09418,1271408
12,09830,1386987
12,10243,1424178
12,10655,1388431
12,11067,1327762
12,11480,1230104
12,11892,1103409
12,12303,958560
12,12717,821372
12,13128,696204
12,13540,588602
12,13953,489979
12,14365,414388
12,14777,348179
12,15190,292479
12,15602,248419
12,16013,213249
12,16427,188188
12,16838,162196
12,17250,142594
12,17662,128699
12,18075,115702
12,18487,103151
12,18898,93293
12,19312,86804
12,19723,80729
12,20135,70884
12,20548,68000
12,20960,64006
12,21372,63980
12,21785,65738
12,22197,70934
12,22608,90501
12,23022,124690
12,23433,182087
12,23845,277022
12,24258,411597
12,24670,609916
12,25082,871654
12,25495,1198131
12,25907,1565956
12,26318,1940408
12,26732,2286950
12,27143,2575535
12,27555,2800153
12,27967,2871230
12,28380,2841603
12,28792,2705008
12,29203,2493265
12,29617,2210509
12,30028,1927544
12,30440,1624410
12,30853,1361760
12,31265,1138695
12,31677,943175
12,32090,787663
12,32502,662035
12,32913,547498
12,33327,462081
12,33738,400393
12,34150,340573
12,34563,300773
12,34975,262487
12,35387,236891
12,35800,213301
12,36212,191511
12,36623,173236
12,37035,157967
12,37448,139019
12,37860,130419
12,38272,118078
12,38685,109030
12,39097,104019
12,39508,98001
12,39922,90004
12,40333,85383
12,40745,79851
12,41158,76565
12,41570,72445
12,41982,70004
12,42395,63472
12,42807,60401
12,43218,60353
12,43632,58395
12,44043,55746
12,44455,51888
12,44868,52095
12,45280,48843
12,45692,47331
12,46103,43201
12,46517,44151
12,46928,41897
12,47340,39107
12,47753,37082
12,48165,37303
12,48577,38595
12,48990,35298
12,49402,36066
12,49813,33815
12,50227,33490
12,50638,31653
12,51050,31564
12,51463,28673
12,51875,30904
12,52287,30551
12,52700,28078
12,53112,26018
12,53523,29366
12,53937,27492
12,54348,27039
12,54760,26155
12,55172,26303
12,55585,26729
12,55997,25529
12,56408,23120
12,56822,22838
12,57233,23407
12,57645,24199
12,58058,23765
12,58470,22666
12,58882,22159
12,59295,24431
12,59707,20636
12,60118,22818
12,60532,24417
12,60943,26653
12,61355,34292
12,61768,45466
12,62180,69468
12,62592,104047
12,63005,164860
12,63417,254738
12,63828,374929
12,64240,527897
12,64653,709457
12,65065,882315
12,65477,1055867
12,65890,1205747
12,66302,1344393
12,66713,1447784
12,67127,1535970
12,67538,1623863
12,67950,1728122
12,68363,1851824
12,68775,2027144
12,69187,2251766
12,69600,2532728
12,70012,2803746
12,70423,3041597
12,70837,3219652
12,71248,3292284
12,71660,3231976
12,72073,3072681
12,72485,2813413
12,72897,2482984
12,73308,2127176
12,73722,1796924
12,74133,1501658
12,74545,1242046
12,74958,1032368
12,75370,859159
12,75782,709720
12,76195,607419
12,76607,517151
12,77018,447358
12,77432,385622
12,77843,341165
12,78255,303268
12,78668,271919
12,79080,245561
12,79492,221907
12,79905,200879
12,80317,181702
12,80728,166947
12,81142,154074
12,81553,142262
12,81965,132196
12,82377,123277
12,82790,115249
12,83202,108032
12,83613,103821
12,84027,93605
12,84438,89098
12,84850,84340
12,85263,80393
12,85675,78181
12,86087,76196
12,86500,70034
12,86912,70912
12,87323,67121
12,87737,65265
12,88148,61377
12,88560,57972
12,88973,56152
12,89385,54241
12,89797,53482
12,90210,49040
12,90622,52351
12,91033,45886
12,91445,44925
12,91858,45876
12,92270,45129
12,92682,43336
12,93095,41498
12,93507,41689
12,93918,40070
12,94332,39861
12,94743,38875
12,95155,37928
12,95568,36874
12,95980,37211
12,96392,34859
12,96805,34892
12,97217,34501
12,97628,31158
12,98042,31866
12,98453,31757
12,98865,30229
12,99278,29513
12,99690,29889
13,00102,29366
13,00513,28163
13,00927,27978
13,01338,35088
13,01750,39029
13,02163,49196
13,02575,68014
13,02987,101290
13,03400,155086
13,03812,229777
13,04223,334440
13,04637,477028
13,05048,627086
13,05460,787811
13,05873,950861
13,06285,1090960
13,06697,1207127
13,07110,1259355
13,07522,1268022
13,07933,1221633
13,08347,1141470
13,08758,1026709
13,09170,906747
13,09582,784195
13,09995,665704
13,10407,558146
13,10818,470078
13,11232,403864
13,11643,338031
13,12055,281354
13,12468,238223
13,12880,205945
13,13292,185628
13,13705,160626
13,14117,143800
13,14528,126634
13,14942,113387
13,15353,102043
13,15765,93169
13,16178,85769
13,16590,79163
13,17002,71871
13,17415,67551
13,17827,63215
13,18238,60389
13,18650,56518
13,19063,55400
13,19475,52866
13,19887,50831
13,20300,48656
13,20712,46606
13,21123,44631
13,21537,43300
13,21948,41801
13,22360,40471
13,22773,40734
13,23185,37964
13,23597,37005
13,24010,36491
13,24422,36175
13,24833,35088
13,25247,32410
13,25658,33813
13,26070,31781
13,26483,29505
13,26895,29030
13,27307,29173
13,27718,29515
13,28132,28768
13,28543,27308
13,28955,26347
13,29368,25682
13,29780,24276
13,30192,24695
13,30605,24312
13,31017,24863
13,31428,24471
13,31842,24543
13,32253,24747
13,32665,23854
13,33078,21625
13,33490,22641
13,33902,20994
13,34315,20932
13,34727,23079
13,35138,22249
13,35552,22067
13,35963,20757
13,36375,21018
13,36787,19693
13,37200,19768
13,37612,20478
13,38023,20361
13,38437,19280
13,38848,19725
13,39260,19683
13,39673,19305
13,40085,18230
13,40497,18566
13,40910,19319
13,41322,17880
13,41733,20360
13,42147,18293
13,42558,19216
13,42970,19235
13,43383,18739
13,43795,17066
13,44207,19163
13,44620,18950
13,45032,17033
13,45443,19641
13,45855,18095
13,46268,17774
13,46680,17384
13,47092,17699
13,47505,16737
13,47917,17060
13,48328,18994
13,48742,19709
13,49153,17189
13,49565,16012
13,49978,18153
13,50390,16009
13,50802,17454
13,51215,17622
13,51627,17366
13,52038,17479
13,52452,18290
13,52863,16700
13,53275,17612
13,53688,16022
13,54100,16476
13,54512,15907
13,54923,16696
13,55337,16406
13,55748,16182
13,56160,16834
13,56573,17080
13,56985,15901
13,57397,17061
13,57810,19704
13,58222,23392
13,58633,32049
13,59047,50252
13,59458,74273
13,59870,122693
13,60283,203059
13,60695,317251
13,61107,486533
13,61520,717410
13,61932,1004944
13,62343,1362900
13,62757,1760110
13,63168,2214895
13,63580,2670608
13,63992,3084533
13,64405,3470951
13,64817,3798736
13,65228,4006471
13,65642,4120957
13,66053,4044774
13,66465,3834387
13,66878,3511100
13,67290,3092893
13,67702,2646299
13,68115,2238741
13,68527,1877731
13,68938,1549964
13,69352,1293216
13,69763,1077616
13,70175,916514
13,70588,764382
13,71000,662814
13,71412,567203
13,71825,489746
13,72237,430255
13,72648,378972
13,73062,343370
13,73473,298337
13,73885,277395
13,74297,249868
13,74710,225672
13,75122,208225
13,75533,191747
13,75947,178975
13,76358,166615
13,76770,152102
13,77183,142836
13,77595,133798
13,78007,125044
13,78420,116751
13,78832,109820
13,79243,104869
13,79657,99314
13,80068,94221
13,80480,90612
13,80893,84572
13,81305,82643
13,81717,80445
13,82130,77871
13,82542,76736
13,82953,75413
13,83365,74874
13,83778,70298
13,84190,73798
13,84602,73929
13,85015,71674
13,85427,69853
13,85838,70353
13,86252,68018
13,86663,64492
13,87075,61182
13,87488,60963
13,87900,60426
13,88312,56682
13,88725,52470
13,89137,50873
13,89548,48263
13,89962,46364
13,90373,44604
13,90785,45377
13,91198,43295
13,91610,40674
13,92022,40806
13,92433,41300
13,92847,40387
13,93258,39130
13,93670,41380
13,94083,46813
13,94495,55999
13,94907,75314
13,95320,107606
13,95732,152325
13,96143,226825
13,96557,326562
13,96968,443975
13,97380,587628
13,97793,734944
13,98205,873755
13,98617,1009520
13,99030,1089524
13,99442,1139824
13,99853,1118617
14,00267,1070573
14,00678,999554
14,01090,906985
14,01502,782956
14,01915,676949
14,02327,572307
14,02738,491765
14,03152,410838
14,03563,345847
14,03975,299165
14,04388,253958
14,04800,221810
14,05212,190500
14,05625,165205
14,06037,145001
14,06448,129499
14,06862,119493
14,07273,103484
14,07685,98102
14,08098,89633
14,08510,83916
14,08922,74597
14,09335,72636
14,09747,69639
14,10158,70899
14,10570,71891
14,10983,78916
14,11395,98221
14,11807,132634
14,12220,185576
14,12632,268042
14,13043,384775
14,13457,541687
14,13868,721916
14,14280,927496
14,14693,1123946
14,15105,1294578
14,15517,1422673
14,15930,1506801
14,16342,1532207
14,16753,1477805
14,17167,1368784
14,17578,1249513
14,17990,1098634
14,18403,940895
14,18815,801123
14,19227,678309
14,19638,570912
14,20052,493299
14,20463,415442
14,20875,354225
14,21288,308885
14,21700,270858
14,22112,236910
14,22525,207264
14,22937,187736
14,23348,170641
14,23762,152867
14,24173,141090
14,24585,128428
14,24998,120204
14,25410,112050
14,25822,105400
14,26235,94893
14,26647,90555
14,27058,84979
14,27472,78496
14,27883,74003
14,28295,70798
14,28707,66253
14,29120,62918
14,29532,58982
14,29943,58042
14,30357,56422
14,30768,56051
14,31180,54307
14,31593,49363
14,32005,48298
14,32417,47382
14,32830,45827
14,33242,44090
14,33653,43338
14,34067,42111
14,34478,40197
14,34890,40783
14,35303,38681
14,35715,37362
14,36127,37882
14,36540,36494
14,36952,34511
14,37363,35791
14,37775,33825
14,38188,33690
14,38600,31655
14,39012,31118
14,39425,32213
14,39837,32296
14,40248,30980
14,40662,29853
14,41073,29392
14,41485,30569
14,41898,29342
14,42310,30390
14,42722,27590
14,43135,27041
14,43547,28519
14,43958,28406
14,44372,26306
14,44783,28211
14,45195,26437
14,45608,27797
14,46020,25636
14,46432,26150
14,46843,26396
14,47257,26751
14,47668,24405
14,48080,24699
14,48493,25083
14,48905,24849
14,49317,23960
14,49730,25308
14,50142,24407
14,50553,24451
14,50967,23920
14,51378,24005
14,51790,25858
14,52203,28807
14,52615,31504
14,53027,39906
14,53440,54277
14,53852,81270
14,54263,125028
14,54677,198812
14,55088,304341
14,55500,449929
14,55912,627731
14,56325,847866
14,56737,1071854
14,57148,1297965
14,57562,1483286
14,57973,1612164
14,58385,1656406
14,58798,1632932
14,59210,1534286
14,59622,1418719
14,60035,1239640
14,60447,1071175
14,60858,907919
14,61272,769224
14,61683,649715
14,62095,545418
14,62508,464649
14,62920,397609
14,63332,344966
14,63745,302271
14,64157,268727
14,64568,235832
14,64980,212466
14,65393,189977
14,65805,170846
14,66217,157576
14,66630,142574
14,67042,134225
14,67453,123796
14,67867,114206
14,68278,104807
14,68690,97261
14,69103,93500
14,69515,87547
14,69927,83321
14,70340,78599
14,70752,75729
14,71163,71498
14,71577,69828
14,71988,65953
14,72400,64542
14,72813,63188
14,73225,58715
14,73637,61361
14,74048,57803
14,74462,56692
14,74873,52226
14,75285,53485
14,75698,50614
14,76110,52050
14,76522,48919
14,76935,46217
14,77347,44394
14,77758,44457
14,78172,41948
14,78583,39001
14,78995,39525
14,79408,38161
14,79820,38554
14,80232,37166
14,80645,35419
14,81057,36034
14,81468,36397
14,81882,34281
14,82293,34105
14,82705,35812
14,83117,34246
14,83530,32806
14,83942,31447
14,84353,33054
14,84767,29765
14,85178,31891
14,85590,31598
14,86003,28520
14,86415,28963
14,86827,29288
14,87240,29667
14,87652,30203
14,88063,32557
14,88477,33161
14,88888,44138
14,89300,55211
14,89713,82669
14,90125,122827
14,90537,184369
14,90950,278115
14,91362,399685
14,91773,546345
14,92185,718363
14,92598,910560
14,93010,1076031
14,93422,1202518
14,93835,1312582
14,94247,1354586
14,94658,1325525
14,95072,1251335
14,95483,1138372
14,95895,1004785
14,96308,882277
14,96720,762106
14,97132,641228
14,97545,552569
14,97957,466979
14,98368,393494
14,98782,334447
14,99193,289139
14,99605,252243
15,00018,218705
15,00430,196503
15,00842,176174
15,01253,156630
15,01667,142741
15,02078,131523
15,02490,119684
15,02903,107111
15,03315,98343
15,03727,91360
15,04140,89376
15,04552,84070
15,04963,78108
15,05377,75823
15,05788,69769
15,06200,65809
15,06613,63400
15,07025,60211
15,07437,58734
15,07850,55224
15,08262,53116
15,08673,50709
15,09087,51393
15,09498,47225
15,09910,48621
15,10322,46160
15,10735,47025
15,11147,43976
15,11558,43924
15,11972,40974
15,12383,40894
15,12795,40938
15,13208,38406
15,13620,37115
15,14032,36331
15,14445,37467
15,14857,35512
15,15268,34982
15,15682,33923
15,16093,33018
15,16505,34473
15,16918,31382
15,17330,31805
15,17742,29943
15,18155,30747
15,18567,30704
15,18978,30213
15,19390,28554
15,19803,28869
15,20215,27403
15,20627,30200
15,21040,28468
15,21452,29443
15,21863,28321
15,22277,27646
15,22688,25963
15,23100,25678
15,23513,28132
15,23925,25966
15,24337,28013
15,24750,27254
15,25162,25882
15,25573,24687
15,25987,24296
15,26398,25323
15,26810,26439
15,27223,25191
15,27635,24778
15,28047,24640
15,28458,24784
15,28872,24422
15,29283,24511
15,29695,25352
15,30108,24559
15,30520,26743
15,30932,25451
15,31345,25451
15,31757,24441
15,32168,25440
15,32582,23556
15,32993,24884
15,33405,26602
15,33818,24973
15,34230,26284
15,34642,22964
15,35055,24521
15,35467,25000
15,35878,23885
15,36292,24056
15,36703,22624
15,37115,23414
15,37528,23507
15,37940,21609
15,38352,23576
15,38763,23496
15,39177,24900
15,39588,22580
15,40000,23925
15,40413,23027
15,40825,23118
15,41237,23400
15,41650,23256
15,42062,24008
15,42473,24729
15,42887,29083
15,43298,34205
15,43710,47676
15,44123,70276
15,44535,111586
15,44947,186434
15,45360,302109
15,45772,483929
15,46183,737870
15,46597,1074948
15,47008,1504479
15,47420,2027363
15,47832,2578276
15,48245,3147569
15,48657,3663631
15,49068,4095231
15,49482,4439942
15,49893,4547117
15,50305,4482359
15,50718,4219740
15,51130,3838596
15,51542,3395104
15,51955,2904870
15,52367,2451078
15,52778,2045555
15,53192,1726975
15,53603,1454127
15,54015,1224376
15,54428,1049974
15,54840,901994
15,55252,787384
15,55665,694882
15,56077,614654
15,56488,545959
15,56900,492385
15,57313,437041
15,57725,399446
15,58137,364834
15,58550,336422
15,58962,309900
15,59373,281307
15,59787,264526
15,60198,247951
15,60610,229530
15,61023,214841
15,61435,198959
15,61847,189698
15,62260,180307
15,62672,168764
15,63083,157451
15,63497,151851
15,63908,146071
15,64320,138835
15,64733,130549
15,65145,124821
15,65557,119596
15,65968,114103
15,66382,110413
15,66793,108048
15,67205,100500
15,67618,101189
15,68030,95900
15,68442,94114
15,68855,92153
15,69267,88005
15,69678,83631
15,70092,84515
15,70503,80967
15,70915,77102
15,71328,73732
15,71740,73713
15,72152,70736
15,72565,68726
15,72977,66605
15,73388,67098
15,73802,63672
15,74213,63808
15,74625,61064
15,75037,59849
15,75450,58174
15,75862,58392
15,76273,56170
15,76687,57257
15,77098,58127
15,77510,61078
15,77923,62878
15,78335,73448
15,78747,89694
15,79160,118872
15,79572,158962
15,79983,234309
15,80397,329239
15,80808,451732
15,81220,602204
15,81633,776615
15,82045,934991
15,82457,1083702
15,82870,1197762
15,83282,1261639
15,83693,1262206
15,84105,1217890
15,84518,1142109
15,84930,1051517
15,85342,952467
15,85755,843994
15,86167,792760
15,86578,752688
15,86992,747707
15,87403,798083
15,87815,849992
15,88228,933279
15,88640,1040131
15,89052,1144001
15,89465,1217548
15,89877,1265235
15,90288,1276505
15,90702,1244336
15,91113,1170680
15,91525,1090191
15,91938,977466
15,92350,878769
15,92762,777989
15,93173,682793
15,93587,627139
15,93998,601080
15,94410,608107
15,94823,643675
15,95235,713948
15,95647,828438
15,96060,989808
15,96472,1173658
15,96883,1355501
15,97297,1535808
15,97708,1651365
15,98120,1692423
15,98533,1670491
15,98945,1581408
15,99357,1460487
15,99770,1307888
16,00182,1155209
16,00593,1005217
16,01007,876277
16,01418,753488
16,01830,654194
16,02242,562240
16,02655,500219
16,03067,444382
16,03478,396584
16,03892,351323
16,04303,315312
16,04715,289477
16,05128,263955
16,05540,240126
16,05952,223231
16,06365,212801
16,06777,195844
16,07188,180500
16,07602,172370
16,08013,162955
16,08425,150616
16,08838,145421
16,09250,133445
16,09662,130117
16,10075,126453
16,10487,116201
16,10898,115195
16,11310,106117
16,11723,102341
16,12135,99237
16,12547,96198
16,12960,89591
16,13372,87387
16,13783,88503
16,14197,83380
16,14608,80116
16,15020,77520
16,15433,78207
16,15845,75426
16,16257,71831
16,16670,69335
16,17082,65986
16,17493,67001
16,17907,66073
16,18318,63453
16,18730,62174
16,19143,58738
16,19555,59958
16,19967,58296
16,20378,55584
16,20792,56028
16,21203,55685
16,21615,54392
16,22028,52102
16,22440,52715
16,22852,51722
16,23265,53729
16,23677,51201
16,24088,50488
16,24502,49859
16,24913,49960
16,25325,47748
16,25738,49601
16,26150,47129
16,26562,48030
16,26975,45632
16,27387,46161
16,27798,44047
16,28212,46028
16,28623,40053
16,29035,42218
16,29447,43866
16,29860,42172
16,30272,41656
16,30683,41720
16,31097,41205
16,31508,45285
16,31920,49007
16,32333,58214
16,32745,71683
16,33157,94554
16,33570,133815
16,33982,192339
16,34393,286796
16,34807,404798
16,35218,562150
16,35630,779689
16,36043,987209
16,36455,1212733
16,36867,1416934
16,37280,1570211
16,37692,1634429
16,38103,1621927
16,38515,1544734
16,38928,1416429
16,39340,1271076
16,39752,1113491
16,40165,971100
16,40577,841136
16,40988,724609
16,41402,625311
16,41813,542798
16,42225,477057
16,42638,426170
16,43050,380181
16,43462,335584
16,43875,298774
16,44287,277197
16,44698,252673
16,45112,236624
16,45523,213287
16,45935,201380
16,46348,187216
16,46760,174072
16,47172,164655
16,47583,155651
16,47997,145783
16,48408,136559
16,48820,135966
16,49233,125955
16,49645,121988
16,50057,119405
16,50470,112295
16,50882,105588
16,51293,106429
16,51707,98858
16,52118,99455
16,52530,95182
16,52943,95188
16,53355,90619
16,53767,89931
16,54180,83856
16,54592,86079
16,55003,80042
16,55417,78945
16,55828,76346
16,56240,73962
16,56652,71473
16,57065,72858
16,57477,69122
16,57888,69378
16,58302,67713
16,58713,67299
16,59125,63532
16,59538,64855
16,59950,62561
16,60362,62561
16,60775,59936
16,61187,61126
16,61598,60161
16,62012,60399
16,62423,60107
16,62835,55300
16,63248,56450
16,63660,57742
16,64072,52100
16,64485,53740
16,64897,52223
16,65308,53178
16,65720,52502
16,66133,50155
16,66545,52268
16,66957,53020
16,67370,56979
16,67782,67641
16,68193,81977
16,68607,108324
16,69018,151604
16,69430,219505
16,69843,319011
16,70255,452094
16,70667,624012
16,71080,810479
16,71492,994931
16,71903,1172457
16,72317,1312600
16,72728,1369257
16,73140,1371920
16,73553,1339205
16,73965,1255142
16,74377,1139478
16,74788,1018527
16,75202,885506
16,75613,770707
16,76025,673383
16,76438,593512
16,76850,537154
16,77262,494943
16,77675,475320
16,78087,477112
16,78498,517081
16,78912,579418
16,79323,675304
16,79735,794153
16,80148,897891
16,80560,1005250
16,80972,1094356
16,81385,1157151
16,81797,1170456
16,82208,1151602
16,82622,1087493
16,83033,1003107
16,83445,911446
16,83857,814158
16,84270,711493
16,84682,613633
16,85093,534336
16,85507,465374
16,85918,406087
16,86330,359848
16,86743,316977
16,87155,279666
16,87567,251971
16,87980,225830
16,88392,211564
16,88803,187072
16,89217,173556
16,89628,162451
16,90040,150919
16,90453,141878
16,90865,131968
16,91277,125510
16,91690,119263
16,92102,113389
16,92513,105915
16,92927,100032
16,93338,98950
16,93750,96452
16,94162,91826
16,94575,90478
16,94987,87911
16,95398,85263
16,95812,81779
16,96223,78109
16,96635,74762
16,97048,70345
16,97460,70636
16,97872,68094
16,98285,65897
16,98697,66072
16,99108,66045
16,99522,61649
16,99933,63289
17,00345,60730
17,00758,61097
17,01170,61211
17,01582,58898
17,01995,57630
17,02407,56764
17,02818,57854
17,03230,53617
17,03643,52014
17,04055,57677
17,04467,54355
17,04880,53783
17,05292,49292
17,05703,53192
17,06117,50361
17,06528,50851
17,06940,48246
17,07353,51378
17,07765,52309
17,08177,49785
17,08590,48779
17,09002,45412
17,09413,45562
17,09827,47551
17,10238,44526
17,10650,46455
17,11063,45689
17,11475,43034
17,11887,45386
17,12298,44620
17,12712,44378
17,13123,42039
17,13535,42600
17,13948,42965
17,14360,43481
17,14772,43113
17,15185,40384
17,15597,43443
17,16008,41493
17,16422,40596
17,16833,42346
17,17245,42153
17,17658,43220
17,18070,45405
17,18482,52845
17,18895,65568
17,19307,80931
17,19718,108313
17,20132,149716
17,20543,213518
17,20955,310883
17,21367,437905
17,21780,625942
17,22192,872117
17,22603,1165119
17,23017,1489944
17,23428,1863584
17,23840,2253733
17,24253,2604794
17,24665,2898748
17,25077,3110571
17,25490,3151383
17,25902,3070889
17,26313,2836451
17,26727,2555185
17,27138,2253899
17,27550,1931816
17,27963,1660340
17,28375,1421175
17,28787,1211602
17,29200,1062387
17,29612,925253
17,30023,807630
17,30435,716734
17,30848,639354
17,31260,574291
17,31672,523650
17,32085,478533
17,32497,437419
17,32908,406125
17,33322,371619
17,33733,345784
17,34145,323541
17,34558,303633
17,34970,280376
17,35382,270042
17,35795,260791
17,36207,238000
17,36618,230824
17,37032,216829
17,37443,206401
17,37855,197092
17,38268,190931
17,38680,182475
17,39092,173024
17,39503,166097
17,39917,159948
17,40328,152274
17,40740,151106
17,41153,144765
17,41565,139435
17,41977,135045
17,42390,131272
17,42802,126700
17,43213,128040
17,43627,121542
17,44038,119745
17,44450,114722
17,44863,112133
17,45275,108703
17,45687,105765
17,46100,103395
17,46512,103662
17,46923,101648
17,47337,96687
17,47748,96076
17,48160,96466
17,48572,91268
17,48985,91630
17,49397,87651
17,49808,88545
17,50222,84526
17,50633,83782
17,51045,83240
17,51458,84785
17,51870,80343
17,52282,79373
17,52695,80443
17,53107,76430
17,53518,76139
17,53932,78905
17,54343,74824
17,54755,74865
17,55168,74578
17,55580,72537
17,55992,75023
17,56405,67164
17,56817,70050
17,57228,67753
17,57640,70261
17,58053,63711
17,58465,69831
17,58877,67037
17,59290,67925
17,59702,66885
17,60113,66074
17,60527,66357
17,60938,64687
17,61350,63826
17,61763,64150
17,62175,60441
17,62587,63084
17,63000,61717
17,63412,61840
17,63823,62442
17,64237,60612
17,64648,64821
17,65060,68899
17,65473,74430
17,65885,86197
17,66297,112773
17,66708,151027
17,67122,200343
17,67533,282839
17,67945,387101
17,68358,537375
17,68770,711857
17,69182,904213
17,69595,1093113
17,70007,1262425
17,70418,1397692
17,70832,1471333
17,71243,1475226
17,71655,1445126
17,72068,1344504
17,72480,1220010
17,72892,1088236
17,73305,958726
17,73717,843375
17,74128,739474
17,74542,656456
17,74953,579100
17,75365,515238
17,75777,465913
17,76190,413367
17,76602,379027
17,77013,344234
17,77427,320180
17,77838,292149
17,78250,268810
17,78663,252356
17,79075,233833
17,79487,223852
17,79900,209007
17,80312,197421
17,80723,189829
17,81137,176395
17,81548,168074
17,81960,161894
17,82373,154123
17,82785,151723
17,83197,142455
17,83610,137642
17,84022,132947
17,84433,128084
17,84845,121559
17,85258,123176
17,85670,115833
17,86082,114409
17,86495,112549
17,86907,106690
17,87318,106884
17,87732,104821
17,88143,100171
17,88555,96628
17,88968,95341
17,89380,94615
17,89792,93191
17,90205,92374
17,90617,93119
17,91028,87565
17,91442,86093
17,91853,84601
17,92265,81768
17,92678,83550
17,93090,81320
17,93502,79255
17,93913,79417
17,94327,82187
17,94738,74466
17,95150,75637
17,95563,74431
17,95975,73498
17,96387,71058
17,96800,68245
17,97212,71753
17,97623,68466
17,98037,69314
17,98448,65677
17,98860,66751
17,99273,64509
17,99685,64145
18,00097,64589
18,00510,64561
18,00922,63562
18,01333,64760
18,01747,60802
18,02158,62207
18,02570,60609
18,02982,62572
18,03395,60160
18,03807,62011
18,04218,62738
18,04632,62234
18,05043,62457
18,05455,63051
18,05868,63838
18,06280,70066
18,06692,73753
18,07105,77826
18,07517,81150
18,07928,93116
18,08342,99098
18,08753,109406
18,09165,116540
18,09578,121425
18,09990,125184
18,10402,130631
18,10815,127191
18,11227,126445
18,11638,120657
18,12050,115620
18,12463,108789
18,12875,102407
18,13287,94245
18,13700,89467
18,14112,84422
18,14523,80892
18,14937,76400
18,15348,72540
18,15760,68081
18,16173,67195
18,16585,64484
18,16997,61503
18,17410,60370
18,17822,59014
18,18233,57454
18,18647,59714
18,19058,56561
18,19470,56107
18,19883,53099
18,20295,54933
18,20707,53839
18,21118,53571
18,21532,54525
18,21943,52639
18,22355,52714
18,22768,51985
18,23180,52234
18,23592,50770
18,24005,55377
18,24417,51574
18,24828,51080
18,25242,50367
18,25653,49174
18,26065,51640
18,26478,48791
18,26890,49883
18,27302,50772
18,27715,51467
18,28127,52086
18,28538,49721
18,28952,51844
18,29363,50651
18,29775,49319
18,30187,48564
18,30600,52572
18,31012,50095
18,31423,48394
18,31837,49636
18,32248,48104
18,32660,48519
18,33073,47006
18,33485,47166
18,33897,50234
18,34310,49703
18,34722,47436
18,35133,50196
18,35547,50159
18,35958,48727
18,36370,48346
18,36783,46488
18,37195,46241
18,37607,48348
18,38020,48495
18,38432,49825
18,38843,47585
18,39255,47667
18,39668,46398
18,40080,48128
18,40492,48474
18,40905,47816
18,41317,47456
18,41728,48024
18,42142,47402
18,42553,46947
18,42965,48008
18,43378,47305
18,43790,47383
18,44202,48360
18,44615,47935
18,45027,46408
18,45438,48637
18,45852,47971
18,46263,47088
18,46675,49741
18,47088,46946
18,47500,47655
18,47912,46726
18,48325,49567
18,48737,46535
18,49148,47951
18,49560,48844
18,49973,48895
18,50385,48618
18,50797,48797
18,51210,47681
18,51622,47791
18,52033,49278
18,52447,47624
18,52858,48157
18,53270,48207
18,53683,47522
18,54095,47164
18,54507,46588
18,54920,48116
18,55332,45354
18,55743,49751
18,56157,48830
18,56568,47605
18,56980,48854
18,57393,48746
18,57805,47541
18,58217,47524
18,58628,48646
18,59042,47358
18,59453,46516
18,59865,46550
18,60278,45006
18,60690,47461
18,61102,48971
18,61515,49637
18,61927,48099
18,62338,48707
18,62752,48062
18,63163,46784
18,63575,43384
18,63988,49901
18,64400,46610
18,64812,45949
18,65225,46042
18,65637,46481
18,66048,46261
18,66462,47495
18,66873,48014
18,67285,48217
18,67697,44342
18,68110,44275
18,68522,45465
18,68933,45689
18,69347,45186
18,69758,48370
18,70170,47821
18,70583,44106
18,70995,43835
18,71407,45969
18,71820,46335
18,72232,45970
18,72643,47696
18,73057,46906
18,73468,46011
18,73880,45690
18,74293,48369
18,74705,47489
18,75117,45298
18,75530,44948
18,75942,46656
18,76353,47351
18,76765,45100
18,77178,45632
18,77590,46177
18,78002,45247
18,78415,45600
18,78827,45059
18,79238,46885
18,79652,45519
18,80063,45564
18,80475,44511
18,80888,44795
18,81300,46949
18,81712,46087
18,82125,43623
18,82537,44038
18,82948,43822
18,83362,47255
18,83773,46848
18,84185,47952
18,84598,46154
18,85010,45688
18,85422,49713
18,85833,44495
18,86247,46080
18,86658,45943
18,87070,47825
18,87483,46902
18,87895,47267
18,88307,46674
18,88720,47735
18,89132,46816
18,89543,49008
18,89957,48522
18,90368,49599
18,90780,49311
18,91193,47097
18,91605,50050
18,92017,55753
18,92430,58871
18,92842,69210
18,93253,82910
18,93667,109458
18,94078,145942
18,94490,201156
18,94902,265495
18,95315,346338
18,95727,438589
18,96138,543209
18,96552,638727
18,96963,725387
18,97375,792626
18,97788,838477
18,98200,853603
18,98612,838940
18,99025,806528
18,99437,747072
18,99848,688875
19,00262,620487
19,00673,556783
19,01085,488312
19,01498,436089
19,01910,385782
19,02322,346193
19,02735,308176
19,03147,271259
19,03558,251993
19,03970,221899
19,04383,208610
19,04795,186916
19,05207,173391
19,05620,165246
19,06032,152516
19,06443,144020
19,06857,134155
19,07268,127048
19,07680,122014
19,08093,115368
19,08505,111999
19,08917,107729
19,09330,103652
19,09742,101402
19,10153,94847
19,10567,92299
19,10978,88341
19,11390,87466
19,11803,86205
19,12215,85628
19,12627,82055
19,13038,80464
19,13452,80131
19,13863,76754
19,14275,77659
19,14688,75109
19,15100,71305
19,15512,70923
19,15925,71323
19,16337,71296
19,16748,68685
19,17162,69762
19,17573,68816
19,17985,65285
19,18398,65324
19,18810,66001
19,19222,62149
19,19635,62163
19,20047,62696
19,20458,63539
19,20872,61169
19,21283,61251
19,21695,61452
19,22107,60054
19,22520,60650
19,22932,58249
19,23343,61259
19,23757,56435
19,24168,57873
19,24580,57295
19,24993,58129
19,25405,60738
19,25817,58220
19,26230,57699
19,26642,55650
19,27053,58597
19,27467,56365
19,27878,56306
19,28290,56051
19,28703,54160
19,29115,53342
19,29527,57264
19,29940,54047
19,30352,54914
19,30763,55035
19,31175,54486
19,31588,53816
19,32000,53990
19,32412,52207
19,32825,55631
19,33237,54204
19,33648,53941
19,34062,55342
19,34473,53730
19,34885,52748
19,35298,54790
19,35710,54525
19,36122,54172
19,36535,54275
19,36947,52829
19,37358,54372
19,37772,53836
19,38183,55323
19,38595,55797
19,39008,55455
19,39420,54030
19,39832,59206
19,40243,52985
19,40657,52176
19,41068,52737
19,41480,52265
19,41893,54548
19,42305,54172
19,42717,54185
19,43130,53490
19,43542,54170
19,43953,52304
19,44367,51047
19,44778,56115
19,45190,54727
19,45603,54049
19,46015,54247
19,46427,52642
19,46840,50076
19,47252,51489
19,47663,51033
