D:\MassHunter\GCMS\1\data\Amal\Constant flow\60C\60C_1ml-min_8C-min_1.D Wed Aug 07 15:53:29 2024
Start of data points
6,59108	15732
6,59520	16130
6,59933	17122
6,60345	16338
6,60757	17939
6,61170	15481
6,61582	15307
6,61993	15507
6,62407	16255
6,62818	15966
6,63230	15123
6,63643	15536
6,64055	15276
6,64467	15769
6,64880	16202
6,65292	15045
6,65703	14410
6,66117	15455
6,66528	14025
6,66940	14776
6,67352	15757
6,67765	15373
6,68177	14865
6,68588	15296
6,69002	14493
6,69413	14569
6,69825	14609
6,70238	13596
6,70650	15321
6,71062	13921
6,71475	13765
6,71887	13742
6,72298	14744
6,72712	14057
6,73123	13795
6,73535	14064
6,73948	13886
6,74360	13310
6,74772	14324
6,75185	14015
6,75597	13950
6,76008	13777
6,76420	13483
6,76833	13416
6,77245	13727
6,77657	14078
6,78070	13321
6,78482	14190
6,78893	15896
6,79307	13253
6,79718	13419
6,80130	12641
6,80543	13188
6,80955	12825
6,81367	12887
6,81780	13193
6,82192	12926
6,82603	12828
6,83017	13883
6,83428	13077
6,83840	13030
6,84253	12139
6,84665	12122
6,85077	12991
6,85488	13076
6,85902	12691
6,86313	12756
6,86725	13250
6,87138	12937
6,87550	11701
6,87962	12874
6,88375	13523
6,88787	11992
6,89198	12625
6,89612	12490
6,90023	12489
6,90435	12500
6,90848	12680
6,91260	11643
6,91672	12238
6,92085	11300
6,92497	11255
6,92908	11140
6,93322	11479
6,93733	12060
6,94145	12276
6,94557	12144
6,94970	12588
6,95382	12399
6,95793	12003
6,96207	12090
6,96618	12099
6,97030	12435
6,97443	12658
6,97855	13719
6,98267	13487
6,98680	14210
6,99092	16775
6,99503	16120
6,99917	17551
7,00328	17290
7,00740	18987
7,01153	20328
7,01565	20115
7,01977	20682
7,02390	21723
7,02802	20281
7,03213	21226
7,03625	21244
7,04038	20992
7,04450	20569
7,04862	19028
7,05275	19589
7,05687	17428
7,06098	17047
7,06512	16654
7,06923	16687
7,07335	16548
7,07748	16285
7,08160	15256
7,08572	15486
7,08985	14853
7,09397	13126
7,09808	12962
7,10222	13414
7,10633	12523
7,11045	12912
7,11458	12222
7,11870	12530
7,12282	12609
7,12695	13072
7,13107	11280
7,13518	11775
7,13930	11888
7,14343	11032
7,14755	11808
7,15167	11093
7,15580	12384
7,15992	10580
7,16403	11254
7,16817	11155
7,17228	10656
7,17640	10529
7,18053	10618
7,18465	10063
7,18877	9911
7,19290	11145
7,19702	10551
7,20113	9181
7,20527	9885
7,20938	10651
7,21350	10241
7,21763	9778
7,22175	10154
7,22587	9591
7,22998	9900
7,23412	9308
7,23823	9643
7,24235	9931
7,24648	9604
7,25060	10070
7,25472	9659
7,25885	9371
7,26297	9591
7,26708	9269
7,27122	8837
7,27533	9121
7,27945	9631
7,28358	8817
7,28770	10151
7,29182	8501
7,29595	10848
7,30007	9082
7,30418	9830
7,30832	10940
7,31243	11179
7,31655	10983
7,32067	10467
7,32480	10522
7,32892	10949
7,33303	10091
7,33717	10716
7,34128	9862
7,34540	10261
7,34953	9878
7,35365	10389
7,35777	9979
7,36190	8931
7,36602	9622
7,37013	9819
7,37427	9007
7,37838	8516
7,38250	9533
7,38663	9581
7,39075	9348
7,39487	8812
7,39900	8812
7,40312	9290
7,40723	9223
7,41135	9707
7,41548	8549
7,41960	8943
7,42372	8856
7,42785	8335
7,43197	8941
7,43608	9545
7,44022	8765
7,44433	9425
7,44845	9063
7,45258	8946
7,45670	9003
7,46082	9684
7,46495	9008
7,46907	9282
7,47318	9898
7,47732	8824
7,48143	8922
7,48555	8368
7,48968	10283
7,49380	9307
7,49792	9530
7,50203	9326
7,50617	8935
7,51028	8827
7,51440	9287
7,51853	8491
7,52265	11464
7,52677	14860
7,53090	17959
7,53502	28313
7,53913	43060
7,54327	66231
7,54738	97747
7,55150	143519
7,55563	201480
7,55975	271587
7,56387	355779
7,56800	442175
7,57212	524250
7,57623	609220
7,58037	666414
7,58448	707614
7,58860	733090
7,59272	733780
7,59685	729237
7,60097	685000
7,60508	651066
7,60922	604504
7,61333	562860
7,61745	515751
7,62158	464532
7,62570	422789
7,62982	369460
7,63395	338514
7,63807	293050
7,64218	265364
7,64632	229359
7,65043	203250
7,65455	179582
7,65868	159179
7,66280	138997
7,66692	123056
7,67105	108336
7,67517	96045
7,67928	83454
7,68340	73084
7,68753	65001
7,69165	59188
7,69577	53826
7,69990	47409
7,70402	41747
7,70813	37852
7,71227	32113
7,71638	32005
7,72050	29361
7,72463	26879
7,72875	25851
7,73287	23634
7,73700	21522
7,74112	20391
7,74523	20071
7,74937	19722
7,75348	16559
7,75760	16332
7,76173	15753
7,76585	14114
7,76997	15362
7,77408	14012
7,77822	12341
7,78233	14242
7,78645	12904
7,79058	12904
7,79470	12828
7,79882	11465
7,80295	13107
7,80707	11536
7,81118	11922
7,81532	10532
7,81943	11120
7,82355	10500
7,82768	10696
7,83180	10060
7,83592	10191
7,84005	10535
7,84417	10277
7,84828	10934
7,85242	8891
7,85653	9539
7,86065	10437
7,86477	9519
7,86890	8452
7,87302	9283
7,87713	10001
7,88127	9491
7,88538	9084
7,88950	9146
7,89363	9039
7,89775	8445
7,90187	8901
7,90600	8283
7,91012	7834
7,91423	8562
7,91837	7601
7,92248	7578
7,92660	7723
7,93073	7614
7,93485	8073
7,93897	7841
7,94310	8205
7,94722	8635
7,95133	7812
7,95545	8229
7,95958	8022
7,96370	7282
7,96782	7125
7,97195	8127
7,97607	7952
7,98018	7112
7,98432	7066
7,98843	7259
7,99255	6831
7,99668	7065
8,00080	7265
8,00492	7408
8,00905	7006
8,01317	7413
8,01728	6727
8,02142	6711
8,02553	7008
8,02965	7126
8,03378	7255
8,03790	6646
8,04202	7270
8,04613	6246
8,05027	6458
8,05438	6982
8,05850	6930
8,06263	7545
8,06675	6627
8,07087	6041
8,07500	6459
8,07912	6974
8,08323	6174
8,08737	6775
8,09148	6066
8,09560	6091
8,09973	6450
8,10385	7426
8,10797	7403
8,11210	8735
8,11622	8236
8,12033	8926
8,12447	9892
8,12858	11883
8,13270	11591
8,13682	12232
8,14095	12114
8,14507	12440
8,14918	11207
8,15332	10811
8,15743	12254
8,16155	10875
8,16568	9488
8,16980	8615
8,17392	9041
8,17805	7423
8,18217	7270
8,18628	7239
8,19042	6688
8,19453	7143
8,19865	6694
8,20278	6130
8,20690	6658
8,21102	6248
8,21515	5557
8,21927	5676
8,22338	5770
8,22750	5951
8,23163	5226
8,23575	6909
8,23987	5628
8,24400	6171
8,24812	5731
8,25223	6061
8,25637	5861
8,26048	5730
8,26460	6442
8,26873	6581
8,27285	5973
8,27697	6059
8,28110	5443
8,28522	6173
8,28933	6059
8,29347	5661
8,29758	6449
8,30170	6488
8,30583	5260
8,30995	5924
8,31407	6093
8,31818	6304
8,32232	5578
8,32643	6223
8,33055	5703
8,33468	5680
8,33880	6539
8,34292	5581
8,34705	6256
8,35117	6038
8,35528	5681
8,35942	5421
8,36353	6163
8,36765	5151
8,37178	5155
8,37590	5676
8,38002	5777
8,38415	5601
8,38827	5608
8,39238	5828
8,39652	5449
8,40063	5441
8,40475	6017
8,40887	6541
8,41300	5563
8,41712	5262
8,42123	5399
8,42537	5650
8,42948	6131
8,43360	5364
8,43773	5478
8,44185	5934
8,44597	5187
8,45010	5523
8,45422	5627
8,45833	5884
8,46247	5122
8,46658	5406
8,47070	5017
8,47483	5807
8,47895	5551
8,48307	6369
8,48720	5265
8,49132	5227
8,49543	5195
8,49955	5367
8,50368	4798
8,50780	4918
8,51192	5109
8,51605	5177
8,52017	5386
8,52428	5200
8,52842	5461
8,53253	4726
8,53665	4818
8,54078	5133
8,54490	5052
8,54902	4866
8,55315	5915
8,55727	4545
8,56138	5628
8,56552	5582
8,56963	5039
8,57375	5491
8,57788	5363
8,58200	4773
8,58612	4623
8,59025	5221
8,59437	5440
8,59848	4691
8,60260	4968
8,60673	5194
8,61085	5519
8,61497	6129
8,61910	5816
8,62322	5730
8,62733	5360
8,63147	5509
8,63558	5754
8,63970	5467
8,64383	5692
8,64795	5355
8,65207	5624
8,65620	5410
8,66032	5250
8,66443	5592
8,66857	6285
8,67268	5328
8,67680	4447
8,68093	5851
8,68505	5625
8,68917	5529
8,69328	5702
8,69742	5505
8,70153	5112
8,70565	5263
8,70978	5322
8,71390	5098
8,71802	5350
8,72215	5363
8,72627	5251
8,73038	5128
8,73452	5081
8,73863	4690
8,74275	4910
8,74688	5398
8,75100	4571
8,75512	5022
8,75925	4355
8,76337	5070
8,76748	4654
8,77162	5314
8,77573	4551
8,77985	4953
8,78397	5419
8,78810	5229
8,79222	5266
8,79633	5311
8,80047	5447
8,80458	5356
8,80870	4985
8,81283	4694
8,81695	4966
8,82107	4610
8,82520	4889
8,82932	3997
8,83343	4420
8,83757	5043
8,84168	5521
8,84580	5259
8,84993	4425
8,85405	4057
8,85817	4703
8,86230	4851
8,86642	4621
8,87053	4700
8,87465	4658
8,87878	5026
8,88290	4801
8,88702	4187
8,89115	4185
8,89527	4406
8,89938	4463
8,90352	5159
8,90763	4090
8,91175	5388
8,91588	4778
8,92000	5246
8,92412	4535
8,92825	5199
8,93237	4624
8,93648	4616
8,94062	5154
8,94473	4403
8,94885	3991
8,95298	4547
8,95710	4639
8,96122	4705
8,96533	4509
8,96947	5000
8,97358	4141
8,97770	4662
8,98183	4604
8,98595	5053
8,99007	4221
8,99420	4058
8,99832	4488
9,00243	5030
9,00657	4348
9,01068	4476
9,01480	4527
9,01893	4719
9,02305	4279
9,02717	4099
9,03130	4147
9,03542	4014
9,03953	4511
9,04367	4289
9,04778	4280
9,05190	4858
9,05602	5035
9,06015	4643
9,06427	4816
9,06838	4322
9,07252	4845
9,07663	4585
9,08075	4355
9,08488	4527
9,08900	4319
9,09312	4622
9,09725	3777
9,10137	4087
9,10548	4437
9,10962	4173
9,11373	4834
9,11785	4249
9,12198	4676
9,12610	4217
9,13022	3844
9,13435	3816
9,13847	4501
9,14258	4164
9,14670	3934
9,15083	4425
9,15495	4422
9,15907	4563
9,16320	4891
9,16732	4517
9,17143	4309
9,17557	4499
9,17968	3834
9,18380	4121
9,18793	4455
9,19205	4665
9,19617	3594
9,20030	4061
9,20442	4169
9,20853	4185
9,21267	4507
9,21678	4527
9,22090	4041
9,22503	3958
9,22915	4087
9,23327	4338
9,23738	3935
9,24152	3948
9,24563	4395
9,24975	4722
9,25388	4752
9,25800	5168
9,26212	4978
9,26625	4957
9,27037	6508
9,27448	6404
9,27862	6670
9,28273	6321
9,28685	6283
9,29098	6266
9,29510	6675
9,29922	6531
9,30335	6691
9,30747	6215
9,31158	5824
9,31572	5679
9,31983	5969
9,32395	5173
9,32807	5352
9,33220	4430
9,33632	4193
9,34043	5169
9,34457	4240
9,34868	4737
9,35280	4427
9,35693	4667
9,36105	4317
9,36517	4323
9,36930	4697
9,37342	4671
9,37753	4204
9,38167	4239
9,38578	3781
9,38990	3837
9,39403	4164
9,39815	3673
9,40227	4351
9,40640	4164
9,41052	4353
9,41463	4467
9,41875	3840
9,42288	4311
9,42700	3928
9,43112	4044
9,43525	4591
9,43937	3838
9,44348	4564
9,44762	4351
9,45173	4301
9,45585	3948
9,45998	4276
9,46410	3950
9,46822	3886
9,47235	3799
9,47647	3978
9,48058	4652
9,48472	4194
9,48883	3899
9,49295	4217
9,49708	4699
9,50120	4064
9,50532	4231
9,50943	3429
9,51357	3931
9,51768	4019
9,52180	4022
9,52593	3713
9,53005	3765
9,53417	3469
9,53830	4399
9,54242	3626
9,54653	4073
9,55067	3506
9,55478	3574
9,55890	4019
9,56303	3844
9,56715	3715
9,57127	4313
9,57540	3495
9,57952	4313
9,58363	3926
9,58777	3698
9,59188	3327
9,59600	3927
9,60012	4321
9,60425	4048
9,60837	3741
9,61248	3405
9,61662	3700
9,62073	3566
9,62485	3779
9,62898	3695
9,63310	4223
9,63722	4030
9,64135	3927
9,64547	3997
9,64958	3540
9,65372	4114
9,65783	3825
9,66195	3730
9,66608	3987
9,67020	4004
9,67432	3217
9,67845	3239
9,68257	3631
9,68668	3692
9,69080	3237
9,69493	3347
9,69905	3833
9,70317	3223
9,70730	3877
9,71142	4249
9,71553	3897
9,71967	3259
9,72378	3903
9,72790	3982
9,73203	3799
9,73615	3714
9,74027	3332
9,74440	4360
9,74852	3979
9,75263	4352
9,75677	4113
9,76088	4403
9,76500	5280
9,76913	6888
9,77325	11567
9,77737	17992
9,78148	26544
9,78562	43756
9,78973	65118
9,79385	91463
9,79798	123925
9,80210	156439
9,80622	192745
9,81035	219389
9,81447	240590
9,81858	256197
9,82272	254274
9,82683	246723
9,83095	227744
9,83508	211324
9,83920	191509
9,84332	155862
9,84745	132460
9,85157	108915
9,85568	90295
9,85982	74538
9,86393	62440
9,86805	51117
9,87217	40984
9,87630	34313
9,88042	31497
9,88453	26072
9,88867	21879
9,89278	20076
9,89690	17110
9,90103	15390
9,90515	13713
9,90927	12785
9,91340	11986
9,91752	12040
9,92163	10287
9,92577	9399
9,92988	9766
9,93400	7796
9,93813	8223
9,94225	7176
9,94637	8313
9,95050	7378
9,95462	7597
9,95873	6965
9,96285	6679
9,96698	6602
9,97110	6314
9,97522	5976
9,97935	6143
9,98347	6219
9,98758	4866
9,99172	4950
9,99583	5063
9,99995	5162
10,00408	4882
10,00820	5633
10,01232	4966
10,01645	4320
10,02057	4228
10,02468	4150
10,02882	4858
10,03293	4751
10,03705	3923
10,04118	4666
10,04530	4356
10,04942	4299
10,05353	4577
10,05767	4016
10,06178	4455
10,06590	3918
10,07003	4748
10,07415	4446
10,07827	4154
10,08240	3429
10,08652	4110
10,09063	4318
10,09477	3498
10,09888	3396
10,10300	4773
10,10713	3607
10,11125	4645
10,11537	4133
10,11950	4364
10,12362	3734
10,12773	4258
10,13187	4281
10,13598	3488
10,14010	3667
10,14422	4456
10,14835	3099
10,15247	3794
10,15658	3704
10,16072	3704
10,16483	3263
10,16895	3912
10,17308	3369
10,17720	3888
10,18132	3956
10,18545	3896
10,18957	3278
10,19368	3572
10,19782	3679
10,20193	3147
10,20605	3289
10,21018	3309
10,21430	3422
10,21842	3434
10,22255	3302
10,22667	3070
10,23078	3599
10,23492	3393
10,23903	3099
10,24315	3222
10,24727	3527
10,25140	3015
10,25552	2895
10,25963	3783
10,26377	3889
10,26788	3678
10,27200	3309
10,27613	3244
10,28025	2913
10,28437	3884
10,28850	2852
10,29262	3844
10,29673	3577
10,30087	2887
10,30498	2719
10,30910	3934
10,31323	3390
10,31735	3499
10,32147	3067
10,32560	3710
10,32972	3297
10,33383	3590
10,33795	3439
10,34208	3675
10,34620	3361
10,35032	3854
10,35445	4510
10,35857	4188
10,36268	4443
10,36682	4134
10,37093	4800
10,37505	4714
10,37918	3907
10,38330	4555
10,38742	4111
10,39155	4601
10,39567	3374
10,39978	3861
10,40392	4056
10,40803	3791
10,41215	3700
10,41628	3856
10,42040	3382
10,42452	2970
10,42863	3034
10,43277	3263
10,43688	4068
10,44100	3042
10,44513	3106
10,44925	3376
10,45337	2949
10,45750	3153
10,46162	2996
10,46573	3388
10,46987	3479
10,47398	3465
10,47810	3006
10,48223	3626
10,48635	3218
10,49047	3547
10,49460	3043
10,49872	2988
10,50283	2606
10,50697	3049
10,51108	3160
10,51520	3079
10,51932	3345
10,52345	3197
10,52757	2754
10,53168	2836
10,53582	3242
10,53993	3091
10,54405	3184
10,54818	3756
10,55230	4364
10,55642	5230
10,56055	6325
10,56467	8529
10,56878	8735
10,57292	9074
10,57703	8858
10,58115	8350
10,58528	6246
10,58940	5995
10,59352	4987
10,59765	4999
10,60177	4145
10,60588	4389
10,61000	3753
10,61413	3195
10,61825	3109
10,62237	3670
10,62650	3477
10,63062	3566
10,63473	2861
10,63887	3136
10,64298	3429
10,64710	3277
10,65123	2448
10,65535	2748
10,65947	2760
10,66360	3632
10,66772	2848
10,67183	2877
10,67597	2754
10,68008	2818
10,68420	3201
10,68833	2392
10,69245	3230
10,69657	2518
10,70068	3572
10,70482	2920
10,70893	2750
10,71305	3025
10,71718	3741
10,72130	3526
10,72542	3514
10,72955	3362
10,73367	3139
10,73778	2938
10,74192	2987
10,74603	2622
10,75015	3426
10,75428	2904
10,75840	3128
10,76252	3167
10,76665	2984
10,77077	2960
10,77488	3104
10,77902	3086
10,78313	2962
10,78725	3327
10,79137	3218
10,79550	2716
10,79962	2532
10,80373	2630
10,80787	3626
10,81198	2417
10,81610	2792
10,82023	2869
10,82435	2862
10,82847	2758
10,83260	2890
10,83672	2815
10,84083	2515
10,84497	3078
10,84908	3057
10,85320	2603
10,85733	2551
10,86145	2736
10,86557	2967
10,86970	2415
10,87382	3164
10,87793	3010
10,88205	2637
10,88618	2850
10,89030	3297
10,89442	2732
10,89855	3147
10,90267	2991
10,90678	3164
10,91092	2973
10,91503	2756
10,91915	3394
10,92328	3099
10,92740	3090
10,93152	3829
10,93565	3581
10,93977	2950
10,94388	3588
10,94802	3300
10,95213	3346
10,95625	3356
10,96038	2576
10,96450	2976
10,96862	2683
10,97273	3172
10,97687	3211
10,98098	2908
10,98510	3395
10,98923	3191
10,99335	2624
10,99747	3153
11,00160	2735
11,00572	3741
11,00983	4022
11,01397	3743
11,01808	4495
11,02220	4027
11,02633	3921
11,03045	4288
11,03457	4643
11,03870	5163
11,04282	4532
11,04693	4622
11,05107	4484
11,05518	5841
11,05930	6449
11,06342	7361
11,06755	7515
11,07167	8333
11,07578	7869
11,07992	8777
11,08403	9940
11,08815	8932
11,09228	9507
11,09640	8783
11,10052	9256
11,10465	7402
11,10877	7142
11,11288	6450
11,11702	5171
11,12113	4845
11,12525	3824
11,12938	3689
11,13350	3182
11,13762	3359
11,14175	3225
11,14587	3482
11,14998	2489
11,15410	2943
11,15823	3559
11,16235	3794
11,16647	2668
11,17060	2695
11,17472	2671
11,17883	2820
11,18297	2471
11,18708	2445
11,19120	3046
11,19533	2968
11,19945	2828
11,20357	3246
11,20770	2588
11,21182	2637
11,21593	2983
11,22007	2959
11,22418	2773
11,22830	2913
11,23243	2557
11,23655	2811
11,24067	2725
11,24478	3237
11,24892	2491
11,25303	2808
11,25715	2753
11,26128	3203
11,26540	3074
11,26952	2853
11,27365	3025
11,27777	2645
11,28188	3513
11,28602	2240
11,29013	3121
11,29425	2629
11,29838	2951
11,30250	2998
11,30662	2279
11,31075	3143
11,31487	2210
11,31898	3021
11,32312	2951
11,32723	2958
11,33135	2891
11,33547	3239
11,33960	2921
11,34372	3131
11,34783	3457
11,35197	3999
11,35608	3794
11,36020	3423
11,36433	4336
11,36845	3949
11,37257	4204
11,37670	4025
11,38082	3369
11,38493	3698
11,38907	3672
11,39318	3578
11,39730	2885
11,40143	2951
11,40555	3624
11,40967	3104
11,41380	2497
11,41792	3726
11,42203	3041
11,42615	3388
11,43028	2969
11,43440	2760
11,43852	3288
11,44265	3318
11,44677	3312
11,45088	2981
11,45502	3398
11,45913	2913
11,46325	2845
11,46738	2558
11,47150	2704
11,47562	2721
11,47975	2805
11,48387	2234
11,48798	2469
11,49212	3127
11,49623	2787
11,50035	2868
11,50448	2208
11,50860	2577
11,51272	2922
11,51683	2559
11,52097	2742
11,52508	2852
11,52920	3049
11,53333	3168
11,53745	2781
11,54157	3293
11,54570	2642
11,54982	2293
11,55393	2262
11,55807	2452
11,56218	2582
11,56630	3119
11,57043	2657
11,57455	2512
11,57867	2479
11,58280	2153
11,58692	3437
11,59103	3383
11,59517	2857
11,59928	2367
11,60340	3148
11,60752	2484
11,61165	3763
11,61577	3200
11,61988	2879
11,62402	2507
11,62813	2574
11,63225	2591
11,63638	2684
11,64050	2580
11,64462	2486
11,64875	2892
11,65287	2803
11,65698	2248
11,66112	2925
11,66523	2963
11,66935	2535
11,67348	2406
11,67760	3211
11,68172	3136
11,68585	2800
11,68997	3914
11,69408	3524
11,69822	4065
11,70233	4027
11,70645	4426
11,71057	4039
11,71470	4104
11,71882	3587
11,72293	4457
11,72707	3157
11,73118	3877
11,73530	3574
11,73943	3213
11,74355	2957
11,74767	3276
11,75180	3412
11,75592	3004
11,76003	2980
11,76417	3181
11,76828	2337
11,77240	2518
11,77653	2302
11,78065	2974
11,78477	2471
11,78890	2709
11,79302	2517
11,79713	2906
11,80125	3049
11,80538	2637
11,80950	2587
11,81362	2986
11,81775	2727
11,82187	2737
11,82598	2695
11,83012	2365
11,83423	2323
11,83835	2413
11,84248	2666
11,84660	2947
11,85072	2830
11,85485	2709
11,85897	2594
11,86308	2535
11,86722	2981
11,87133	2254
11,87545	3040
11,87958	2368
11,88370	2644
11,88782	2879
11,89193	3025
11,89607	3669
11,90018	3130
11,90430	2065
11,90843	2586
11,91255	2421
11,91667	2430
11,92080	2613
11,92492	2945
11,92903	3296
11,93317	3109
11,93728	2377
11,94140	2873
11,94553	2398
11,94965	2803
11,95377	3146
11,95790	3079
11,96202	3540
11,96613	3490
11,97027	2705
11,97438	3124
11,97850	4102
11,98262	3945
11,98675	3916
11,99087	4247
11,99498	4146
11,99912	3569
12,00323	3939
12,00735	3647
12,01148	2865
12,01560	4254
12,01972	3927
12,02385	3311
12,02797	3782
12,03208	2494
12,03622	3753
12,04033	3251
12,04445	3239
12,04858	2805
12,05270	3007
12,05682	2561
12,06095	2942
12,06507	2680
12,06918	2714
12,07330	2605
12,07743	3264
12,08155	2494
12,08567	2619
12,08980	2953
12,09392	3342
12,09803	2787
12,10217	3168
12,10628	2779
12,11040	2553
12,11453	2595
12,11865	2675
12,12277	2502
12,12690	2691
12,13102	2443
12,13513	2969
12,13927	3191
12,14338	2682
12,14750	3206
12,15163	2850
12,15575	3955
12,15987	5001
12,16398	6588
12,16812	13994
12,17223	25879
12,17635	46946
12,18048	86083
12,18460	149694
12,18872	242340
12,19285	371735
12,19697	521375
12,20108	692173
12,20522	880687
12,20933	1043046
12,21345	1168039
12,21758	1236532
12,22170	1241150
12,22582	1179682
12,22995	1077088
12,23407	940619
12,23818	801338
12,24232	646150
12,24643	509608
12,25055	400088
12,25467	322651
12,25880	252441
12,26292	200645
12,26703	158430
12,27117	133948
12,27528	109720
12,27940	87218
12,28353	74784
12,28765	67035
12,29177	57087
12,29590	51278
12,30002	46096
12,30413	40029
12,30827	36244
12,31238	32393
12,31650	30340
12,32063	26560
12,32475	25644
12,32887	23675
12,33300	21371
12,33712	20060
12,34123	18998
12,34535	17332
12,34948	16299
12,35360	15962
12,35772	15959
12,36185	12939
12,36597	13167
12,37008	12481
12,37422	11359
12,37833	10582
12,38245	11280
12,38658	9978
12,39070	7637
12,39482	9206
12,39895	8360
12,40307	8887
12,40718	7730
12,41132	8123
12,41543	6573
12,41955	6714
12,42368	7262
12,42780	6641
12,43192	6619
12,43603	6761
12,44017	8190
12,44428	6227
12,44840	7045
12,45253	6839
12,45665	6161
12,46077	6571
12,46490	6729
12,46902	6308
12,47313	5828
12,47727	5813
12,48138	5946
12,48550	5134
12,48963	5914
12,49375	5003
12,49787	5159
12,50200	4981
12,50612	5297
12,51023	3568
12,51437	4114
12,51848	4057
12,52260	4467
12,52672	4429
12,53085	4222
12,53497	3868
12,53908	3496
12,54322	3409
12,54733	3882
12,55145	3673
12,55558	3793
12,55970	3689
12,56382	4422
12,56795	3128
12,57207	3535
12,57618	3992
12,58032	3340
12,58443	3992
12,58855	3589
12,59268	3625
12,59680	3996
12,60092	3328
12,60505	3152
12,60917	2820
12,61328	2547
12,61740	3120
12,62153	3536
12,62565	3525
12,62977	3425
12,63390	4212
12,63802	4034
12,64213	2322
12,64627	3566
12,65038	4048
12,65450	3841
12,65863	2917
12,66275	3252
12,66687	3885
12,67100	3459
12,67512	4055
12,67923	3125
12,68337	3407
12,68748	3414
12,69160	3404
12,69573	3153
12,69985	4356
12,70397	4083
12,70808	3921
12,71222	4022
12,71633	3795
12,72045	4185
12,72458	4756
12,72870	4528
12,73282	3731
12,73695	4435
12,74107	4099
12,74518	3842
12,74932	3378
12,75343	2611
12,75755	3330
12,76168	2814
12,76580	3211
12,76992	3289
12,77405	3446
12,77817	2988
12,78228	2879
12,78642	3065
12,79053	2561
12,79465	3072
12,79877	2856
12,80290	3078
12,80702	3557
12,81113	2384
12,81527	2550
12,81938	3765
12,82350	2320
12,82763	2605
12,83175	2309
12,83587	2460
12,84000	2663
12,84412	2606
12,84823	2373
12,85237	2664
12,85648	2644
12,86060	2784
12,86473	4015
12,86885	3303
12,87297	3352
12,87710	3288
12,88122	3325
12,88533	4021
12,88945	3015
12,89358	3965
12,89770	3746
12,90182	3502
12,90595	3360
12,91007	3261
12,91418	3882
12,91832	5024
12,92243	6385
12,92655	6816
12,93068	8472
12,93480	8601
12,93892	7808
12,94305	7382
12,94717	5406
12,95128	4623
12,95542	2817
12,95953	3441
12,96365	2150
12,96778	2774
12,97190	2427
12,97602	2387
12,98013	3203
12,98427	2351
12,98838	2927
12,99250	2619
12,99663	2804
13,00075	3279
13,00487	3273
13,00900	2808
13,01312	3272
13,01723	1845
13,02137	2552
13,02548	2166
13,02960	3128
13,03373	2062
13,03785	2251
13,04197	2842
13,04610	2412
13,05022	2480
13,05433	2097
13,05847	2911
13,06258	2160
13,06670	2526
13,07082	2797
13,07495	3043
13,07907	2769
13,08318	3257
13,08732	3004
13,09143	3053
13,09555	2863
13,09968	3099
13,10380	2875
13,10792	2868
13,11205	3310
13,11617	2555
13,12028	2576
13,12442	3316
13,12853	3061
13,13265	2637
13,13678	3772
13,14090	2953
13,14502	2440
13,14915	2527
13,15327	2395
13,15738	2843
13,16150	2406
13,16563	2446
13,16975	2139
13,17387	2372
13,17800	2251
13,18212	2535
13,18623	2442
13,19037	2731
13,19448	3292
13,19860	2430
13,20273	2769
13,20685	2689
13,21097	2447
13,21510	2885
13,21922	2278
13,22333	2847
13,22747	2212
13,23158	2679
13,23570	2641
13,23983	3288
13,24395	3246
13,24807	3032
13,25220	2566
13,25632	3356
13,26043	2483
13,26455	3095
13,26868	3567
13,27280	3031
13,27692	3228
13,28105	3664
13,28517	4443
13,28928	4118
13,29342	5036
13,29753	5794
13,30165	6941
13,30578	8201
13,30990	8542
13,31402	9619
13,31815	12261
13,32227	16465
13,32638	25936
13,33052	43711
13,33463	77494
13,33875	132020
13,34288	202725
13,34700	299139
13,35112	422069
13,35523	537170
13,35937	644760
13,36348	739561
13,36760	780121
13,37173	786462
13,37585	749532
13,37997	680222
13,38410	593104
13,38822	493108
13,39233	399767
13,39647	320530
13,40058	244166
13,40470	197380
13,40883	152367
13,41295	123815
13,41707	98891
13,42120	79004
13,42532	65551
13,42943	55235
13,43357	45345
13,43768	41196
13,44180	34327
13,44592	29938
13,45005	28436
13,45417	24321
13,45828	23204
13,46242	20586
13,46653	18721
13,47065	17078
13,47478	15346
13,47890	16217
13,48302	14278
13,48715	12699
13,49127	11972
13,49538	10856
13,49952	10124
13,50363	9546
13,50775	10219
13,51188	8610
13,51600	9876
13,52012	8974
13,52425	6599
13,52837	7347
13,53248	6945
13,53660	7061
13,54073	6367
13,54485	5730
13,54897	5403
13,55310	5106
13,55722	4859
13,56133	4670
13,56547	5338
13,56958	5042
13,57370	4614
13,57783	4435
13,58195	3977
13,58607	4862
13,59020	4328
13,59432	3988
13,59843	4135
13,60257	4618
13,60668	3938
13,61080	3841
13,61493	4747
13,61905	3594
13,62317	3419
13,62728	3996
13,63142	3656
13,63553	3977
13,63965	3986
13,64378	3624
13,64790	3586
13,65202	3513
13,65615	3051
13,66027	3433
13,66438	3548
13,66852	2739
13,67263	2991
13,67675	3257
13,68088	2932
13,68500	3343
13,68912	3309
13,69325	2501
13,69737	3133
13,70148	2595
13,70562	3067
13,70973	3099
13,71385	3131
13,71797	3030
13,72210	3499
13,72622	2961
13,73033	3330
13,73447	2106
13,73858	2235
13,74270	2870
13,74683	2241
13,75095	2608
13,75507	2171
13,75920	2541
13,76332	3062
13,76743	2513
13,77157	2498
13,77568	2592
13,77980	3550
13,78393	3024
13,78805	4587
13,79217	4675
13,79630	5413
13,80042	5559
13,80453	6399
13,80865	5511
13,81278	5754
13,81690	5537
13,82102	4661
13,82515	4704
13,82927	3881
13,83338	3464
13,83752	3133
13,84163	3226
13,84575	3151
13,84988	2784
13,85400	3369
13,85812	3086
13,86225	3003
13,86637	3038
13,87048	2574
13,87462	2422
13,87873	2319
13,88285	1623
13,88698	3016
13,89110	2796
13,89522	2218
13,89933	3061
13,90347	2230
13,90758	2368
13,91170	2579
13,91583	2470
13,91995	2640
13,92407	2137
13,92820	2516
13,93232	2267
13,93643	2812
13,94057	2085
13,94468	2109
13,94880	2590
13,95293	1686
13,95705	1795
13,96117	2842
13,96530	2328
13,96942	2678
13,97353	2199
13,97767	1858
13,98178	2010
13,98590	1779
13,99002	2255
13,99415	2175
13,99827	2001
14,00238	2923
14,00652	2316
14,01063	2409
14,01475	2193
14,01888	2238
14,02300	2090
14,02712	2754
14,03125	1907
14,03537	2401
14,03948	2328
14,04362	2500
14,04773	2076
14,05185	2129
14,05598	1619
14,06010	1984
14,06422	2541
14,06835	2440
14,07247	2132
14,07658	2041
14,08070	2590
14,08483	2499
14,08895	2485
14,09307	2289
14,09720	1682
14,10132	2769
14,10543	2171
14,10957	2213
14,11368	2348
14,11780	2584
14,12193	2156
14,12605	2691
14,13017	2226
14,13430	2189
14,13842	1682
14,14253	2649
14,14667	2056
14,15078	2307
14,15490	2245
14,15903	2961
14,16315	2189
14,16727	1777
14,17138	2319
14,17552	2427
14,17963	2045
14,18375	1747
14,18788	2353
14,19200	2103
14,19612	2563
14,20025	2519
14,20437	2108
14,20848	1976
14,21262	2751
14,21673	2351
14,22085	2426
14,22498	3150
14,22910	2967
14,23322	2925
14,23735	3861
14,24147	3802
14,24558	3076
14,24972	3677
14,25383	3773
14,25795	4452
14,26207	4259
14,26620	4069
14,27032	3844
14,27443	4238
14,27857	2561
14,28268	2736
14,28680	2772
14,29093	3091
14,29505	3012
14,29917	2040
14,30330	2744
14,30742	2460
14,31153	3250
14,31567	2882
14,31978	2252
14,32390	2349
14,32803	2209
14,33215	2154
14,33627	2983
14,34040	2257
14,34452	2298
14,34863	1278
14,35275	2573
14,35688	2356
14,36100	2389
14,36512	2342
14,36925	2362
14,37337	1933
14,37748	1614
14,38162	2224
14,38573	1966
14,38985	1571
14,39398	1949
14,39810	1838
14,40222	2015
14,40635	2037
14,41047	2031
14,41458	3510
14,41872	6141
14,42283	13216
14,42695	29089
14,43108	62564
14,43520	119483
14,43932	213799
14,44343	358039
14,44757	549061
14,45168	791393
14,45580	1068107
14,45993	1341428
14,46405	1604099
14,46817	1798770
14,47230	1906686
14,47642	1871960
14,48053	1742072
14,48467	1512871
14,48878	1274267
14,49290	1016062
14,49703	802287
14,50115	608410
14,50527	467663
14,50940	358281
14,51352	276765
14,51763	218477
14,52177	174511
14,52588	142619
14,53000	115997
14,53412	95958
14,53825	83172
14,54237	69239
14,54648	62153
14,55062	53642
14,55473	48526
14,55885	42050
14,56298	38133
14,56710	34726
14,57122	30025
14,57535	28737
14,57947	26114
14,58358	24068
14,58772	21134
14,59183	21347
14,59595	19442
14,60008	17474
14,60420	17408
14,60832	16427
14,61245	15095
14,61657	15226
14,62068	12760
14,62480	11714
14,62893	11930
14,63305	10829
14,63717	11998
14,64130	10834
14,64542	9015
14,64953	9860
14,65367	8281
14,65778	9444
14,66190	8906
14,66603	7846
14,67015	8148
14,67427	7380
14,67840	6982
14,68252	7332
14,68663	6660
14,69077	5638
14,69488	5216
14,69900	5912
14,70313	6171
14,70725	5485
14,71137	5582
14,71548	4397
14,71962	4340
14,72373	5110
14,72785	5009
14,73198	4921
14,73610	4480
14,74022	3803
14,74435	5105
14,74847	5075
14,75258	4323
14,75672	3846
14,76083	4100
14,76495	3594
14,76908	3807
14,77320	3750
14,77732	4348
14,78145	3803
14,78557	3769
14,78968	3652
14,79382	3771
14,79793	4115
14,80205	3198
14,80617	3602
14,81030	3378
14,81442	3497
14,81853	3494
14,82267	4010
14,82678	2923
14,83090	3294
14,83503	3099
14,83915	2943
14,84327	2735
14,84740	3660
14,85152	3203
14,85563	2997
14,85977	3042
14,86388	2530
14,86800	2513
14,87213	3509
14,87625	2102
14,88037	3013
14,88450	3592
14,88862	2554
14,89273	2344
14,89687	2419
14,90098	3087
14,90510	1970
14,90922	2375
14,91335	2888
14,91747	3141
14,92158	2842
14,92572	2850
14,92983	5246
14,93395	5770
14,93808	7310
14,94220	9001
14,94632	11212
14,95045	11817
14,95457	13717
14,95868	15893
14,96282	18221
14,96693	17265
14,97105	17762
14,97518	17493
14,97930	16152
14,98342	15982
14,98755	13403
14,99167	12584
14,99578	11337
14,99990	9700
15,00403	7350
15,00815	6929
15,01227	5956
15,01640	5122
15,02052	4972
15,02463	5029
15,02877	4083
15,03288	3548
15,03700	3025
15,04113	2957
15,04525	3145
15,04937	3112
15,05350	2272
15,05762	2661
15,06173	2990
15,06587	4809
15,06998	5820
15,07410	6135
15,07823	6976
15,08235	5973
15,08647	5058
15,09058	4688
15,09472	3040
15,09883	2584
15,10295	2264
15,10708	2055
15,11120	2429
15,11532	2427
15,11945	2116
15,12357	2189
15,12768	1917
15,13182	1964
15,13593	1860
15,14005	2537
15,14418	2977
15,14830	1817
15,15242	1557
15,15655	2115
15,16067	1635
15,16478	1730
15,16892	2266
15,17303	1944
15,17715	1732
15,18127	2251
15,18540	2107
15,18952	2410
15,19363	2223
15,19777	2053
15,20188	2425
15,20600	2085
15,21013	2230
15,21425	1875
15,21837	1920
15,22250	1899
15,22662	1616
15,23073	1345
15,23487	1747
15,23898	1714
15,24310	1222
15,24723	1714
15,25135	1746
15,25547	1350
15,25960	1969
15,26372	1964
15,26783	2006
15,27195	1729
15,27608	1852
15,28020	2227
15,28432	1638
15,28845	2000
15,29257	1621
15,29668	1924
15,30082	2475
15,30493	1656
15,30905	1715
15,31318	2088
15,31730	1910
15,32142	1595
15,32555	1807
15,32967	1803
15,33378	1545
15,33792	1976
15,34203	1602
15,34615	1750
15,35028	1859
15,35440	1197
15,35852	1472
15,36263	1337
15,36677	1422
15,37088	1662
15,37500	2052
15,37913	1110
15,38325	774
15,38737	1616
15,39150	1796
15,39562	1694
15,39973	1462
15,40387	1741
15,40798	1841
15,41210	1859
15,41623	2077
15,42035	2355
15,42447	2462
15,42860	2692
15,43272	3638
15,43683	2412
15,44097	3387
15,44508	2714
15,44920	3415
15,45332	1975
15,45745	1591
15,46157	2375
15,46568	3410
15,46982	6368
15,47393	13469
15,47805	28213
15,48218	53568
15,48630	98715
15,49042	172793
15,49455	282704
15,49867	420798
15,50278	582013
15,50692	747289
15,51103	904316
15,51515	1008333
15,51928	1050186
15,52340	1024423
15,52752	939206
15,53165	828723
15,53577	692479
15,53988	553193
15,54400	428311
15,54813	332088
15,55225	252949
15,55637	190556
15,56050	151123
15,56462	115830
15,56873	93905
15,57287	78400
15,57698	62366
15,58110	50815
15,58523	42644
15,58935	38141
15,59347	33138
15,59760	28185
15,60172	25748
15,60583	22780
15,60997	18980
15,61408	16076
15,61820	15890
15,62233	14339
15,62645	13868
15,63057	13778
15,63468	11061
15,63882	11611
15,64293	11108
15,64705	9374
15,65118	9167
15,65530	8299
15,65942	8658
15,66355	7656
15,66767	6915
15,67178	6971
15,67592	6195
15,68003	4973
15,68415	5660
15,68828	4873
15,69240	5232
15,69652	4616
15,70065	5153
15,70477	4500
15,70888	4396
15,71302	5021
15,71713	3444
15,72125	4165
15,72537	3981
15,72950	3664
15,73362	4265
15,73773	3627
15,74187	3965
15,74598	2987
15,75010	3163
15,75423	3275
15,75835	2990
15,76247	3248
15,76660	2378
15,77072	3422
15,77483	3105
15,77897	3094
15,78308	3104
15,78720	2775
15,79133	2123
15,79545	3245
15,79957	3220
15,80370	2507
15,80782	2899
15,81193	2776
15,81605	2216
15,82018	2599
15,82430	2046
15,82842	2694
15,83255	2894
15,83667	2107
15,84078	2337
15,84492	1910
15,84903	1930
15,85315	2157
15,85728	2578
15,86140	1723
15,86552	2178
15,86965	2147
15,87377	1563
15,87788	2575
15,88202	1825
15,88613	2149
15,89025	2049
15,89438	1835
15,89850	1855
15,90262	2594
15,90673	1912
15,91087	1848
15,91498	1919
15,91910	1632
15,92323	2036
15,92735	1543
15,93147	1883
15,93560	1886
15,93972	2196
15,94383	1812
15,94797	2150
15,95208	1331
15,95620	1871
15,96033	1844
15,96445	1617
15,96857	1117
15,97270	1351
15,97682	1831
15,98093	2295
15,98507	2481
15,98918	2234
15,99330	1785
15,99742	2350
16,00155	2510
16,00567	3186
16,00978	4034
16,01392	4047
16,01803	5422
16,02215	5214
16,02628	6057
16,03040	5386
16,03452	4864
16,03865	4721
16,04277	4428
16,04688	3857
16,05102	3973
16,05513	3843
16,05925	3523
16,06338	3039
16,06750	3978
16,07162	3851
16,07575	5221
16,07987	5809
16,08398	6225
16,08810	5950
16,09223	6478
16,09635	5920
16,10047	5728
16,10460	4217
16,10872	4154
16,11283	4327
16,11697	3187
16,12108	4289
16,12520	2260
16,12933	2694
16,13345	1619
16,13757	1721
16,14170	1869
16,14582	3020
16,14993	2106
16,15407	1948
16,15818	1960
16,16230	2147
16,16643	1436
16,17055	1631
16,17467	1885
16,17878	1303
16,18292	1423
16,18703	1270
16,19115	1939
16,19528	1800
16,19940	2678
16,20352	2035
16,20765	1624
16,21177	1826
16,21588	1498
16,22002	1677
16,22413	1387
16,22825	1798
16,23238	1886
16,23650	1237
16,24062	1070
16,24475	1222
16,24887	1319
16,25298	730
16,25712	1916
16,26123	1809
16,26535	2311
16,26947	1638
16,27360	2185
16,27772	2191
16,28183	1652
16,28597	2803
16,29008	2334
16,29420	1525
16,29833	2605
16,30245	2110
16,30657	1458
16,31070	1326
16,31482	1231
16,31893	1484
16,32307	1305
16,32718	1605
16,33130	941
16,33543	1432
16,33955	2121
16,34367	1091
16,34780	1218
16,35192	1754
16,35603	1636
16,36015	2072
16,36428	2664
16,36840	1883
16,37252	1626
16,37665	1786
16,38077	1398
16,38488	1372
16,38902	1724
16,39313	1556
16,39725	1409
16,40138	1799
16,40550	1678
16,40962	1298
16,41375	1941
16,41787	2095
16,42198	1969
16,42612	3219
16,43023	4031
16,43435	6453
16,43848	6563
16,44260	8594
16,44672	8737
16,45083	10075
16,45497	11230
16,45908	11948
16,46320	11098
16,46733	13130
16,47145	19186
16,47557	35585
16,47970	65045
16,48382	118450
16,48793	214041
16,49207	365897
16,49618	589284
16,50030	863210
16,50443	1211046
16,50855	1580937
16,51267	1923122
16,51680	2188884
16,52092	2341241
16,52503	2304695
16,52917	2143189
16,53328	1865196
16,53740	1537866
16,54153	1198363
16,54565	925290
16,54977	686766
16,55388	518554
16,55802	388459
16,56213	297974
16,56625	230096
16,57038	187288
16,57450	147965
16,57862	122284
16,58275	102497
16,58687	89030
16,59098	77059
16,59512	67780
16,59923	63352
16,60335	57110
16,60748	50720
16,61160	47747
16,61572	46857
16,61985	41024
16,62397	38956
16,62808	36378
16,63222	31312
16,63633	28057
16,64045	26134
16,64457	24278
16,64870	21576
16,65282	19089
16,65693	18933
16,66107	17628
16,66518	15015
16,66930	12602
16,67343	13343
16,67755	12247
16,68167	11985
16,68580	10011
16,68992	10335
16,69403	9284
16,69817	8864
16,70228	9514
16,70640	7754
16,71053	7607
16,71465	7846
16,71877	7593
16,72290	6895
16,72702	6600
16,73113	6023
16,73525	5412
16,73938	5897
16,74350	5542
16,74762	5621
16,75175	4623
16,75587	4257
16,75998	3979
16,76412	4220
16,76823	3606
16,77235	4128
16,77648	4493
16,78060	4419
16,78472	3953
16,78885	3623
16,79297	3739
16,79708	3474
16,80122	3778
16,80533	4418
16,80945	3654
16,81358	3526
16,81770	3782
16,82182	4708
16,82593	3990
16,83007	3231
16,83418	3247
16,83830	3354
16,84243	3868
16,84655	2675
16,85067	2573
16,85480	3205
16,85892	2607
16,86303	3031
16,86717	2300
16,87128	2952
16,87540	2303
16,87953	2676
16,88365	2222
16,88777	1979
16,89190	2439
16,89602	2791
16,90013	2008
16,90427	2403
16,90838	1926
16,91250	1662
16,91662	1906
16,92075	1771
16,92487	1670
16,92898	2026
16,93312	2091
16,93723	2081
16,94135	1684
16,94548	1966
16,94960	1272
16,95372	2266
16,95785	2214
16,96197	2077
16,96608	2121
16,97022	2652
16,97433	2596
16,97845	3425
16,98258	3238
16,98670	4616
16,99082	5687
16,99495	7346
16,99907	8792
17,00318	9132
17,00730	8569
17,01143	9147
17,01555	6701
17,01967	4861
17,02380	4304
17,02792	3046
17,03203	2600
17,03617	1831
17,04028	2611
17,04440	2261
17,04853	1972
17,05265	1725
17,05677	2647
17,06090	1123
17,06502	1868
17,06913	1304
17,07327	1728
17,07738	1258
17,08150	1025
17,08563	2276
17,08975	1030
17,09387	1595
17,09798	1093
17,10212	1406
17,10623	2061
17,11035	1762
17,11448	1525
17,11860	1795
17,12272	1279
17,12685	1310
17,13097	2232
17,13508	2287
17,13922	3278
17,14333	8284
17,14745	19152
17,15158	37635
17,15570	72852
17,15982	131589
17,16395	223169
17,16807	342434
17,17218	504733
17,17632	671758
17,18043	832999
17,18455	965591
17,18867	1049465
17,19280	1061060
17,19692	1003653
17,20103	889472
17,20517	758565
17,20928	614604
17,21340	485519
17,21753	379109
17,22165	289130
17,22577	220344
17,22990	169511
17,23402	133349
17,23813	106440
17,24227	86555
17,24638	69265
17,25050	58172
17,25463	50197
17,25875	42256
17,26287	36752
17,26700	32223
17,27112	26931
17,27523	25531
17,27935	22294
17,28348	18738
17,28760	19019
17,29172	17052
17,29585	13202
17,29997	13970
17,30408	12933
17,30822	10536
17,31233	10297
17,31645	9098
17,32058	9931
17,32470	8854
17,32882	7616
17,33295	9291
17,33707	7636
17,34118	6231
17,34532	6159
17,34943	5833
17,35355	5742
17,35768	4773
17,36180	4253
17,36592	4316
17,37003	4624
17,37417	4142
17,37828	3806
17,38240	3209
17,38653	3772
17,39065	3746
17,39477	2869
17,39890	3408
17,40302	3056
17,40713	2182
17,41127	2460
17,41538	4129
17,41950	6767
17,42363	12720
17,42775	28788
17,43187	57110
17,43600	109574
17,44012	189495
17,44423	306729
17,44837	469579
17,45248	647129
17,45660	842663
17,46072	1021689
17,46485	1143585
17,46897	1201689
17,47308	1175603
17,47722	1070358
17,48133	932344
17,48545	767399
17,48958	601122
17,49370	455398
17,49782	340514
17,50195	257676
17,50607	191936
17,51018	150596
17,51432	117388
17,51843	95048
17,52255	74788
17,52668	65018
17,53080	52741
17,53492	44255
17,53905	39482
17,54317	35210
17,54728	29391
17,55140	27351
17,55553	25021
17,55965	21261
17,56377	19813
17,56790	18228
17,57202	17412
17,57613	15781
17,58027	14171
17,58438	13049
17,58850	12196
17,59263	10729
17,59675	9425
17,60087	8162
17,60500	8073
17,60912	8254
17,61323	7336
17,61737	7103
17,62148	6683
17,62560	6587
17,62973	5839
17,63385	5948
17,63797	5879
17,64208	5739
17,64622	5294
17,65033	3636
17,65445	4463
17,65858	4522
17,66270	4071
17,66682	3829
17,67095	4025
17,67507	4629
17,67918	3010
17,68332	3577
17,68743	3785
17,69155	3373
17,69568	3034
17,69980	2631
17,70392	3337
17,70805	3654
17,71217	2865
17,71628	2826
17,72042	2182
17,72453	2546
17,72865	2552
17,73277	2747
17,73690	2472
17,74102	2526
17,74513	2240
17,74927	2451
17,75338	2523
17,75750	2369
17,76163	2019
17,76575	2334
17,76987	2116
17,77400	2199
17,77812	2576
17,78223	2178
17,78637	2827
17,79048	2455
17,79460	2610
17,79873	2455
17,80285	3052
17,80697	2506
17,81110	2287
17,81522	2765
17,81933	4002
17,82345	3633
17,82758	4690
17,83170	4041
17,83582	3332
17,83995	3498
17,84407	3485
17,84818	2881
17,85232	2748
17,85643	2846
17,86055	1982
17,86468	2188
17,86880	3046
17,87292	2379
17,87705	1916
17,88117	2448
17,88528	2201
17,88942	2319
17,89353	2674
17,89765	2337
17,90178	2863
17,90590	2417
17,91002	2034
17,91413	2667
17,91827	2857
17,92238	1780
17,92650	2506
17,93063	1666
17,93475	2671
17,93887	1792
17,94300	2493
17,94712	2794
17,95123	2499
17,95537	1996
17,95948	1783
17,96360	2318
17,96773	2347
17,97185	3109
17,97597	2509
17,98010	1985
17,98422	1770
17,98833	1795
17,99247	2050
17,99658	2292
18,00070	1757
18,00482	2034
18,00895	1543
18,01307	1476
18,01718	1459
18,02132	1244
18,02543	1230
18,02955	1087
18,03368	1945
18,03780	1018
18,04192	1484
18,04605	1779
18,05017	1526
18,05428	2094
18,05842	988
18,06253	1030
18,06665	1320
18,07078	3467
18,07490	7621
18,07902	16010
18,08315	35505
18,08727	68470
18,09138	127990
18,09550	223547
18,09963	353337
18,10375	510786
18,10787	697989
18,11200	880451
18,11612	1047354
18,12023	1124988
18,12437	1146318
18,12848	1093314
18,13260	976711
18,13673	837096
18,14085	664804
18,14497	518586
18,14910	399997
18,15322	307621
18,15733	233703
18,16147	180141
18,16558	139799
18,16970	111905
18,17383	89275
18,17795	73170
18,18207	60410
18,18618	53427
18,19032	44361
18,19443	38218
18,19855	33863
18,20268	28025
18,20680	25813
18,21092	22473
18,21505	21413
18,21917	19444
18,22328	15992
18,22742	14779
18,23153	13365
18,23565	12284
18,23978	11341
18,24390	11131
18,24802	10959
18,25215	10349
18,25627	9401
18,26038	8240
18,26452	8069
18,26863	6007
18,27275	6913
18,27688	6683
18,28100	5658
18,28512	6121
18,28923	5950
18,29337	4834
18,29748	4361
18,30160	4685
18,30573	4694
18,30985	5014
18,31397	4078
18,31810	4019
18,32222	6602
18,32633	10453
18,33047	19497
18,33458	39347
18,33870	76182
18,34283	145704
18,34695	253328
18,35107	427161
18,35520	675357
18,35932	983497
18,36343	1374349
18,36757	1841144
18,37168	2346225
18,37580	2862954
18,37992	3340874
18,38405	3679927
18,38817	3777920
18,39228	3610122
18,39642	3235508
18,40053	2692581
18,40465	2097531
18,40878	1561950
18,41290	1142130
18,41702	836397
18,42115	621268
18,42527	467486
18,42938	357945
18,43352	288766
18,43763	232486
18,44175	190450
18,44588	159542
18,45000	137096
18,45412	116762
18,45825	102549
18,46237	89645
18,46648	78855
18,47060	74953
18,47473	64208
18,47885	57621
18,48297	51902
18,48710	49672
18,49122	44728
18,49533	41077
18,49947	36003
18,50358	34735
18,50770	30982
18,51183	30687
18,51595	27813
18,52007	24498
18,52420	25100
18,52832	23639
18,53243	23055
18,53657	20295
18,54068	18846
18,54480	17368
18,54893	16911
18,55305	17247
18,55717	16686
18,56128	15077
18,56542	15310
18,56953	14779
18,57365	14697
18,57778	12776
18,58190	10211
18,58602	11841
18,59015	10082
18,59427	9740
18,59838	9637
18,60252	10020
18,60663	9671
18,61075	8137
18,61488	8795
18,61900	7434
18,62312	7429
18,62725	6849
18,63137	6701
18,63548	6829
18,63962	6560
18,64373	7083
18,64785	5916
18,65197	6380
18,65610	6544
18,66022	6852
18,66433	5487
18,66847	6569
18,67258	6154
18,67670	5392
18,68083	4862
18,68495	4463
18,68907	4880
18,69320	4766
18,69732	4257
18,70143	4750
18,70557	4581
18,70968	5201
18,71380	6257
18,71793	5989
18,72205	5609
18,72617	5571
18,73030	5046
18,73442	4487
18,73853	4660
18,74265	4653
18,74678	4136
18,75090	3722
18,75502	3850
18,75915	2990
18,76327	3596
18,76738	3142
18,77152	2651
18,77563	3522
18,77975	3801
18,78388	3137
18,78800	3393
18,79212	4617
18,79625	5192
18,80037	6281
18,80448	9344
18,80862	11757
18,81273	12621
18,81685	12049
18,82098	10145
18,82510	7882
18,82922	6560
18,83333	5212
18,83747	5574
18,84158	5142
18,84570	6338
18,84983	9563
18,85395	19982
18,85807	38615
18,86220	76675
18,86632	134029
18,87043	228491
18,87457	361606
18,87868	518993
18,88280	709957
18,88693	899347
18,89105	1055991
18,89517	1152320
18,89930	1180753
18,90342	1129036
18,90753	1011955
18,91167	860981
18,91578	704680
18,91990	552978
18,92402	420656
18,92815	321905
18,93227	251578
18,93638	194478
18,94052	157111
18,94463	127038
18,94875	105530
18,95288	87292
18,95700	72465
18,96112	60028
18,96525	52746
18,96937	44702
18,97348	40096
18,97762	36059
18,98173	32262
18,98585	29934
18,98998	28466
18,99410	26062
18,99822	25851
19,00235	23239
19,00647	25100
19,01058	23015
19,01470	22925
19,01883	20979
19,02295	19882
19,02707	18919
19,03120	18237
19,03532	15372
19,03943	14075
19,04357	12631
19,04768	11458
19,05180	11958
19,05593	10374
19,06005	9671
19,06417	8594
19,06830	7833
19,07242	7523
19,07653	7190
19,08067	6609
19,08478	6031
19,08890	6844
19,09303	6308
19,09715	5895
19,10127	7995
19,10538	6301
19,10952	5840
19,11363	4999
19,11775	5742
19,12188	4206
19,12600	4634
19,13012	4792
19,13425	4631
19,13837	4550
19,14248	4450
19,14662	4600
19,15073	5011
19,15485	4434
19,15898	3553
19,16310	3829
19,16722	4004
19,17135	4541
19,17547	4536
19,17958	4080
19,18372	3772
19,18783	5988
19,19195	9283
19,19607	16399
19,20020	30255
19,20432	57914
19,20843	114725
19,21257	197130
19,21668	317466
19,22080	486956
19,22493	697925
19,22905	892753
19,23317	1095722
19,23730	1254670
19,24142	1327756
19,24553	1311286
19,24967	1211416
19,25378	1043574
19,25790	854293
19,26203	667411
19,26615	500988
19,27027	379741
19,27440	278857
19,27852	212574
19,28263	159720
19,28675	125367
19,29088	102111
19,29500	83650
19,29912	70802
19,30325	59745
19,30737	48601
19,31148	45801
19,31562	37226
19,31973	33625
19,32385	30914
19,32798	27833
19,33210	24430
19,33622	22790
19,34035	20541
19,34447	18446
19,34858	16461
19,35272	14387
19,35683	16264
19,36095	14335
19,36508	14410
19,36920	11258
19,37332	11302
19,37743	11158
19,38157	10687
19,38568	10983
19,38980	10870
19,39393	11397
19,39805	10715
19,40217	10117
19,40630	10534
19,41042	9530
19,41453	9637
19,41867	9309
19,42278	9670
19,42690	7928
19,43103	7857
19,43515	8681
19,43927	5949
19,44340	6569
19,44752	6285
19,45163	6514
19,45577	7709
19,45988	6170
19,46400	6054
19,46812	6263
19,47225	6253
19,47637	6334
19,48048	6920
19,48462	6490
19,48873	6519
19,49285	6453
19,49698	6603
19,50110	6241
19,50522	5459
19,50935	6074
19,51347	5549
19,51758	5464
19,52172	4618
19,52583	3720
19,52995	3834
19,53408	5190
19,53820	4365
19,54232	4214
19,54645	4507
19,55057	3663
19,55468	3884
19,55880	3007
19,56293	3501
19,56705	3924
19,57117	3446
19,57530	3709
19,57942	3080
19,58353	4048
19,58767	2643
19,59178	2533
19,59590	2826
19,60003	2713
19,60415	3041
19,60827	2829
19,61240	1836
19,61652	2454
19,62063	2532
19,62477	2704
19,62888	2862
19,63300	3325
19,63713	3532
19,64125	2862
19,64537	2707
19,64948	2808
19,65362	2860
19,65773	2879
19,66185	3017
19,66598	3289
19,67010	3671
19,67422	3263
19,67835	3852
19,68247	3439
19,68658	2873
19,69072	3340
19,69483	6759
19,69895	10342
19,70308	22024
19,70720	45418
19,71132	79937
19,71545	149643
19,71957	251531
19,72368	391773
19,72782	570669
19,73193	766604
19,73605	965799
19,74017	1135830
19,74430	1236362
19,74842	1277110
19,75253	1213758
19,75667	1081071
19,76078	916995
19,76490	730747
19,76903	561966
19,77315	431240
19,77727	331962
19,78140	246570
19,78552	187267
19,78963	146720
19,79377	116204
19,79788	91090
19,80200	77870
19,80613	64173
19,81025	53601
19,81437	46649
19,81850	39574
19,82262	35725
19,82673	30895
19,83087	30242
19,83498	26986
19,83910	23226
19,84322	22220
19,84735	20489
19,85147	19620
19,85558	18595
19,85972	16814
19,86383	15819
19,86795	14917
19,87208	13243
19,87620	12474
19,88032	10995
19,88445	10195
19,88857	9875
19,89268	10062
19,89682	9379
19,90093	8250
19,90505	7720
19,90918	7914
19,91330	6588
19,91742	8174
19,92155	7893
19,92567	9602
19,92978	12096
19,93390	13544
19,93803	18415
19,94215	22657
19,94627	27864
19,95040	32887
19,95452	35912
19,95863	39443
19,96277	39489
19,96688	37713
19,97100	36671
19,97513	31820
19,97925	28630
19,98337	25617
19,98750	21413
19,99162	18629
19,99573	15748
19,99987	13881
20,00398	12001
20,00810	9886
20,01223	9295
20,01635	10320
20,02047	10343
20,02458	14400
20,02872	20715
20,03283	37625
20,03695	68245
20,04108	124200
20,04520	212130
20,04932	340062
20,05345	525229
20,05757	760173
20,06168	1056543
20,06582	1399053
20,06993	1767210
20,07405	2129435
20,07818	2462720
20,08230	2696372
20,08642	2746612
20,09055	2605319
20,09467	2312702
20,09878	1904083
20,10292	1494132
20,10703	1130259
20,11115	836893
20,11527	614227
20,11940	455285
20,12352	346518
20,12763	270662
20,13177	216841
20,13588	177138
20,14000	147626
20,14413	124399
20,14825	109228
20,15237	94228
20,15650	84905
20,16062	74679
20,16473	66390
20,16887	59148
20,17298	52593
20,17710	50369
20,18123	44381
20,18535	40330
20,18947	38698
20,19360	35441
20,19772	32910
20,20183	31528
20,20595	28426
20,21008	27383
20,21420	26595
20,21832	23120
20,22245	21713
20,22657	19790
20,23068	19232
20,23482	19536
20,23893	17867
20,24305	16029
20,24718	16557
20,25130	15074
20,25542	15080
20,25955	14061
20,26367	12731
20,26778	12911
20,27192	11350
20,27603	11919
20,28015	11253
20,28428	10884
20,28840	11134
20,29252	11318
20,29663	10249
20,30077	12462
20,30488	16219
20,30900	24682
20,31313	45807
20,31725	76976
20,32137	132168
20,32550	216091
20,32962	331806
20,33373	490687
20,33787	653864
20,34198	861767
20,34610	1037098
20,35023	1199781
20,35435	1280892
20,35847	1280235
20,36260	1213014
20,36672	1068290
20,37083	906911
20,37497	724977
20,37908	574092
20,38320	429201
20,38732	328816
20,39145	251386
20,39557	194811
20,39968	155472
20,40382	125347
20,40793	103450
20,41205	83488
20,41618	71403
20,42030	60904
20,42442	54524
20,42855	48358
20,43267	42989
20,43678	39178
20,44092	36850
20,44503	37675
20,44915	41693
20,45328	57239
20,45740	85445
20,46152	140019
20,46565	235159
20,46977	381803
20,47388	582490
20,47800	871193
20,48213	1214303
20,48625	1596003
20,49037	1946034
20,49450	2276738
20,49862	2540169
20,50273	2618012
20,50687	2487937
20,51098	2249827
20,51510	1884227
20,51923	1513715
20,52335	1159548
20,52747	877072
20,53160	649869
20,53572	488802
20,53983	372649
20,54397	289579
20,54808	236538
20,55220	193359
20,55633	160168
20,56045	139278
20,56457	120960
20,56868	102136
20,57282	89886
20,57693	82545
20,58105	72722
20,58518	66857
20,58930	60874
20,59342	54609
20,59755	49285
20,60167	48568
20,60578	40637
20,60992	39623
20,61403	37951
20,61815	34284
20,62228	32296
20,62640	30079
20,63052	29959
20,63465	27155
20,63877	25498
20,64288	24661
20,64702	23871
20,65113	21271
20,65525	20406
20,65937	20381
20,66350	19768
20,66762	19307
20,67173	17177
20,67587	15187
20,67998	15393
20,68410	15602
20,68823	15513
20,69235	14224
20,69647	12929
20,70060	12666
20,70472	11898
20,70883	13580
20,71297	11128
20,71708	9246
20,72120	10660
20,72533	11652
20,72945	8995
20,73357	9259
20,73770	8816
20,74182	8771
20,74593	7887
20,75005	6579
20,75418	8050
20,75830	8682
20,76242	8776
20,76655	10097
20,77067	15332
20,77478	27842
20,77892	50472
20,78303	92731
20,78715	171253
20,79128	278478
20,79540	437911
20,79952	617539
20,80365	822308
20,80777	995813
20,81188	1135918
20,81602	1201430
20,82013	1194216
20,82425	1106998
20,82838	963889
20,83250	798065
20,83662	629028
20,84073	491958
20,84487	375355
20,84898	283442
20,85310	220771
20,85723	175416
20,86135	139796
20,86547	114906
20,86960	97523
20,87372	81561
20,87783	69825
20,88197	60263
20,88608	57356
20,89020	48983
20,89433	44279
20,89845	38963
20,90257	35364
20,90670	32682
20,91082	31078
20,91493	29044
20,91907	26176
20,92318	24014
20,92730	23236
20,93142	21591
20,93555	20689
20,93967	18650
20,94378	17717
20,94792	19331
20,95203	16764
20,95615	17210
20,96028	15959
20,96440	13847
20,96852	14106
20,97265	14760
20,97677	14048
20,98088	13885
20,98502	12658
20,98913	14295
20,99325	12404
20,99738	12611
21,00150	11135
21,00562	12303
21,00975	10721
21,01387	10273
21,01798	11386
21,02210	11248
21,02623	11074
21,03035	10529
21,03447	12111
21,03860	9766
21,04272	11371
21,04683	11147
21,05097	10320
21,05508	10845
21,05920	10288
21,06333	10851
21,06745	8064
21,07157	9768
21,07570	8298
21,07982	8546
21,08393	8222
21,08807	7841
21,09218	9551
21,09630	12935
21,10043	20275
21,10455	34643
21,10867	61139
21,11278	113509
21,11692	191446
21,12103	305489
21,12515	461645
21,12928	639796
21,13340	827962
21,13752	986779
21,14165	1104456
21,14577	1142368
21,14988	1131438
21,15402	1018472
21,15813	871852
21,16225	717129
21,16638	567388
21,17050	439305
21,17462	330771
21,17875	255066
21,18287	195207
21,18698	153575
21,19112	123838
21,19523	100423
21,19935	83714
21,20347	68775
21,20760	60867
21,21172	54063
21,21583	47565
21,21997	44200
21,22408	40914
21,22820	36544
21,23233	33768
21,23645	32704
21,24057	30407
21,24470	27782
21,24882	27610
21,25293	23496
21,25707	24395
21,26118	22804
21,26530	22586
21,26943	20669
21,27355	19328
21,27767	19013
21,28180	17653
21,28592	17318
21,29003	16140
21,29415	15695
21,29828	14496
21,30240	14842
21,30652	15079
21,31065	13105
21,31477	12838
21,31888	14277
21,32302	11749
21,32713	12078
21,33125	11806
21,33538	11351
21,33950	10153
21,34362	10238
21,34775	9147
21,35187	8828
21,35598	8400
21,36012	9643
21,36423	7942
21,36835	8996
21,37248	8301
21,37660	7619
21,38072	7193
21,38483	7455
21,38897	8320
21,39308	7797
21,39720	9790
21,40133	7913
21,40545	6926
21,40957	9369
21,41370	6658
21,41782	6918
21,42193	8022
21,42607	7210
21,43018	7547
21,43430	7056
21,43843	7381
21,44255	6351
21,44667	5286
21,45080	6242
21,45492	6345
21,45903	5453
21,46317	6387
21,46728	5209
21,47140	6601
21,47553	6243
21,47965	4701
21,48377	5301
21,48788	6068
21,49202	6114
21,49613	6062
21,50025	4830
21,50438	4298
21,50850	4205
21,51262	5003
21,51675	6397
21,52087	5731
21,52498	5073
21,52912	5557
21,53323	4160
21,53735	5364
21,54148	4156
21,54560	5972
21,54972	6782
21,55385	9543
21,55797	22585
21,56208	40155
21,56622	71850
21,57033	133305
21,57445	220986
21,57857	354570
21,58270	521972
21,58682	727063
21,59093	923678
21,59507	1155859
21,59918	1342705
21,60330	1525923
21,60743	1701468
21,61155	1883873
21,61567	2063395
21,61980	2234391
21,62392	2485335
21,62803	2734491
21,63217	2933217
21,63628	3001599
21,64040	2942839
21,64453	2676232
21,64865	2264526
21,65277	1811552
21,65690	1386103
21,66102	1032461
21,66513	766799
21,66925	578487
21,67338	450490
21,67750	360474
21,68162	294207
21,68575	240184
21,68987	203118
21,69398	178262
21,69812	155835
21,70223	135009
21,70635	121296
21,71048	107983
21,71460	99130
21,71872	89033
21,72285	80656
21,72697	74720
21,73108	70838
21,73522	64298
21,73933	60359
21,74345	57814
21,74758	55212
21,75170	54540
21,75582	53298
21,75993	54426
21,76407	57908
21,76818	59658
21,77230	64088
21,77643	65430
21,78055	65247
21,78467	65236
21,78880	61398
21,79292	56855
21,79703	54431
21,80117	46460
21,80528	42216
21,80940	37824
21,81353	34383
21,81765	33217
21,82177	29169
21,82590	26959
21,83002	26253
21,83413	26710
21,83827	28197
21,84238	37540
21,84650	47003
21,85062	74241
21,85475	123417
21,85887	205991
21,86298	312472
21,86712	446327
21,87123	605554
21,87535	756990
21,87948	888545
21,88360	969497
21,88772	974740
21,89185	924493
21,89597	818992
21,90008	698884
21,90422	577270
21,90833	458081
21,91245	350856
21,91658	268943
21,92070	208953
21,92482	168865
21,92895	131789
21,93307	109031
21,93718	89573
21,94130	75655
21,94543	66418
21,94955	58902
21,95367	51299
21,95780	48570
21,96192	46151
21,96603	41840
21,97017	39000
21,97428	42950
21,97840	53370
21,98253	75426
21,98665	114608
21,99077	185142
21,99490	288703
21,99902	426577
22,00313	607810
22,00727	818177
22,01138	1044547
22,01550	1217876
22,01963	1333020
22,02375	1353652
22,02787	1286252
22,03198	1150028
22,03612	977262
22,04023	781408
22,04435	613211
22,04848	476886
22,05260	365201
22,05672	279353
22,06085	226183
22,06497	180768
22,06908	146696
22,07322	124856
22,07733	109765
22,08145	95494
22,08558	81081
22,08970	73988
22,09382	72047
22,09795	64357
22,10207	63178
22,10618	58328
22,11032	52379
22,11443	47997
22,11855	42470
22,12267	39421
22,12680	38389
22,13092	34735
22,13503	31306
22,13917	31127
22,14328	28339
22,14740	27147
22,15153	28701
22,15565	26259
22,15977	26753
22,16390	25436
22,16802	26943
22,17213	27115
22,17627	24736
22,18038	24365
22,18450	23780
22,18863	21627
22,19275	20681
22,19687	19210
22,20100	20494
22,20512	19466
22,20923	16705
22,21335	17336
22,21748	15600
22,22160	16061
22,22572	16212
22,22985	14600
22,23397	14443
22,23808	16114
22,24222	15202
22,24633	15677
22,25045	13767
22,25458	14112
22,25870	15581
22,26282	14700
22,26695	13481
22,27107	14055
22,27518	13680
22,27932	12660
22,28343	13501
22,28755	12695
22,29168	12569
22,29580	12023
22,29992	13980
22,30403	18181
22,30817	26932
22,31228	46302
22,31640	77919
22,32053	132245
22,32465	225352
22,32877	349935
22,33290	516542
22,33702	722964
22,34113	953037
22,34527	1180312
22,34938	1358174
22,35350	1457402
22,35763	1466831
22,36175	1341880
22,36587	1153287
22,37000	934794
22,37412	730328
22,37823	556294
22,38237	424588
22,38648	324475
22,39060	257450
22,39472	206425
22,39885	169316
22,40297	141095
22,40708	118113
22,41122	104766
22,41533	90933
22,41945	79398
22,42358	74043
22,42770	66611
22,43182	61906
22,43595	55517
22,44007	50728
22,44418	46899
22,44832	46431
22,45243	42070
22,45655	41598
22,46068	40770
22,46480	40867
22,46892	39313
22,47305	37776
22,47717	35252
22,48128	34237
22,48540	30512
22,48953	29662
22,49365	29119
22,49777	25969
22,50190	26609
22,50602	23372
22,51013	23108
22,51427	20935
22,51838	20000
22,52250	20387
22,52663	18473
22,53075	20027
22,53487	18167
22,53900	19164
22,54312	17590
22,54723	18122
22,55137	16651
22,55548	15288
22,55960	16060
22,56373	14228
22,56785	16300
22,57197	16564
22,57608	17195
22,58022	15467
22,58433	19449
22,58845	23731
22,59258	33417
22,59670	54532
22,60082	91914
22,60495	154668
22,60907	245909
22,61318	376981
22,61732	547187
22,62143	721660
22,62555	907572
22,62968	1053037
22,63380	1140328
22,63792	1145676
22,64205	1088876
22,64617	978042
22,65028	825609
22,65442	657570
22,65853	521784
22,66265	408936
22,66677	313728
22,67090	246205
22,67502	194619
22,67913	158311
22,68327	130277
22,68738	108407
22,69150	93891
22,69563	80460
22,69975	73607
22,70387	63988
22,70800	57113
22,71212	52400
22,71623	48734
22,72037	44844
22,72448	41584
22,72860	38278
22,73273	36548
22,73685	34635
22,74097	32154
22,74510	30498
22,74922	29738
22,75333	29466
22,75745	27947
22,76158	25811
22,76570	26218
22,76982	23580
22,77395	25007
22,77807	21691
22,78218	21250
22,78632	20515
22,79043	18847
22,79455	19326
22,79868	17997
22,80280	18392
22,80692	17807
22,81105	18264
22,81517	16092
22,81928	17229
22,82342	17219
22,82753	17411
22,83165	14880
22,83578	15059
22,83990	14958
22,84402	16630
22,84813	15157
22,85227	15036
22,85638	14704
22,86050	13329
22,86463	13799
22,86875	13641
22,87287	13679
22,87700	13016
22,88112	15210
22,88523	13987
22,88937	13726
22,89348	12961
22,89760	12273
22,90173	11199
22,90585	13276
22,90997	12789
22,91410	12367
22,91822	13260
22,92233	14210
22,92647	13197
22,93058	13798
22,93470	17263
22,93882	16327
22,94295	16982
22,94707	16596
22,95118	17934
22,95532	17303
22,95943	15869
22,96355	16910
22,96768	13789
22,97180	13364
22,97592	12584
22,98005	13322
22,98417	12413
22,98828	11771
22,99242	10821
22,99653	11694
23,00065	12079
23,00478	14449
23,00890	17969
23,01302	25071
23,01715	44389
23,02127	77699
23,02538	131516
23,02950	230456
23,03363	382681
23,03775	615637
23,04187	925755
23,04600	1302697
23,05012	1748520
23,05423	2247113
23,05837	2728611
23,06248	3154937
23,06660	3504064
23,07073	3711125
23,07485	3725576
23,07897	3448793
23,08310	2968814
23,08722	2430879
23,09133	1893181
23,09547	1436259
23,09958	1087779
23,10370	818845
23,10783	644699
23,11195	511530
23,11607	413340
23,12020	347840
23,12432	292030
23,12843	251003
23,13255	219212
23,13668	195930
23,14080	177986
23,14492	160608
23,14905	143020
23,15317	132589
23,15728	123835
23,16142	116505
23,16553	109102
23,16965	102205
23,17378	95675
23,17790	94077
23,18202	86925
23,18615	78051
23,19027	75381
23,19438	68646
23,19852	68871
23,20263	65928
23,20675	58819
23,21088	60048
23,21500	54021
23,21912	52720
23,22323	51194
23,22737	51958
23,23148	50350
23,23560	47980
23,23973	44504
23,24385	44201
23,24797	43122
23,25210	41037
23,25622	37779
23,26033	36248
23,26447	35443
23,26858	35495
23,27270	34981
23,27683	38335
23,28095	39718
23,28507	43490
23,28920	62282
23,29332	90643
23,29743	141766
23,30157	226212
23,30568	339848
23,30980	478257
23,31392	649977
23,31805	823955
23,32217	959773
23,32628	1035248
23,33042	1048265
23,33453	986015
23,33865	890495
23,34278	761723
23,34690	640584
23,35102	552310
23,35515	493528
23,35927	481731
23,36338	536112
23,36752	615398
23,37163	738225
23,37575	848723
23,37988	946457
23,38400	998531
23,38812	1003609
23,39225	962499
23,39637	895868
23,40048	825703
23,40460	770911
23,40873	765148
23,41285	793114
23,41697	889841
23,42110	1012865
23,42522	1171862
23,42933	1334856
23,43347	1406754
23,43758	1424588
23,44170	1349561
23,44583	1200807
23,44995	1022707
23,45407	843298
23,45820	678970
23,46232	538581
23,46643	430400
23,47057	344414
23,47468	277239
23,47880	236102
23,48293	203153
23,48705	174113
23,49117	156158
23,49528	139311
23,49942	125749
23,50353	114778
23,50765	107056
23,51178	98070
23,51590	87726
23,52002	83617
23,52415	79583
23,52827	72271
23,53238	69782
23,53652	64732
23,54063	63523
23,54475	56737
23,54888	55302
23,55300	54044
23,55712	51792
23,56125	47248
23,56537	45751
23,56948	43003
23,57362	42366
23,57773	40441
23,58185	39873
23,58597	38447
23,59010	38283
23,59422	37205
23,59833	38442
23,60247	38331
23,60658	40122
23,61070	39821
23,61483	40294
23,61895	37842
23,62307	36321
23,62720	32876
23,63132	33292
23,63543	32142
23,63957	29620
23,64368	30246
23,64780	31395
23,65193	30852
23,65605	31579
23,66017	31336
23,66430	29484
23,66842	29342
23,67253	31046
23,67665	30782
23,68078	34260
23,68490	35059
23,68902	45758
23,69315	67968
23,69727	103482
23,70138	156392
23,70552	255589
23,70963	378555
23,71375	542229
23,71788	732707
23,72200	936048
23,72612	1144698
23,73025	1301571
23,73437	1366514
23,73848	1358261
23,74262	1244602
23,74673	1070743
23,75085	872104
23,75498	696188
23,75910	547356
23,76322	428508
23,76733	342173
23,77147	276571
23,77558	231392
23,77970	194256
23,78383	169129
23,78795	148886
23,79207	128577
23,79620	116309
23,80032	104098
23,80443	95489
23,80857	89920
23,81268	80590
23,81680	78504
23,82093	72735
23,82505	66239
23,82917	66383
23,83330	60697
23,83742	61142
23,84153	58015
23,84567	56682
23,84978	53084
23,85390	52198
23,85802	49625
23,86215	45760
23,86627	46692
23,87038	42856
23,87452	42657
23,87863	39811
23,88275	38643
23,88688	38192
23,89100	40258
23,89512	38050
23,89925	37943
23,90337	36470
23,90748	39309
23,91162	36883
23,91573	35068
23,91985	33947
23,92398	34682
23,92810	31295
23,93222	32140
23,93635	31860
23,94047	31509
23,94458	29887
23,94870	28073
23,95283	26368
23,95695	27364
23,96107	28880
23,96520	32523
23,96932	38872
23,97343	51411
23,97757	76741
23,98168	116834
23,98580	190190
23,98993	295056
23,99405	413072
23,99817	581778
24,00230	751958
24,00642	918418
24,01053	1039697
24,01467	1099469
24,01878	1100844
24,02290	1031945
24,02703	913331
24,03115	772997
24,03527	631821
24,03938	519962
24,04352	402800
24,04763	327216
24,05175	261275
24,05588	226130
24,06000	210496
24,06412	205146
24,06825	230234
24,07237	279593
24,07648	355252
24,08062	450713
24,08473	561282
24,08885	681398
24,09298	768630
24,09710	822984
24,10122	841999
24,10535	811596
24,10947	740242
24,11358	648444
24,11772	535214
24,12183	444422
24,12595	363987
24,13007	295333
24,13420	243060
24,13832	195020
24,14243	163631
24,14657	139011
24,15068	118764
24,15480	107698
24,15893	95933
24,16305	85654
24,16717	78223
24,17130	71197
24,17542	66436
24,17953	61729
24,18367	57758
24,18778	54631
24,19190	52103
24,19603	49878
24,20015	47107
24,20427	47580
24,20840	43453
24,21252	43130
24,21663	40602
24,22075	37915
24,22488	40670
24,22900	36851
24,23312	36834
24,23725	35159
24,24137	33375
24,24548	33915
24,24962	32579
24,25373	31817
24,25785	31611
24,26198	29795
24,26610	30012
24,27022	30720
24,27435	30333
24,27847	30822
24,28258	28795
24,28672	28044
24,29083	27831
24,29495	28407
24,29908	28031
24,30320	26934
24,30732	24949
24,31143	24556
24,31557	24358
24,31968	24601
24,32380	22936
24,32793	24923
24,33205	24322
24,33617	24158
24,34030	22538
24,34442	23387
24,34853	22514
24,35267	25175
24,35678	28411
24,36090	34307
24,36503	47404
24,36915	66603
24,37327	99761
24,37740	149533
24,38152	229745
24,38563	330035
24,38977	466255
24,39388	638160
24,39800	828504
24,40212	1067351
24,40625	1293895
24,41037	1533750
24,41448	1805609
24,41862	2035986
24,42273	2215916
24,42685	2340968
24,43098	2307157
24,43510	2128731
24,43922	1845418
24,44335	1515190
24,44747	1197519
24,45158	948069
24,45572	739575
24,45983	597339
24,46395	488131
24,46808	400704
24,47220	347238
24,47632	295365
24,48045	260548
24,48457	228217
24,48868	202503
24,49280	189739
24,49693	172343
24,50105	159700
24,50517	147228
24,50930	134087
24,51342	124300
24,51753	119681
24,52167	112209
24,52578	102575
24,52990	97731
24,53403	91822
24,53815	88563
24,54227	85307
24,54640	81303
24,55052	77318
24,55463	73766
24,55877	70997
24,56288	67392
24,56700	64826
24,57113	62764
24,57525	60189
24,57937	58482
24,58348	57271
24,58762	55273
24,59173	54225
24,59585	52489
24,59998	54219
24,60410	50380
24,60822	49054
24,61235	48187
24,61647	48595
24,62058	48999
24,62472	46231
24,62883	46460
24,63295	44930
24,63708	44294
24,64120	44998
24,64532	43709
24,64945	44221
24,65357	42183
24,65768	40323
24,66182	40010
24,66593	39064
24,67005	36510
24,67418	36576
24,67830	35821
24,68242	35200
24,68653	33409
24,69067	33651
24,69478	35430
24,69890	33724
24,70303	34454
24,70715	33121
24,71127	32774
24,71540	32797
24,71952	30289
24,72363	31858
24,72777	32490
24,73188	30502
24,73600	30883
24,74013	32945
24,74425	40447
24,74837	47960
24,75250	66264
24,75662	92292
24,76073	132581
24,76487	189731
24,76898	268684
24,77310	381450
24,77722	510135
24,78135	663731
24,78547	814921
24,78958	953250
24,79372	1070692
24,79783	1123387
24,80195	1133039
24,80608	1064187
24,81020	963143
24,81432	815807
24,81845	692845
24,82257	572760
24,82668	476647
24,83082	389441
24,83493	321536
24,83905	274174
24,84318	232883
24,84730	205366
24,85142	177918
24,85555	160460
24,85967	148503
24,86378	134196
24,86790	119882
24,87203	112064
24,87615	101829
24,88027	92167
24,88440	88252
24,88852	84282
24,89263	76199
24,89677	74521
24,90088	71397
24,90500	68159
24,90913	63609
24,91325	61853
24,91737	56535
24,92150	58535
24,92562	56074
24,92973	51487
24,93387	53105
24,93798	47810
24,94210	46653
24,94623	45530
24,95035	46429
24,95447	46030
24,95858	42950
24,96272	39865
24,96683	39795
24,97095	40314
24,97508	38243
24,97920	37056
24,98332	37085
24,98745	38662
24,99157	33908
24,99568	34632
24,99982	34513
25,00393	31718
25,00805	34036
25,01218	30868
25,01630	32315
25,02042	30025
25,02455	30787
25,02867	29635
25,03278	30622
25,03692	29206
25,04103	30555
25,04515	29761
25,04927	29763
25,05340	29560
25,05752	28573
25,06163	28900
25,06577	26679
25,06988	28285
25,07400	31679
25,07813	30611
25,08225	31245
25,08637	31852
25,09050	33974
25,09462	37148
25,09873	37611
25,10287	38888
25,10698	43194
25,11110	40954
25,11523	43471
25,11935	43114
25,12347	45256
25,12760	42001
25,13172	38871
25,13583	39889
25,13995	36424
25,14408	34058
25,14820	31253
25,15232	30897
25,15645	29931
25,16057	27651
25,16468	27579
25,16882	25614
25,17293	25356
25,17705	25181
25,18118	23160
25,18530	23862
25,18942	24347
25,19355	24293
25,19767	23620
25,20178	24755
25,20592	23714
25,21003	25560
25,21415	24839
25,21828	26084
25,22240	22898
25,22652	24116
25,23063	24343
25,23477	24906
25,23888	24895
25,24300	23082
25,24713	23151
25,25125	23021
25,25537	23223
25,25950	24313
25,26362	24216
25,26773	25126
25,27187	24082
25,27598	24745
25,28010	25201
25,28423	25453
25,28835	23588
25,29247	22428
25,29660	23470
25,30072	21953
25,30483	23657
25,30897	23070
25,31308	25199
25,31720	24350
25,32132	24646
25,32545	23229
25,32957	26385
25,33368	26261
25,33782	25423
25,34193	27695
25,34605	28717
25,35018	28358
25,35430	29443
25,35842	27796
25,36255	29310
25,36667	28653
25,37078	28473
25,37492	28411
25,37903	26385
25,38315	26847
25,38728	26311
25,39140	24284
25,39552	24081
25,39965	23586
25,40377	24623
25,40788	22957
25,41200	21970
25,41613	20272
25,42025	20533
25,42437	21970
25,42850	21254
25,43262	21006
25,43673	21265
25,44087	21239
25,44498	24592
25,44910	22146
25,45323	21385
25,45735	23921
25,46147	22629
25,46560	24249
25,46972	24771
25,47383	22253
25,47797	23112
25,48208	22007
25,48620	20159
25,49033	20665
25,49445	22047
25,49857	20938
25,50268	19828
25,50682	20012
25,51093	20730
25,51505	20339
25,51918	20425
25,52330	19637
25,52742	19058
25,53155	18479
25,53567	20177
25,53978	18648
25,54392	19672
25,54803	20076
25,55215	19010
25,55628	20371
25,56040	19993
25,56452	20699
25,56865	20863
25,57277	21111
25,57688	21981
25,58102	20979
25,58513	18641
25,58925	21535
25,59337	20437
25,59750	21475
25,60162	21541
25,60573	20092
25,60987	20362
25,61398	19404
25,61810	21645
25,62223	18987
25,62635	21824
25,63047	20419
25,63460	20878
25,63872	20380
25,64283	20365
25,64697	17949
25,65108	21582
25,65520	22431
25,65933	22667
25,66345	21068
25,66757	23049
25,67170	20946
25,67582	23655
25,67993	21012
25,68405	20429
25,68818	22393
25,69230	22095
25,69642	20995
25,70055	19250
25,70467	20171
25,70878	17917
25,71292	18993
25,71703	18858
25,72115	18598
25,72528	18105
25,72940	17800
25,73352	17224
25,73765	17956
25,74177	18492
25,74588	16609
25,75002	18482
25,75413	17246
25,75825	15307
25,76238	18215
25,76650	16328
25,77062	16827
25,77473	16701
25,77887	16658
25,78298	17948
25,78710	18200
25,79123	18721
25,79535	17442
25,79947	19632
25,80360	18297
25,80772	18623
25,81183	20825
25,81597	19741
25,82008	17743
25,82420	19357
25,82833	19891
25,83245	19139
25,83657	19615
25,84070	19863
25,84482	20512
25,84893	20055
25,85307	20771
25,85718	19919
25,86130	19863
25,86542	18704
25,86955	18496
25,87367	19494
25,87778	22809
25,88192	23692
25,88603	26776
25,89015	37090
25,89428	47666
25,89840	64563
25,90252	91315
25,90665	125059
25,91077	177166
25,91488	232318
25,91902	305329
25,92313	374220
25,92725	444048
25,93138	502635
25,93550	541964
25,93962	552456
25,94375	550805
25,94787	533705
25,95198	479312
25,95610	446519
25,96023	385505
25,96435	337270
25,96847	288466
25,97260	247109
25,97672	212481
25,98083	180534
25,98497	159478
25,98908	138042
25,99320	121421
25,99733	108371
26,00145	97224
26,00557	82768
26,00970	81467
26,01382	73512
26,01793	66832
26,02207	62732
26,02618	58484
26,03030	55285
26,03443	55775
26,03855	48231
26,04267	47392
26,04678	46372
26,05092	47121
26,05503	43786
26,05915	44871
26,06328	40143
26,06740	41540
26,07152	39902
26,07565	35227
26,07977	33850
26,08388	36528
26,08802	34330
26,09213	32333
26,09625	31368
26,10038	33022
26,10450	28992
26,10862	31342
26,11275	30224
26,11687	30659
26,12098	30719
26,12512	27154
26,12923	30163
26,13335	28384
26,13747	28829
26,14160	28215
26,14572	27065
26,14983	27494
26,15397	25992
26,15808	27164
26,16220	25925
26,16633	25154
26,17045	26081
26,17457	26869
26,17870	26873
26,18282	25728
26,18693	27433
26,19107	24763
26,19518	26115
26,19930	25217
26,20343	23637
26,20755	24293
26,21167	24302
26,21580	24932
26,21992	25166
26,22403	22512
26,22817	22890
26,23228	25031
26,23640	23118
26,24052	23850
26,24465	22106
26,24877	23295
26,25288	22743
26,25702	23075
26,26113	21116
26,26525	22854
26,26938	21370
26,27350	21445
26,27762	23335
26,28175	22168
26,28587	21529
26,28998	20215
26,29412	20381
26,29823	20344
26,30235	22845
26,30648	19699
26,31060	21062
26,31472	20601
26,31885	20772
26,32297	21532
26,32708	19787
26,33120	21461
26,33533	20655
26,33945	20328
26,34357	21259
26,34770	21884
26,35182	21975
26,35593	19430
26,36007	21850
26,36418	21245
26,36830	22400
26,37243	22940
26,37655	22782
26,38067	22776
26,38480	21287
26,38892	22702
26,39303	23066
26,39717	22386
26,40128	21266
26,40540	20869
26,40953	20745
26,41365	21034
26,41777	19863
