D:\MassHunter\GCMS\1\data\Amal\Constant flow\120C\120C_1ml-min_6C-min_1.D Tue Jul 30 14:40:42 2024
Start of data points
5,59103,55096
5,59515,67786
5,59928,76916
5,60340,85852
5,60752,94529
5,61163,95986
5,61577,96669
5,61988,95153
5,62400,93334
5,62813,87040
5,63225,87434
5,63637,82809
5,64050,83914
5,64462,80416
5,64873,74909
5,65287,76229
5,65698,69909
5,66110,67823
5,66523,64843
5,66935,64685
5,67347,62707
5,67760,57668
5,68172,55322
5,68583,54715
5,68997,53590
5,69408,51317
5,69820,50635
5,70232,47654
5,70645,47386
5,71057,43781
5,71468,43135
5,71882,41688
5,72293,41937
5,72705,38932
5,73118,40228
5,73530,36893
5,73942,34322
5,74355,34504
5,74767,35105
5,75178,30386
5,75592,31664
5,76003,29982
5,76415,28658
5,76828,28465
5,77240,27560
5,77652,26500
5,78065,26049
5,78477,24070
5,78888,24522
5,79300,22710
5,79713,22703
5,80125,21797
5,80537,21609
5,80950,22163
5,81362,20067
5,81773,18902
5,82187,18696
5,82598,20535
5,83010,18836
5,83423,18352
5,83835,18601
5,84247,19304
5,84660,17105
5,85072,16560
5,85483,16296
5,85897,17752
5,86308,17579
5,86720,16911
5,87133,17006
5,87545,17563
5,87957,17215
5,88368,16048
5,88782,15231
5,89193,16550
5,89605,15104
5,90018,17254
5,90430,15607
5,90842,16435
5,91255,15726
5,91667,14473
5,92078,15163
5,92492,15365
5,92903,14172
5,93315,14886
5,93728,14863
5,94140,14933
5,94552,15130
5,94965,13164
5,95377,14889
5,95788,15461
5,96202,14706
5,96613,14319
5,97025,14125
5,97438,13414
5,97850,14325
5,98262,13635
5,98673,14008
5,99087,14751
5,99498,14246
5,99910,15245
6,00323,14523
6,00735,14577
6,01147,13973
6,01560,13657
6,01972,14039
6,02383,14090
6,02797,13220
6,03208,13568
6,03620,14887
6,04033,14234
6,04445,13842
6,04857,13461
6,05270,15825
6,05682,12941
6,06093,15630
6,06507,13652
6,06918,13004
6,07330,14723
6,07742,14643
6,08155,13333
6,08567,14774
6,08978,13739
6,09392,14264
6,09803,13956
6,10215,13119
6,10628,13617
6,11040,12574
6,11452,13972
6,11865,13466
6,12277,14946
6,12688,14391
6,13102,13773
6,13513,14683
6,13925,14447
6,14338,13830
6,14750,14422
6,15162,13712
6,15575,13987
6,15987,14153
6,16398,14075
6,16810,13896
6,17223,14728
6,17635,15183
6,18047,14675
6,18460,13269
6,18872,13643
6,19283,14838
6,19697,13134
6,20108,13540
6,20520,12545
6,20933,13434
6,21345,13583
6,21757,12952
6,22170,14406
6,22582,12741
6,22993,12593
6,23407,13443
6,23818,13501
6,24230,12607
6,24643,11704
6,25055,12434
6,25467,12006
6,25878,12247
6,26292,11829
6,26703,12316
6,27115,11455
6,27528,12959
6,27940,11223
6,28352,12068
6,28765,11160
6,29177,11804
6,29588,12135
6,30002,11219
6,30413,11496
6,30825,11197
6,31238,11315
6,31650,11568
6,32062,11310
6,32475,11446
6,32887,10747
6,33298,11401
6,33712,11477
6,34123,11268
6,34535,11368
6,34947,11187
6,35360,11331
6,35772,10948
6,36183,11188
6,36597,11489
6,37008,12183
6,37420,12137
6,37833,12253
6,38245,12450
6,38657,12564
6,39070,12112
6,39482,12845
6,39893,11481
6,40307,12006
6,40718,11442
6,41130,11222
6,41543,11063
6,41955,11897
6,42367,10811
6,42780,10842
6,43192,10686
6,43603,10963
6,44015,11243
6,44428,10101
6,44840,10716
6,45252,11361
6,45665,10532
6,46077,10719
6,46488,10310
6,46902,10477
6,47313,11010
6,47725,11065
6,48138,10505
6,48550,10443
6,48962,10660
6,49375,9841
6,49787,9364
6,50198,10142
6,50612,10112
6,51023,10092
6,51435,9824
6,51848,10129
6,52260,9626
6,52672,9490
6,53083,9625
6,53497,9581
6,53908,10130
6,54320,9484
6,54733,9515
6,55145,10052
6,55557,9300
6,55970,8876
6,56382,9300
6,56793,9823
6,57207,10218
6,57618,8863
6,58030,9215
6,58443,9915
6,58855,9668
6,59267,9105
6,59680,10047
6,60092,9108
6,60503,8740
6,60917,8896
6,61328,9034
6,61740,8911
6,62152,8795
6,62565,8923
6,62977,8992
6,63388,9435
6,63802,8688
6,64213,9179
6,64625,9618
6,65038,10177
6,65450,8289
6,65862,9314
6,66275,8542
6,66687,8138
6,67098,9278
6,67512,8745
6,67923,8245
6,68335,8970
6,68748,7617
6,69160,8790
6,69572,7783
6,69985,8517
6,70397,8529
6,70808,8282
6,71220,9199
6,71633,8809
6,72045,9546
6,72457,9002
6,72870,9067
6,73282,9000
6,73693,9061
6,74107,9907
6,74518,8858
6,74930,8999
6,75343,9442
6,75755,8381
6,76167,10125
6,76580,11950
6,76992,17233
6,77403,25482
6,77817,41054
6,78228,65615
6,78640,101556
6,79053,148429
6,79465,206400
6,79877,266572
6,80288,320782
6,80702,363455
6,81113,401848
6,81525,411643
6,81938,420424
6,82350,413128
6,82762,402652
6,83175,390198
6,83587,375442
6,83998,355628
6,84412,331739
6,84823,314958
6,85235,297920
6,85648,280543
6,86060,262559
6,86472,246348
6,86885,232044
6,87297,213289
6,87708,203429
6,88122,186940
6,88533,174363
6,88945,164238
6,89357,151882
6,89770,145267
6,90182,135532
6,90593,124175
6,91007,112456
6,91418,104875
6,91830,93665
6,92243,86396
6,92655,79382
6,93067,71071
6,93480,63588
6,93892,57021
6,94303,54295
6,94717,48874
6,95128,43589
6,95540,40778
6,95953,35637
6,96365,32652
6,96777,30790
6,97190,26557
6,97602,23785
6,98013,22404
6,98425,20900
6,98838,20901
6,99250,17458
6,99662,16326
7,00075,16996
7,00487,15877
7,00898,14390
7,01312,14652
7,01723,13040
7,02135,13926
7,02548,11569
7,02960,12089
7,03372,11486
7,03785,11056
7,04197,10696
7,04608,10273
7,05022,10744
7,05433,9482
7,05845,8931
7,06258,10115
7,06670,9369
7,07082,9629
7,07493,8372
7,07907,9534
7,08318,9290
7,08730,8684
7,09143,8179
7,09555,9011
7,09967,8873
7,10380,8119
7,10792,8698
7,11203,8160
7,11617,8205
7,12028,8330
7,12440,8079
7,12853,8949
7,13265,8009
7,13677,7577
7,14090,8401
7,14502,8800
7,14913,8118
7,15327,8439
7,15738,7512
7,16150,7613
7,16562,8039
7,16975,7260
7,17387,7871
7,17798,8752
7,18212,9006
7,18623,7869
7,19035,8209
7,19448,7880
7,19860,7794
7,20272,7240
7,20685,7810
7,21097,7319
7,21508,6812
7,21922,7627
7,22333,7456
7,22745,6981
7,23158,7135
7,23570,7638
7,23982,8179
7,24395,7475
7,24807,6851
7,25218,7093
7,25630,6900
7,26043,7496
7,26455,6846
7,26867,7526
7,27280,6812
7,27692,7503
7,28103,7285
7,28517,7773
7,28928,6331
7,29340,8100
7,29753,6826
7,30165,6671
7,30577,6335
7,30990,7324
7,31402,6675
7,31813,6692
7,32227,5778
7,32638,6345
7,33050,6594
7,33463,7044
7,33875,7515
7,34287,6424
7,34698,6744
7,35112,6013
7,35523,7249
7,35935,6095
7,36348,6164
7,36760,6508
7,37172,5834
7,37585,6860
7,37997,6217
7,38408,7166
7,38822,6593
7,39233,6604
7,39645,6801
7,40058,6046
7,40470,7194
7,40882,6086
7,41295,5899
7,41707,6323
7,42118,5965
7,42532,6197
7,42943,6805
7,43355,6746
7,43767,6060
7,44180,6398
7,44592,5997
7,45003,6103
7,45417,6329
7,45828,7119
7,46240,6464
7,46653,7101
7,47065,6941
7,47477,5848
7,47890,6160
7,48302,6366
7,48713,5618
7,49127,6496
7,49538,6500
7,49950,5514
7,50363,6148
7,50775,5839
7,51187,6593
7,51600,5437
7,52012,5811
7,52423,6032
7,52835,6598
7,53248,5999
7,53660,5502
7,54072,6662
7,54485,5237
7,54897,6011
7,55308,6699
7,55722,7071
7,56133,7474
7,56545,8680
7,56958,12165
7,57370,17160
7,57782,27758
7,58195,42512
7,58607,64613
7,59018,91566
7,59432,128105
7,59843,163776
7,60255,199608
7,60668,227669
7,61080,259931
7,61492,270252
7,61905,276194
7,62317,282095
7,62728,269775
7,63140,262527
7,63553,249941
7,63965,238407
7,64377,221213
7,64790,206889
7,65202,195703
7,65613,182136
7,66027,166030
7,66438,157724
7,66850,140598
7,67263,128898
7,67675,121590
7,68087,109085
7,68500,99391
7,68912,91265
7,69323,80360
7,69737,71397
7,70148,66807
7,70560,58252
7,70973,52537
7,71385,48242
7,71797,41928
7,72208,37234
7,72622,32151
7,73033,30102
7,73445,25943
7,73858,23985
7,74270,21424
7,74682,21013
7,75095,18933
7,75507,16659
7,75918,14772
7,76332,13279
7,76743,12492
7,77155,12129
7,77568,11824
7,77980,11177
7,78392,9440
7,78805,9800
7,79217,8959
7,79628,9043
7,80042,8453
7,80453,7660
7,80865,7670
7,81277,7348
7,81690,7574
7,82102,7124
7,82513,7248
7,82927,7311
7,83338,7361
7,83750,6199
7,84163,7581
7,84575,6302
7,84987,7025
7,85400,7035
7,85812,6770
7,86223,6722
7,86637,6580
7,87048,6569
7,87460,6950
7,87873,6470
7,88285,7366
7,88697,6757
7,89110,7403
7,89522,7618
7,89933,7243
7,90345,7596
7,90758,8190
7,91170,7129
7,91582,8318
7,91995,7592
7,92407,7326
7,92818,8348
7,93232,7601
7,93643,7193
7,94055,7185
7,94468,7689
7,94880,7680
7,95292,7336
7,95705,5892
7,96117,7543
7,96528,6343
7,96942,6610
7,97353,5633
7,97765,7174
7,98178,5902
7,98590,6218
7,99002,6583
7,99413,5609
7,99827,6516
8,00238,5769
8,00650,5060
8,01063,5547
8,01475,5856
8,01887,5380
8,02300,5235
8,02712,5356
8,03123,5364
8,03537,5141
8,03948,5399
8,04360,5253
8,04773,4917
8,05185,5252
8,05597,5031
8,06010,4919
8,06422,4903
8,06833,5088
8,07247,5240
8,07658,4422
8,08070,4840
8,08482,4479
8,08895,4397
8,09307,4613
8,09718,5123
8,10132,5131
8,10543,4477
8,10955,4917
8,11368,4828
8,11780,5153
8,12192,4433
8,12605,4643
8,13017,4318
8,13428,4334
8,13842,4193
8,14253,4799
8,14665,5094
8,15078,4800
8,15490,4383
8,15902,4281
8,16315,4512
8,16727,4810
8,17138,3891
8,17550,3950
8,17963,4639
8,18375,4581
8,18787,4279
8,19200,4051
8,19612,4629
8,20023,4418
8,20437,4646
8,20848,4668
8,21260,4515
8,21673,4385
8,22085,4740
8,22497,4802
8,22910,3800
8,23322,4056
8,23733,4467
8,24147,4246
8,24558,4141
8,24970,4804
8,25383,4166
8,25795,4857
8,26207,4761
8,26618,4559
8,27032,4680
8,27443,3543
8,27855,4788
8,28268,4096
8,28680,4282
8,29092,3937
8,29505,4410
8,29917,4690
8,30328,4251
8,30742,3924
8,31153,4323
8,31565,4396
8,31978,4415
8,32390,4269
8,32802,4446
8,33215,4664
8,33627,4768
8,34038,4302
8,34452,3958
8,34863,4204
8,35275,4412
8,35687,4662
8,36100,4514
8,36512,4034
8,36923,4151
8,37337,4638
8,37748,3329
8,38160,4221
8,38573,3654
8,38985,3703
8,39397,3913
8,39810,4203
8,40222,3965
8,40633,4361
8,41047,4278
8,41458,4135
8,41870,4155
8,42283,4164
8,42695,4614
8,43107,4377
8,43520,4067
8,43932,3996
8,44343,4262
8,44755,3739
8,45168,3933
8,45580,3573
8,45992,3791
8,46405,4298
8,46817,4399
8,47228,5317
8,47642,7290
8,48053,12076
8,48465,21284
8,48878,37090
8,49290,66819
8,49702,104836
8,50115,157129
8,50527,232073
8,50938,313129
8,51352,409567
8,51763,498312
8,52175,578979
8,52588,645652
8,53000,693792
8,53412,707621
8,53823,704921
8,54237,696403
8,54648,669277
8,55060,632435
8,55473,580646
8,55885,542273
8,56297,479768
8,56710,439546
8,57122,395271
8,57533,362011
8,57947,322281
8,58358,288156
8,58770,249234
8,59183,222873
8,59595,189428
8,60007,165518
8,60420,143506
8,60832,121857
8,61243,107365
8,61657,91853
8,62068,75292
8,62480,66629
8,62892,57918
8,63305,49120
8,63717,42546
8,64128,37885
8,64542,33138
8,64953,29049
8,65365,26593
8,65778,24050
8,66190,21395
8,66602,19793
8,67015,19215
8,67427,15719
8,67838,16292
8,68252,14529
8,68663,13507
8,69075,12750
8,69488,12517
8,69900,11064
8,70312,10871
8,70725,10427
8,71137,9533
8,71548,9447
8,71960,9503
8,72373,9007
8,72785,8439
8,73197,7536
8,73610,8096
8,74022,7278
8,74433,7748
8,74847,7567
8,75258,6405
8,75670,6393
8,76083,6789
8,76495,6397
8,76907,6192
8,77320,6369
8,77732,6188
8,78143,5597
8,78557,6196
8,78968,5575
8,79380,5520
8,79793,4908
8,80205,5578
8,80617,5799
8,81028,5127
8,81442,4965
8,81853,5489
8,82265,4914
8,82678,4798
8,83090,5000
8,83502,5131
8,83915,4991
8,84327,5344
8,84738,5258
8,85152,5471
8,85563,5006
8,85975,5374
8,86388,6188
8,86800,5364
8,87212,5999
8,87625,5503
8,88037,4637
8,88448,4937
8,88862,4472
8,89273,4653
8,89685,4263
8,90097,5228
8,90510,4329
8,90922,4577
8,91333,3936
8,91747,4574
8,92158,4534
8,92570,4572
8,92983,4447
8,93395,4049
8,93807,3558
8,94220,4039
8,94632,4117
8,95043,3964
8,95457,4234
8,95868,3618
8,96280,3494
8,96693,3725
8,97105,3957
8,97517,3334
8,97930,4468
8,98342,4171
8,98753,3598
8,99165,3745
8,99578,3344
8,99990,4353
9,00402,3601
9,00815,3170
9,01227,3377
9,01638,3569
9,02052,3316
9,02463,3648
9,02875,3113
9,03288,3575
9,03700,3315
9,04112,3988
9,04525,3250
9,04937,3453
9,05348,3456
9,05762,3390
9,06173,3611
9,06585,3694
9,06998,3697
9,07410,3139
9,07822,3541
9,08233,4157
9,08647,3804
9,09058,3664
9,09470,3255
9,09883,3839
9,10295,3519
9,10707,3491
9,11120,4003
9,11532,3726
9,11943,3829
9,12357,3577
9,12768,3592
9,13180,3005
9,13593,3869
9,14005,3709
9,14417,3682
9,14830,3586
9,15242,3461
9,15653,2839
9,16067,3391
9,16478,3330
9,16890,3780
9,17303,3686
9,17715,3102
9,18127,3495
9,18538,3277
9,18952,3413
9,19363,4070
9,19775,3248
9,20188,3155
9,20600,3230
9,21012,4019
9,21425,3283
9,21837,4149
9,22248,4178
9,22662,4588
9,23073,4959
9,23485,5184
9,23898,5542
9,24310,6013
9,24722,5970
9,25135,6061
9,25547,6210
9,25958,6426
9,26372,5844
9,26783,6254
9,27195,6432
9,27607,6541
9,28020,6274
9,28432,5576
9,28843,5530
9,29257,5541
9,29668,4540
9,30080,5012
9,30493,5056
9,30905,5142
9,31317,4094
9,31730,4748
9,32142,4258
9,32553,3767
9,32967,4094
9,33378,3858
9,33790,3464
9,34203,3866
9,34615,3215
9,35027,3733
9,35440,3455
9,35852,3549
9,36263,3856
9,36675,3897
9,37088,3540
9,37500,3012
9,37912,2552
9,38325,3066
9,38737,3313
9,39148,3288
9,39562,3687
9,39973,3168
9,40385,2790
9,40798,3040
9,41210,3283
9,41622,3014
9,42035,2791
9,42447,2616
9,42858,2548
9,43272,2815
9,43683,3284
9,44095,2967
9,44508,2621
9,44920,2523
9,45332,2939
9,45743,2712
9,46157,2906
9,46568,2946
9,46980,3375
9,47393,3753
9,47805,5809
9,48217,9194
9,48630,15342
9,49042,25845
9,49453,44639
9,49867,72319
9,50278,104875
9,50690,148287
9,51103,203371
9,51515,261188
9,51927,322596
9,52340,362462
9,52752,399599
9,53163,422334
9,53577,430489
9,53988,428272
9,54400,407401
9,54812,389649
9,55225,358191
9,55637,319595
9,56048,289002
9,56462,254515
9,56873,220544
9,57285,191653
9,57698,158443
9,58110,135460
9,58522,119251
9,58935,97822
9,59347,81047
9,59758,68106
9,60172,56216
9,60583,47174
9,60995,41206
9,61408,35079
9,61820,30149
9,62232,25353
9,62645,21756
9,63057,19590
9,63468,18139
9,63880,15134
9,64293,14421
9,64705,12719
9,65117,11387
9,65530,10233
9,65942,10560
9,66353,9841
9,66767,8654
9,67178,8164
9,67590,7752
9,68003,7486
9,68415,7702
9,68827,6951
9,69240,6256
9,69652,6466
9,70063,5831
9,70477,5167
9,70888,5739
9,71300,5369
9,71713,5393
9,72125,5533
9,72537,4624
9,72948,4589
9,73362,4428
9,73773,4230
9,74185,4594
9,74598,4273
9,75010,4255
9,75422,4565
9,75835,4167
9,76247,3931
9,76658,4146
9,77072,4716
9,77483,4138
9,77895,4055
9,78308,3836
9,78720,3596
9,79132,4053
9,79545,3417
9,79957,3777
9,80368,3324
9,80782,3093
9,81193,2876
9,81605,3545
9,82017,3268
9,82430,2996
9,82842,2825
9,83253,3589
9,83667,2783
9,84078,3066
9,84490,2326
9,84903,3595
9,85315,3241
9,85727,3404
9,86140,2765
9,86552,3186
9,86963,3238
9,87377,2467
9,87788,2784
9,88200,2818
9,88613,2853
9,89025,2763
9,89437,2926
9,89850,2420
9,90262,2780
9,90673,3308
9,91085,2850
9,91498,2239
9,91910,2899
9,92322,2799
9,92735,2294
9,93147,3007
9,93558,2489
9,93972,2345
9,94383,3046
9,94795,2434
9,95208,3098
9,95620,2763
9,96032,2941
9,96445,3395
9,96857,2416
9,97268,2321
9,97682,3129
9,98093,2362
9,98505,2527
9,98918,2091
9,99330,2368
9,99742,2347
10,00153,2733
10,00567,2575
10,00978,2646
10,01390,2622
10,01803,2571
10,02215,2892
10,02627,3384
10,03040,2924
10,03452,3109
10,03863,3717
10,04277,4237
10,04688,3819
10,05100,3742
10,05513,4223
10,05925,3872
10,06337,4580
10,06750,3899
10,07162,4008
10,07573,2802
10,07987,3826
10,08398,3797
10,08810,3723
10,09222,3511
10,09635,3164
10,10047,3244
10,10458,2656
10,10872,2721
10,11283,3008
10,11695,2244
10,12108,2352
10,12520,2281
10,12932,2567
10,13345,2090
10,13757,2117
10,14168,2503
10,14582,2223
10,14993,2738
10,15405,2143
10,15818,2432
10,16230,2445
10,16642,2030
10,17055,2131
10,17467,2364
10,17878,2187
10,18290,2444
10,18703,2057
10,19115,1928
10,19527,2205
10,19940,2893
10,20352,1715
10,20763,2753
10,21177,2236
10,21588,2456
10,22000,2969
10,22413,2921
10,22825,2799
10,23237,2790
10,23650,3164
10,24062,3684
10,24473,4203
10,24887,3695
10,25298,3550
10,25710,3008
10,26123,3884
10,26535,4194
10,26947,3569
10,27358,3684
10,27772,3271
10,28183,2936
10,28595,3308
10,29008,3105
10,29420,2748
10,29832,3026
10,30245,2447
10,30657,2848
10,31068,2445
10,31482,2837
10,31893,1952
10,32305,2472
10,32718,2766
10,33130,2584
10,33542,2770
10,33955,2747
10,34367,2590
10,34778,2415
10,35192,2267
10,35603,2068
10,36015,2579
10,36427,1988
10,36840,2486
10,37252,2380
10,37663,2138
10,38077,2135
10,38488,1980
10,38900,2264
10,39313,2447
10,39725,2038
10,40137,1854
10,40550,1958
10,40962,2720
10,41373,2057
10,41787,2347
10,42198,2157
10,42610,1909
10,43023,2503
10,43435,2005
10,43847,2452
10,44260,2160
10,44672,1823
10,45083,2523
10,45495,2210
10,45908,1947
10,46320,1906
10,46732,2132
10,47145,2018
10,47557,2250
10,47968,1612
10,48382,2088
10,48793,2225
10,49205,1998
10,49618,1619
10,50030,2058
10,50442,1650
10,50855,1837
10,51267,2188
10,51678,2418
10,52092,2189
10,52503,3226
10,52915,4780
10,53328,7892
10,53740,14066
10,54152,27305
10,54563,50689
10,54977,82885
10,55388,135954
10,55800,213408
10,56213,313173
10,56625,431548
10,57037,558814
10,57450,702270
10,57862,830287
10,58273,933736
10,58687,996783
10,59098,1040732
10,59510,1041512
10,59923,1014129
10,60335,925303
10,60747,850631
10,61160,749007
10,61572,644234
10,61983,542443
10,62397,454900
10,62808,369232
10,63220,306860
10,63632,244882
10,64045,203036
10,64457,162876
10,64868,135337
10,65282,114398
10,65693,91575
10,66105,79922
10,66518,64951
10,66930,58617
10,67342,50948
10,67755,43724
10,68167,38531
10,68578,33958
10,68992,31731
10,69403,27809
10,69815,23056
10,70228,23300
10,70640,21935
10,71052,18249
10,71465,17157
10,71877,16821
10,72288,14783
10,72702,14796
10,73113,12725
10,73525,12130
10,73937,10769
10,74350,10905
10,74762,9976
10,75173,10139
10,75587,9252
10,75998,8996
10,76410,7702
10,76823,8041
10,77235,7928
10,77647,7571
10,78060,7242
10,78472,7035
10,78883,6923
10,79297,6361
10,79708,6128
10,80120,5653
10,80533,5487
10,80945,6574
10,81357,5765
10,81770,6384
10,82182,5168
10,82593,6472
10,83005,6284
10,83418,5850
10,83830,6353
10,84242,6995
10,84655,6119
10,85067,6606
10,85478,6015
10,85892,6133
10,86303,5826
10,86715,5817
10,87128,5679
10,87540,4666
10,87952,4819
10,88365,4208
10,88777,4421
10,89188,4262
10,89602,3707
10,90013,4020
10,90425,4274
10,90838,3368
10,91250,3247
10,91662,2984
10,92073,3506
10,92487,2999
10,92898,2857
10,93310,3032
10,93723,3101
10,94135,2989
10,94547,2516
10,94960,2540
10,95372,2692
10,95783,2394
10,96197,2800
10,96608,3051
10,97020,2535
10,97433,2537
10,97845,2118
10,98257,1925
10,98670,2599
10,99082,2446
10,99493,2245
10,99907,2746
11,00318,2667
11,00730,2683
11,01142,2170
11,01555,2122
11,01967,2659
11,02378,2129
11,02792,2356
11,03203,2367
11,03615,2237
11,04028,1996
11,04440,2335
11,04852,2406
11,05265,2099
11,05677,2562
11,06088,1852
11,06502,2406
11,06913,2652
11,07325,1915
11,07738,2362
11,08150,2296
11,08562,2085
11,08975,2655
11,09387,2412
11,09798,2261
11,10210,2392
11,10623,3409
11,11035,3180
11,11447,3581
11,11860,4469
11,12272,4371
11,12683,4575
11,13097,5705
11,13508,5464
11,13920,5036
11,14333,5162
11,14745,3494
11,15157,3857
11,15570,2720
11,15982,2607
11,16393,2443
11,16807,2187
11,17218,2418
11,17630,2244
11,18043,2468
11,18455,2245
11,18867,2183
11,19278,1891
11,19692,1956
11,20103,1268
11,20515,2230
11,20928,1998
11,21340,1630
11,21752,1393
11,22165,1489
11,22577,1254
11,22988,1859
11,23402,1693
11,23813,1620
11,24225,1835
11,24638,1650
11,25050,2234
11,25462,2053
11,25875,1961
11,26287,1495
11,26698,1841
11,27112,1909
11,27523,2121
11,27935,1937
11,28347,1652
11,28760,1891
11,29172,1568
11,29583,2073
11,29997,1925
11,30408,2697
11,30820,3954
11,31233,8158
11,31645,13460
11,32057,24463
11,32470,44571
11,32882,72589
11,33293,105759
11,33707,155883
11,34118,217912
11,34530,282587
11,34943,350793
11,35355,418637
11,35767,467063
11,36180,498138
11,36592,501679
11,37003,500040
11,37415,472173
11,37828,432555
11,38240,386768
11,38652,340154
11,39065,287403
11,39477,244218
11,39888,199374
11,40302,159675
11,40713,130747
11,41125,104294
11,41538,86254
11,41950,71670
11,42362,57958
11,42775,47853
11,43187,40621
11,43598,34450
11,44012,29857
11,44423,26142
11,44835,23141
11,45248,19886
11,45660,17512
11,46072,15239
11,46483,13609
11,46897,13884
11,47308,11976
11,47720,11522
11,48133,9679
11,48545,9741
11,48957,7932
11,49370,8816
11,49782,8109
11,50193,6869
11,50607,6770
11,51018,6018
11,51430,5570
11,51843,6215
11,52255,5045
11,52667,4945
11,53080,4535
11,53492,4100
11,53903,3699
11,54317,2806
11,54728,3848
11,55140,3556
11,55552,3189
11,55965,3054
11,56377,2610
11,56788,3280
11,57202,2414
11,57613,2713
11,58025,2863
11,58438,2851
11,58850,2122
11,59262,2852
11,59675,2829
11,60087,3224
11,60498,2569
11,60912,3153
11,61323,3634
11,61735,5900
11,62148,10588
11,62560,17796
11,62972,30797
11,63385,52755
11,63797,90128
11,64208,133745
11,64620,191572
11,65033,267399
11,65445,346519
11,65857,425498
11,66270,493275
11,66682,541640
11,67093,581961
11,67507,585210
11,67918,560609
11,68330,525742
11,68743,466127
11,69155,413978
11,69567,358199
11,69980,290557
11,70392,239848
11,70803,190442
11,71217,153502
11,71628,120358
11,72040,95649
11,72453,77166
11,72865,62446
11,73277,52926
11,73688,43411
11,74102,38312
11,74513,32017
11,74925,27843
11,75338,23539
11,75750,22431
11,76162,18331
11,76575,17065
11,76987,16119
11,77398,13958
11,77812,13218
11,78223,12109
11,78635,10970
11,79048,10338
11,79460,8875
11,79872,7862
11,80285,7980
11,80697,6185
11,81108,7279
11,81522,6826
11,81933,6143
11,82345,5973
11,82757,5320
11,83170,5025
11,83582,5295
11,83993,5585
11,84407,4595
11,84818,3721
11,85230,3746
11,85643,4134
11,86055,3974
11,86467,2927
11,86880,3639
11,87292,3498
11,87703,3135
11,88117,3386
11,88528,3884
11,88940,2850
11,89353,3576
11,89765,3598
11,90177,2836
11,90590,3771
11,91002,3507
11,91413,2876
11,91825,2646
11,92238,2655
11,92650,2631
11,93062,2846
11,93475,2391
11,93887,2783
11,94298,2380
11,94712,2522
11,95123,2053
11,95535,2451
11,95948,2287
11,96360,2475
11,96772,1801
11,97185,2457
11,97597,2469
11,98008,2246
11,98422,1958
11,98833,2141
11,99245,1817
11,99658,1727
12,00070,1959
12,00482,2298
12,00893,2200
12,01307,1987
12,01718,1764
12,02130,1618
12,02543,2146
12,02955,1464
12,03367,1701
12,03780,1589
12,04192,1627
12,04603,1536
12,05017,1835
12,05428,1998
12,05840,1643
12,06253,1815
12,06665,1863
12,07077,1126
12,07490,2067
12,07902,1217
12,08313,1745
12,08727,1805
12,09138,1712
12,09550,2322
12,09962,2043
12,10375,1811
12,10787,1511
12,11198,1480
12,11612,1186
12,12023,1734
12,12435,1678
12,12848,1265
12,13260,1819
12,13672,2127
12,14085,2117
12,14497,1604
12,14908,2015
12,15322,1734
12,15733,2170
12,16145,1895
12,16558,1762
12,16970,1890
12,17382,2293
12,17795,2624
12,18207,1781
12,18618,1480
12,19030,1841
12,19443,1228
12,19855,2149
12,20267,1769
12,20680,1596
12,21092,1298
12,21503,1384
12,21917,1894
12,22328,1559
12,22740,1873
12,23153,1731
12,23565,1745
12,23977,1817
12,24390,1701
12,24802,1555
12,25213,1617
12,25627,1799
12,26038,1798
12,26450,1131
12,26863,1660
12,27275,1562
12,27687,1364
12,28098,1340
12,28512,1476
12,28923,1605
12,29335,1539
12,29748,1543
12,30160,1259
12,30572,1562
12,30985,1234
12,31397,1303
12,31808,1412
12,32222,1107
12,32633,1523
12,33045,1602
12,33458,1405
12,33870,1205
12,34282,1584
12,34695,1745
12,35107,1726
12,35518,1275
12,35932,1400
12,36343,957
12,36755,1462
12,37168,1448
12,37580,2127
12,37992,1347
12,38403,1524
12,38817,1428
12,39228,2396
12,39640,1836
12,40053,2633
12,40465,3600
12,40877,6707
12,41290,13471
12,41702,24994
12,42113,43811
12,42527,75439
12,42938,113994
12,43350,169289
12,43763,242214
12,44175,315976
12,44587,390230
12,45000,468433
12,45412,527689
12,45823,560832
12,46237,566016
12,46648,563695
12,47060,525553
12,47472,474711
12,47885,414554
12,48297,357445
12,48708,293650
12,49122,239863
12,49533,195963
12,49945,153779
12,50358,121400
12,50770,100284
12,51182,80210
12,51595,64034
12,52007,53414
12,52418,46417
12,52832,38703
12,53243,32951
12,53655,26942
12,54068,23887
12,54480,21244
12,54892,18449
12,55305,16886
12,55717,15647
12,56128,12702
12,56540,12583
12,56953,11915
12,57365,10903
12,57777,9093
12,58190,9137
12,58602,8597
12,59013,8172
12,59427,8089
12,59838,7140
12,60250,6190
12,60663,5013
12,61075,5405
12,61487,5010
12,61900,4897
12,62312,4789
12,62723,3797
12,63137,4857
12,63548,4009
12,63960,4213
12,64373,3011
12,64785,2805
12,65197,2903
12,65608,2814
12,66022,2532
12,66433,3292
12,66845,3026
12,67258,2685
12,67670,2894
12,68082,2663
12,68495,1965
12,68907,2698
12,69318,2590
12,69732,3886
12,70143,5430
12,70555,10544
12,70968,21979
12,71380,38926
12,71792,73022
12,72205,126156
12,72617,200010
12,73028,313077
12,73442,472345
12,73853,645902
12,74265,858131
12,74677,1110576
12,75090,1355679
12,75502,1586016
12,75913,1792686
12,76327,1935762
12,76738,1986529
12,77150,1954555
12,77563,1826779
12,77975,1609461
12,78387,1389307
12,78800,1126039
12,79212,900076
12,79623,699280
12,80037,542130
12,80448,419833
12,80860,330588
12,81273,258027
12,81685,210364
12,82097,168592
12,82510,142665
12,82922,120115
12,83333,102805
12,83745,89703
12,84158,80472
12,84570,70755
12,84982,61398
12,85395,57299
12,85807,49715
12,86218,43723
12,86632,41213
12,87043,38012
12,87455,36675
12,87868,32987
12,88280,32549
12,88692,28093
12,89105,25757
12,89517,23403
12,89928,22422
12,90342,20599
12,90753,18893
12,91165,17729
12,91578,16351
12,91990,15486
12,92402,15705
12,92813,14333
12,93227,13273
12,93638,11082
12,94050,12107
12,94463,11453
12,94875,11799
12,95287,10263
12,95700,11503
12,96112,9027
12,96523,8844
12,96937,8805
12,97348,7574
12,97760,7477
12,98173,7177
12,98585,7113
12,98997,6928
12,99410,6262
12,99822,6543
13,00233,5992
13,00647,5982
13,01058,5593
13,01470,4598
13,01882,5053
13,02295,5894
13,02707,4822
13,03118,5287
13,03532,4734
13,03943,5183
13,04355,4735
13,04768,4964
13,05180,3446
13,05592,4297
13,06005,3799
13,06417,4085
13,06828,3647
13,07242,3745
13,07653,3254
13,08065,3455
13,08478,3683
13,08890,3609
13,09302,3143
13,09715,4077
13,10127,3404
13,10538,3281
13,10950,2992
13,11363,2304
13,11775,2967
13,12187,2301
13,12600,2479
13,13012,2692
13,13423,3307
13,13837,2227
13,14248,2915
13,14660,3009
13,15073,2609
13,15485,2642
13,15897,2810
13,16310,2885
13,16722,2707
13,17133,3110
13,17547,2976
13,17958,2403
13,18370,2870
13,18783,3578
13,19195,2796
13,19607,3038
13,20018,2314
13,20432,2651
13,20843,2728
13,21255,2435
13,21668,2302
13,22080,2023
13,22492,2106
13,22905,2071
13,23317,1971
13,23728,1756
13,24142,1990
13,24553,1715
13,24965,1582
13,25378,2201
13,25790,2619
13,26202,1908
13,26615,2349
13,27027,1938
13,27438,2017
13,27852,2079
13,28263,1663
13,28675,2050
13,29087,2532
13,29500,3013
13,29912,3347
13,30323,2968
13,30737,2194
13,31148,2234
13,31560,2993
13,31973,1776
13,32385,2700
13,32797,2372
13,33210,1569
13,33622,2062
13,34033,2835
13,34447,1900
13,34858,3665
13,35270,5668
13,35683,11155
13,36095,19822
13,36507,34367
13,36920,61793
13,37332,97703
13,37743,150974
13,38155,210604
13,38568,301990
13,38980,384348
13,39392,460566
13,39805,535122
13,40217,591509
13,40628,609537
13,41042,601557
13,41453,575795
13,41865,529593
13,42278,464464
13,42690,393752
13,43102,332641
13,43515,272481
13,43927,217798
13,44338,172352
13,44752,142240
13,45163,110422
13,45575,95029
13,45988,78183
13,46400,62195
13,46812,56019
13,47223,46422
13,47637,38679
13,48048,33893
13,48460,31332
13,48873,24221
13,49285,22970
13,49697,21078
13,50110,19545
13,50522,15856
13,50933,15216
13,51347,13975
13,51758,14260
13,52170,12017
13,52583,13232
13,52995,13134
13,53407,13841
13,53820,11547
13,54232,11728
13,54643,12194
13,55057,10965
13,55468,10128
13,55880,9787
13,56292,8882
13,56705,7578
13,57117,6611
13,57528,6294
13,57942,5307
13,58353,5040
13,58765,6179
13,59178,4386
13,59590,3785
13,60002,4946
13,60415,3413
13,60827,3513
13,61238,4305
13,61652,3834
13,62063,3385
13,62475,3071
13,62888,2937
13,63300,3173
13,63712,2821
13,64125,3373
13,64537,2891
13,64948,2456
13,65360,2717
13,65773,2178
13,66185,2341
13,66597,2253
13,67010,1932
13,67422,1968
13,67833,2077
13,68247,2050
13,68658,2342
13,69070,1904
13,69483,2255
13,69895,2208
13,70307,2598
13,70720,2143
13,71132,2309
13,71543,2084
13,71957,1574
13,72368,2013
13,72780,1688
13,73193,1903
13,73605,1640
13,74017,1220
13,74428,1516
13,74842,1901
13,75253,1653
13,75665,1982
13,76078,1521
13,76490,1246
13,76902,2274
13,77315,2417
13,77727,2938
13,78138,5350
13,78552,8974
13,78963,16606
13,79375,32491
13,79788,55552
13,80200,91134
13,80612,145116
13,81025,212671
13,81437,291994
13,81848,389333
13,82262,488895
13,82673,586114
13,83085,654632
13,83497,694763
13,83910,703880
13,84322,671401
13,84733,619346
13,85147,542499
13,85558,467001
13,85970,383813
13,86383,298451
13,86795,241019
13,87207,187898
13,87620,147065
13,88032,116110
13,88443,92419
13,88857,76262
13,89268,62480
13,89680,51875
13,90093,44600
13,90505,36332
13,90917,31466
13,91330,29244
13,91742,25818
13,92153,23056
13,92567,19742
13,92978,19452
13,93390,18582
13,93802,14788
13,94215,13791
13,94627,12251
13,95038,11314
13,95452,11926
13,95863,11035
13,96275,8807
13,96688,9235
13,97100,8816
13,97512,8603
13,97925,6933
13,98337,7868
13,98748,7485
13,99162,6127
13,99573,6177
13,99985,5156
14,00398,6106
14,00810,5479
14,01222,5037
14,01635,5059
14,02047,5035
14,02458,5267
14,02870,4170
14,03283,4363
14,03695,3936
14,04107,4098
14,04520,4046
14,04932,4059
14,05343,3685
14,05757,3748
14,06168,3855
14,06580,3750
14,06993,2714
14,07405,3331
14,07817,3009
14,08230,2587
14,08642,3152
14,09053,2352
14,09467,2992
14,09878,3007
14,10290,2940
14,10703,2051
14,11115,2688
14,11527,2881
14,11938,2235
14,12352,3199
14,12763,3211
14,13175,2726
14,13588,2865
14,14000,2620
14,14412,2700
14,14825,2389
14,15237,1705
14,15648,2504
14,16062,2579
14,16473,2236
14,16885,1893
14,17298,2291
14,17710,2295
14,18122,2417
14,18535,2105
14,18947,2369
14,19358,2283
14,19772,1723
14,20183,2085
14,20595,2184
14,21007,2002
14,21420,1815
14,21832,1853
14,22243,1169
14,22657,2136
14,23068,1715
14,23480,1841
14,23893,1864
14,24305,1774
14,24717,1789
14,25130,1942
14,25542,2363
14,25953,1456
14,26367,1580
14,26778,1852
14,27190,898
14,27603,1774
14,28015,1208
14,28427,2264
14,28840,1673
14,29252,1182
14,29663,1664
14,30075,1894
14,30488,1249
14,30900,1690
14,31312,1215
14,31725,1853
14,32137,1500
14,32548,1389
14,32962,1626
14,33373,1875
14,33785,2076
14,34198,1241
14,34610,1849
14,35022,1480
14,35435,1469
14,35847,1823
14,36258,2048
14,36672,1595
14,37083,1163
14,37495,1069
14,37908,1085
14,38320,970
14,38732,1567
14,39143,897
14,39557,1398
14,39968,1742
14,40380,1240
14,40793,2487
14,41205,1945
14,41617,2934
14,42030,4159
14,42442,7699
14,42853,15054
14,43267,27132
14,43678,52859
14,44090,85781
14,44503,125201
14,44915,200208
14,45327,277816
14,45740,374804
14,46152,459614
14,46563,553524
14,46977,620224
14,47388,667859
14,47800,675531
14,48212,659836
14,48625,617737
14,49037,545216
14,49448,461217
14,49862,386130
14,50273,309315
14,50685,253898
14,51098,196551
14,51510,156844
14,51922,123691
14,52335,100707
14,52747,80637
14,53158,67108
14,53572,54747
14,53983,46888
14,54395,38428
14,54808,32764
14,55220,29765
14,55632,27478
14,56045,22816
14,56457,20686
14,56868,19019
14,57280,18138
14,57693,15576
14,58105,14686
14,58517,13245
14,58930,12331
14,59342,11490
14,59753,10664
14,60167,10657
14,60578,8300
14,60990,9745
14,61403,7732
14,61815,7350
14,62227,6961
14,62640,7575
14,63052,6203
14,63463,6108
14,63877,6117
14,64288,6112
14,64700,4755
14,65113,4390
14,65525,5034
14,65937,5360
14,66348,4499
14,66762,5498
14,67173,6149
14,67585,6809
14,67998,7082
14,68410,9461
14,68822,11023
14,69235,12515
14,69647,12373
14,70058,12890
14,70472,13226
14,70883,12657
14,71295,13046
14,71708,11894
14,72120,11275
14,72532,9553
14,72945,9556
14,73357,8440
14,73768,5802
14,74182,5557
14,74593,5857
14,75005,4044
14,75417,4630
14,75830,4892
14,76242,3377
14,76653,3569
14,77067,2845
14,77478,4830
14,77890,2930
14,78303,2466
14,78715,2506
14,79127,2190
14,79540,2318
14,79952,1876
14,80363,2269
14,80777,1773
14,81188,2440
14,81600,2033
14,82013,2077
14,82425,2128
14,82837,2975
14,83250,3412
14,83662,5352
14,84073,11262
14,84485,20907
14,84898,39814
14,85310,66771
14,85722,110876
14,86135,178710
14,86547,272817
14,86958,393199
14,87372,543294
14,87783,707943
14,88195,885858
14,88608,1082059
14,89020,1273954
14,89432,1420697
14,89845,1526142
14,90257,1533996
14,90668,1478572
14,91082,1344158
14,91493,1180136
14,91905,981994
14,92318,788186
14,92730,616655
14,93142,483097
14,93553,380497
14,93967,296979
14,94378,231768
14,94790,187879
14,95203,154328
14,95615,127807
14,96027,107544
14,96440,91811
14,96852,81787
14,97263,68638
14,97677,61477
14,98088,56379
14,98500,48912
14,98913,43273
14,99325,39154
14,99737,36448
15,00150,33444
15,00562,30601
15,00973,27946
15,01387,26628
15,01798,23609
15,02210,23525
15,02622,20950
15,03035,20541
15,03447,17868
15,03858,16792
15,04272,16052
15,04683,14720
15,05095,13428
15,05508,13826
15,05920,13310
15,06332,11904
15,06745,11017
15,07157,11397
15,07568,10147
15,07982,10359
15,08393,9995
15,08805,8849
15,09218,9558
15,09630,7674
15,10042,7772
15,10455,7633
15,10867,6592
15,11278,6032
15,11690,5589
15,12103,5774
15,12515,6386
15,12927,6335
15,13340,6014
15,13752,4910
15,14163,4771
15,14577,5268
15,14988,5423
15,15400,4861
15,15813,4446
15,16225,4921
15,16637,3867
15,17050,4199
15,17462,3878
15,17873,3999
15,18287,3722
15,18698,4152
15,19110,3805
15,19523,5804
15,19935,7367
15,20347,13064
15,20758,20929
15,21172,36530
15,21583,59172
15,21995,95935
15,22408,155998
15,22820,223322
15,23232,304560
15,23645,404935
15,24057,506746
15,24468,599574
15,24882,665107
15,25293,717540
15,25705,727675
15,26118,702904
15,26530,654217
15,26942,571521
15,27355,491228
15,27767,402150
15,28178,330681
15,28592,264171
15,29003,210680
15,29415,169443
15,29827,134062
15,30240,108301
15,30652,87001
15,31063,71649
15,31477,60284
15,31888,48876
15,32300,46968
15,32713,37412
15,33125,34605
15,33537,31701
15,33950,28695
15,34362,26095
15,34773,21674
15,35187,19866
15,35598,20174
15,36010,17914
15,36423,16183
15,36835,15673
15,37247,14555
15,37660,15604
15,38072,18138
15,38483,23815
15,38895,37105
15,39308,58823
15,39720,92181
15,40132,144584
15,40545,229635
15,40957,334875
15,41368,470837
15,41782,626651
15,42193,807348
15,42605,993933
15,43018,1184133
15,43430,1331913
15,43842,1426198
15,44255,1446784
15,44667,1409760
15,45078,1297344
15,45492,1139628
15,45903,971153
15,46315,791178
15,46728,630091
15,47140,494567
15,47552,389327
15,47963,306256
15,48377,239064
15,48788,196884
15,49200,163487
15,49613,135412
15,50025,115143
15,50437,96320
15,50850,83766
15,51262,75141
15,51673,66318
15,52087,59481
15,52498,52971
15,52910,48600
15,53323,45624
15,53735,40468
15,54147,36433
15,54560,33462
15,54972,31916
15,55383,30093
15,55797,28208
15,56208,24150
15,56620,23071
15,57033,21124
15,57445,20987
15,57857,19498
15,58268,18437
15,58682,17014
15,59093,15720
15,59505,15583
15,59918,13191
15,60330,13530
15,60742,13948
15,61155,12935
15,61567,11680
15,61978,10935
15,62392,9693
15,62803,11005
15,63215,10049
15,63628,9599
15,64040,9495
15,64452,8470
15,64865,7936
15,65277,8291
15,65688,10128
15,66102,8927
15,66513,9429
15,66925,11448
15,67337,11185
15,67750,10019
15,68162,9394
15,68573,7534
15,68987,6788
15,69398,6017
15,69810,4854
15,70223,5575
15,70635,5063
15,71047,5721
15,71460,4488
15,71872,4633
15,72283,4285
15,72697,3710
15,73108,4408
15,73520,3939
15,73933,4722
15,74345,2822
15,74757,3728
15,75170,2828
15,75582,3252
15,75993,3475
15,76405,3369
15,76818,3073
15,77230,3291
15,77642,3379
15,78055,3778
15,78467,2945
15,78878,3062
15,79292,3794
15,79703,5254
15,80115,5763
15,80528,9669
15,80940,16508
15,81352,31902
15,81765,52327
15,82177,89219
15,82588,142793
15,83002,204326
15,83413,288853
15,83825,387019
15,84238,487701
15,84650,581819
15,85062,644131
15,85473,676231
15,85887,677189
15,86298,647385
15,86710,592455
15,87123,523348
15,87535,447534
15,87947,365827
15,88360,293071
15,88772,236129
15,89183,189211
15,89597,149924
15,90008,122244
15,90420,98069
15,90833,80492
15,91245,69910
15,91657,59144
15,92070,51779
15,92482,44284
15,92893,39715
15,93307,34086
15,93718,33294
15,94130,28561
15,94542,24505
15,94955,22858
15,95367,21165
15,95778,18446
15,96192,17579
15,96603,16668
15,97015,15335
15,97428,14747
15,97840,13953
15,98252,13291
15,98665,10866
15,99077,10490
15,99488,10604
15,99902,9484
16,00313,9041
16,00725,8496
16,01138,8448
16,01550,7640
16,01962,7352
16,02375,7275
16,02787,6616
16,03198,6478
16,03610,6175
16,04023,6870
16,04435,5863
16,04847,6172
16,05260,5744
16,05672,5567
16,06083,5937
16,06497,5616
16,06908,6248
16,07320,6492
16,07733,5633
16,08145,5451
16,08557,4990
16,08970,4844
16,09382,4797
16,09793,5566
16,10207,4823
16,10618,4470
16,11030,4685
16,11443,4326
16,11855,3863
16,12267,3757
16,12678,4038
16,13092,4312
16,13503,4759
16,13915,4160
16,14328,4145
16,14740,3813
16,15152,3725
16,15565,4102
16,15977,3848
16,16388,4527
16,16802,3080
16,17213,3656
16,17625,4068
16,18038,3454
16,18450,2560
16,18862,2393
16,19275,2643
16,19687,2624
16,20098,2857
16,20512,2769
16,20923,3411
16,21335,4069
16,21747,6287
16,22160,11543
16,22572,18647
16,22983,32626
16,23397,53086
16,23808,92959
16,24220,141714
16,24633,208133
16,25045,287129
16,25457,383683
16,25870,460114
16,26282,545360
16,26693,608234
16,27107,647501
16,27518,648869
16,27930,611696
16,28343,568335
16,28755,498686
16,29167,413227
16,29580,346811
16,29992,283060
16,30403,218293
16,30815,178863
16,31228,142617
16,31640,114048
16,32052,91978
16,32465,77380
16,32877,63955
16,33288,54856
16,33702,45928
16,34113,40645
16,34525,35077
16,34938,32558
16,35350,29068
16,35762,25123
16,36175,22791
16,36587,21898
16,36998,18998
16,37412,18640
16,37823,18388
16,38235,16672
16,38648,14858
16,39060,13406
16,39472,12096
16,39883,12694
16,40297,10955
16,40708,10391
16,41120,10252
16,41533,9187
16,41945,9382
16,42357,8552
16,42770,9244
16,43182,8079
16,43593,8284
16,44007,8205
16,44418,7151
16,44830,8366
16,45243,7701
16,45655,8735
16,46067,6624
16,46480,6104
16,46892,6600
16,47303,5405
16,47717,5756
16,48128,5634
16,48540,5613
16,48952,4720
16,49365,4387
16,49777,5236
16,50188,4456
16,50602,3639
16,51013,4663
16,51425,4579
16,51838,3798
16,52250,3245
16,52662,4340
16,53075,3127
16,53487,4090
16,53898,3663
16,54312,3384
16,54723,3151
16,55135,3024
16,55548,3619
16,55960,3126
16,56372,2970
16,56785,2865
16,57197,2514
16,57608,3216
16,58020,2915
16,58433,2486
16,58845,2884
16,59257,2993
16,59670,2661
16,60082,2699
16,60493,2060
16,60907,2688
16,61318,1772
16,61730,2794
16,62143,3066
16,62555,2959
16,62967,3436
16,63380,2263
16,63792,2502
16,64203,2507
16,64617,2335
16,65028,3415
16,65440,2498
16,65853,2456
16,66265,2500
16,66677,2878
16,67088,2756
16,67502,2277
16,67913,2609
16,68325,2439
16,68738,2751
16,69150,2515
16,69562,2882
16,69975,2389
16,70387,2345
16,70798,2329
16,71212,2349
16,71623,2491
16,72035,3216
16,72448,2377
16,72860,1985
16,73272,2540
16,73685,1401
16,74097,2330
16,74508,2633
16,74922,1820
16,75333,1900
16,75745,1933
16,76157,1656
16,76570,1632
16,76982,1868
16,77393,1927
16,77807,2348
16,78218,1434
16,78630,1814
16,79043,1958
16,79455,1516
16,79867,3050
16,80280,3324
16,80692,4683
16,81103,8923
16,81517,16279
16,81928,27981
16,82340,46528
16,82753,76460
16,83165,118250
16,83577,171166
16,83990,244437
16,84402,329000
16,84813,409856
16,85225,480612
16,85638,555774
16,86050,579326
16,86462,594862
16,86875,582163
16,87287,551105
16,87698,525339
16,88112,485561
16,88523,481041
16,88935,488997
16,89348,544817
16,89760,623723
16,90172,738315
16,90585,889325
16,90997,1049769
16,91408,1243793
16,91822,1422384
16,92233,1562125
16,92645,1678465
16,93058,1705896
16,93470,1640730
16,93882,1505658
16,94293,1294458
16,94707,1103155
16,95118,877968
16,95530,688698
16,95943,536828
16,96355,418542
16,96767,335203
16,97180,268344
16,97592,219538
16,98003,184688
16,98417,155838
16,98828,137716
16,99240,121595
16,99653,104316
17,00065,95033
17,00477,87400
17,00890,82541
17,01302,76227
17,01713,69668
17,02127,67991
17,02538,63531
17,02950,57884
17,03362,51476
17,03775,50093
17,04187,44103
17,04598,40953
17,05012,39102
17,05423,34872
17,05835,31951
17,06248,29938
17,06660,28374
17,07072,26937
17,07485,25081
17,07897,24348
17,08308,22497
17,08722,20791
17,09133,20082
17,09545,19073
17,09958,17148
17,10370,16384
17,10782,15392
17,11195,14856
17,11607,13664
17,12018,15221
17,12430,14289
17,12843,12176
17,13255,12041
17,13667,11319
17,14080,12038
17,14492,11684
17,14903,11019
17,15317,10334
17,15728,9827
17,16140,10518
17,16553,8802
17,16965,9244
17,17377,9683
17,17790,9957
17,18202,11607
17,18613,16090
17,19027,23083
17,19438,36462
17,19850,53919
17,20263,85719
17,20675,133039
17,21087,191190
17,21500,262295
17,21912,338718
17,22323,417502
17,22735,485097
17,23148,529198
17,23560,571567
17,23972,565289
17,24385,540604
17,24797,494514
17,25208,436331
17,25622,364773
17,26033,305735
17,26445,248922
17,26858,199425
17,27270,161469
17,27682,130826
17,28095,107389
17,28507,83439
17,28918,71598
17,29332,59562
17,29743,52748
17,30155,47310
17,30568,39744
17,30980,34648
17,31392,32583
17,31803,28994
17,32217,25780
17,32628,22739
17,33040,21310
17,33453,22336
17,33865,17918
17,34277,19225
17,34690,16002
17,35102,16019
17,35513,15898
17,35927,15574
17,36338,13032
17,36750,13889
17,37163,13787
17,37575,16440
17,37987,18964
17,38400,27619
17,38812,41936
17,39223,64248
17,39637,96284
17,40048,144851
17,40460,214182
17,40872,300197
17,41285,384238
17,41697,499862
17,42108,601208
17,42522,687596
17,42933,749435
17,43345,778996
17,43758,756008
17,44170,709203
17,44582,634707
17,44995,552499
17,45407,457197
17,45818,377517
17,46232,304902
17,46643,241744
17,47055,193234
17,47468,158359
17,47880,127950
17,48292,106234
17,48705,89850
17,49117,76107
17,49528,66140
17,49940,58483
17,50353,52669
17,50765,47690
17,51177,42725
17,51590,36561
17,52002,34168
17,52413,33283
17,52827,28967
17,53238,27162
17,53650,26072
17,54063,22419
17,54475,22710
17,54887,22045
17,55300,19590
17,55712,19036
17,56123,17983
17,56537,17619
17,56948,15616
17,57360,16164
17,57773,14468
17,58185,14022
17,58597,12674
17,59008,13236
17,59422,11630
17,59833,11285
17,60245,10386
17,60658,10951
17,61070,9341
17,61482,9595
17,61895,7592
17,62307,8657
17,62718,8063
17,63132,7860
17,63543,8150
17,63955,7142
17,64368,6918
17,64780,8285
17,65192,7195
17,65605,6389
17,66017,7379
17,66428,7650
17,66842,6694
17,67253,7071
17,67665,5413
17,68077,6887
17,68490,6460
17,68902,7052
17,69313,5080
17,69727,5884
17,70138,6560
17,70550,5199
17,70963,5120
17,71375,5335
17,71787,5153
17,72200,6121
17,72612,5752
17,73023,4355
17,73437,5010
17,73848,5237
17,74260,4705
17,74673,4814
17,75085,5208
17,75497,4371
17,75910,4506
17,76322,4925
17,76733,3985
17,77145,4792
17,77558,4668
17,77970,5369
17,78382,5531
17,78795,7737
17,79207,7284
17,79618,7598
17,80032,7791
17,80443,6249
17,80855,4962
17,81268,5755
17,81680,5886
17,82092,5949
17,82505,6069
17,82917,8761
17,83328,13498
17,83742,21815
17,84153,41202
17,84565,67313
17,84978,106218
17,85390,162792
17,85802,242230
17,86213,332735
17,86627,444184
17,87038,565362
17,87450,663450
17,87863,767941
17,88275,841962
17,88687,866171
17,89100,842337
17,89512,778067
17,89923,681667
17,90337,583656
17,90748,472618
17,91160,380217
17,91573,300479
17,91985,239574
17,92397,189519
17,92810,155779
17,93222,125971
17,93633,110472
17,94047,91529
17,94458,77460
17,94870,68740
17,95282,60176
17,95695,54236
17,96107,50406
17,96518,45374
17,96932,38486
17,97343,35611
17,97755,34136
17,98168,31215
17,98580,28795
17,98992,28037
17,99405,25881
17,99817,22510
18,00228,22354
18,00642,21196
18,01053,20942
18,01465,19484
18,01878,17973
18,02290,17775
18,02702,16393
18,03115,15760
18,03527,16628
18,03938,14901
18,04350,13735
18,04763,12850
18,05175,12137
18,05587,11783
18,06000,11806
18,06412,12593
18,06823,9539
18,07237,10354
18,07648,10152
18,08060,9729
18,08473,8550
18,08885,11001
18,09297,8422
18,09710,9023
18,10122,8126
18,10533,8304
18,10947,7774
18,11358,8091
18,11770,7888
18,12183,7344
18,12595,8109
18,13007,6434
18,13418,8028
18,13832,6882
18,14243,7466
18,14655,6821
18,15068,6129
18,15480,6519
18,15892,6509
18,16305,6276
18,16717,7012
18,17128,7165
18,17542,9087
18,17953,11493
18,18365,17825
18,18778,26988
18,19190,44019
18,19602,71566
18,20015,114184
18,20427,170163
18,20838,246018
18,21252,336878
18,21663,435800
18,22075,524969
18,22487,602730
18,22900,656794
18,23312,678111
18,23723,677999
18,24137,625383
18,24548,568637
18,24960,495814
18,25373,413757
18,25785,347353
18,26197,276174
18,26610,226530
18,27022,179940
18,27433,145633
18,27847,117983
18,28258,95228
18,28670,83452
18,29083,68875
18,29495,63043
18,29907,52867
18,30320,47928
18,30732,42943
18,31143,39145
18,31555,33241
18,31968,31921
18,32380,30151
18,32792,26582
18,33205,24286
18,33617,22984
18,34028,21488
18,34442,20533
18,34853,19337
18,35265,18077
18,35678,17478
18,36090,17401
18,36502,15329
18,36915,13780
18,37327,13162
18,37738,13363
18,38152,13126
18,38563,12889
18,38975,12246
18,39388,11830
18,39800,10146
18,40212,10729
18,40623,9242
18,41037,9331
18,41448,10863
18,41860,9692
18,42273,9356
18,42685,10203
18,43097,8001
18,43510,8547
18,43922,7502
18,44333,7137
18,44747,7420
18,45158,7456
18,45570,7123
18,45983,7625
18,46395,7525
18,46807,7393
18,47220,6567
18,47632,7577
18,48043,7166
18,48457,6244
18,48868,6330
18,49280,5025
18,49692,5894
18,50105,6216
18,50517,5684
18,50928,5908
18,51342,5446
18,51753,6499
18,52165,5638
18,52578,5535
18,52990,4670
18,53402,6337
18,53815,5603
18,54227,5684
18,54638,5466
18,55052,5312
18,55463,5768
18,55875,5400
18,56288,5374
18,56700,5534
18,57112,6012
18,57525,5376
18,57937,5149
18,58348,5050
18,58760,6138
18,59173,6926
18,59585,7201
18,59997,5013
18,60410,6783
18,60822,6742
18,61233,6636
18,61647,7537
18,62058,5851
18,62470,5940
18,62883,6053
18,63295,6001
18,63707,6276
18,64120,4881
18,64532,5195
18,64943,5313
18,65357,5013
18,65768,5647
18,66180,5374
18,66593,6754
18,67005,4840
18,67417,5165
18,67828,4300
18,68242,4651
18,68653,5240
18,69065,5044
18,69478,4875
18,69890,5389
18,70302,4399
18,70715,4685
18,71127,4402
18,71538,3809
18,71952,5218
18,72363,4609
18,72775,5917
18,73188,6353
18,73600,7457
18,74012,11853
18,74425,17822
18,74837,25995
18,75248,43779
18,75662,72032
18,76073,114132
18,76485,175143
18,76897,245752
18,77310,340772
18,77722,445876
18,78133,554089
18,78547,679171
18,78958,782106
18,79370,885702
18,79783,976499
18,80195,1050719
18,80607,1131831
18,81020,1225060
18,81432,1349619
18,81843,1470331
18,82257,1578157
18,82668,1696301
18,83080,1807013
18,83493,1848928
18,83905,1810892
18,84317,1687112
18,84730,1503087
18,85142,1281435
18,85553,1053215
18,85967,843754
18,86378,659963
18,86790,533574
18,87202,424109
18,87615,347988
18,88027,284533
18,88438,240826
18,88852,208688
18,89263,181823
18,89675,160574
18,90088,141789
18,90500,128451
18,90912,111623
18,91325,103019
18,91737,95782
18,92148,86600
18,92562,80621
18,92973,75894
18,93385,71961
18,93798,63809
18,94210,62362
18,94622,59430
18,95035,54012
18,95447,51153
18,95858,47572
18,96270,44512
18,96683,43203
18,97095,41346
18,97507,40421
18,97920,35662
18,98332,34544
18,98743,35534
18,99157,31692
18,99568,29650
18,99980,29988
19,00393,27600
19,00805,26829
19,01217,26638
19,01630,25794
19,02042,23386
19,02453,22941
19,02867,21891
19,03278,21446
19,03690,21294
19,04103,19336
19,04515,18213
19,04927,18010
19,05338,17480
19,05752,16409
19,06163,16065
19,06575,17692
19,06988,16145
19,07400,15812
19,07812,14381
19,08225,17187
19,08637,16539
19,09048,19787
19,09462,24758
19,09873,32930
19,10285,49372
19,10698,75241
19,11110,111133
19,11522,164088
19,11935,235539
19,12347,317144
19,12758,402957
19,13172,488747
19,13583,562366
19,13995,613500
19,14407,638624
19,14820,627816
19,15232,592580
19,15643,550429
19,16057,481748
19,16468,422496
19,16880,382146
19,17293,347810
19,17705,342047
19,18117,355371
19,18530,393970
19,18942,436523
19,19353,502598
19,19767,559136
19,20178,595998
19,20590,608897
19,21003,608117
19,21415,586683
19,21827,541520
19,22240,481177
19,22652,418771
19,23063,348818
19,23475,291814
19,23888,243268
19,24300,200470
19,24712,168545
19,25125,143314
19,25537,124345
19,25948,115705
19,26362,117191
19,26773,125740
19,27185,154751
19,27598,188183
19,28010,244278
19,28422,323505
19,28835,408475
19,29247,516537
19,29658,616099
19,30072,699966
19,30483,782824
19,30895,825374
19,31308,821851
19,31720,779818
19,32132,717878
19,32543,636032
19,32957,535191
19,33368,443046
19,33780,364580
19,34193,294934
19,34605,247277
19,35017,202407
19,35430,173425
19,35842,144235
19,36253,122704
19,36667,108372
19,37078,93781
19,37490,86103
19,37903,77531
19,38315,71979
19,38727,66706
19,39140,63090
19,39552,56647
19,39963,52199
19,40377,47853
19,40788,47285
19,41200,45638
19,41612,38984
19,42025,37921
19,42437,35756
19,42848,33872
19,43262,34201
19,43673,29902
19,44085,27627
19,44498,28885
19,44910,26021
19,45322,23945
19,45735,24625
19,46147,23360
19,46558,21331
19,46972,20893
19,47383,22351
19,47795,20164
19,48208,18315
19,48620,17282
19,49032,19434
19,49445,16516
19,49857,18604
19,50268,14807
19,50680,15134
19,51093,16693
19,51505,17260
19,51917,16645
19,52330,14002
19,52742,14486
19,53153,16247
19,53567,14333
19,53978,16686
19,54390,15497
19,54803,15080
19,55215,12566
19,55627,14029
19,56040,14010
19,56452,12704
19,56863,13040
19,57277,12861
19,57688,11362
19,58100,10689
19,58513,11696
19,58925,10936
19,59337,10901
19,59748,10445
19,60162,10973
19,60573,9778
19,60985,10259
19,61398,10833
19,61810,10071
19,62222,9801
19,62635,8917
19,63047,8670
19,63458,9453
19,63872,9548
19,64283,8492
19,64695,9530
19,65108,7688
19,65520,10665
19,65932,11720
19,66345,14658
19,66757,17809
19,67168,24604
19,67582,36171
19,67993,55553
19,68405,86054
19,68817,131120
19,69230,192535
19,69642,269018
19,70053,365402
19,70467,472019
19,70878,587463
19,71290,703638
19,71703,795610
19,72115,865983
19,72527,882557
19,72940,856259
19,73352,800301
19,73763,710066
19,74177,596327
19,74588,490020
19,75000,401523
19,75413,322323
19,75825,258619
19,76237,214863
19,76650,176203
19,77062,153118
19,77473,129356
19,77885,114320
19,78298,97315
19,78710,88195
19,79122,84694
19,79535,76264
19,79947,73288
19,80358,64009
19,80772,60273
19,81183,55618
19,81595,53977
19,82008,47001
19,82420,47252
19,82832,42289
19,83245,41810
19,83657,36918
19,84068,39177
19,84482,33735
19,84893,35623
19,85305,34172
19,85718,30590
19,86130,29649
19,86542,31166
19,86953,30818
19,87367,28005
19,87778,25969
19,88190,25611
19,88603,24674
19,89015,25851
19,89427,23924
19,89840,23128
19,90252,23952
19,90663,20712
19,91077,19718
19,91488,18824
19,91900,18603
19,92313,17682
19,92725,17202
19,93137,17580
19,93550,16161
19,93962,17615
19,94373,16657
19,94787,15659
19,95198,15536
19,95610,14796
19,96022,14593
19,96435,16157
19,96847,15112
19,97258,12245
19,97672,13187
19,98083,12836
19,98495,11484
19,98908,11814
19,99320,10796
19,99732,12858
20,00145,11285
20,00557,12692
20,00968,14954
20,01382,16750
20,01793,25098
20,02205,34447
20,02618,55682
20,03030,81498
20,03442,126199
20,03855,189226
20,04267,265403
20,04678,353885
20,05090,446630
20,05503,540402
20,05915,624283
20,06327,690118
20,06740,722018
20,07152,708593
20,07563,667989
20,07977,603864
20,08388,526927
20,08800,453954
20,09213,380678
20,09625,324019
20,10037,293817
20,10450,278550
20,10862,282916
20,11273,312167
20,11687,349626
20,12098,401040
20,12510,448811
20,12923,496456
20,13335,536683
20,13747,555451
20,14158,556960
20,14572,529846
20,14983,495995
20,15395,443088
20,15808,381344
20,16220,330625
20,16632,278580
20,17045,225694
20,17457,189749
20,17868,157349
20,18282,132583
20,18693,116080
20,19105,97556
20,19518,87819
20,19930,77852
20,20342,69989
20,20755,61879
20,21167,57718
20,21578,50522
20,21992,48099
20,22403,44819
20,22815,40950
20,23227,40078
20,23640,36626
20,24052,35447
20,24463,34882
20,24877,31112
20,25288,30394
20,25700,29296
20,26113,27439
20,26525,26182
20,26937,26069
20,27350,24839
20,27762,23647
20,28173,24120
20,28587,22541
20,28998,22253
20,29410,19811
20,29823,20726
20,30235,19872
20,30647,18866
20,31060,19180
20,31472,18423
20,31883,17372
20,32295,18566
20,32708,17132
20,33120,16628
20,33532,16692
20,33945,16454
20,34357,16112
20,34768,16986
20,35182,15470
20,35593,14601
20,36005,14283
20,36418,14365
20,36830,13537
20,37242,14160
20,37655,14413
20,38067,15327
20,38478,14169
20,38892,13606
20,39303,13984
20,39715,13943
20,40128,13864
20,40540,11234
20,40952,13047
20,41363,12422
20,41777,13894
20,42188,12038
20,42600,12102
20,43013,13261
20,43425,11959
20,43837,11800
20,44250,10667
20,44662,11422
20,45073,9668
20,45487,11014
20,45898,10879
20,46310,11578
20,46723,10811
20,47135,13017
20,47547,10916
20,47960,11254
20,48372,11810
20,48783,10804
20,49197,10066
20,49608,11064
20,50020,10885
20,50433,10800
20,50845,10618
20,51257,9840
20,51668,9796
20,52082,9915
20,52493,11008
20,52905,11174
20,53318,11475
20,53730,12338
20,54142,14900
20,54555,19796
20,54967,26677
20,55378,37426
20,55792,56586
20,56203,85635
20,56615,123416
20,57028,185073
20,57440,255181
20,57852,359860
20,58265,468761
20,58677,600715
20,59088,738173
20,59502,898863
20,59913,1064655
20,60325,1228143
20,60737,1392419
20,61150,1545973
20,61562,1650300
20,61973,1706176
20,62387,1638198
20,62798,1477885
20,63210,1274987
20,63623,1057245
20,64035,852252
20,64447,682438
20,64860,544247
20,65272,437607
20,65683,360379
20,66097,305712
20,66508,257304
20,66920,222866
20,67333,196809
20,67745,174425
20,68157,153964
20,68570,139630
20,68982,128913
20,69393,116628
20,69805,109971
20,70218,103122
20,70630,96309
20,71042,89550
20,71455,80261
20,71867,76070
20,72278,71460
20,72692,67378
20,73103,64492
20,73515,59969
20,73928,58299
20,74340,56818
20,74752,54913
20,75165,52842
20,75577,51843
20,75988,47644
20,76402,44727
20,76813,42632
20,77225,44327
20,77638,40407
20,78050,39614
20,78462,38887
20,78873,36326
20,79287,37492
20,79698,35881
20,80110,34642
20,80523,32864
20,80935,32861
20,81347,32391
20,81760,30604
20,82172,30205
20,82583,28190
20,82997,26105
20,83408,28031
20,83820,26068
20,84233,23974
20,84645,24487
20,85057,23722
20,85470,25883
20,85882,24797
20,86293,22188
20,86707,22057
20,87118,22310
20,87530,22431
20,87942,21705
20,88355,21019
20,88767,21807
20,89178,23222
20,89592,22829
20,90003,24141
20,90415,22090
20,90828,21598
20,91240,21803
20,91652,21507
20,92065,20435
20,92477,20782
20,92888,18618
20,93302,21523
20,93713,18519
20,94125,19842
20,94538,17739
20,94950,18264
20,95362,17687
20,95775,17127
20,96187,16791
20,96598,16229
20,97010,17295
20,97423,16330
20,97835,15571
20,98247,15876
20,98660,17330
20,99072,16612
20,99483,16752
20,99897,18212
21,00308,19348
21,00720,18747
21,01133,25101
21,01545,33972
21,01957,47225
21,02370,67276
21,02782,102210
21,03193,149424
21,03607,211358
21,04018,291628
21,04430,392510
21,04843,497479
21,05255,605014
21,05667,701124
21,06078,777589
21,06492,818681
21,06903,827549
21,07315,804246
21,07728,724445
21,08140,640905
21,08552,541628
21,08965,455838
21,09377,371078
21,09788,311219
21,10202,257555
21,10613,218274
21,11025,182756
21,11438,154112
21,11850,137960
21,12262,118059
21,12675,109913
21,13087,98825
21,13498,87767
21,13912,81103
21,14323,74100
21,14735,70622
21,15147,64404
21,15560,61043
21,15972,56192
21,16383,53073
21,16797,47678
21,17208,48622
21,17620,44415
21,18033,43682
21,18445,41755
21,18857,40596
21,19270,38342
21,19682,36650
21,20093,35779
21,20507,34207
21,20918,33008
21,21330,31892
21,21743,31122
21,22155,29518
21,22567,29627
21,22980,28321
21,23392,26333
21,23803,26440
21,24215,27023
21,24628,26808
21,25040,23507
21,25452,22981
21,25865,23242
21,26277,23934
21,26688,22316
21,27102,22709
21,27513,22457
21,27925,21441
21,28338,20432
21,28750,21662
21,29162,20382
21,29575,19059
21,29987,19409
21,30398,20029
21,30812,17978
21,31223,18157
21,31635,18066
21,32048,19342
21,32460,18683
21,32872,17215
21,33283,17777
21,33697,18172
21,34108,17609
21,34520,19209
21,34933,17719
21,35345,17707
21,35757,19984
21,36170,18235
21,36582,20047
21,36993,21178
21,37407,18842
21,37818,19367
21,38230,18342
21,38643,19693
21,39055,18268
21,39467,16535
21,39880,19353
21,40292,18766
21,40703,18491
21,41117,18566
21,41528,18733
21,41940,18020
21,42352,17408
21,42765,18417
21,43177,18074
21,43588,17191
21,44002,16187
21,44413,16803
21,44825,14578
21,45238,15133
21,45650,16278
21,46062,16263
21,46475,14674
21,46887,14723
21,47298,14198
21,47712,13869
21,48123,14084
21,48535,14015
21,48948,14223
21,49360,14948
21,49772,12699
21,50185,12166
21,50597,13882
21,51008,13667
21,51420,13652
21,51833,14755
21,52245,14460
21,52657,12777
21,53070,14326
21,53482,11889
21,53893,13007
21,54307,14052
21,54718,15484
21,55130,13863
21,55543,14332
21,55955,13258
21,56367,13829
21,56780,15972
21,57192,13224
21,57603,11667
21,58017,14426
21,58428,13715
21,58840,14026
21,59253,13319
21,59665,14399
21,60077,14695
21,60488,13185
21,60902,13299
21,61313,13648
21,61725,13833
21,62138,14866
21,62550,14102
21,62962,13735
21,63375,14722
21,63787,14199
21,64198,13572
21,64612,14557
21,65023,14718
21,65435,14576
21,65848,14799
21,66260,14227
21,66672,12896
21,67085,14764
21,67497,12944
21,67908,13780
21,68322,13426
21,68733,12396
21,69145,13403
21,69557,13307
21,69970,12358
21,70382,14781
21,70793,15502
21,71207,15390
21,71618,16044
21,72030,16788
21,72443,17704
21,72855,14218
21,73267,14730
21,73680,15034
21,74092,14441
21,74503,13752
21,74917,13755
21,75328,15184
21,75740,14657
21,76153,15153
21,76565,14298
21,76977,15852
21,77390,14688
21,77802,13145
21,78213,14612
21,78625,12913
21,79038,14359
21,79450,13322
21,79862,13345
21,80275,13773
21,80687,11796
21,81098,10852
21,81512,13651
21,81923,13152
21,82335,12837
21,82748,13101
21,83160,13006
21,83572,13254
21,83985,13096
21,84397,13578
21,84808,13985
21,85222,14262
21,85633,12655
21,86045,14299
21,86458,13216
21,86870,13027
21,87282,14383
21,87693,12707
21,88107,12328
21,88518,14300
21,88930,14349
21,89343,16040
21,89755,14995
21,90167,15137
21,90580,14298
21,90992,13287
21,91403,14287
21,91817,14464
21,92228,13788
21,92640,15415
21,93053,12399
21,93465,13062
21,93877,13725
21,94290,14065
21,94702,13007
21,95113,12917
21,95527,12263
21,95938,12452
21,96350,12968
21,96762,12462
21,97175,11785
21,97587,13299
21,97998,13713
21,98412,12232
21,98823,13126
21,99235,12182
21,99648,14226
22,00060,13074
22,00472,11970
22,00885,10698
22,01297,12341
22,01708,12311
22,02122,12254
22,02533,13914
22,02945,15053
22,03358,12588
22,03770,11487
22,04182,13322
22,04595,12519
22,05007,12609
22,05418,11751
22,05830,12509
22,06243,13161
22,06655,11373
22,07067,12117
22,07480,12199
22,07892,13269
22,08303,12588
22,08717,14025
22,09128,13050
22,09540,13792
22,09953,12091
22,10365,12687
22,10777,11798
22,11190,12961
22,11602,12915
22,12013,12919
22,12427,13168
22,12838,14321
22,13250,12575
22,13663,13043
22,14075,11863
22,14487,13633
22,14900,12090
22,15312,11316
22,15723,12782
22,16135,13006
22,16548,12481
22,16960,14370
22,17372,13970
22,17785,13162
22,18197,12865
22,18608,13286
22,19022,12317
22,19433,12023
22,19845,12302
22,20258,11862
22,20670,12995
22,21082,12231
22,21495,10522
22,21907,12299
22,22318,12146
22,22732,13251
22,23143,11440
22,23555,12690
22,23968,13698
22,24380,12627
22,24792,12885
22,25203,13906
22,25617,14454
22,26028,14796
22,26440,14982
22,26853,16619
22,27265,18127
22,27677,19517
22,28090,25589
22,28502,33782
22,28913,46532
22,29327,67516
22,29738,97570
22,30150,135714
22,30563,183433
22,30975,238582
22,31387,300257
22,31800,353718
22,32212,397451
22,32623,436331
22,33037,453915
22,33448,457301
22,33860,442309
22,34272,410932
22,34685,371409
22,35097,323102
22,35508,283267
22,35922,236342
22,36333,205423
22,36745,169888
22,37158,141767
22,37570,124872
22,37982,106361
22,38395,92521
22,38807,82102
22,39218,73619
22,39632,65167
22,40043,62884
22,40455,56294
22,40868,50951
22,41280,47091
22,41692,43959
22,42105,41881
22,42517,40114
22,42928,37701
22,43340,33300
22,43753,34414
22,44165,32182
22,44577,30721
22,44990,28074
22,45402,28846
22,45813,30360
22,46227,27369
22,46638,26241
22,47050,25504
22,47463,26141
22,47875,23426
22,48287,23804
22,48700,24381
22,49112,25389
22,49523,21798
22,49937,22745
22,50348,22770
22,50760,20911
22,51173,21131
22,51585,21826
22,51997,19768
22,52408,20262
22,52822,18532
22,53233,19233
22,53645,19554
22,54058,19672
22,54470,20385
22,54882,17909
22,55295,17977
22,55707,18253
22,56118,18405
22,56532,18560
22,56943,17762
22,57355,17149
22,57768,20358
22,58180,17690
22,58592,17812
22,59005,16598
22,59417,17312
22,59828,16084
22,60242,16901
22,60653,17820
22,61065,17827
22,61477,16764
22,61890,15703
22,62302,17612
22,62713,14740
22,63127,15664
22,63538,15961
22,63950,14621
22,64363,14751
22,64775,15446
22,65187,16792
22,65600,16218
22,66012,14462
22,66423,16056
22,66837,15868
22,67248,16779
22,67660,16231
22,68073,14603
22,68485,15178
22,68897,15711
22,69310,15314
22,69722,15892
22,70133,14274
22,70545,15145
22,70958,15387
22,71370,15452
22,71782,15624
22,72195,15627
22,72607,15049
22,73018,16393
22,73432,14486
22,73843,14047
22,74255,15381
22,74668,14773
22,75080,14108
22,75492,16328
22,75905,15972
22,76317,14373
22,76728,15644
22,77142,15915
22,77553,15793
22,77965,15051
22,78378,15584
22,78790,14950
22,79202,15634
22,79613,14673
22,80027,14879
22,80438,14521
22,80850,13821
22,81263,14154
22,81675,14618
22,82087,15235
22,82500,15815
22,82912,13201
22,83323,14073
