D:\MassHunter\GCMS\1\data\Amal\Constant flow\90C\90C_1ml-min_7C-min_2.D Thu Sep 05 16:11:39 2024
Start of data points
5,59105	157729
5,59518	154148
5,59930	153451
5,60342	148567
5,60755	149463
5,61167	147492
5,61578	140563
5,61992	141382
5,62403	138844
5,62815	137160
5,63228	138742
5,63640	134729
5,64052	130861
5,64465	130400
5,64877	126097
5,65288	129792
5,65700	125991
5,66113	123190
5,66525	123116
5,66937	119268
5,67350	119636
5,67762	118557
5,68173	116644
5,68587	115811
5,68998	114748
5,69410	111618
5,69823	113259
5,70235	107959
5,70647	111421
5,71060	106820
5,71472	105247
5,71883	105865
5,72297	104038
5,72708	100613
5,73120	102847
5,73533	97816
5,73945	101465
5,74357	102038
5,74768	100804
5,75182	100076
5,75593	98760
5,76005	105149
5,76418	108376
5,76830	125848
5,77242	154040
5,77655	195830
5,78067	261012
5,78478	337262
5,78892	418965
5,79303	512111
5,79715	580196
5,80128	629280
5,80540	655803
5,80952	671007
5,81365	669810
5,81777	649519
5,82188	631313
5,82602	608634
5,83013	583196
5,83425	548819
5,83837	515015
5,84250	496956
5,84662	471958
5,85073	447074
5,85487	420649
5,85898	403247
5,86310	387809
5,86723	373464
5,87135	357263
5,87547	340583
5,87960	325863
5,88372	317827
5,88783	301990
5,89197	293398
5,89608	275243
5,90020	266071
5,90433	249163
5,90845	247606
5,91257	230809
5,91670	216623
5,92082	204531
5,92493	193027
5,92905	188040
5,93318	177982
5,93730	169027
5,94142	160977
5,94555	152921
5,94967	146206
5,95378	137234
5,95792	134593
5,96203	123897
5,96615	122228
5,97028	119757
5,97440	111029
5,97852	110478
5,98265	105577
5,98677	102674
5,99088	101345
5,99502	96806
5,99913	92759
6,00325	95718
6,00738	89345
6,01150	86247
6,01562	85350
6,01973	86191
6,02387	84238
6,02798	80459
6,03210	80246
6,03623	81429
6,04035	80926
6,04447	76759
6,04860	78831
6,05272	78299
6,05683	74624
6,06097	76122
6,06508	72951
6,06920	72750
6,07333	72459
6,07745	70993
6,08157	69737
6,08570	71084
6,08982	70266
6,09393	69325
6,09807	69748
6,10218	67158
6,10630	70818
6,11042	66847
6,11455	67519
6,11867	67151
6,12278	65864
6,12692	65153
6,13103	65667
6,13515	65667
6,13928	62689
6,14340	62926
6,14752	64309
6,15165	63273
6,15577	62471
6,15988	63018
6,16402	63394
6,16813	61338
6,17225	61376
6,17638	61540
6,18050	62268
6,18462	61733
6,18875	63185
6,19287	60457
6,19698	60609
6,20112	61673
6,20523	60204
6,20935	59408
6,21347	59179
6,21760	60213
6,22172	58934
6,22583	59270
6,22997	59702
6,23408	58040
6,23820	58081
6,24233	58009
6,24645	58362
6,25057	58936
6,25470	57759
6,25882	58837
6,26293	55820
6,26707	55344
6,27118	55393
6,27530	55928
6,27943	57279
6,28355	56800
6,28767	56127
6,29180	58311
6,29592	56697
6,30003	56241
6,30415	55557
6,30828	57622
6,31240	56248
6,31652	55330
6,32065	58811
6,32477	55867
6,32888	54974
6,33302	56657
6,33713	55519
6,34125	52383
6,34538	54251
6,34950	54720
6,35362	53650
6,35775	52507
6,36187	53884
6,36598	53398
6,37012	55024
6,37423	52126
6,37835	51509
6,38248	52482
6,38660	51082
6,39072	49566
6,39483	50578
6,39897	50570
6,40308	51320
6,40720	52100
6,41133	49181
6,41545	48845
6,41957	50503
6,42370	48580
6,42782	49156
6,43193	48521
6,43607	48426
6,44018	48990
6,44430	51427
6,44843	48137
6,45255	50056
6,45667	50162
6,46080	47879
6,46492	49213
6,46903	49256
6,47317	50332
6,47728	47704
6,48140	48920
6,48552	48286
6,48965	47741
6,49377	47932
6,49788	46588
6,50202	46770
6,50613	47276
6,51025	47109
6,51438	48264
6,51850	47386
6,52262	46907
6,52675	46940
6,53087	47731
6,53498	45586
6,53912	46064
6,54323	47004
6,54735	45598
6,55148	46538
6,55560	45485
6,55972	46176
6,56385	45235
6,56797	43608
6,57208	46807
6,57620	44198
6,58033	44819
6,58445	43478
6,58857	44445
6,59270	42683
6,59682	43820
6,60093	44848
6,60507	43134
6,60918	43517
6,61330	41958
6,61743	42759
6,62155	41507
6,62567	41528
6,62980	39676
6,63392	40421
6,63803	41497
6,64217	40178
6,64628	38673
6,65040	41529
6,65453	39577
6,65865	37416
6,66277	38757
6,66688	39863
6,67102	38781
6,67513	39552
6,67925	40234
6,68338	39072
6,68750	38021
6,69162	38802
6,69575	38561
6,69987	39641
6,70398	38480
6,70812	37899
6,71223	38219
6,71635	36647
6,72048	38378
6,72460	39315
6,72872	38738
6,73285	38880
6,73697	38722
6,74108	39914
6,74522	40790
6,74933	41564
6,75345	42591
6,75757	44079
6,76170	42878
6,76582	43470
6,76993	44017
6,77407	45924
6,77818	44980
6,78230	43722
6,78643	44115
6,79055	45524
6,79467	45803
6,79880	46586
6,80292	44726
6,80703	45472
6,81117	44415
6,81528	46390
6,81940	46891
6,82353	48200
6,82765	47086
6,83177	49499
6,83590	50420
6,84002	50068
6,84413	50546
6,84825	52323
6,85238	50505
6,85650	50591
6,86062	49808
6,86475	50750
6,86887	50049
6,87298	50598
6,87712	50242
6,88123	49088
6,88535	48879
6,88948	47207
6,89360	46374
6,89772	45553
6,90185	45516
6,90597	45284
6,91008	46787
6,91422	43250
6,91833	43291
6,92245	41723
6,92658	42680
6,93070	43020
6,93482	41109
6,93893	41363
6,94307	41293
6,94718	41435
6,95130	41513
6,95543	39162
6,95955	40280
6,96367	39121
6,96780	39407
6,97192	39972
6,97603	41156
6,98017	38676
6,98428	37997
6,98840	37823
6,99253	38796
6,99665	38406
7,00077	37357
7,00490	36982
7,00902	35970
7,01313	36505
7,01727	35581
7,02138	35564
7,02550	34193
7,02962	35405
7,03375	35381
7,03787	34952
7,04198	35226
7,04612	35330
7,05023	35610
7,05435	32742
7,05848	35618
7,06260	33697
7,06672	34979
7,07085	35021
7,07497	34212
7,07908	35077
7,08322	34877
7,08733	33347
7,09145	33674
7,09558	33947
7,09970	34962
7,10382	35218
7,10795	33369
7,11207	31924
7,11618	34878
7,12030	34335
7,12443	32400
7,12855	33930
7,13267	33527
7,13680	32139
7,14092	31066
7,14503	31901
7,14917	31279
7,15328	31939
7,15740	32136
7,16153	30955
7,16565	31252
7,16977	31666
7,17390	31908
7,17802	31470
7,18213	33428
7,18627	29585
7,19038	31084
7,19450	30033
7,19863	30532
7,20275	30222
7,20687	30763
7,21098	30257
7,21512	29498
7,21923	30041
7,22335	30314
7,22748	30958
7,23160	31943
7,23572	35365
7,23985	44560
7,24397	58106
7,24808	81784
7,25222	126835
7,25633	193713
7,26045	279855
7,26458	390548
7,26870	517920
7,27282	662854
7,27695	794515
7,28107	906628
7,28518	990826
7,28932	1063411
7,29343	1081186
7,29755	1082401
7,30167	1064874
7,30580	1024243
7,30992	973589
7,31403	925070
7,31817	864420
7,32228	805202
7,32640	739346
7,33053	682350
7,33465	627728
7,33877	578536
7,34290	539741
7,34702	490007
7,35113	445630
7,35527	405604
7,35938	366050
7,36350	329902
7,36763	297438
7,37175	269443
7,37587	238568
7,38000	213424
7,38412	195274
7,38823	176837
7,39235	158902
7,39648	144849
7,40060	125878
7,40472	115421
7,40885	104284
7,41297	95920
7,41708	87403
7,42122	79986
7,42533	76021
7,42945	69522
7,43358	65797
7,43770	59892
7,44182	57774
7,44595	56594
7,45007	52842
7,45418	50771
7,45832	50942
7,46243	47163
7,46655	43532
7,47068	45118
7,47480	43519
7,47892	41970
7,48303	41385
7,48717	39044
7,49128	38513
7,49540	38480
7,49953	36946
7,50365	37126
7,50777	36160
7,51190	36369
7,51602	33579
7,52013	35332
7,52427	35138
7,52838	33238
7,53250	31812
7,53663	32466
7,54075	32748
7,54487	32524
7,54900	30648
7,55312	32051
7,55723	31557
7,56137	30573
7,56548	30796
7,56960	31052
7,57372	30204
7,57785	28360
7,58197	28377
7,58608	29213
7,59022	29667
7,59433	29165
7,59845	27906
7,60258	27755
7,60670	30372
7,61082	28095
7,61495	29535
7,61907	28864
7,62318	27217
7,62732	26778
7,63143	27949
7,63555	27753
7,63968	29430
7,64380	27044
7,64792	25553
7,65205	25885
7,65617	27411
7,66028	25659
7,66440	25976
7,66853	25305
7,67265	27366
7,67677	25071
7,68090	25743
7,68502	23402
7,68913	25849
7,69327	25311
7,69738	26324
7,70150	25599
7,70563	25312
7,70975	25523
7,71387	24944
7,71800	24488
7,72212	27181
7,72623	24354
7,73037	25265
7,73448	24673
7,73860	25064
7,74273	26060
7,74685	23822
7,75097	23558
7,75508	24808
7,75922	24952
7,76333	23851
7,76745	24166
7,77158	25591
7,77570	25787
7,77982	23962
7,78395	25782
7,78807	23636
7,79218	24445
7,79632	24253
7,80043	24169
7,80455	23387
7,80868	24267
7,81280	23150
7,81692	23393
7,82105	24501
7,82517	23804
7,82928	22465
7,83342	22093
7,83753	22431
7,84165	23536
7,84578	22729
7,84990	22210
7,85402	25108
7,85813	22994
7,86227	23040
7,86638	22490
7,87050	25125
7,87463	22782
7,87875	24307
7,88287	22787
7,88700	23233
7,89112	22618
7,89523	21894
7,89937	23104
7,90348	23084
7,90760	22803
7,91173	23140
7,91585	22322
7,91997	22439
7,92410	22420
7,92822	22237
7,93233	21724
7,93647	23744
7,94058	22603
7,94470	24557
7,94882	23349
7,95295	22694
7,95707	21211
7,96118	23446
7,96532	22673
7,96943	24402
7,97355	22334
7,97768	21618
7,98180	22489
7,98592	22816
7,99005	22542
7,99417	22329
7,99828	22817
8,00242	22003
8,00653	21953
8,01065	23694
8,01478	22410
8,01890	20574
8,02302	21883
8,02715	21059
8,03127	22372
8,03538	23067
8,03950	23787
8,04363	21575
8,04775	22510
8,05187	22842
8,05600	22108
8,06012	23659
8,06423	22343
8,06837	22100
8,07248	21893
8,07660	22442
8,08073	23048
8,08485	22010
8,08897	21812
8,09310	20529
8,09722	22053
8,10133	22072
8,10547	20958
8,10958	20545
8,11370	20911
8,11783	19991
8,12195	20066
8,12607	20244
8,13018	20662
8,13432	20397
8,13843	19706
8,14255	19482
8,14668	19911
8,15080	20696
8,15492	19606
8,15905	20132
8,16317	20613
8,16728	20777
8,17142	20881
8,17553	21087
8,17965	18899
8,18378	20816
8,18790	20081
8,19202	19046
8,19615	18158
8,20027	18124
8,20438	18825
8,20852	19854
8,21263	19067
8,21675	19007
8,22087	19334
8,22500	20673
8,22912	19491
8,23323	19378
8,23737	20685
8,24148	21494
8,24560	19772
8,24973	21649
8,25385	19727
8,25797	21661
8,26210	21666
8,26622	21288
8,27033	21087
8,27447	20504
8,27858	20634
8,28270	21712
8,28683	20802
8,29095	20873
8,29507	19422
8,29920	21047
8,30332	21282
8,30743	18827
8,31155	19520
8,31568	20004
8,31980	19476
8,32392	19171
8,32805	18490
8,33217	19663
8,33628	19569
8,34042	20663
8,34453	21411
8,34865	18882
8,35278	20131
8,35690	18752
8,36102	18997
8,36515	20599
8,36927	19121
8,37338	19924
8,37752	18553
8,38163	19341
8,38575	18782
8,38988	19755
8,39400	19939
8,39812	19233
8,40223	20837
8,40637	21312
8,41048	21887
8,41460	23342
8,41873	21390
8,42285	23376
8,42697	21938
8,43110	23021
8,43522	23927
8,43933	23085
8,44347	22419
8,44758	22738
8,45170	21038
8,45583	22112
8,45995	21474
8,46407	21542
8,46820	23195
8,47232	22033
8,47643	20465
8,48057	21632
8,48468	21183
8,48880	21745
8,49292	20345
8,49705	20228
8,50117	19879
8,50528	20418
8,50942	18091
8,51353	19576
8,51765	18764
8,52178	17822
8,52590	18778
8,53002	18183
8,53415	18991
8,53827	17966
8,54238	18857
8,54652	18111
8,55063	17409
8,55475	18054
8,55888	17314
8,56300	18394
8,56712	17545
8,57125	18087
8,57537	16567
8,57948	17910
8,58360	17298
8,58773	17888
8,59185	17563
8,59597	18127
8,60010	17421
8,60422	18090
8,60833	17211
8,61247	18346
8,61658	17874
8,62070	18446
8,62483	18550
8,62895	17759
8,63307	17264
8,63720	17876
8,64132	17669
8,64543	16176
8,64957	17588
8,65368	17748
8,65780	17077
8,66193	16911
8,66605	16516
8,67017	17525
8,67428	18110
8,67842	17999
8,68253	18234
8,68665	18004
8,69078	16925
8,69490	16717
8,69902	17381
8,70315	16471
8,70727	17608
8,71138	17732
8,71552	17327
8,71963	16914
8,72375	15562
8,72788	16706
8,73200	16998
8,73612	16855
8,74025	17388
8,74437	16711
8,74848	16121
8,75262	16308
8,75673	16038
8,76085	16460
8,76497	16686
8,76910	17103
8,77322	15738
8,77733	17171
8,78147	16112
8,78558	14972
8,78970	17257
8,79383	17007
8,79795	17593
8,80207	16043
8,80620	16011
8,81032	16860
8,81443	15899
8,81857	16401
8,82268	16025
8,82680	15585
8,83093	16218
8,83505	15229
8,83917	16278
8,84330	17376
8,84742	16337
8,85153	15855
8,85565	15496
8,85978	17118
8,86390	15773
8,86802	16165
8,87215	16004
8,87627	16952
8,88038	15453
8,88452	15323
8,88863	16724
8,89275	16748
8,89688	15559
8,90100	16097
8,90512	17142
8,90925	14958
8,91337	16355
8,91748	16196
8,92162	16589
8,92573	15969
8,92985	15670
8,93398	16669
8,93810	16015
8,94222	16179
8,94633	14880
8,95047	15893
8,95458	16578
8,95870	16333
8,96283	17161
8,96695	16754
8,97107	17024
8,97520	16220
8,97932	15329
8,98343	15686
8,98757	16098
8,99168	16378
8,99580	15564
8,99993	15463
9,00405	15814
9,00817	15923
9,01230	15671
9,01642	16315
9,02053	15721
9,02467	14580
9,02878	15750
9,03290	15832
9,03702	15287
9,04115	15500
9,04527	15036
9,04938	17125
9,05352	16204
9,05763	15893
9,06175	15424
9,06588	16663
9,07000	15138
9,07412	15950
9,07825	13812
9,08237	15608
9,08648	14767
9,09062	15023
9,09473	14580
9,09885	15904
9,10298	15691
9,10710	16603
9,11122	14988
9,11535	16082
9,11947	16617
9,12358	14069
9,12770	15344
9,13183	15512
9,13595	14907
9,14007	14378
9,14420	15216
9,14832	15144
9,15243	15779
9,15657	15247
9,16068	14851
9,16480	14995
9,16893	16888
9,17305	13907
9,17717	14597
9,18130	14977
9,18542	15189
9,18953	14813
9,19367	15063
9,19778	15945
9,20190	15372
9,20603	14887
9,21015	15458
9,21427	15144
9,21838	15197
9,22252	14482
9,22663	15065
9,23075	15877
9,23488	15983
9,23900	13896
9,24312	14029
9,24725	15525
9,25137	14270
9,25548	14358
9,25962	14285
9,26373	16684
9,26785	17416
9,27198	21976
9,27610	31794
9,28022	49354
9,28435	75383
9,28847	127589
9,29258	207079
9,29672	318290
9,30083	474218
9,30495	652320
9,30907	868654
9,31320	1089982
9,31732	1306938
9,32143	1484181
9,32557	1617071
9,32968	1685857
9,33380	1687992
9,33793	1645384
9,34205	1559033
9,34617	1448455
9,35030	1329355
9,35442	1185342
9,35853	1038790
9,36267	889709
9,36678	765694
9,37090	656146
9,37503	555457
9,37915	475477
9,38327	398176
9,38740	337507
9,39152	284733
9,39563	244790
9,39975	210372
9,40388	179238
9,40800	160230
9,41212	139744
9,41625	123634
9,42037	110350
9,42448	98003
9,42862	88596
9,43273	83680
9,43685	74505
9,44098	68427
9,44510	67678
9,44922	61260
9,45335	56521
9,45747	53636
9,46158	50485
9,46572	49304
9,46983	42922
9,47395	42524
9,47808	40539
9,48220	38430
9,48632	39256
9,49045	38321
9,49457	35653
9,49868	34792
9,50280	31777
9,50693	31534
9,51105	30223
9,51517	29705
9,51930	30087
9,52342	27997
9,52753	28218
9,53167	27288
9,53578	26199
9,53990	25746
9,54403	24642
9,54815	25473
9,55227	23479
9,55640	23518
9,56052	23603
9,56463	21887
9,56877	22512
9,57288	22260
9,57700	21814
9,58113	21961
9,58525	21967
9,58937	20112
9,59348	20658
9,59762	20538
9,60173	20173
9,60585	18988
9,60998	18991
9,61410	18679
9,61822	16889
9,62235	20363
9,62647	19005
9,63058	18140
9,63472	18225
9,63883	17139
9,64295	18658
9,64708	18116
9,65120	19055
9,65532	18164
9,65945	19353
9,66357	19303
9,66768	17936
9,67182	18924
9,67593	19208
9,68005	17189
9,68417	19546
9,68830	17665
9,69242	17074
9,69653	15589
9,70067	17662
9,70478	17532
9,70890	16187
9,71303	16674
9,71715	16742
9,72127	15926
9,72540	16826
9,72952	15259
9,73363	15880
9,73777	15034
9,74188	16719
9,74600	16438
9,75013	15565
9,75425	15104
9,75837	15461
9,76250	15393
9,76662	15138
9,77073	15067
9,77485	15617
9,77898	16437
9,78310	15084
9,78722	15076
9,79135	15010
9,79547	16349
9,79958	15868
9,80372	16311
9,80783	16909
9,81195	16033
9,81608	14205
9,82020	14880
9,82432	15999
9,82845	15516
9,83257	15301
9,83668	15013
9,84082	15081
9,84493	14229
9,84905	13058
9,85318	14551
9,85730	15684
9,86142	13890
9,86553	15051
9,86967	14226
9,87378	14285
9,87790	14726
9,88203	15214
9,88615	13670
9,89027	13168
9,89440	13304
9,89852	14706
9,90263	14418
9,90677	14977
9,91088	13781
9,91500	14880
9,91913	14966
9,92325	16140
9,92737	16281
9,93150	16176
9,93562	13703
9,93973	15296
9,94387	15253
9,94798	14532
9,95210	14966
9,95622	15076
9,96035	13516
9,96447	14021
9,96858	13696
9,97272	12965
9,97683	13036
9,98095	13951
9,98508	12102
9,98920	13066
9,99332	12792
9,99745	13632
10,00157	11862
10,00568	14557
10,00982	12366
10,01393	12468
10,01805	13456
10,02218	12896
10,02630	12710
10,03042	11986
10,03455	12053
10,03867	12507
10,04278	13456
10,04690	12444
10,05103	12132
10,05515	11650
10,05927	13407
10,06340	13036
10,06752	11613
10,07163	13159
10,07577	13902
10,07988	15021
10,08400	13945
10,08813	13799
10,09225	12638
10,09637	12456
10,10050	14463
10,10462	13603
10,10873	14295
10,11287	14544
10,11698	14105
10,12110	14535
10,12523	14119
10,12935	12994
10,13347	15077
10,13758	15053
10,14172	14175
10,14583	14069
10,14995	13028
10,15408	13544
10,15820	14013
10,16232	14298
10,16645	13611
10,17057	14225
10,17468	13775
10,17882	13239
10,18293	12747
10,18705	12566
10,19118	14401
10,19530	13238
10,19942	13763
10,20355	12392
10,20767	13361
10,21178	13828
10,21592	13127
10,22003	14397
10,22415	13568
10,22827	12993
10,23240	12116
10,23652	13479
10,24063	13517
10,24477	13411
10,24888	12315
10,25300	12082
10,25713	12762
10,26125	12631
10,26537	12260
10,26950	12154
10,27362	12655
10,27773	11963
10,28187	12211
10,28598	11720
10,29010	12160
10,29423	11200
10,29835	11958
10,30247	12113
10,30660	11131
10,31072	12031
10,31483	12186
10,31895	11340
10,32308	12818
10,32720	11641
10,33132	12200
10,33545	12022
10,33957	11521
10,34368	13014
10,34782	12144
10,35193	11211
10,35605	12670
10,36018	12156
10,36430	12183
10,36842	12387
10,37255	11800
10,37667	12179
10,38078	11815
10,38492	12804
10,38903	12813
10,39315	13990
10,39728	16810
10,40140	22836
10,40552	34816
10,40963	54378
10,41377	89292
10,41788	143631
10,42200	213600
10,42613	310211
10,43025	428192
10,43437	557952
10,43850	689840
10,44262	814624
10,44673	904549
10,45087	965586
10,45498	989070
10,45910	968889
10,46323	911429
10,46735	838633
10,47147	743912
10,47560	658396
10,47972	562447
10,48383	470486
10,48797	391026
10,49208	328901
10,49620	272452
10,50032	227496
10,50445	189688
10,50857	161756
10,51268	137368
10,51682	114374
10,52093	102916
10,52505	90826
10,52918	78051
10,53330	71628
10,53742	66594
10,54155	60873
10,54567	55313
10,54978	50043
10,55392	46860
10,55803	42345
10,56215	42221
10,56628	37807
10,57040	36578
10,57452	34682
10,57865	34971
10,58277	30875
10,58688	29156
10,59100	27840
10,59513	25310
10,59925	27754
10,60337	24113
10,60750	25619
10,61162	21952
10,61573	22898
10,61987	21408
10,62398	20893
10,62810	20265
10,63223	19471
10,63635	19011
10,64047	20490
10,64460	18584
10,64872	19787
10,65283	19837
10,65697	17237
10,66108	18655
10,66520	18609
10,66933	17856
10,67345	16638
10,67757	15530
10,68168	15744
10,68582	16108
10,68993	16253
10,69405	15092
10,69818	17521
10,70230	14592
10,70642	15294
10,71055	13631
10,71467	13553
10,71878	15618
10,72292	15271
10,72703	14550
10,73115	14905
10,73528	13344
10,73940	14243
10,74352	13454
10,74765	12984
10,75177	13712
10,75588	13365
10,76002	13268
10,76413	13391
10,76825	12543
10,77237	11858
10,77650	11756
10,78062	11244
10,78473	12415
10,78887	11446
10,79298	12212
10,79710	11853
10,80123	11868
10,80535	12552
10,80947	12375
10,81360	11546
10,81772	13548
10,82183	11825
10,82597	11975
10,83008	12479
10,83420	12089
10,83833	12400
10,84245	12125
10,84657	12818
10,85070	11735
10,85482	12078
10,85893	12882
10,86305	13541
10,86718	13514
10,87130	14695
10,87542	15276
10,87955	14024
10,88367	15808
10,88778	16124
10,89192	15354
10,89603	16556
10,90015	15711
10,90428	15103
10,90840	14863
10,91252	14959
10,91665	13092
10,92077	11981
10,92488	12958
10,92902	11527
10,93313	13271
10,93725	11788
10,94138	11423
10,94550	11992
10,94962	10867
10,95373	11846
10,95787	11515
10,96198	12269
10,96610	10852
10,97023	11354
10,97435	12403
10,97847	11064
10,98260	10333
10,98672	9847
10,99083	11164
10,99497	10015
10,99908	10196
11,00320	11246
11,00733	11259
11,01145	10255
11,01557	11932
11,01970	11091
11,02382	11764
11,02793	10706
11,03207	10851
11,03618	11617
11,04030	10757
11,04442	11009
11,04855	11450
11,05267	11436
11,05678	9944
11,06092	10835
11,06503	11192
11,06915	10986
11,07328	10434
11,07740	10175
11,08152	10002
11,08565	10954
11,08977	10800
11,09388	10341
11,09802	9597
11,10213	11127
11,10625	9620
11,11038	10065
11,11450	10467
11,11862	10987
11,12275	10389
11,12687	10293
11,13098	10565
11,13512	12053
11,13923	11690
11,14335	10239
11,14747	10402
11,15160	10441
11,15572	10535
11,15983	10211
11,16397	9246
11,16808	10613
11,17220	9603
11,17633	10402
11,18045	11142
11,18457	10266
11,18870	10054
11,19282	10268
11,19693	8791
11,20107	9930
11,20518	10354
11,20930	9835
11,21343	9494
11,21755	9596
11,22167	10047
11,22580	9213
11,22992	10363
11,23403	9530
11,23815	9886
11,24228	10769
11,24640	11013
11,25052	9987
11,25465	10294
11,25877	10280
11,26288	9951
11,26702	10935
11,27113	9691
11,27525	9794
11,27938	10480
11,28350	10113
11,28762	9898
11,29175	10768
11,29587	10189
11,29998	10395
11,30412	10502
11,30823	10402
11,31235	11140
11,31648	11052
11,32060	10228
11,32472	11015
11,32883	11292
11,33297	10821
11,33708	10844
11,34120	10586
11,34533	10867
11,34945	10421
11,35357	10200
11,35770	9757
11,36182	11317
11,36593	9950
11,37007	11009
11,37418	11461
11,37830	10069
11,38243	11380
11,38655	10968
11,39067	10846
11,39480	10498
11,39892	11515
11,40303	11325
11,40717	10731
11,41128	10186
11,41540	11077
11,41952	11477
11,42365	11358
11,42777	10368
11,43188	9884
11,43602	10889
11,44013	10075
11,44425	10217
11,44838	10131
11,45250	9401
11,45662	10848
11,46075	10707
11,46487	10194
11,46898	9725
11,47312	9973
11,47723	9764
11,48135	9274
11,48548	10256
11,48960	9805
11,49372	9613
11,49785	9061
11,50197	9838
11,50608	9588
11,51020	9369
11,51433	8800
11,51845	10528
11,52257	10525
11,52670	10484
11,53082	12548
11,53493	18179
11,53907	30329
11,54318	53276
11,54730	90689
11,55143	156593
11,55555	264021
11,55967	427044
11,56380	648076
11,56792	912764
11,57203	1220343
11,57617	1521915
11,58028	1807245
11,58440	2035851
11,58853	2197283
11,59265	2246967
11,59677	2196285
11,60088	2045517
11,60502	1848037
11,60913	1601122
11,61325	1359029
11,61738	1135879
11,62150	923222
11,62562	739852
11,62975	606249
11,63387	494831
11,63798	405476
11,64212	337546
11,64623	279552
11,65035	236101
11,65448	201166
11,65860	176196
11,66272	156643
11,66685	136977
11,67097	119348
11,67508	106639
11,67922	97048
11,68333	88789
11,68745	77165
11,69157	73271
11,69570	65274
11,69982	66732
11,70393	57637
11,70807	56422
11,71218	52094
11,71630	46849
11,72043	48241
11,72455	43545
11,72867	39104
11,73280	38549
11,73692	37427
11,74103	35645
11,74517	34249
11,74928	33423
11,75340	30756
11,75753	29100
11,76165	29702
11,76577	28562
11,76990	27276
11,77402	25765
11,77813	25154
11,78225	23792
11,78638	23806
11,79050	23314
11,79462	22496
11,79875	21642
11,80287	21581
11,80698	20363
11,81112	20023
11,81523	19485
11,81935	19370
11,82348	17877
11,82760	18746
11,83172	17466
11,83585	16878
11,83997	17026
11,84408	17721
11,84822	16843
11,85233	16436
11,85645	16216
11,86058	14178
11,86470	14802
11,86882	15810
11,87293	15660
11,87707	14362
11,88118	15520
11,88530	14670
11,88943	13966
11,89355	15051
11,89767	15005
11,90180	13370
11,90592	12985
11,91003	12855
11,91417	13184
11,91828	12105
11,92240	12369
11,92653	13354
11,93065	12838
11,93477	12886
11,93890	12532
11,94302	12830
11,94713	13873
11,95127	11681
11,95538	11373
11,95950	12222
11,96362	11176
11,96775	12491
11,97187	11397
11,97598	11392
11,98012	11787
11,98423	10687
11,98835	12370
11,99248	11600
11,99660	11032
12,00072	11774
12,00485	12891
12,00897	11046
12,01308	12055
12,01722	10310
12,02133	10207
12,02545	10266
12,02958	12094
12,03370	10783
12,03782	10330
12,04195	10821
12,04607	9224
12,05018	11008
12,05430	10969
12,05843	10567
12,06255	10322
12,06667	9684
12,07080	11238
12,07492	9943
12,07903	8864
12,08317	10049
12,08728	9193
12,09140	10654
12,09553	10156
12,09965	9650
12,10377	10657
12,10790	10184
12,11202	11355
12,11613	11074
12,12027	11615
12,12438	10840
12,12850	11824
12,13263	10580
12,13675	12008
12,14087	11275
12,14498	11884
12,14912	14810
12,15323	12793
12,15735	13546
12,16148	13142
12,16560	13690
12,16972	16330
12,17385	16219
12,17797	16928
12,18208	16269
12,18622	17009
12,19033	16338
12,19445	16779
12,19858	14395
12,20270	15287
12,20682	15380
12,21095	13573
12,21507	13266
12,21918	12503
12,22332	12381
12,22743	11411
12,23155	12364
12,23567	9971
12,23980	10328
12,24392	10195
12,24803	10784
12,25217	10151
12,25628	10698
12,26040	10350
12,26453	10343
12,26865	9883
12,27277	10392
12,27690	9265
12,28102	8766
12,28513	9450
12,28927	9684
12,29338	9892
12,29750	9277
12,30163	9030
12,30575	9067
12,30987	8601
12,31400	8216
12,31812	9096
12,32223	9305
12,32635	7825
12,33048	9081
12,33460	8133
12,33872	8157
12,34285	8675
12,34697	8730
12,35108	9238
12,35522	8696
12,35933	8600
12,36345	8706
12,36758	8463
12,37170	8196
12,37582	8746
12,37995	8396
12,38407	8603
12,38818	7866
12,39232	9042
12,39643	9194
12,40055	9601
12,40468	9482
12,40880	9918
12,41292	7488
12,41703	8285
12,42117	7607
12,42528	8308
12,42940	7886
12,43353	8873
12,43765	7941
12,44177	9175
12,44590	8356
12,45002	8271
12,45413	7924
12,45827	8539
12,46238	8870
12,46650	7423
12,47063	8704
12,47475	8660
12,47887	8861
12,48300	9021
12,48712	8856
12,49123	8020
12,49537	9008
12,49948	8893
12,50360	8549
12,50772	7838
12,51185	7202
12,51597	8494
12,52008	9778
12,52422	7813
12,52833	7022
12,53245	8974
12,53658	8309
12,54070	8099
12,54482	8524
12,54895	8394
12,55307	8077
12,55718	8603
12,56132	7241
12,56543	8290
12,56955	7687
12,57368	9023
12,57780	9331
12,58192	9495
12,58605	8710
12,59017	9434
12,59428	8577
12,59840	8030
12,60253	8547
12,60665	10448
12,61077	9154
12,61490	8929
12,61902	10481
12,62313	7738
12,62727	9472
12,63138	8150
12,63550	8516
12,63963	9040
12,64375	8777
12,64787	9006
12,65200	8574
12,65612	11432
12,66023	12796
12,66437	15850
12,66848	28960
12,67260	48046
12,67673	80412
12,68085	139833
12,68497	226711
12,68910	342949
12,69322	482858
12,69733	660412
12,70145	834798
12,70558	1004107
12,70970	1131265
12,71382	1205737
12,71795	1200470
12,72207	1157144
12,72618	1063582
12,73032	944050
12,73443	813683
12,73855	669746
12,74268	554130
12,74680	448088
12,75092	360545
12,75505	293162
12,75917	236230
12,76328	195833
12,76742	163352
12,77153	138572
12,77565	115455
12,77978	103319
12,78390	89557
12,78802	76485
12,79213	67748
12,79627	60579
12,80038	56640
12,80450	52486
12,80863	45182
12,81275	41875
12,81687	39677
12,82100	36408
12,82512	33513
12,82923	32123
12,83337	30948
12,83748	28174
12,84160	26846
12,84573	25251
12,84985	24932
12,85397	23682
12,85810	22413
12,86222	21940
12,86633	19750
12,87047	19847
12,87458	18290
12,87870	19118
12,88282	17545
12,88695	17410
12,89107	17143
12,89518	17310
12,89932	15374
12,90343	15565
12,90755	15168
12,91168	14800
12,91580	13515
12,91992	14722
12,92405	13225
12,92817	12905
12,93228	12313
12,93642	12335
12,94053	12284
12,94465	12995
12,94878	12127
12,95290	12725
12,95702	11691
12,96115	11539
12,96527	12893
12,96938	11498
12,97350	11177
12,97763	12089
12,98175	10351
12,98587	10387
12,99000	10770
12,99412	10766
12,99823	10673
13,00237	9272
13,00648	11201
13,01060	10891
13,01473	10483
13,01885	9650
13,02297	9477
13,02710	9848
13,03122	10411
13,03533	10410
13,03947	8314
13,04358	10145
13,04770	9309
13,05183	9336
13,05595	9796
13,06007	8155
13,06418	10757
13,06832	8416
13,07243	8921
13,07655	8621
13,08068	8891
13,08480	9830
13,08892	9959
13,09305	9678
13,09717	8692
13,10128	8048
13,10542	7750
13,10953	8300
13,11365	8555
13,11778	7837
13,12190	8153
13,12602	7582
13,13015	8655
13,13427	8820
13,13838	8588
13,14252	7894
13,14663	7935
13,15075	8279
13,15487	7859
13,15900	9220
13,16312	9248
13,16723	8896
13,17137	7081
13,17548	7741
13,17960	8138
13,18373	7964
13,18785	8978
13,19197	8521
13,19610	8511
13,20022	7345
13,20433	8553
13,20847	7813
13,21258	8156
13,21670	8046
13,22083	8458
13,22495	6414
13,22907	7627
13,23320	8449
13,23732	8511
13,24143	7992
13,24555	9716
13,24968	9773
13,25380	8732
13,25792	11381
13,26205	11884
13,26617	10855
13,27028	13124
13,27442	12745
13,27853	12214
13,28265	12760
13,28678	11369
13,29090	12053
13,29502	10727
13,29915	9700
13,30327	8871
13,30738	7461
13,31152	8966
13,31563	9403
13,31975	10099
13,32388	10591
13,32800	11446
13,33212	12018
13,33623	11653
13,34037	14543
13,34448	13772
13,34860	14452
13,35273	14357
13,35685	14249
13,36097	14884
13,36510	13024
13,36922	12903
13,37333	13001
13,37747	11222
13,38158	10365
13,38570	11302
13,38983	9655
13,39395	9433
13,39807	9614
13,40220	9064
13,40632	8113
13,41043	9468
13,41457	7378
13,41868	7470
13,42280	7937
13,42692	7571
13,43105	8003
13,43517	7613
13,43928	8048
13,44342	7029
13,44753	7992
13,45165	8515
13,45578	8730
13,45990	7978
13,46402	8508
13,46815	8707
13,47227	7819
13,47638	8089
13,48052	7829
13,48463	7447
13,48875	8135
13,49288	7219
13,49700	7228
13,50112	6696
13,50525	7506
13,50937	6651
13,51348	7229
13,51760	7130
13,52173	7636
13,52585	7561
13,52997	7520
13,53410	7393
13,53822	8339
13,54233	7450
13,54647	7993
13,55058	8361
13,55470	8132
13,55883	7779
13,56295	9089
13,56707	8591
13,57120	7870
13,57532	8729
13,57943	8534
13,58357	7365
13,58768	7698
13,59180	8009
13,59593	7229
13,60005	8005
13,60417	7040
13,60828	7232
13,61242	7331
13,61653	6704
13,62065	7351
13,62478	7214
13,62890	7331
13,63302	6457
13,63715	7254
13,64127	7300
13,64538	6357
13,64952	7337
13,65363	7384
13,65775	5931
13,66188	7182
13,66600	7215
13,67012	7159
13,67425	6295
13,67837	7693
13,68248	6482
13,68662	7206
13,69073	6435
13,69485	6594
13,69897	6180
13,70310	7407
13,70722	7661
13,71133	7868
13,71547	7284
13,71958	9735
13,72370	9313
13,72783	11455
13,73195	12665
13,73607	13852
13,74020	13679
13,74432	14951
13,74843	16012
13,75257	17921
13,75668	19919
13,76080	27153
13,76493	40810
13,76905	67292
13,77317	116962
13,77730	209685
13,78142	353390
13,78553	556246
13,78965	837262
13,79378	1181958
13,79790	1565472
13,80202	1949078
13,80615	2268794
13,81027	2515660
13,81438	2606351
13,81852	2554210
13,82263	2425576
13,82675	2174868
13,83088	1883108
13,83500	1569065
13,83912	1280128
13,84325	1027322
13,84737	811898
13,85148	648364
13,85562	521851
13,85973	420911
13,86385	341274
13,86798	288766
13,87210	247523
13,87622	211424
13,88033	180166
13,88447	156398
13,88858	142391
13,89270	123739
13,89683	110751
13,90095	100830
13,90507	95158
13,90920	84056
13,91332	77894
13,91743	73007
13,92157	67314
13,92568	63766
13,92980	59281
13,93393	57727
13,93805	54070
13,94217	51543
13,94630	47703
13,95042	42099
13,95453	43012
13,95867	40711
13,96278	37693
13,96690	35667
13,97102	33163
13,97515	30563
13,97927	30046
13,98338	27385
13,98752	26746
13,99163	25476
13,99575	23935
13,99988	23718
14,00400	22189
14,00812	22110
14,01225	21812
14,01637	19495
14,02048	20017
14,02462	18529
14,02873	18110
14,03285	17710
14,03698	17784
14,04110	16583
14,04522	17276
14,04935	16653
14,05347	14798
14,05758	13939
14,06170	15147
14,06583	15275
14,06995	13572
14,07407	14127
14,07820	13253
14,08232	13297
14,08643	12881
14,09057	13307
14,09468	12916
14,09880	11920
14,10293	13271
14,10705	11501
14,11117	12872
14,11530	12753
14,11942	12482
14,12353	10122
14,12767	10395
14,13178	10922
14,13590	10634
14,14003	12981
14,14415	12148
14,14827	10713
14,15238	11776
14,15652	11072
14,16063	11003
14,16475	10456
14,16888	11677
14,17300	10249
14,17712	10448
14,18125	10815
14,18537	9881
14,18948	9929
14,19362	9389
14,19773	10731
14,20185	9051
14,20598	9410
14,21010	8524
14,21422	9684
14,21835	9395
14,22247	9318
14,22658	8786
14,23072	7239
14,23483	8344
14,23895	8774
14,24307	7856
14,24720	8310
14,25132	7825
14,25543	9401
14,25957	8479
14,26368	7954
14,26780	8446
14,27193	8366
14,27605	7336
14,28017	8308
14,28430	9251
14,28842	8955
14,29253	7402
14,29667	9281
14,30078	7510
14,30490	8052
14,30903	8715
14,31315	7723
14,31727	9711
14,32140	8485
14,32552	10210
14,32963	10128
14,33377	10855
14,33788	11587
14,34200	11623
14,34612	12387
14,35025	11462
14,35437	10517
14,35848	11489
14,36262	10329
14,36673	9732
14,37085	9747
14,37498	8968
14,37910	7793
14,38322	8716
14,38735	7205
14,39147	8229
14,39558	8475
14,39972	9346
14,40383	7095
14,40795	7124
14,41208	7905
14,41620	7373
14,42032	6885
14,42445	6777
14,42857	6080
14,43268	8705
14,43680	7754
14,44093	7272
14,44505	7305
14,44917	7446
14,45330	6596
14,45742	7123
14,46153	5838
14,46567	6913
14,46978	6845
14,47390	7545
14,47803	7747
14,48215	6171
14,48627	7333
14,49040	7125
14,49452	7071
14,49863	6940
14,50277	8247
14,50688	9673
14,51100	14185
14,51513	22396
14,51925	35169
14,52337	66674
14,52748	112422
14,53162	185969
14,53573	291602
14,53985	440097
14,54398	610596
14,54810	792815
14,55222	960273
14,55635	1098407
14,56047	1172744
14,56458	1206909
14,56872	1166683
14,57283	1076798
14,57695	962747
14,58108	830274
14,58520	693283
14,58932	567903
14,59345	466136
14,59757	377335
14,60168	304645
14,60582	251032
14,60993	208559
14,61405	169592
14,61817	143475
14,62230	122020
14,62642	107729
14,63053	93365
14,63467	83745
14,63878	71933
14,64290	64948
14,64703	59834
14,65115	52527
14,65527	48479
14,65940	42943
14,66352	41206
14,66763	39056
14,67177	36475
14,67588	34960
14,68000	32644
14,68413	32022
14,68825	31770
14,69237	33416
14,69650	34622
14,70062	32557
14,70473	33787
14,70885	32472
14,71298	31963
14,71710	31904
14,72122	28649
14,72535	27455
14,72947	26357
14,73358	23508
14,73772	21370
14,74183	20056
14,74595	18640
14,75008	17793
14,75420	15439
14,75832	15607
14,76245	13975
14,76657	13918
14,77068	13951
14,77482	13143
14,77893	12495
14,78305	12811
14,78718	12346
14,79130	11508
14,79542	10832
14,79953	12053
14,80367	10425
14,80778	10135
14,81190	10791
14,81603	11600
14,82015	13836
14,82427	19605
14,82840	31324
14,83252	50655
14,83663	91712
14,84077	155168
14,84488	255471
14,84900	393491
14,85313	575052
14,85725	776049
14,86137	987981
14,86550	1179458
14,86962	1306969
14,87373	1376703
14,87787	1353135
14,88198	1261788
14,88610	1143162
14,89022	977778
14,89435	825689
14,89847	672682
14,90258	537803
14,90672	435082
14,91083	347155
14,91495	280955
14,91908	228743
14,92320	185444
14,92732	153818
14,93145	134631
14,93557	111793
14,93968	96336
14,94382	86152
14,94793	74597
14,95205	65824
14,95618	60562
14,96030	55144
14,96442	50542
14,96855	45216
14,97267	43422
14,97678	37979
14,98090	36525
14,98503	33853
14,98915	32683
14,99327	31287
14,99740	28029
15,00152	25009
15,00563	25067
15,00977	25472
15,01388	23379
15,01800	22099
15,02213	19752
15,02625	19118
15,03037	19513
15,03450	17999
15,03862	18596
15,04273	17375
15,04687	17747
15,05098	15537
15,05510	16144
15,05923	15385
15,06335	14236
15,06747	14009
15,07158	15486
15,07572	13391
15,07983	13308
15,08395	13429
15,08808	12921
15,09220	12219
15,09632	13107
15,10045	11017
15,10457	11541
15,10868	11760
15,11282	11724
15,11693	10487
15,12105	11096
15,12518	12747
15,12930	11457
15,13342	9954
15,13755	10249
15,14167	10622
15,14578	9781
15,14992	9275
15,15403	10490
15,15815	8415
15,16227	9169
15,16640	9199
15,17052	9201
15,17463	8490
15,17877	8894
15,18288	7442
15,18700	10020
15,19113	9939
15,19525	7755
15,19937	8600
15,20350	8667
15,20762	9105
15,21173	8052
15,21587	8657
15,21998	9465
15,22410	9007
15,22823	9639
15,23235	7257
15,23647	9831
15,24060	8485
15,24472	9165
15,24883	8304
15,25295	8740
15,25708	8814
15,26120	9479
15,26532	9412
15,26945	9244
15,27357	8513
15,27768	8748
15,28182	8567
15,28593	8703
15,29005	8196
15,29418	7879
15,29830	8374
15,30242	8376
15,30655	8106
15,31067	7453
15,31478	7620
15,31892	7232
15,32303	7847
15,32715	7441
15,33128	7411
15,33540	7649
15,33952	7206
15,34363	7221
15,34777	8156
15,35188	6878
15,35600	8440
15,36013	7910
15,36425	7608
15,36837	8449
15,37250	8907
15,37662	7005
15,38073	8325
15,38487	7796
15,38898	7332
15,39310	7448
15,39723	7888
15,40135	6570
15,40547	6411
15,40960	6899
15,41372	7568
15,41783	7265
15,42197	6532
15,42608	7921
15,43020	7412
15,43432	6907
15,43845	6495
15,44257	7055
15,44668	6665
15,45082	6911
15,45493	8194
15,45905	6855
15,46318	7144
15,46730	7454
15,47142	7383
15,47555	6740
15,47967	7159
15,48378	6622
15,48792	7158
15,49203	7343
15,49615	6915
15,50028	6932
15,50440	6878
15,50852	7393
15,51265	7143
15,51677	7329
15,52088	6456
15,52500	6988
15,52913	7442
15,53325	7347
15,53737	7166
15,54150	6472
15,54562	7422
15,54973	8687
15,55387	10266
15,55798	13720
15,56210	22966
15,56623	43526
15,57035	74440
15,57447	127300
15,57860	208982
15,58272	327303
15,58683	489759
15,59097	666768
15,59508	866616
15,59920	1042604
15,60333	1184099
15,60745	1274975
15,61157	1270015
15,61568	1215860
15,61982	1108188
15,62393	976304
15,62805	836170
15,63218	696179
15,63630	566348
15,64042	460899
15,64455	365749
15,64867	294823
15,65278	244546
15,65692	202718
15,66103	167864
15,66515	140871
15,66928	117480
15,67340	105856
15,67752	90716
15,68165	80002
15,68577	70591
15,68988	62052
15,69402	57949
15,69813	51514
15,70225	47938
15,70637	42226
15,71050	40870
15,71462	38164
15,71873	34240
15,72287	33135
15,72698	31386
15,73110	28372
15,73523	28028
15,73935	27295
15,74347	24016
15,74760	23194
15,75172	22651
15,75583	20778
15,75997	19165
15,76408	19968
15,76820	18184
15,77233	16527
15,77645	18451
15,78057	17763
15,78470	16824
15,78882	14797
15,79293	15831
15,79705	14596
15,80118	13447
15,80530	13512
15,80942	13259
15,81355	12648
15,81767	12490
15,82178	13221
15,82592	11735
15,83003	11313
15,83415	12649
15,83828	14783
15,84240	20506
15,84652	33426
15,85065	57979
15,85477	108511
15,85888	199994
15,86302	363477
15,86713	600774
15,87125	930250
15,87538	1389560
15,87950	1945505
15,88362	2555691
15,88773	3209608
15,89187	3771879
15,89598	4148976
15,90010	4332315
15,90423	4320942
15,90835	4062152
15,91247	3605772
15,91660	3063907
15,92072	2513350
15,92483	2010877
15,92897	1592081
15,93308	1245510
15,93720	989343
15,94133	792993
15,94545	640175
15,94957	532806
15,95370	440058
15,95782	375419
15,96193	317990
15,96607	274141
15,97018	242612
15,97430	215030
15,97843	189009
15,98255	172822
15,98667	156719
15,99078	141873
15,99492	126607
15,99903	117987
16,00315	107653
16,00728	99092
16,01140	90409
16,01552	85982
16,01965	79677
16,02377	73608
16,02788	69237
16,03202	63649
16,03613	60658
16,04025	57413
16,04438	54036
16,04850	50033
16,05262	50265
16,05675	46107
16,06087	43942
16,06498	40934
16,06912	38506
16,07323	37544
16,07735	35795
16,08147	33855
16,08560	32508
16,08972	30860
16,09383	30043
16,09797	27395
16,10208	28649
16,10620	27785
16,11033	24752
16,11445	23837
16,11857	23803
16,12270	22648
16,12682	21518
16,13093	22551
16,13507	20055
16,13918	18725
16,14330	20032
16,14743	18864
16,15155	19959
16,15567	17797
16,15980	18882
16,16392	18165
16,16803	16109
16,17215	17297
16,17628	14916
16,18040	15573
16,18452	14617
16,18865	15148
16,19277	15256
16,19688	14680
16,20102	14088
16,20513	13842
16,20925	13515
16,21338	12741
16,21750	12306
16,22162	13631
16,22575	14007
16,22987	12833
16,23398	12267
16,23812	12496
16,24223	12142
16,24635	11469
16,25048	12294
16,25460	11776
16,25872	12543
16,26283	11845
16,26697	10644
16,27108	11947
16,27520	12579
16,27933	12359
16,28345	12852
16,28757	11857
16,29170	12829
16,29582	11206
16,29993	11840
16,30407	10495
16,30818	11037
16,31230	11092
16,31643	11784
16,32055	10832
16,32467	9861
16,32880	10838
16,33292	11445
16,33703	10374
16,34117	9465
16,34528	9772
16,34940	10335
16,35352	10471
16,35765	9925
16,36177	9505
16,36588	10161
16,37002	11217
16,37413	11107
16,37825	12589
16,38238	12006
16,38650	11815
16,39062	10316
16,39475	13119
16,39887	13047
16,40298	11969
16,40712	11585
16,41123	10196
16,41535	10817
16,41948	11277
16,42360	10851
16,42772	12705
16,43185	18933
16,43597	30090
16,44008	48656
16,44420	83053
16,44833	141866
16,45245	232953
16,45657	361772
16,46070	530685
16,46482	720647
16,46893	931780
16,47307	1111141
16,47718	1264811
16,48130	1335300
16,48543	1333929
16,48955	1283206
16,49367	1147867
16,49780	996889
16,50192	847266
16,50603	688272
16,51017	576911
16,51428	457515
16,51840	365343
16,52253	294276
16,52665	239323
16,53077	199446
16,53488	167096
16,53902	144293
16,54313	121787
16,54725	106201
16,55138	96138
16,55550	83148
16,55962	75364
16,56375	69039
16,56787	62012
16,57198	54303
16,57612	49475
16,58023	48421
16,58435	45813
16,58848	43239
16,59260	41330
16,59672	41477
16,60085	40122
16,60497	39851
16,60908	40245
16,61322	38205
16,61733	37199
16,62145	35884
16,62557	34869
16,62970	31604
16,63382	30194
16,63793	28387
16,64207	26207
16,64618	25377
16,65030	24032
16,65443	20945
16,65855	22582
16,66267	19603
16,66680	18071
16,67092	17190
16,67503	17189
16,67917	16243
16,68328	17175
16,68740	16084
16,69153	15605
16,69565	14310
16,69977	14684
16,70390	13429
16,70802	13126
16,71213	12969
16,71625	13133
16,72038	12897
16,72450	12267
16,72862	12228
16,73275	12072
16,73687	12556
16,74098	11539
16,74512	11479
16,74923	10674
16,75335	11518
16,75748	13017
16,76160	11268
16,76572	12411
16,76985	11790
16,77397	11289
16,77808	12030
16,78222	10782
16,78633	10567
16,79045	10471
16,79458	10374
16,79870	10744
16,80282	9865
16,80693	11231
16,81107	11101
16,81518	11049
16,81930	11470
16,82343	14201
16,82755	21464
16,83167	34403
16,83580	62535
16,83992	106838
16,84403	189035
16,84817	308854
16,85228	474030
16,85640	670804
16,86053	909615
16,86465	1148838
16,86877	1326317
16,87290	1445235
16,87702	1510769
16,88113	1488614
16,88527	1379698
16,88938	1226386
16,89350	1047259
16,89762	859531
16,90175	700027
16,90587	555380
16,90998	447150
16,91412	357937
16,91823	288549
16,92235	233208
16,92648	196904
16,93060	164757
16,93472	141368
16,93885	120575
16,94297	106335
16,94708	92892
16,95122	86075
16,95533	73880
16,95945	67553
16,96358	59736
16,96770	55844
16,97182	51890
16,97595	48009
16,98007	43840
16,98418	42951
16,98830	40034
16,99243	36403
16,99655	33942
17,00067	31010
17,00480	31427
17,00892	28436
17,01303	29021
17,01717	26331
17,02128	25120
17,02540	24405
17,02953	24504
17,03365	21893
17,03777	22604
17,04190	21876
17,04602	20034
17,05013	20753
17,05427	19804
17,05838	17272
17,06250	18241
17,06663	17168
17,07075	17118
17,07487	17099
17,07898	15405
17,08312	15134
17,08723	16437
17,09135	15821
17,09548	14515
17,09960	13668
17,10372	14332
17,10785	13901
17,11197	13793
17,11608	14478
17,12022	13782
17,12433	11804
17,12845	13252
17,13258	11479
17,13670	13290
17,14082	11288
17,14495	11760
17,14907	11119
17,15318	11505
17,15732	11183
17,16143	11652
17,16555	12286
17,16967	9928
17,17380	10587
17,17792	9774
17,18203	11194
17,18617	10655
17,19028	10101
17,19440	10446
17,19853	10902
17,20265	11507
17,20677	9953
17,21090	9569
17,21502	11164
17,21913	10959
17,22327	10137
17,22738	9487
17,23150	9575
17,23563	10112
17,23975	8876
17,24387	9446
17,24800	10796
17,25212	8618
17,25623	8899
17,26035	8363
17,26448	8686
17,26860	9374
17,27272	8301
17,27685	9100
17,28097	8405
17,28508	9377
17,28922	9391
17,29333	10324
17,29745	9175
17,30158	9847
17,30570	9739
17,30982	9460
17,31395	9952
17,31807	9143
17,32218	9816
17,32632	10948
17,33043	8923
17,33455	11496
17,33868	9798
17,34280	9130
17,34692	9609
17,35103	9465
17,35517	10004
17,35928	8500
17,36340	9014
17,36753	9410
17,37165	9466
17,37577	10149
17,37990	7939
17,38402	9952
17,38813	10819
17,39227	13676
17,39638	16153
17,40050	25703
17,40463	45586
17,40875	81924
17,41287	138736
17,41700	230730
17,42112	362689
17,42523	534531
17,42937	745863
17,43348	964406
17,43760	1165871
17,44172	1326172
17,44585	1422210
17,44997	1441013
17,45408	1382657
17,45822	1258214
17,46233	1097415
17,46645	924944
17,47058	759010
17,47470	623532
17,47882	505821
17,48295	398833
17,48707	323660
17,49118	262935
17,49532	214626
17,49943	183447
17,50355	156999
17,50768	133125
17,51180	115712
17,51592	99715
17,52005	87823
17,52417	80246
17,52828	73443
17,53242	65261
17,53653	60288
17,54065	53257
17,54477	51406
17,54890	48192
17,55302	42377
17,55713	40494
17,56127	39761
17,56538	35947
17,56950	34778
17,57363	32828
17,57775	30835
17,58187	30529
17,58600	27020
17,59012	27642
17,59423	24393
17,59837	24544
17,60248	23131
17,60660	24317
17,61073	24320
17,61485	23460
17,61897	22791
17,62310	24479
17,62722	25386
17,63133	28327
17,63545	29633
17,63958	31587
17,64370	33075
17,64782	33149
17,65195	33884
17,65607	32671
17,66018	32196
17,66432	30369
17,66843	27203
17,67255	28050
17,67668	23471
17,68080	23688
17,68492	22777
17,68905	21699
17,69317	18131
17,69728	17813
17,70142	17371
17,70553	16262
17,70965	16653
17,71378	16188
17,71790	15558
17,72202	14261
17,72613	15635
17,73027	12908
17,73438	13721
17,73850	13206
17,74263	13449
17,74675	11993
17,75087	13042
17,75500	11783
17,75912	12779
17,76323	14401
17,76737	19416
17,77148	29211
17,77560	52381
17,77973	91441
17,78385	171430
17,78797	295304
17,79210	485676
17,79622	756809
17,80033	1111194
17,80447	1557492
17,80858	2037808
17,81270	2526005
17,81682	2924417
17,82095	3225165
17,82507	3338951
17,82918	3250333
17,83332	2981354
17,83743	2629801
17,84155	2216119
17,84568	1826443
17,84980	1458780
17,85392	1166336
17,85805	933996
17,86217	742413
17,86628	603670
17,87042	493475
17,87453	417783
17,87865	344133
17,88278	292329
17,88690	257001
17,89102	225480
17,89515	197658
17,89927	177438
17,90338	158274
17,90750	143556
17,91163	130115
17,91575	116115
17,91987	108482
17,92400	98500
17,92812	89002
17,93223	83563
17,93637	77818
17,94048	73709
17,94460	70452
17,94873	63228
17,95285	59607
17,95697	58599
17,96110	55949
17,96522	50887
17,96933	49268
17,97347	47352
17,97758	43976
17,98170	41561
17,98583	39513
17,98995	35832
17,99407	35564
17,99818	34304
18,00232	34361
18,00643	31304
18,01055	32323
18,01468	30518
18,01880	30586
18,02292	28003
18,02705	26390
18,03117	26237
18,03528	24420
18,03942	24362
18,04353	23130
18,04765	23359
18,05178	22919
18,05590	24999
18,06002	22040
18,06415	20813
18,06827	22383
18,07238	20288
18,07652	20304
18,08063	21898
18,08475	23734
18,08887	32372
18,09300	48186
18,09712	77415
18,10123	132310
18,10537	215707
18,10948	345089
18,11360	513265
18,11773	711980
18,12185	940130
18,12597	1161482
18,13010	1356575
18,13422	1473127
18,13833	1543791
18,14247	1508513
18,14658	1412623
18,15070	1271275
18,15483	1095529
18,15895	915115
18,16307	755538
18,16720	615138
18,17132	497281
18,17543	400293
18,17955	325843
18,18368	271029
18,18780	224613
18,19192	196303
18,19605	164296
18,20017	143649
18,20428	126169
18,20842	115119
18,21253	102947
18,21665	93930
18,22078	82476
18,22490	74979
18,22902	70296
18,23315	63873
18,23727	59949
18,24138	59105
18,24552	59975
18,24963	72211
18,25375	93542
18,25788	135579
18,26200	217228
18,26612	351392
18,27023	565634
18,27437	861112
18,27848	1221998
18,28260	1633764
18,28673	2112274
18,29085	2539727
18,29497	2886361
18,29910	3080062
18,30322	3108474
18,30733	2986812
18,31147	2733018
18,31558	2373661
18,31970	2029213
18,32383	1679646
18,32795	1339535
18,33207	1080415
18,33620	869765
18,34032	705457
18,34443	583768
18,34857	481937
18,35268	405450
18,35680	340406
18,36092	298894
18,36505	257725
18,36917	231802
18,37328	204998
18,37742	179696
18,38153	165518
18,38565	149691
18,38978	137501
18,39390	122875
18,39802	114562
18,40215	103232
18,40627	98494
18,41038	88992
18,41452	86189
18,41863	79598
18,42275	73436
18,42688	71057
18,43100	66004
18,43512	63338
18,43925	60850
18,44337	56620
18,44748	55600
18,45160	51450
18,45573	49318
18,45985	48177
18,46397	46900
18,46810	43344
18,47222	41761
18,47633	40961
18,48047	37271
18,48458	39147
18,48870	35448
18,49283	33709
18,49695	35085
18,50107	31352
18,50520	29756
18,50932	29486
18,51343	30172
18,51757	27672
18,52168	27321
18,52580	26148
18,52993	25689
18,53405	25325
18,53817	25263
18,54228	24976
18,54642	23442
18,55053	23055
18,55465	22458
18,55878	20916
18,56290	21150
18,56702	22153
18,57115	21652
18,57527	21205
18,57938	19119
18,58352	19129
18,58763	17923
18,59175	18511
18,59588	20306
18,60000	18315
18,60412	18894
18,60825	19688
18,61237	21266
18,61648	27674
18,62062	39111
18,62473	59499
18,62885	97989
18,63297	166109
18,63710	267325
18,64122	404652
18,64533	591739
18,64947	804650
18,65358	1015776
18,65770	1208546
18,66183	1348336
18,66595	1419632
18,67007	1398049
18,67420	1336604
18,67832	1250603
18,68243	1157314
18,68657	1100870
18,69068	1117739
18,69480	1211190
18,69893	1418590
18,70305	1718082
18,70717	2129273
18,71130	2548469
18,71542	2932353
18,71953	3270111
18,72365	3432242
18,72778	3437321
18,73190	3242396
18,73602	2932611
18,74015	2507999
18,74427	2088383
18,74838	1701615
18,75252	1367462
18,75663	1095053
18,76075	888072
18,76488	719330
18,76900	598947
18,77312	508374
18,77725	433412
18,78137	371860
18,78548	325074
18,78962	284776
18,79373	256259
18,79785	226220
18,80198	204611
18,80610	187166
18,81022	169217
18,81433	156026
18,81847	142907
18,82258	130568
18,82670	124401
18,83083	112763
18,83495	107210
18,83907	100893
18,84320	95147
18,84732	89815
18,85143	85446
18,85557	81418
18,85968	76783
18,86380	72858
18,86793	70491
18,87205	69362
18,87617	62130
18,88030	59387
18,88442	57692
18,88853	55728
18,89267	52711
18,89678	52117
18,90090	50587
18,90502	47820
18,90915	45362
18,91327	46351
18,91738	46384
18,92152	43997
18,92563	41988
18,92975	42194
18,93388	41678
18,93800	38531
18,94212	36420
18,94625	37196
18,95037	38401
18,95448	34742
18,95862	34158
18,96273	32749
18,96685	31237
18,97098	30488
18,97510	31984
18,97922	33337
18,98335	33887
18,98747	41230
18,99158	56469
18,99570	85516
18,99983	133095
19,00395	210675
19,00807	326004
19,01220	479097
19,01632	670868
19,02043	865734
19,02457	1056992
19,02868	1231383
19,03280	1332138
19,03693	1374765
19,04105	1335159
19,04517	1237578
19,04930	1096690
19,05342	941666
19,05753	784201
19,06167	641149
19,06578	525616
19,06990	433978
19,07403	349776
19,07815	291436
19,08227	245147
19,08638	204712
19,09052	175124
19,09463	153703
19,09875	135114
19,10288	123268
19,10700	106025
19,11112	98756
19,11525	87069
19,11937	81575
19,12348	75207
19,12762	67578
19,13173	65484
19,13585	59564
19,13998	56965
19,14410	56034
19,14822	51451
19,15235	49471
19,15647	47584
19,16058	43354
19,16472	43153
19,16883	41768
19,17295	38996
19,17708	38991
19,18120	37752
19,18532	37851
19,18943	36221
19,19357	34075
19,19768	34498
19,20180	30966
19,20593	32380
19,21005	30802
19,21417	31010
19,21830	28417
19,22242	28107
19,22653	28498
19,23067	26809
19,23478	24582
19,23890	24002
19,24303	23453
19,24715	23055
19,25127	23261
19,25540	22973
19,25952	19512
19,26363	20539
19,26777	22660
19,27188	21109
19,27600	18874
19,28012	19611
19,28425	19533
19,28837	19156
19,29248	17668
19,29662	18173
19,30073	19481
19,30485	17050
19,30898	17877
19,31310	19532
19,31722	17712
19,32135	18408
19,32547	16066
19,32958	17501
19,33372	17167
19,33783	15555
19,34195	16532
19,34608	16113
19,35020	15122
19,35432	16314
19,35845	16720
19,36257	15947
19,36668	16156
19,37080	17338
19,37493	15964
19,37905	15068
19,38317	15615
19,38730	15723
19,39142	14364
19,39553	14983
19,39967	15250
19,40378	15636
19,40790	15109
19,41203	16445
19,41615	16368
19,42027	15966
19,42440	16129
19,42852	13908
19,43263	14976
19,43677	14741
19,44088	14848
19,44500	13917
19,44913	14321
19,45325	14268
19,45737	13165
19,46148	13346
19,46562	13611
19,46973	14401
19,47385	13895
19,47798	13171
19,48210	13900
19,48622	13941
19,49035	13572
19,49447	15176
19,49858	17252
19,50272	18873
19,50683	26371
19,51095	45122
19,51508	69722
19,51920	117690
19,52332	195555
19,52745	306555
19,53157	451687
19,53568	620962
19,53982	818936
19,54393	993357
19,54805	1161219
19,55217	1321588
19,55630	1425605
19,56042	1545866
19,56453	1671038
19,56867	1867963
19,57278	2140406
19,57690	2475831
19,58103	2897333
19,58515	3297344
19,58927	3688279
19,59340	3905014
19,59752	3923606
19,60163	3791069
19,60577	3455753
19,60988	3007984
19,61400	2521597
19,61813	2057144
19,62225	1664705
19,62637	1336502
19,63050	1087805
19,63462	882743
19,63873	736440
19,64285	622431
19,64698	535188
19,65110	455583
19,65522	401932
19,65935	351935
19,66347	313537
19,66758	280875
19,67172	251628
19,67583	231229
19,67995	212824
19,68408	196602
19,68820	179670
19,69232	167718
19,69645	158978
19,70057	153008
19,70468	144760
19,70882	137897
19,71293	134153
19,71705	125844
19,72118	122663
19,72530	117968
19,72942	110710
19,73353	107189
19,73767	97337
19,74178	94160
19,74590	89055
19,75003	85328
19,75415	79224
19,75827	73628
19,76240	70447
19,76652	65396
19,77063	62253
19,77477	60961
19,77888	57063
19,78300	53300
19,78713	54447
19,79125	52474
19,79537	49053
19,79950	51122
19,80362	48487
19,80773	45925
19,81187	42198
19,81598	42888
19,82010	42143
19,82422	43714
19,82835	45428
19,83247	50366
19,83658	68047
19,84072	92476
19,84483	134082
19,84895	208115
19,85308	306591
19,85720	446323
19,86132	606079
19,86545	782071
19,86957	944842
19,87368	1072790
19,87782	1172592
19,88193	1193820
19,88605	1167336
19,89018	1079888
19,89430	965116
19,89842	839582
19,90255	701564
19,90667	584754
19,91078	477970
19,91490	387390
19,91903	321696
19,92315	270245
19,92727	227300
19,93140	191572
19,93552	164801
19,93963	145700
19,94377	127340
19,94788	113806
19,95200	102542
19,95613	92853
19,96025	84296
19,96437	82705
19,96850	74377
19,97262	69857
19,97673	66619
19,98087	63982
19,98498	61512
19,98910	67733
19,99323	75905
19,99735	91818
20,00147	136617
20,00558	196740
20,00972	298737
20,01383	448057
20,01795	638596
20,02208	872510
20,02620	1118708
20,03032	1354529
20,03445	1552720
20,03857	1660935
20,04268	1690378
20,04682	1637109
20,05093	1474757
20,05505	1304389
20,05918	1117307
20,06330	943910
20,06742	776445
20,07155	638825
20,07567	536440
20,07978	436138
20,08392	369282
20,08803	312594
20,09215	272079
20,09627	238960
20,10040	203934
20,10452	188662
20,10863	169504
20,11277	150067
20,11688	136985
20,12100	124292
20,12513	116523
20,12925	108350
20,13337	95216
20,13750	89987
20,14162	87228
20,14573	81912
20,14987	77039
20,15398	72738
20,15810	70297
20,16223	62096
20,16635	61632
20,17047	58925
20,17460	55559
20,17872	57367
20,18283	52222
20,18695	50247
20,19108	49465
20,19520	45253
20,19932	46257
20,20345	43133
20,20757	41175
20,21168	40508
20,21582	39145
20,21993	37876
20,22405	39036
20,22818	39184
20,23230	34179
20,23642	33847
20,24055	34411
20,24467	32983
20,24878	32777
20,25292	32565
20,25703	33049
20,26115	30807
20,26528	31104
20,26940	32481
20,27352	30785
20,27763	28977
20,28177	29085
20,28588	27170
20,29000	29637
20,29413	27492
20,29825	26521
20,30237	26955
20,30650	24275
20,31062	25334
20,31473	25437
20,31887	24936
20,32298	25695
20,32710	24929
20,33123	25615
20,33535	25460
20,33947	24108
20,34360	22515
20,34772	22316
20,35183	25807
20,35597	23315
20,36008	24250
20,36420	23022
20,36832	25780
20,37245	32755
20,37657	41270
20,38068	60856
20,38482	99955
20,38893	169166
20,39305	276942
20,39718	440946
20,40130	655343
20,40542	920535
20,40955	1227045
20,41367	1495507
20,41778	1711829
20,42192	1829924
20,42603	1879845
20,43015	1798518
20,43428	1635966
20,43840	1431140
20,44252	1208763
20,44665	1006300
20,45077	819178
20,45488	683634
20,45900	553701
20,46313	464238
20,46725	388232
20,47137	337299
20,47550	291073
20,47962	254075
20,48373	224874
20,48787	202813
20,49198	184400
20,49610	168320
20,50023	153353
20,50435	136353
20,50847	124150
20,51260	117078
20,51672	108326
20,52083	103599
20,52497	99009
20,52908	91312
20,53320	85852
20,53733	80794
20,54145	81305
20,54557	75801
20,54968	71469
20,55382	70228
20,55793	67530
20,56205	67297
20,56618	60975
20,57030	60531
20,57442	57738
20,57855	56284
20,58267	52721
20,58678	51010
20,59092	47725
20,59503	47847
20,59915	43950
20,60328	44100
20,60740	45209
20,61152	41590
20,61565	41134
20,61977	40078
20,62388	39794
20,62802	38246
20,63213	37800
20,63625	38426
20,64037	34594
20,64450	36480
20,64862	36253
20,65273	34786
20,65687	32882
20,66098	33535
20,66510	32081
20,66923	34344
20,67335	31619
20,67747	33541
20,68160	32701
20,68572	36757
20,68983	43149
20,69397	58878
20,69808	85021
20,70220	137327
20,70633	214803
20,71045	337571
20,71457	503660
20,71870	712586
20,72282	943922
20,72693	1163938
20,73105	1335985
20,73518	1443147
20,73930	1470595
20,74342	1433784
20,74755	1318576
20,75167	1180237
20,75578	1013420
20,75992	838376
20,76403	702774
20,76815	572409
20,77228	476640
20,77640	405704
20,78052	338724
20,78465	288926
20,78877	248566
20,79288	218055
20,79702	190759
20,80113	167392
20,80525	152042
20,80938	132673
20,81350	122328
20,81762	111906
20,82175	108055
20,82587	95899
20,82998	93281
20,83410	83294
20,83823	82024
20,84235	75707
20,84647	72411
20,85060	68322
20,85472	65316
20,85883	61963
20,86297	57968
20,86708	57017
20,87120	55597
20,87533	52036
20,87945	51696
20,88357	47605
20,88770	46975
20,89182	46779
20,89593	44151
20,90007	43875
20,90418	40875
20,90830	39661
20,91243	39408
20,91655	36665
20,92067	37222
20,92478	37867
20,92892	34710
20,93303	36257
20,93715	34417
20,94128	33774
20,94540	34281
20,94952	32489
20,95365	32186
20,95777	30311
20,96188	30505
20,96602	30417
20,97013	28907
20,97425	29475
20,97838	29175
20,98250	29743
20,98662	27967
20,99075	28716
20,99487	28216
20,99898	26222
21,00312	28677
21,00723	28380
21,01135	28229
21,01547	27699
21,01960	24902
21,02372	27388
21,02783	24757
21,03197	24423
21,03608	24985
21,04020	25212
21,04433	26713
21,04845	25939
21,05257	24069
21,05670	25406
21,06082	26542
21,06493	25809
21,06907	25738
21,07318	27865
21,07730	25735
21,08143	27433
21,08555	25876
21,08967	26380
21,09380	24869
21,09792	24108
21,10203	25868
21,10615	23726
21,11028	24521
21,11440	24635
21,11852	24209
21,12265	23505
21,12677	22069
21,13088	23369
21,13502	22642
21,13913	22087
21,14325	21317
21,14738	21619
21,15150	22783
21,15562	23991
21,15975	24637
21,16387	23050
21,16798	26964
21,17212	28913
21,17623	36418
21,18035	53471
21,18448	89302
21,18860	153672
21,19272	268798
21,19683	462236
21,20097	744776
21,20508	1137438
21,20920	1654904
21,21333	2264305
21,21745	2946670
21,22157	3589193
21,22570	4167694
21,22982	4603553
21,23393	4900983
21,23807	4965641
21,24218	4783610
21,24630	4354553
21,25043	3816244
21,25455	3235004
21,25867	2665121
21,26280	2182251
21,26692	1763832
21,27103	1461608
21,27517	1214660
21,27928	1012921
21,28340	871838
21,28752	747905
21,29165	657635
21,29577	576650
21,29988	502522
21,30402	459493
21,30813	417237
21,31225	373754
21,31638	346333
21,32050	320407
21,32462	291249
21,32875	271394
21,33287	251061
21,33698	230439
21,34112	220057
21,34523	206053
21,34935	194465
21,35348	185678
21,35760	168409
21,36172	159427
21,36585	151843
21,36997	147846
21,37408	138089
21,37820	129761
21,38233	129370
21,38645	120264
21,39057	115865
21,39470	111465
21,39882	109874
21,40293	106158
21,40707	99922
21,41118	98536
21,41530	93577
21,41943	89495
21,42355	87981
21,42767	85827
21,43180	82369
21,43592	79206
21,44003	78753
21,44417	74502
21,44828	73200
21,45240	72021
21,45653	71701
21,46065	70498
21,46477	67334
21,46888	67449
21,47302	65125
21,47713	71013
21,48125	82263
21,48538	93396
21,48950	123727
21,49362	170451
21,49775	253098
21,50187	370556
21,50598	531710
21,51012	718867
21,51423	922671
21,51835	1120584
21,52248	1275907
21,52660	1359803
21,53072	1380755
21,53485	1326723
21,53897	1230363
21,54308	1110814
21,54722	990570
21,55133	881314
21,55545	827466
21,55957	806710
21,56370	836410
21,56782	915271
21,57193	1020802
21,57607	1141975
21,58018	1271786
21,58430	1371692
21,58843	1400081
21,59255	1380551
21,59667	1301212
21,60080	1205887
21,60492	1059708
21,60903	932285
21,61317	815069
21,61728	738243
21,62140	703839
21,62553	727593
21,62965	801084
21,63377	929346
21,63790	1134730
21,64202	1364083
21,64613	1600689
21,65025	1787690
21,65438	1885582
21,65850	1912570
21,66262	1852071
21,66675	1695521
21,67087	1515359
21,67498	1315302
21,67912	1131149
21,68323	960033
21,68735	806444
21,69148	681646
21,69560	593619
21,69972	512948
21,70385	446711
21,70797	390055
21,71208	345785
21,71622	310712
21,72033	287094
21,72445	263609
21,72858	246150
21,73270	221614
21,73682	210979
21,74093	199265
21,74507	185153
21,74918	173559
21,75330	163387
21,75743	151445
21,76155	143533
21,76567	138389
21,76980	133225
21,77392	124829
21,77803	119612
21,78217	117775
21,78628	107884
21,79040	107446
21,79453	101778
21,79865	98067
21,80277	94626
21,80690	89419
21,81102	89166
21,81513	85962
21,81927	83748
21,82338	81726
21,82750	76370
21,83162	75501
21,83575	73089
21,83987	71359
21,84398	69072
21,84812	67536
21,85223	65513
21,85635	65885
21,86048	64586
21,86460	65326
21,86872	62372
21,87285	63085
21,87697	60417
21,88108	57442
21,88522	56460
21,88933	54599
21,89345	55620
21,89758	56589
21,90170	53604
21,90582	52999
21,90995	52539
21,91407	54307
21,91818	50001
21,92230	50593
21,92643	51733
21,93055	51132
21,93467	48274
21,93880	47823
21,94292	51732
21,94703	51500
21,95117	55783
21,95528	67137
21,95940	86412
21,96353	125356
21,96765	191583
21,97177	297529
21,97590	453680
21,98002	648962
21,98413	908018
21,98827	1178758
21,99238	1450404
21,99650	1681710
22,00063	1851547
22,00475	1896103
22,00887	1818168
22,01298	1684012
22,01712	1493436
22,02123	1293419
22,02535	1083754
22,02948	907683
22,03360	762223
22,03772	648206
22,04185	557242
22,04597	481604
22,05008	425112
22,05422	373437
22,05833	334501
22,06245	298406
22,06658	277106
22,07070	251912
22,07482	229922
22,07895	209869
22,08307	196299
22,08718	188939
22,09132	173650
22,09543	164676
22,09955	152471
22,10367	147994
22,10780	140742
22,11192	134413
22,11603	131901
22,12017	123412
22,12428	120515
22,12840	115054
22,13253	114855
22,13665	109868
22,14077	105941
22,14490	102807
22,14902	95756
22,15313	93353
22,15727	91317
22,16138	88956
22,16550	83365
22,16963	81302
22,17375	81670
22,17787	78826
22,18200	76796
22,18612	74750
22,19023	77326
22,19435	72937
22,19848	72594
22,20260	69920
22,20672	72615
22,21085	66620
22,21497	72381
22,21908	66834
22,22322	66651
22,22733	64580
22,23145	65383
22,23558	66513
22,23970	62735
22,24382	60955
22,24795	62800
22,25207	59877
22,25618	61948
22,26032	62815
22,26443	66672
22,26855	79642
22,27268	105619
22,27680	144265
22,28092	213200
22,28503	315874
22,28917	470327
22,29328	670923
22,29740	898944
22,30153	1136574
22,30565	1328581
22,30977	1473384
22,31390	1560958
22,31802	1532565
22,32213	1459723
22,32627	1321306
22,33038	1172717
22,33450	1003452
22,33863	854974
22,34275	722470
22,34687	623662
22,35100	538183
22,35512	490999
22,35923	471438
22,36337	473913
22,36748	525331
22,37160	612424
22,37572	728304
22,37985	863486
22,38397	997270
22,38808	1128959
22,39222	1209691
22,39633	1265035
22,40045	1244723
22,40458	1181251
22,40870	1079669
22,41282	961066
22,41695	838776
22,42107	723896
22,42518	605970
22,42932	512404
22,43343	443156
22,43755	383311
22,44168	331629
22,44580	293511
22,44992	261982
22,45405	231099
22,45817	212905
22,46228	199205
22,46642	179801
22,47053	166614
22,47465	153527
22,47877	147250
22,48290	133199
22,48702	128102
22,49113	125686
22,49527	118403
22,49938	110043
22,50350	105705
22,50763	102801
22,51175	98010
22,51587	95908
22,52000	92600
22,52412	85959
22,52823	86766
22,53237	83746
22,53648	80279
22,54060	75357
22,54473	77714
22,54885	72956
22,55297	74256
22,55710	70679
22,56122	70819
22,56533	68622
22,56945	66928
22,57358	67726
22,57770	66383
22,58182	62309
22,58595	64512
22,59007	64109
22,59418	59652
22,59832	61965
22,60243	60014
22,60655	60845
22,61068	56816
22,61480	58011
22,61892	59664
22,62305	56959
22,62717	57029
22,63128	56053
22,63542	54718
22,63953	54134
22,64365	51771
22,64778	52426
22,65190	51431
22,65602	50644
22,66013	49074
22,66427	48841
22,66838	47518
22,67250	48474
22,67663	47895
22,68075	50317
22,68487	49882
22,68900	47834
22,69312	48997
22,69723	50339
22,70137	55090
22,70548	64107
22,70960	81679
22,71373	109092
22,71785	166350
22,72197	246679
22,72610	392056
22,73022	591781
22,73433	866848
22,73847	1223024
22,74258	1655831
22,74670	2153776
22,75082	2668163
22,75495	3170682
22,75907	3502062
22,76318	3683141
22,76732	3649259
22,77143	3420666
22,77555	3071376
22,77968	2637248
22,78380	2231437
22,78792	1830636
22,79205	1535820
22,79617	1293545
22,80028	1073545
22,80442	934129
22,80853	806083
22,81265	705837
22,81678	634951
22,82090	573306
22,82502	518555
22,82915	469040
22,83327	421351
22,83738	394047
22,84150	366110
22,84563	338045
22,84975	321093
22,85387	299500
22,85800	280976
22,86212	264514
22,86623	251846
22,87037	238450
22,87448	226507
22,87860	214675
22,88273	201997
22,88685	199776
22,89097	192167
22,89510	178598
22,89922	173767
22,90333	169728
22,90747	163300
22,91158	154806
22,91570	153517
22,91983	150089
22,92395	141821
22,92807	139334
22,93218	133697
22,93632	129286
22,94043	129902
22,94455	126133
22,94868	121295
22,95280	115305
22,95692	113344
22,96105	110239
22,96517	111236
22,96928	105190
22,97342	104548
22,97753	104374
22,98165	103067
22,98578	98456
22,98990	94366
22,99402	95855
22,99815	92825
23,00227	91507
23,00638	89986
23,01052	86382
23,01463	90574
23,01875	88974
23,02287	84563
23,02700	83175
23,03112	82176
23,03523	82067
23,03937	81342
23,04348	80599
23,04760	78042
23,05173	81031
23,05585	79462
23,05997	78401
23,06410	75866
23,06822	76619
23,07233	75190
23,07647	70745
23,08058	74928
23,08470	70509
23,08883	71857
23,09295	72776
23,09707	72154
23,10120	69443
23,10532	71494
23,10943	75105
23,11355	81603
23,11768	96285
23,12180	113940
23,12592	157775
23,13005	217404
23,13417	312818
23,13828	456020
23,14242	637680
23,14653	853720
23,15065	1092317
23,15478	1333901
23,15890	1520924
23,16302	1638896
23,16715	1671966
23,17127	1662651
23,17538	1539221
23,17952	1371084
23,18363	1226965
23,18775	1061683
23,19188	921792
23,19600	795764
23,20012	688157
23,20423	595436
23,20837	526185
23,21248	465644
23,21660	418528
23,22073	382171
23,22485	345577
23,22897	316475
23,23310	289628
23,23722	268168
23,24133	256452
23,24547	237907
23,24958	222858
23,25370	208060
23,25783	199453
23,26195	187895
23,26607	175747
23,27020	174485
23,27432	166204
23,27843	159936
23,28257	154405
23,28668	147077
23,29080	143230
23,29492	134457
23,29905	130730
23,30317	129006
23,30728	123941
23,31142	120536
23,31553	117716
23,31965	112560
23,32378	113391
23,32790	109725
23,33202	106879
23,33615	102971
23,34027	105267
23,34438	100113
23,34852	99413
23,35263	90305
23,35675	95338
23,36088	91025
23,36500	88699
23,36912	89085
23,37325	89863
23,37737	86824
23,38148	86321
23,38560	84313
23,38973	82837
23,39385	84192
23,39797	81369
23,40210	81308
23,40622	77276
23,41033	76254
23,41447	79525
23,41858	72856
23,42270	75548
23,42683	70605
23,43095	73819
23,43507	71111
23,43920	70990
23,44332	70381
23,44743	69201
23,45157	67339
23,45568	68910
23,45980	69011
23,46393	70791
23,46805	70860
23,47217	68742
23,47628	66499
23,48042	67822
23,48453	67176
23,48865	68454
23,49278	66218
23,49690	66121
23,50102	65697
23,50515	63209
23,50927	65136
23,51338	63949
23,51752	64754
23,52163	66220
23,52575	69168
23,52988	71739
23,53400	76124
23,53812	80144
23,54225	89193
23,54637	94848
23,55048	108361
23,55462	116787
23,55873	121287
23,56285	126666
23,56697	126576
23,57110	124788
23,57522	126142
23,57933	118895
23,58347	111269
23,58758	107626
23,59170	98505
23,59583	93232
23,59995	88937
23,60407	80069
23,60820	75287
23,61232	71124
23,61643	67241
23,62057	68251
23,62468	64082
23,62880	60973
23,63293	62200
23,63705	60847
23,64117	60966
23,64530	60030
23,64942	54647
23,65353	56033
23,65765	57914
23,66178	57976
23,66590	55596
23,67002	53482
23,67415	55016
23,67827	54503
23,68238	53950
23,68652	52699
23,69063	52911
23,69475	50917
23,69888	53115
23,70300	51226
23,70712	52557
23,71125	51828
23,71537	53697
23,71948	51802
23,72362	53633
23,72773	53494
23,73185	53866
23,73598	53161
23,74010	50609
23,74422	53038
23,74833	49702
23,75247	45851
23,75658	49273
23,76070	49745
23,76483	50463
23,76895	50549
23,77307	47450
23,77720	48595
23,78132	47429
23,78543	50554
23,78957	48417
23,79368	47920
23,79780	50638
23,80193	47729
23,80605	48384
23,81017	46568
23,81430	46051
23,81842	46862
23,82253	45816
23,82667	47720
23,83078	45648
23,83490	49433
23,83902	49009
23,84315	50072
23,84727	46229
23,85138	47705
23,85552	46698
23,85963	45082
23,86375	47618
23,86788	48003
23,87200	47806
23,87612	46904
23,88025	46446
23,88437	46967
23,88848	50386
23,89262	47324
23,89673	47255
23,90085	46670
23,90498	51686
23,90910	46915
23,91322	49455
23,91735	49008
23,92147	48212
23,92558	50105
23,92970	47551
23,93383	46058
23,93795	46310
23,94207	47019
23,94620	46206
23,95032	43728
23,95443	45600
23,95857	46061
23,96268	44773
23,96680	46678
23,97093	45991
23,97505	45712
23,97917	46436
23,98330	44050
23,98742	44009
23,99153	46037
23,99567	43396
23,99978	47057
24,00390	47389
24,00803	42149
24,01215	46668
24,01627	47516
24,02040	47795
24,02452	48856
24,02863	48327
24,03275	45507
24,03688	46696
24,04100	45699
24,04512	46241
24,04925	45378
24,05337	45784
24,05748	46449
24,06162	46996
24,06573	46823
24,06985	45793
24,07398	44204
24,07810	42061
24,08222	42067
24,08635	42543
24,09047	44651
24,09458	44209
24,09872	42260
24,10283	45471
24,10695	44330
24,11108	48004
24,11520	42058
24,11932	46069
24,12343	42467
24,12757	44729
24,13168	46223
24,13580	44769
24,13993	43639
24,14405	45365
24,14817	43500
24,15230	43317
24,15642	45564
24,16053	47164
24,16467	43620
24,16878	45148
24,17290	43497
24,17703	44113
24,18115	44296
24,18527	46509
24,18940	43193
24,19352	45250
24,19763	43707
24,20177	46041
24,20588	44611
24,21000	45175
24,21412	45679
24,21825	46971
24,22237	43426
24,22648	44099
24,23062	44520
24,23473	46015
24,23885	46390
24,24298	47531
24,24710	46101
24,25122	44396
24,25535	45371
24,25947	46539
24,26358	43312
24,26772	45579
24,27183	45097
24,27595	45129
24,28008	44937
24,28420	43539
24,28832	42981
24,29245	45884
24,29657	49029
24,30068	48388
24,30480	50435
24,30893	57616
24,31305	69661
24,31717	87603
24,32130	114996
24,32542	160020
24,32953	215377
24,33367	289690
24,33778	369481
24,34190	478247
24,34603	577556
24,35015	661877
24,35427	744895
24,35840	797505
24,36252	833366
24,36663	819355
24,37077	794009
24,37488	742957
24,37900	688206
24,38313	629891
24,38725	559527
24,39137	496475
24,39548	438111
24,39962	389221
24,40373	343937
24,40785	307153
24,41198	273628
24,41610	247528
24,42022	224682
24,42435	207561
24,42847	187831
24,43258	177920
24,43672	166930
24,44083	150511
24,44495	143890
24,44908	135315
24,45320	128440
24,45732	124505
24,46145	118094
24,46557	111557
24,46968	106073
24,47382	102473
24,47793	97019
24,48205	95677
24,48617	90933
24,49030	89893
24,49442	86728
24,49853	83319
24,50267	86300
24,50678	80349
24,51090	79480
24,51503	76157
24,51915	76171
24,52327	74995
24,52740	76065
24,53152	71049
24,53563	71901
24,53977	67258
24,54388	69783
24,54800	68394
24,55213	69118
24,55625	65163
24,56037	65173
24,56450	66555
24,56862	63897
24,57273	63617
24,57685	61673
24,58098	61790
24,58510	60295
24,58922	59838
24,59335	58429
24,59747	58013
24,60158	60553
24,60572	60836
24,60983	60207
24,61395	59054
24,61808	58252
24,62220	57873
24,62632	58097
24,63045	55406
24,63457	55797
24,63868	55666
24,64282	55465
24,64693	56665
24,65105	55106
24,65518	54148
24,65930	54113
24,66342	53507
24,66753	55139
24,67167	52557
24,67578	52770
24,67990	53590
24,68403	52045
24,68815	50827
24,69227	50362
24,69640	52949
24,70052	51507
24,70463	51860
24,70877	51864
24,71288	53321
24,71700	51609
24,72113	50273
24,72525	50310
24,72937	49335
24,73350	52772
24,73762	52560
24,74173	50370
24,74587	51958
24,74998	50826
24,75410	52668
24,75822	51591
24,76235	49987
24,76647	51419
24,77058	49581
24,77472	51001
24,77883	51739
24,78295	50932
24,78708	52654
24,79120	50098
24,79532	50726
24,79945	51915
24,80357	51586
24,80768	51610
24,81182	51403
24,81593	50540
24,82005	52164
24,82418	49774
24,82830	49001
24,83242	50798
24,83655	50138
24,84067	48640
24,84478	50452
24,84890	46673
24,85303	49079
24,85715	50559
24,86127	47986
24,86540	50022
24,86952	51286
24,87363	47551
24,87777	48505
24,88188	47933
24,88600	50072
24,89013	47275
24,89425	46961
24,89837	47537
24,90250	48264
24,90662	46909
24,91073	49901
24,91487	49847
24,91898	47149
24,92310	46675
24,92723	45144
24,93135	47028
24,93547	46371
24,93958	47399
24,94372	49317
24,94783	48589
24,95195	45576
24,95608	47231
24,96020	48535
24,96432	47990
24,96845	44998
24,97257	46927
24,97668	46094
24,98082	47175
24,98493	45872
24,98905	46630
24,99318	48836
24,99730	45904
25,00142	47814
25,00555	47050
25,00967	48621
25,01378	48594
25,01792	48447
25,02203	48627
25,02615	48734
25,03027	46013
25,03440	47122
25,03852	48123
25,04263	48085
25,04677	47222
25,05088	45345
25,05500	46453
25,05913	48957
25,06325	50453
25,06737	48704
25,07150	48597
25,07562	47893
25,07973	46802
25,08387	44737
25,08798	47976
25,09210	45532
25,09623	47569
25,10035	49074
25,10447	46891
25,10860	48506
25,11272	49001
25,11683	46851
25,12095	46906
25,12508	46704
25,12920	47637
25,13332	45890
25,13745	45076
25,14157	48394
25,14568	48145
25,14982	47256
25,15393	48861
25,15805	46770
25,16218	48201
25,16630	47862
25,17042	47499
25,17455	47250
25,17867	43890
25,18278	47589
25,18692	48157
25,19103	46843
25,19515	45521
25,19928	46638
25,20340	45444
25,20752	45971
25,21163	45523
25,21577	46252
25,21988	46033
25,22400	47252
25,22813	44284
25,23225	48398
25,23637	44729
25,24050	44789
25,24462	45908
25,24873	47504
25,25287	47177
25,25698	46270
25,26110	46257
25,26523	45592
25,26935	47575
25,27347	46254
25,27760	46789
25,28172	46052
25,28583	48442
25,28997	46066
25,29408	44747
