D:\MassHunter\GCMS\1\data\Amal\Constant flow\70C\70C_1ml-min_10C-min_1.D Tue Aug 06 15:33:01 2024
Start of data points
6,24087	15130
6,24500	14561
6,24912	14594
6,25323	14721
6,25737	12953
6,26148	13599
6,26560	14799
6,26973	13981
6,27385	13792
6,27797	12874
6,28210	13253
6,28622	12817
6,29033	12968
6,29447	12967
6,29858	12978
6,30270	13586
6,30682	13752
6,31095	14200
6,31507	14031
6,31918	12701
6,32332	12825
6,32743	13419
6,33155	11306
6,33568	13848
6,33980	13091
6,34392	13355
6,34805	11897
6,35217	13417
6,35628	12004
6,36042	14100
6,36453	13122
6,36865	12499
6,37278	12802
6,37690	13191
6,38102	13153
6,38515	12914
6,38927	13627
6,39338	12830
6,39750	11882
6,40163	12450
6,40575	12713
6,40987	13132
6,41400	13665
6,41812	11942
6,42223	12214
6,42637	13092
6,43048	13012
6,43460	11566
6,43873	10921
6,44285	11847
6,44697	11025
6,45110	12248
6,45522	10524
6,45933	11098
6,46347	11327
6,46758	11805
6,47170	11607
6,47583	11693
6,47995	13677
6,48407	14400
6,48818	20627
6,49232	29905
6,49643	47571
6,50055	73052
6,50468	111623
6,50880	158653
6,51292	209060
6,51705	272852
6,52117	330533
6,52528	380231
6,52942	406896
6,53353	431883
6,53765	437161
6,54178	432606
6,54590	416422
6,55002	395944
6,55415	369430
6,55827	343883
6,56238	320126
6,56652	297515
6,57063	271350
6,57475	249869
6,57887	221248
6,58300	217905
6,58712	191106
6,59123	178061
6,59537	163542
6,59948	150303
6,60360	139360
6,60773	128502
6,61185	114405
6,61597	109692
6,62010	96720
6,62422	87729
6,62833	78994
6,63247	70699
6,63658	65452
6,64070	59850
6,64483	55701
6,64895	47714
6,65307	43939
6,65720	41470
6,66132	38212
6,66543	35790
6,66955	32558
6,67368	31578
6,67780	26819
6,68192	27011
6,68605	24510
6,69017	22593
6,69428	20668
6,69842	20330
6,70253	17632
6,70665	17913
6,71078	15827
6,71490	14797
6,71902	13263
6,72315	13182
6,72727	13197
6,73138	12524
6,73552	13262
6,73963	11939
6,74375	11175
6,74788	11117
6,75200	11144
6,75612	10314
6,76023	10619
6,76437	10483
6,76848	10896
6,77260	9128
6,77673	10386
6,78085	9264
6,78497	9283
6,78910	9121
6,79322	9146
6,79733	8816
6,80147	8422
6,80558	9270
6,80970	10386
6,81383	8610
6,81795	8364
6,82207	8126
6,82620	8666
6,83032	8835
6,83443	7909
6,83857	8694
6,84268	9205
6,84680	8490
6,85092	8622
6,85505	8104
6,85917	8117
6,86328	8327
6,86742	8525
6,87153	7339
6,87565	8436
6,87978	8778
6,88390	8439
6,88802	8279
6,89215	8091
6,89627	8892
6,90038	8489
6,90452	7529
6,90863	7257
6,91275	7741
6,91688	8084
6,92100	7383
6,92512	7733
6,92925	7227
6,93337	7759
6,93748	7532
6,94160	7887
6,94573	7211
6,94985	7817
6,95397	7193
6,95810	7041
6,96222	7359
6,96633	6680
6,97047	6489
6,97458	7238
6,97870	8046
6,98283	7703
6,98695	7850
6,99107	7436
6,99520	7690
6,99932	7344
7,00343	6702
7,00757	7127
7,01168	7703
7,01580	7560
7,01993	6556
7,02405	6492
7,02817	7945
7,03228	6915
7,03642	7162
7,04053	6920
7,04465	7785
7,04878	7070
7,05290	6881
7,05702	7262
7,06115	6755
7,06527	6553
7,06938	6804
7,07352	6767
7,07763	7099
7,08175	6868
7,08588	7058
7,09000	6493
7,09412	6250
7,09825	7596
7,10237	6891
7,10648	6782
7,11062	6704
7,11473	6678
7,11885	6726
7,12297	6743
7,12710	6944
7,13122	6641
7,13533	6909
7,13947	6258
7,14358	7389
7,14770	6798
7,15183	7359
7,15595	6052
7,16007	6735
7,16420	7140
7,16832	7076
7,17243	5833
7,17657	6620
7,18068	6184
7,18480	6881
7,18893	6807
7,19305	6769
7,19717	7380
7,20130	6598
7,20542	6874
7,20953	6672
7,21365	7217
7,21778	6738
7,22190	7040
7,22602	6648
7,23015	6850
7,23427	6912
7,23838	6989
7,24252	6810
7,24663	7302
7,25075	6149
7,25488	6475
7,25900	6738
7,26312	6528
7,26725	6671
7,27137	6215
7,27548	5992
7,27962	6489
7,28373	6490
7,28785	6451
7,29198	6676
7,29610	6058
7,30022	5724
7,30433	6296
7,30847	6360
7,31258	5912
7,31670	6169
7,32083	6543
7,32495	6498
7,32907	5821
7,33320	6223
7,33732	5920
7,34143	6644
7,34557	6154
7,34968	5804
7,35380	5413
7,35793	6066
7,36205	6426
7,36617	6247
7,37030	6150
7,37442	5521
7,37853	5989
7,38267	6545
7,38678	5865
7,39090	5234
7,39502	6224
7,39915	5745
7,40327	6260
7,40738	6455
7,41152	5502
7,41563	5842
7,41975	5672
7,42388	6012
7,42800	6276
7,43212	6554
7,43625	5400
7,44037	6107
7,44448	6091
7,44862	5633
7,45273	6056
7,45685	5945
7,46098	6137
7,46510	5121
7,46922	5286
7,47335	6138
7,47747	5737
7,48158	5949
7,48570	5150
7,48983	5432
7,49395	5784
7,49807	5731
7,50220	5140
7,50632	5490
7,51043	6106
7,51457	5175
7,51868	5553
7,52280	6442
7,52693	5961
7,53105	5704
7,53517	5373
7,53930	5226
7,54342	5390
7,54753	5941
7,55167	5609
7,55578	6637
7,55990	6038
7,56403	5602
7,56815	5661
7,57227	5445
7,57640	5878
7,58052	5751
7,58463	5966
7,58875	5455
7,59288	5742
7,59700	5605
7,60112	5863
7,60525	5740
7,60937	5934
7,61348	6037
7,61762	5853
7,62173	6114
7,62585	6722
7,62998	6136
7,63410	6607
7,63822	6108
7,64235	7501
7,64647	6451
7,65058	6567
7,65472	5762
7,65883	5255
7,66295	5503
7,66708	5889
7,67120	6312
7,67532	5296
7,67943	5300
7,68357	6113
7,68768	5540
7,69180	5245
7,69593	5519
7,70005	5519
7,70417	6134
7,70830	5395
7,71242	4656
7,71653	4786
7,72067	6000
7,72478	5568
7,72890	5250
7,73303	5170
7,73715	5583
7,74127	5516
7,74540	5118
7,74952	5863
7,75363	5825
7,75777	5669
7,76188	5479
7,76600	4419
7,77012	5454
7,77425	5330
7,77837	5343
7,78248	4732
7,78662	5033
7,79073	4890
7,79485	4625
7,79898	5746
7,80310	5829
7,80722	5163
7,81135	5382
7,81547	5241
7,81958	4972
7,82372	5348
7,82783	5575
7,83195	5173
7,83608	5027
7,84020	5464
7,84432	5125
7,84845	5505
7,85257	5368
7,85668	5175
7,86080	5910
7,86493	4682
7,86905	5445
7,87317	4555
7,87730	4779
7,88142	5020
7,88553	5007
7,88967	5198
7,89378	5390
7,89790	5317
7,90203	5259
7,90615	5104
7,91027	5272
7,91440	5905
7,91852	5349
7,92263	4758
7,92677	5151
7,93088	4743
7,93500	4947
7,93913	5214
7,94325	4628
7,94737	5250
7,95148	4546
7,95562	5282
7,95973	5125
7,96385	5245
7,96798	5363
7,97210	5412
7,97622	5505
7,98035	5554
7,98447	5162
7,98858	6174
7,99272	4951
7,99683	4913
8,00095	3994
8,00508	4997
8,00920	5145
8,01332	5520
8,01745	5540
8,02157	5604
8,02568	4885
8,02982	6198
8,03393	5201
8,03805	6186
8,04217	6661
8,04630	8136
8,05042	11137
8,05453	17450
8,05867	29045
8,06278	41087
8,06690	60636
8,07103	82957
8,07515	107127
8,07927	129473
8,08340	144677
8,08752	154625
8,09163	160135
8,09577	163861
8,09988	154049
8,10400	139749
8,10813	125582
8,11225	110347
8,11637	94466
8,12050	79970
8,12462	68669
8,12873	55892
8,13285	44552
8,13698	39189
8,14110	31828
8,14522	27263
8,14935	22625
8,15347	19176
8,15758	18580
8,16172	15463
8,16583	13037
8,16995	11173
8,17408	10221
8,17820	9984
8,18232	9262
8,18645	8450
8,19057	7999
8,19468	7995
8,19882	7232
8,20293	6738
8,20705	6240
8,21118	7272
8,21530	5861
8,21942	6138
8,22353	6406
8,22767	5376
8,23178	5051
8,23590	6417
8,24003	5314
8,24415	5281
8,24827	4909
8,25240	5042
8,25652	5574
8,26063	5405
8,26477	5285
8,26888	5390
8,27300	5272
8,27713	4594
8,28125	5315
8,28537	5292
8,28950	5278
8,29362	5195
8,29773	5475
8,30187	4496
8,30598	5300
8,31010	4886
8,31422	4924
8,31835	5109
8,32247	5254
8,32658	4831
8,33072	4390
8,33483	5041
8,33895	5182
8,34308	4531
8,34720	4567
8,35132	4865
8,35545	4896
8,35957	4038
8,36368	5310
8,36782	4536
8,37193	4548
8,37605	4063
8,38018	4471
8,38430	5213
8,38842	4910
8,39255	3895
8,39667	4538
8,40078	4368
8,40490	4399
8,40903	4523
8,41315	4707
8,41727	5501
8,42140	4084
8,42552	4930
8,42963	3765
8,43377	4450
8,43788	4168
8,44200	4507
8,44613	4749
8,45025	5484
8,45437	5998
8,45850	6712
8,46262	7271
8,46673	9366
8,47087	7697
8,47498	7533
8,47910	7205
8,48323	5256
8,48735	5535
8,49147	5174
8,49558	5142
8,49972	4852
8,50383	4272
8,50795	3628
8,51208	3648
8,51620	4147
8,52032	4255
8,52445	4871
8,52857	4069
8,53268	5042
8,53682	4590
8,54093	4491
8,54505	4448
8,54918	4716
8,55330	4551
8,55742	5040
8,56155	5049
8,56567	4496
8,56978	4824
8,57392	4129
8,57803	4986
8,58215	4514
8,58627	4888
8,59040	5174
8,59452	4376
8,59863	4202
8,60277	3972
8,60688	4646
8,61100	4835
8,61513	4554
8,61925	4041
8,62337	3783
8,62750	5153
8,63162	3601
8,63573	4038
8,63987	4289
8,64398	3659
8,64810	3941
8,65223	4059
8,65635	4163
8,66047	3948
8,66460	3852
8,66872	3482
8,67283	3967
8,67695	3668
8,68108	4274
8,68520	4866
8,68932	4453
8,69345	3524
8,69757	4691
8,70168	4374
8,70582	5190
8,70993	4559
8,71405	5054
8,71818	4228
8,72230	4443
8,72642	4252
8,73055	4109
8,73467	4004
8,73878	4133
8,74292	4559
8,74703	4523
8,75115	3591
8,75528	4540
8,75940	3823
8,76352	4754
8,76763	3965
8,77177	4841
8,77588	4099
8,78000	4040
8,78413	3294
8,78825	4510
8,79237	4302
8,79650	4175
8,80062	4175
8,80473	4173
8,80887	3835
8,81298	3435
8,81710	3855
8,82123	3387
8,82535	3235
8,82947	3872
8,83360	4128
8,83772	3808
8,84183	4239
8,84597	3274
8,85008	3716
8,85420	3969
8,85832	3889
8,86245	3517
8,86657	4016
8,87068	4263
8,87482	3948
8,87893	3854
8,88305	3473
8,88718	3437
8,89130	3855
8,89542	4232
8,89955	3610
8,90367	4669
8,90778	3573
8,91192	3786
8,91603	4192
8,92015	3924
8,92428	4367
8,92840	3715
8,93252	3804
8,93665	3819
8,94077	3561
8,94488	3861
8,94900	4166
8,95313	3577
8,95725	3488
8,96137	3451
8,96550	4357
8,96962	3473
8,97373	3810
8,97787	4584
8,98198	4049
8,98610	4449
8,99023	4427
8,99435	4566
8,99847	4632
9,00260	4343
9,00672	5058
9,01083	4941
9,01497	4742
9,01908	5038
9,02320	3459
9,02733	4583
9,03145	3998
9,03557	3998
9,03968	3445
9,04382	4037
9,04793	4034
9,05205	4211
9,05618	4120
9,06030	4291
9,06442	3869
9,06855	3746
9,07267	4120
9,07678	3818
9,08092	4488
9,08503	4508
9,08915	4968
9,09328	5630
9,09740	6001
9,10152	5486
9,10565	7165
9,10977	7304
9,11388	7409
9,11802	7025
9,12213	6140
9,12625	6238
9,13037	5338
9,13450	5806
9,13862	6043
9,14273	4531
9,14687	4227
9,15098	5135
9,15510	5108
9,15923	4260
9,16335	4652
9,16747	4104
9,17160	4170
9,17572	3697
9,17983	4335
9,18397	4212
9,18808	4523
9,19220	4348
9,19633	4974
9,20045	4338
9,20457	4685
9,20870	4358
9,21282	4306
9,21693	4609
9,22107	4234
9,22518	4700
9,22930	3821
9,23342	3551
9,23755	3352
9,24167	4128
9,24578	3578
9,24992	3394
9,25403	3737
9,25815	2738
9,26228	4073
9,26640	3430
9,27052	4160
9,27465	2949
9,27877	3813
9,28288	3041
9,28702	3460
9,29113	4001
9,29525	4436
9,29938	3641
9,30350	4593
9,30762	3453
9,31175	3635
9,31587	3099
9,31998	3394
9,32410	4149
9,32823	3843
9,33235	3381
9,33647	4162
9,34060	3927
9,34472	3690
9,34883	3428
9,35297	4235
9,35708	3256
9,36120	3686
9,36533	3696
9,36945	3922
9,37357	3780
9,37770	3999
9,38182	2990
9,38593	4269
9,39007	3490
9,39418	3914
9,39830	3556
9,40243	3606
9,40655	4016
9,41067	3700
9,41478	3714
9,41892	3278
9,42303	3747
9,42715	3834
9,43128	3267
9,43540	3222
9,43952	3954
9,44365	3277
9,44777	3212
9,45188	3340
9,45602	2662
9,46013	2999
9,46425	3177
9,46838	3794
9,47250	2772
9,47662	3139
9,48075	3520
9,48487	4151
9,48898	3362
9,49312	3209
9,49723	3673
9,50135	3029
9,50547	3335
9,50960	3062
9,51372	3262
9,51783	2814
9,52197	3851
9,52608	3005
9,53020	3658
9,53433	3483
9,53845	2966
9,54257	3219
9,54670	3327
9,55082	3480
9,55493	3533
9,55907	3215
9,56318	3016
9,56730	3217
9,57143	3884
9,57555	3914
9,57967	4733
9,58380	3789
9,58792	4126
9,59203	4805
9,59615	3946
9,60028	4338
9,60440	3886
9,60852	4971
9,61265	4137
9,61677	3276
9,62088	4202
9,62502	3144
9,62913	3114
9,63325	3402
9,63738	3420
9,64150	3198
9,64562	3704
9,64975	3569
9,65387	3986
9,65798	3556
9,66212	3805
9,66623	3772
9,67035	3740
9,67448	3618
9,67860	3733
9,68272	3657
9,68683	3188
9,69097	3982
9,69508	3626
9,69920	3340
9,70333	4056
9,70745	3401
9,71157	2933
9,71570	4135
9,71982	3633
9,72393	3533
9,72807	3022
9,73218	3063
9,73630	3460
9,74043	2984
9,74455	3092
9,74867	3243
9,75280	3289
9,75692	3385
9,76103	3213
9,76517	3316
9,76928	3352
9,77340	3408
9,77752	3191
9,78165	3671
9,78577	3498
9,78988	3005
9,79402	2666
9,79813	3724
9,80225	3598
9,80638	3119
9,81050	3859
9,81462	4134
9,81875	3186
9,82287	2783
9,82698	3751
9,83112	3348
9,83523	3379
9,83935	3599
9,84348	3986
9,84760	3298
9,85172	3696
9,85585	4428
9,85997	7370
9,86408	12194
9,86820	23116
9,87233	45561
9,87645	88585
9,88057	157918
9,88470	254016
9,88882	381674
9,89293	515773
9,89707	655583
9,90118	777995
9,90530	843368
9,90943	852414
9,91355	813722
9,91767	731655
9,92180	626915
9,92592	505504
9,93003	397932
9,93417	304950
9,93828	226880
9,94240	175619
9,94653	133181
9,95065	103505
9,95477	79848
9,95888	65217
9,96302	55127
9,96713	44579
9,97125	37086
9,97538	34330
9,97950	28147
9,98362	24613
9,98775	23021
9,99187	20271
9,99598	17840
10,00012	15551
10,00423	15306
10,00835	13285
10,01248	13239
10,01660	12514
10,02072	10403
10,02485	10700
10,02897	8727
10,03308	9054
10,03722	8355
10,04133	8687
10,04545	7552
10,04957	6830
10,05370	7793
10,05782	6476
10,06193	6859
10,06607	6300
10,07018	6735
10,07430	6889
10,07843	6361
10,08255	5397
10,08667	5544
10,09080	4867
10,09492	4918
10,09903	4581
10,10317	4864
10,10728	5271
10,11140	4267
10,11553	4672
10,11965	4664
10,12377	5102
10,12790	4356
10,13202	4735
10,13613	4385
10,14025	4826
10,14438	3661
10,14850	4878
10,15262	4778
10,15675	4424
10,16087	4468
10,16498	3771
10,16912	4318
10,17323	3419
10,17735	4134
10,18148	4601
10,18560	4448
10,18972	3830
10,19385	4263
10,19797	3850
10,20208	3698
10,20622	4131
10,21033	3925
10,21445	3060
10,21858	3460
10,22270	3928
10,22682	3578
10,23093	4130
10,23507	3772
10,23918	4165
10,24330	3497
10,24743	3068
10,25155	3669
10,25567	4403
10,25980	3196
10,26392	4228
10,26803	3508
10,27217	3931
10,27628	3105
10,28040	3997
10,28453	3464
10,28865	4667
10,29277	4901
10,29690	5950
10,30102	5771
10,30513	7116
10,30927	7894
10,31338	7824
10,31750	6526
10,32162	5199
10,32575	4580
10,32987	3710
10,33398	3100
10,33812	3542
10,34223	3771
10,34635	2855
10,35048	3901
10,35460	3329
10,35872	3304
10,36285	2703
10,36697	3761
10,37108	3596
10,37522	3010
10,37933	3156
10,38345	3447
10,38758	3803
10,39170	3411
10,39582	3998
10,39995	4265
10,40407	3080
10,40818	3283
10,41230	3288
10,41643	3177
10,42055	3150
10,42467	3334
10,42880	2865
10,43292	3309
10,43703	3070
10,44117	3252
10,44528	3171
10,44940	3232
10,45353	3298
10,45765	2864
10,46177	3413
10,46590	2669
10,47002	2658
10,47413	2922
10,47827	2436
10,48238	3007
10,48650	2595
10,49063	2826
10,49475	2355
10,49887	2613
10,50298	2785
10,50712	3238
10,51123	3485
10,51535	3202
10,51948	3425
10,52360	3353
10,52772	3192
10,53185	2737
10,53597	2809
10,54008	3786
10,54422	3386
10,54833	3039
10,55245	3013
10,55658	3167
10,56070	3903
10,56482	3183
10,56895	3898
10,57307	2580
10,57718	3375
10,58132	2838
10,58543	3389
10,58955	3619
10,59367	3593
10,59780	3734
10,60192	2735
10,60603	3254
10,61017	2938
10,61428	3311
10,61840	3218
10,62253	3364
10,62665	3427
10,63077	3027
10,63490	3813
10,63902	2785
10,64313	2743
10,64727	2992
10,65138	2810
10,65550	3192
10,65963	3171
10,66375	3323
10,66787	3076
10,67200	2853
10,67612	2813
10,68023	2916
10,68435	2976
10,68848	3418
10,69260	3107
10,69672	3324
10,70085	3268
10,70497	2350
10,70908	3194
10,71322	2302
10,71733	2991
10,72145	2658
10,72558	2428
10,72970	2750
10,73382	3015
10,73795	2259
10,74207	2588
10,74618	2723
10,75032	2854
10,75443	5095
10,75855	5603
10,76268	11536
10,76680	23804
10,77092	45218
10,77503	83701
10,77917	141605
10,78328	220578
10,78740	316411
10,79153	414234
10,79565	496293
10,79977	555091
10,80390	559817
10,80802	529248
10,81213	462542
10,81627	388972
10,82038	314788
10,82450	236646
10,82863	176524
10,83275	132366
10,83687	99936
10,84100	77607
10,84512	59157
10,84923	46394
10,85337	40211
10,85748	33151
10,86160	29915
10,86572	24841
10,86985	22295
10,87397	21239
10,87808	18369
10,88222	16697
10,88633	15598
10,89045	13229
10,89458	11962
10,89870	11336
10,90282	11163
10,90695	9709
10,91107	9058
10,91518	8537
10,91932	6852
10,92343	8200
10,92755	6382
10,93168	5807
10,93580	6368
10,93992	5751
10,94405	5155
10,94817	4491
10,95228	4439
10,95642	4455
10,96053	4660
10,96465	4563
10,96877	4651
10,97290	4435
10,97702	4257
10,98113	4121
10,98527	3822
10,98938	3939
10,99350	4491
10,99763	4235
11,00175	3941
11,00587	3715
11,01000	4041
11,01412	4015
11,01823	3934
11,02237	3476
11,02648	4024
11,03060	2866
11,03473	3325
11,03885	3651
11,04297	3263
11,04710	3292
11,05122	3151
11,05533	3040
11,05945	3881
11,06358	4158
11,06770	2213
11,07182	2436
11,07595	2879
11,08007	2696
11,08418	3280
11,08832	2405
11,09243	2859
11,09655	3324
11,10068	3210
11,10480	3581
11,10892	4087
11,11305	3958
11,11717	2976
11,12128	4178
11,12542	4463
11,12953	5127
11,13365	4875
11,13778	5414
11,14190	5655
11,14602	4750
11,15013	3236
11,15427	4719
11,15838	3438
11,16250	3575
11,16663	3237
11,17075	2833
11,17487	2520
11,17900	2344
11,18312	2939
11,18723	2767
11,19137	2703
11,19548	2190
11,19960	2535
11,20373	2785
11,20785	2583
11,21197	2490
11,21610	2362
11,22022	2741
11,22433	2513
11,22847	2254
11,23258	2554
11,23670	2229
11,24082	3552
11,24495	2815
11,24907	1972
11,25318	2746
11,25732	2171
11,26143	1851
11,26555	2832
11,26968	1881
11,27380	2797
11,27792	2405
11,28205	3070
11,28617	2105
11,29028	2251
11,29442	2362
11,29853	2805
11,30265	2414
11,30678	2440
11,31090	2177
11,31502	2709
11,31915	2981
11,32327	2542
11,32738	2547
11,33150	2105
11,33563	2614
11,33975	3039
11,34387	2490
11,34800	2582
11,35212	3060
11,35623	2797
11,36037	2674
11,36448	2680
11,36860	2911
11,37273	2035
11,37685	2427
11,38097	2594
11,38510	2601
11,38922	1715
11,39333	2019
11,39747	2282
11,40158	2626
11,40570	2949
11,40983	2471
11,41395	2210
11,41807	2237
11,42218	2518
11,42632	2294
11,43043	2004
11,43455	2240
11,43868	2788
11,44280	2050
11,44692	2998
11,45105	2272
11,45517	2041
11,45928	2945
11,46342	2321
11,46753	2613
11,47165	2496
11,47578	2070
11,47990	2173
11,48402	3362
11,48815	3083
11,49227	2999
11,49638	3019
11,50052	2730
11,50463	2692
11,50875	2059
11,51287	2262
11,51700	2867
11,52112	2485
11,52523	2766
11,52937	2771
11,53348	2840
11,53760	2660
11,54173	2686
11,54585	2694
11,54997	3705
11,55410	3873
11,55822	3494
11,56233	2961
11,56647	3035
11,57058	2900
11,57470	3482
11,57883	2723
11,58295	2620
11,58707	2181
11,59120	2634
11,59532	1695
11,59943	2724
11,60355	2198
11,60768	2742
11,61180	2616
11,61592	2718
11,62005	4891
11,62417	9725
11,62828	22991
11,63242	51848
11,63653	111354
11,64065	203100
11,64478	352602
11,64890	547143
11,65302	794178
11,65715	1035401
11,66127	1230874
11,66538	1343895
11,66952	1358692
11,67363	1256975
11,67775	1080686
11,68188	867583
11,68600	658509
11,69012	489704
11,69423	361054
11,69837	264568
11,70248	193417
11,70660	147405
11,71073	108652
11,71485	87915
11,71897	67974
11,72310	56268
11,72722	48163
11,73133	41072
11,73547	34029
11,73958	28785
11,74370	26017
11,74783	23816
11,75195	20250
11,75607	18785
11,76020	17349
11,76432	14692
11,76843	14486
11,77257	13553
11,77668	12249
11,78080	11670
11,78492	10305
11,78905	9008
11,79317	8060
11,79728	7815
11,80142	8530
11,80553	7695
11,80965	6528
11,81378	6647
11,81790	5709
11,82202	5562
11,82615	5857
11,83027	4989
11,83438	5182
11,83852	4669
11,84263	5527
11,84675	4576
11,85088	4179
11,85500	4008
11,85912	3788
11,86325	3721
11,86737	4586
11,87148	4314
11,87560	3681
11,87973	3391
11,88385	3476
11,88797	3723
11,89210	4129
11,89622	3389
11,90033	3428
11,90447	2765
11,90858	3472
11,91270	3230
11,91683	3834
11,92095	3115
11,92507	2779
11,92920	2842
11,93332	2866
11,93743	3008
11,94157	2860
11,94568	2870
11,94980	3170
11,95393	2769
11,95805	3072
11,96217	2596
11,96628	2763
11,97042	3299
11,97453	2930
11,97865	2531
11,98278	2789
11,98690	2029
11,99102	2922
11,99515	3771
11,99927	3939
12,00338	5970
12,00752	5485
12,01163	5462
12,01575	5187
12,01988	2937
12,02400	2818
12,02812	2561
12,03225	2738
12,03637	2860
12,04048	2407
12,04462	2353
12,04873	2972
12,05285	2116
12,05697	2509
12,06110	2875
12,06522	2452
12,06933	2636
12,07347	2005
12,07758	3058
12,08170	2703
12,08583	2808
12,08995	3754
12,09407	3409
12,09820	3991
12,10232	3780
12,10643	2867
12,11057	2954
12,11468	3430
12,11880	2461
12,12293	2394
12,12705	2394
12,13117	2279
12,13530	3707
12,13942	4558
12,14353	5738
12,14765	7846
12,15178	8948
12,15590	10439
12,16002	12358
12,16415	11415
12,16827	11632
12,17238	11923
12,17652	11244
12,18063	10040
12,18475	7397
12,18888	6421
12,19300	5744
12,19712	4700
12,20125	4391
12,20537	3913
12,20948	3742
12,21362	3323
12,21773	2194
12,22185	1922
12,22598	2193
12,23010	2714
12,23422	2360
12,23833	2216
12,24247	2696
12,24658	2184
12,25070	2227
12,25483	2064
12,25895	2397
12,26307	2537
12,26720	2429
12,27132	1837
12,27543	2025
12,27957	2880
12,28368	2174
12,28780	1990
12,29193	2059
12,29605	2016
12,30017	2355
12,30430	1421
12,30842	2368
12,31253	1830
12,31667	1532
12,32078	2409
12,32490	1583
12,32902	2530
12,33315	2176
12,33727	2232
12,34138	1658
12,34552	2095
12,34963	2097
12,35375	2062
12,35788	2158
12,36200	1756
12,36612	1514
12,37025	1680
12,37437	2264
12,37848	2038
12,38262	1655
12,38673	2083
12,39085	1877
12,39498	1239
12,39910	2196
12,40322	1402
12,40735	2033
12,41147	1249
12,41558	2050
12,41970	2257
12,42383	1751
12,42795	1941
12,43207	1576
12,43620	2108
12,44032	1663
12,44443	2820
12,44857	2744
12,45268	5893
12,45680	13624
12,46093	31462
12,46505	67599
12,46917	125564
12,47330	223381
12,47742	353777
12,48153	499982
12,48567	624520
12,48978	726546
12,49390	770833
12,49803	745451
12,50215	665008
12,50627	550819
12,51040	431959
12,51452	330700
12,51863	239574
12,52275	175179
12,52688	127267
12,53100	94317
12,53512	70244
12,53925	54284
12,54337	43333
12,54748	34831
12,55162	28293
12,55573	24057
12,55985	19959
12,56398	16255
12,56810	13652
12,57222	13938
12,57635	11582
12,58047	10808
12,58458	8546
12,58872	8178
12,59283	7913
12,59695	6837
12,60108	6221
12,60520	5249
12,60932	5577
12,61343	5291
12,61757	4722
12,62168	3595
12,62580	4245
12,62993	4716
12,63405	4081
12,63817	3755
12,64230	4716
12,64642	3335
12,65053	3293
12,65467	3824
12,65878	3456
12,66290	2471
12,66703	2947
12,67115	3905
12,67527	2692
12,67940	2997
12,68352	2628
12,68763	2690
12,69177	1737
12,69588	1936
12,70000	2313
12,70412	2674
12,70825	2589
12,71237	2107
12,71648	3165
12,72062	1795
12,72473	2178
12,72885	2572
12,73298	2348
12,73710	2051
12,74122	1731
12,74535	2061
12,74947	2136
12,75358	2222
12,75772	1806
12,76183	2109
12,76595	1711
12,77008	2214
12,77420	1764
12,77832	2001
12,78245	2274
12,78657	2047
12,79068	1701
12,79480	2397
12,79893	1273
12,80305	2224
12,80717	2167
12,81130	1397
12,81542	1423
12,81953	1609
12,82367	1562
12,82778	1370
12,83190	1416
12,83603	1365
12,84015	1899
12,84427	1687
12,84840	1859
12,85252	1198
12,85663	1613
12,86077	2562
12,86488	2437
12,86900	2067
12,87313	2417
12,87725	3350
12,88137	3859
12,88548	4164
12,88962	4715
12,89373	4941
12,89785	5324
12,90198	3887
12,90610	3736
12,91022	3676
12,91435	3015
12,91847	2761
12,92258	2147
12,92672	2452
12,93083	1751
12,93495	1895
12,93908	1546
12,94320	1664
12,94732	1443
12,95145	1744
12,95557	1588
12,95968	1543
12,96382	1101
12,96793	1561
12,97205	1481
12,97617	1622
12,98030	1525
12,98442	1803
12,98853	1825
12,99267	1951
12,99678	2387
13,00090	3669
13,00503	3575
13,00915	4737
13,01327	3735
13,01740	3476
13,02152	3078
13,02563	3522
13,02977	3246
13,03388	2141
13,03800	2718
13,04213	2649
13,04625	2071
13,05037	1763
13,05450	2010
13,05862	1673
13,06273	1489
13,06685	1569
13,07098	2090
13,07510	1811
13,07922	1297
13,08335	1574
13,08747	1350
13,09158	1866
13,09572	2220
13,09983	2105
13,10395	1779
13,10808	1950
13,11220	2127
13,11632	2291
13,12045	2153
13,12457	1589
13,12868	1980
13,13282	1630
13,13693	1894
13,14105	1851
13,14518	1148
13,14930	1497
13,15342	1646
13,15753	1192
13,16167	1259
13,16578	1790
13,16990	1285
13,17403	949
13,17815	1069
13,18227	1211
13,18640	1557
13,19052	1396
13,19463	1829
13,19877	1154
13,20288	1638
13,20700	1585
13,21113	1998
13,21525	1929
13,21937	2103
13,22350	1314
13,22762	1466
13,23173	1552
13,23587	2404
13,23998	4210
13,24410	9434
13,24822	23505
13,25235	55960
13,25647	122573
13,26058	241376
13,26472	433846
13,26883	696277
13,27295	1021435
13,27708	1352825
13,28120	1618580
13,28532	1759392
13,28945	1741615
13,29357	1596930
13,29768	1329358
13,30182	1049983
13,30593	783679
13,31005	562054
13,31418	408136
13,31830	283475
13,32242	208269
13,32655	155898
13,33067	121200
13,33478	89549
13,33890	72821
13,34303	59032
13,34715	50087
13,35127	41656
13,35540	35362
13,35952	30308
13,36363	26565
13,36777	24127
13,37188	20787
13,37600	19287
13,38013	17115
13,38425	15958
13,38837	13527
13,39250	12452
13,39662	13273
13,40073	10873
13,40487	11372
13,40898	10110
13,41310	8981
13,41723	7583
13,42135	7510
13,42547	7390
13,42958	8095
13,43372	7264
13,43783	7389
13,44195	9719
13,44608	10423
13,45020	10248
13,45432	11370
13,45845	10270
13,46257	11434
13,46668	11065
13,47082	10881
13,47493	8176
13,47905	8066
13,48318	7092
13,48730	5773
13,49142	5412
13,49555	4815
13,49967	3797
13,50378	3356
13,50792	4125
13,51203	3679
13,51615	3771
13,52027	2967
13,52440	3671
13,52852	4333
13,53263	4297
13,53677	5781
13,54088	6050
13,54500	6551
13,54913	5121
13,55325	4377
13,55737	3375
13,56150	2889
13,56562	1910
13,56973	2672
13,57387	2233
13,57798	2551
13,58210	1980
13,58623	2193
13,59035	1929
13,59447	1833
13,59860	1878
13,60272	1694
13,60683	2351
13,61095	2349
13,61508	2302
13,61920	3079
13,62332	2435
13,62745	1802
13,63157	1777
13,63568	2009
13,63982	3000
13,64393	3079
13,64805	3676
13,65218	3658
13,65630	4768
13,66042	4344
13,66455	4051
13,66867	4760
13,67278	3148
13,67692	3718
13,68103	3138
13,68515	2781
13,68928	2056
13,69340	1779
13,69752	1850
13,70163	1765
13,70577	1699
13,70988	1616
13,71400	1395
13,71813	1561
13,72225	1113
13,72637	1896
13,73050	1547
13,73462	1385
13,73873	1194
13,74287	1424
13,74698	1272
13,75110	1636
13,75523	1402
13,75935	437
13,76347	1246
13,76760	1212
13,77172	1343
13,77583	1897
13,77997	1969
13,78408	2742
13,78820	4616
13,79232	14479
13,79645	32266
13,80057	68409
13,80468	132384
13,80882	231900
13,81293	361527
13,81705	517035
13,82118	653991
13,82530	770241
13,82942	811705
13,83355	786714
13,83767	706252
13,84178	585625
13,84592	454273
13,85003	347538
13,85415	248333
13,85828	179594
13,86240	133376
13,86652	98196
13,87065	75208
13,87477	55997
13,87888	44041
13,88300	34022
13,88713	30879
13,89125	25464
13,89537	22929
13,89950	19153
13,90362	16430
13,90773	14335
13,91187	13242
13,91598	11220
13,92010	9916
13,92423	9760
13,92835	9329
13,93247	8407
13,93660	7942
13,94072	6874
13,94483	4994
13,94897	5836
13,95308	4742
13,95720	5523
13,96133	4605
13,96545	4399
13,96957	4732
13,97368	4668
13,97782	4317
13,98193	3359
13,98605	3433
13,99018	3457
13,99430	4253
13,99842	6649
14,00255	16115
14,00667	35392
14,01078	76691
14,01492	141791
14,01903	255384
14,02315	413721
14,02728	595800
14,03140	764279
14,03552	894170
14,03965	937041
14,04377	906275
14,04788	794086
14,05202	651978
14,05613	503080
14,06025	368834
14,06437	265632
14,06850	188912
14,07262	134873
14,07673	95083
14,08087	73290
14,08498	57215
14,08910	42915
14,09323	36337
14,09735	30748
14,10147	25276
14,10560	20893
14,10972	19132
14,11383	15648
14,11797	12956
14,12208	11493
14,12620	11462
14,13033	9973
14,13445	9050
14,13857	9032
14,14270	7102
14,14682	6858
14,15093	7339
14,15507	7196
14,15918	5227
14,16330	5342
14,16742	5125
14,17155	4632
14,17567	4618
14,17978	4081
14,18392	5015
14,18803	3862
14,19215	3833
14,19628	3371
14,20040	3702
14,20452	3243
14,20865	3476
14,21277	3202
14,21688	3388
14,22102	3022
14,22513	3371
14,22925	2424
14,23338	3504
14,23750	2812
14,24162	2875
14,24575	2441
14,24987	2835
14,25398	3747
14,25810	2848
14,26223	2601
14,26635	2606
14,27047	2580
14,27460	2757
14,27872	2328
14,28283	1884
14,28697	2033
14,29108	1945
14,29520	2789
14,29933	2712
14,30345	2702
14,30757	2175
14,31170	2537
14,31582	1504
14,31993	2020
14,32407	2098
14,32818	2005
14,33230	1907
14,33643	1587
14,34055	1797
14,34467	2110
14,34878	1315
14,35292	2971
14,35703	1527
14,36115	2311
14,36528	2127
14,36940	1637
14,37352	1907
14,37765	2531
14,38177	1812
14,38588	2735
14,39002	2470
14,39413	3337
14,39825	3228
14,40238	2615
14,40650	2608
14,41062	2845
14,41475	3253
14,41887	2830
14,42298	3307
14,42712	2739
14,43123	2324
14,43535	2991
14,43947	2392
14,44360	2081
14,44772	1620
14,45183	1680
14,45597	2009
14,46008	2320
14,46420	1658
14,46833	1325
14,47245	2034
14,47657	2024
14,48070	1691
14,48482	2308
14,48893	930
14,49307	646
14,49718	1462
14,50130	2277
14,50543	2645
14,50955	2213
14,51367	2156
14,51780	1872
14,52192	3231
14,52603	4412
14,53015	8657
14,53428	21495
14,53840	49575
14,54252	100183
14,54665	185196
14,55077	314183
14,55488	475544
14,55902	640970
14,56313	788065
14,56725	881717
14,57138	880688
14,57550	817463
14,57962	709451
14,58375	566747
14,58787	428534
14,59198	310741
14,59612	220400
14,60023	156455
14,60435	115390
14,60848	83717
14,61260	71484
14,61672	51119
14,62083	41054
14,62497	32863
14,62908	27426
14,63320	23609
14,63733	21226
14,64145	17192
14,64557	16112
14,64970	12603
14,65382	11954
14,65793	11334
14,66207	9603
14,66618	8446
14,67030	8374
14,67443	7384
14,67855	7164
14,68267	7202
14,68680	6751
14,69092	6281
14,69503	7361
14,69917	6655
14,70328	6456
14,70740	5816
14,71152	6311
14,71565	7821
14,71977	13543
14,72388	30535
14,72802	68755
14,73213	145395
14,73625	290543
14,74038	523525
14,74450	855969
14,74862	1294374
14,75275	1783156
14,75687	2305461
14,76098	2765139
14,76512	2997689
14,76923	2965103
14,77335	2652653
14,77748	2175931
14,78160	1664380
14,78572	1190699
14,78985	828536
14,79397	570576
14,79808	400362
14,80220	286683
14,80633	219914
14,81045	166317
14,81457	132894
14,81870	105068
14,82282	87423
14,82693	73438
14,83107	62845
14,83518	54000
14,83930	45624
14,84343	43599
14,84755	39039
14,85167	35127
14,85580	32633
14,85992	28098
14,86403	27233
14,86817	25210
14,87228	21595
14,87640	21829
14,88053	20117
14,88465	15929
14,88877	17501
14,89288	13831
14,89702	13491
14,90113	14269
14,90525	11538
14,90938	12063
14,91350	10065
14,91762	10658
14,92175	8414
14,92587	8327
14,92998	8522
14,93412	8887
14,93823	7132
14,94235	7597
14,94648	7801
14,95060	7412
14,95472	6880
14,95885	6463
14,96297	6305
14,96708	7658
14,97122	6843
14,97533	9536
14,97945	9846
14,98357	9988
14,98770	7910
14,99182	7797
14,99593	5861
15,00007	6578
15,00418	4516
15,00830	4393
15,01243	6128
15,01655	4607
15,02067	6240
15,02480	5055
15,02892	5954
15,03303	6941
15,03717	6162
15,04128	5171
15,04540	5787
15,04953	5538
15,05365	3758
15,05777	3390
15,06190	3823
15,06602	2945
15,07013	3995
15,07425	2988
15,07838	3645
15,08250	2963
15,08662	2590
15,09075	3306
15,09487	2843
15,09898	2764
15,10312	3573
15,10723	3878
15,11135	4776
15,11548	3922
15,11960	4981
15,12372	4458
15,12785	4663
15,13197	3992
15,13608	3598
15,14022	5694
15,14433	8719
15,14845	18469
15,15258	42233
15,15670	87278
15,16082	164872
15,16493	288721
15,16907	451092
15,17318	627294
15,17730	786975
15,18143	890294
15,18555	926016
15,18967	871869
15,19380	765113
15,19792	606833
15,20203	465390
15,20617	342892
15,21028	244899
15,21440	176806
15,21853	129151
15,22265	98546
15,22677	75029
15,23090	58318
15,23502	45324
15,23913	37861
15,24327	32283
15,24738	27962
15,25150	25258
15,25562	22640
15,25975	22508
15,26387	22147
15,26798	21997
15,27212	21970
15,27623	19713
15,28035	20914
15,28448	21464
15,28860	21989
15,29272	21760
15,29685	20990
15,30097	21218
15,30508	19669
15,30922	18364
15,31333	16745
15,31745	13808
15,32158	11194
15,32570	11171
15,32982	8161
15,33395	7308
15,33807	8710
15,34218	7887
15,34630	6478
15,35043	6240
15,35455	5754
15,35867	5694
15,36280	3821
15,36692	3603
15,37103	4138
15,37517	4029
15,37928	4923
15,38340	4228
15,38753	4437
15,39165	3445
15,39577	3783
15,39990	4288
15,40402	6349
15,40813	9517
15,41227	20651
15,41638	46056
15,42050	92111
15,42463	182267
15,42875	317465
15,43287	496261
15,43698	695945
15,44112	887113
15,44523	1005622
15,44935	1053336
15,45348	982889
15,45760	849829
15,46172	683755
15,46585	505308
15,46997	365219
15,47408	262302
15,47822	182982
15,48233	135063
15,48645	97978
15,49058	72447
15,49470	57975
15,49882	47540
15,50295	37458
15,50707	33219
15,51118	29861
15,51532	25778
15,51943	23124
15,52355	19102
15,52767	18882
15,53180	14274
15,53592	14905
15,54003	12543
15,54417	11270
15,54828	11986
15,55240	10384
15,55653	9183
15,56065	8488
15,56477	8329
15,56890	8023
15,57302	7521
15,57713	7704
15,58127	7220
15,58538	6975
15,58950	5399
15,59363	5088
15,59775	5894
15,60187	6096
15,60600	5730
15,61012	5369
15,61423	5957
15,61835	5019
15,62248	6994
15,62660	6658
15,63072	6516
15,63485	6282
15,63897	6725
15,64308	5741
15,64722	4817
15,65133	4426
15,65545	4200
15,65958	4412
15,66370	4369
15,66782	4502
15,67195	4086
15,67607	3654
15,68018	3452
15,68432	3813
15,68843	4049
15,69255	3582
15,69668	4608
15,70080	4095
15,70492	3783
15,70903	3654
15,71317	3017
15,71728	4427
15,72140	4741
15,72553	4369
15,72965	4731
15,73377	4010
15,73790	4608
15,74202	4852
15,74613	4322
15,75027	3882
15,75438	4475
15,75850	4179
15,76263	4087
15,76675	4080
15,77087	3075
15,77500	4076
15,77912	3060
15,78323	3477
15,78737	3872
15,79148	2749
15,79560	3758
15,79973	3065
15,80385	2775
15,80797	2865
15,81208	4223
15,81622	6708
15,82033	11921
15,82445	24812
15,82858	49371
15,83270	106168
15,83682	197763
15,84095	336325
15,84507	508490
15,84918	701919
15,85332	870498
15,85743	959230
15,86155	989809
15,86568	919638
15,86980	793132
15,87392	629448
15,87805	470745
15,88217	351181
15,88628	251777
15,89042	182866
15,89453	129541
15,89865	99483
15,90277	75387
15,90690	59825
15,91102	50301
15,91513	41406
15,91927	33827
15,92338	31498
15,92750	27499
15,93163	21923
15,93575	21651
15,93987	19907
15,94400	18087
15,94812	16075
15,95223	14109
15,95637	13196
15,96048	13183
15,96460	11158
15,96873	9718
15,97285	11363
15,97697	8338
15,98110	8611
15,98522	7845
15,98933	6881
15,99345	7372
15,99758	6720
16,00170	8293
16,00582	7984
16,00995	6657
16,01407	5916
16,01818	6412
16,02232	6234
16,02643	5363
16,03055	5793
16,03468	4838
16,03880	4688
16,04292	5328
16,04705	5110
16,05117	5169
16,05528	5658
16,05942	5691
16,06353	5643
16,06765	8898
16,07178	18968
16,07590	39654
16,08002	84904
16,08413	171585
16,08827	317406
16,09238	527567
16,09650	827504
16,10063	1196823
16,10475	1601991
16,10887	1967138
16,11300	2199986
16,11712	2235488
16,12123	2063728
16,12537	1761164
16,12948	1381494
16,13360	1011646
16,13773	714357
16,14185	496997
16,14597	348187
16,15010	254149
16,15422	190254
16,15833	148709
16,16247	114779
16,16658	95193
16,17070	81687
16,17482	68949
16,17895	61228
16,18307	50498
16,18718	45565
16,19132	43030
16,19543	36875
16,19955	34270
16,20368	30344
16,20780	28048
16,21192	25575
16,21605	24936
16,22017	24024
16,22428	20669
16,22842	20123
16,23253	16590
16,23665	18219
16,24078	16666
16,24490	16132
16,24902	14140
16,25315	13860
16,25727	12820
16,26138	11762
16,26550	11718
16,26963	12124
16,27375	11639
16,27787	10807
16,28200	9045
16,28612	10433
16,29023	9224
16,29437	13951
16,29848	19160
16,30260	34371
16,30673	65831
16,31085	125031
16,31497	225947
16,31910	365952
16,32322	547546
16,32733	743408
16,33147	915550
16,33558	1025586
16,33970	1048479
16,34383	964682
16,34795	840611
16,35207	679781
16,35618	521200
16,36032	378090
16,36443	282959
16,36855	203227
16,37268	149470
16,37680	113947
16,38092	88128
16,38505	68974
16,38917	56938
16,39328	47208
16,39742	41600
16,40153	34961
16,40565	32017
16,40978	30377
16,41390	31599
16,41802	43568
16,42215	73210
16,42627	128888
16,43038	232920
16,43452	401758
16,43863	655074
16,44275	989714
16,44687	1337751
16,45100	1681000
16,45512	1974580
16,45923	2061623
16,46337	1980261
16,46748	1758982
16,47160	1427183
16,47573	1087877
16,47985	780980
16,48397	556325
16,48810	393233
16,49222	287499
16,49633	212311
16,50047	166454
16,50458	133201
16,50870	109080
16,51283	87925
16,51695	76647
16,52107	65276
16,52520	58135
16,52932	49419
16,53343	46230
16,53755	40384
16,54168	37866
16,54580	35034
16,54992	32918
16,55405	30601
16,55817	29424
16,56228	26655
16,56642	23956
16,57053	23713
16,57465	23274
16,57878	20478
16,58290	19827
16,58702	17777
16,59115	17990
16,59527	16793
16,59938	16063
16,60352	14391
16,60763	13419
16,61175	12486
16,61588	12816
16,62000	11627
16,62412	12102
16,62823	11263
16,63237	11480
16,63648	9898
16,64060	10246
16,64473	9704
16,64885	9726
16,65297	9293
16,65710	9017
16,66122	10297
16,66533	12455
16,66947	20204
16,67358	35243
16,67770	72272
16,68183	138593
16,68595	249790
16,69007	408101
16,69420	597719
16,69832	779976
16,70243	922916
16,70657	980436
16,71068	938970
16,71480	822295
16,71892	664131
16,72305	515084
16,72717	381557
16,73128	281439
16,73542	204390
16,73953	152965
16,74365	113663
16,74778	89776
16,75190	69814
16,75602	57272
16,76015	49553
16,76427	44441
16,76838	35836
16,77252	32041
16,77663	28217
16,78075	24095
16,78488	22941
16,78900	21482
16,79312	19156
16,79725	18986
16,80137	19032
16,80548	16852
16,80960	17271
16,81373	13028
16,81785	14123
16,82197	13980
16,82610	12723
16,83022	14312
16,83433	13965
16,83847	14997
16,84258	14882
16,84670	15032
16,85083	15498
16,85495	14446
16,85907	15529
16,86320	12816
16,86732	12474
16,87143	14117
16,87557	11081
16,87968	12346
16,88380	10660
16,88793	11413
16,89205	11359
16,89617	11564
16,90028	11129
16,90442	10446
16,90853	9556
16,91265	8839
16,91678	9377
16,92090	9147
16,92502	9845
16,92915	7933
16,93327	8577
16,93738	12226
16,94152	18689
16,94563	36477
16,94975	74578
16,95388	138187
16,95800	249519
16,96212	386918
16,96625	560444
16,97037	729588
16,97448	843685
16,97862	895500
16,98273	873868
16,98685	781702
16,99097	647122
16,99510	505259
16,99922	379234
17,00333	276531
17,00747	200534
17,01158	148484
17,01570	112349
17,01983	85332
17,02395	67276
17,02807	56231
17,03220	46948
17,03632	39429
17,04043	35605
17,04457	31925
17,04868	29892
17,05280	26947
17,05693	24233
17,06105	25656
17,06517	22653
17,06930	21442
17,07342	20019
17,07753	19329
17,08165	16772
17,08578	16674
17,08990	14588
17,09402	14233
17,09815	13614
17,10227	13766
17,10638	13080
17,11052	12489
17,11463	12129
17,11875	12426
17,12288	9662
17,12700	11465
17,13112	10847
17,13525	11165
17,13937	10473
17,14348	9699
17,14762	10642
17,15173	10162
17,15585	9860
17,15998	10217
17,16410	10077
17,16822	11261
17,17233	10007
17,17647	12335
17,18058	11593
17,18470	12246
17,18883	12313
17,19295	10990
17,19707	10568
17,20120	10273
17,20532	10037
17,20943	9668
17,21357	10625
17,21768	7990
17,22180	8656
17,22593	8936
17,23005	8535
17,23417	8669
17,23830	9099
17,24242	8083
17,24653	7668
17,25067	7268
17,25478	7270
17,25890	6961
17,26302	6620
17,26715	8547
17,27127	7271
17,27538	6840
17,27952	7362
17,28363	8044
17,28775	6880
17,29188	8199
17,29600	9219
17,30012	11400
17,30425	18608
17,30837	37599
17,31248	80769
17,31662	171666
17,32073	337062
17,32485	597781
17,32898	975178
17,33310	1453811
17,33722	1998089
17,34135	2534704
17,34547	2955945
17,34958	3148296
17,35370	3038634
17,35783	2655916
17,36195	2150657
17,36607	1619008
17,37020	1160418
17,37432	829494
17,37843	588163
17,38257	421990
17,38668	320219
17,39080	248726
17,39493	204716
17,39905	167198
17,40317	137254
17,40730	122193
17,41142	102144
17,41553	92657
17,41967	81433
17,42378	75441
17,42790	65702
17,43203	59340
17,43615	53185
17,44027	51802
17,44438	48159
17,44852	44054
17,45263	40765
17,45675	38196
17,46088	35337
17,46500	32899
17,46912	32051
17,47325	32189
17,47737	30012
17,48148	29543
17,48562	26318
17,48973	24647
17,49385	23991
17,49798	23376
17,50210	21853
17,50622	23307
17,51035	21195
17,51447	21723
17,51858	21751
17,52272	21451
17,52683	22339
17,53095	26032
17,53507	34329
17,53920	43198
17,54332	61937
17,54743	101322
17,55157	164238
17,55568	261775
17,55980	388608
17,56393	529662
17,56805	673253
17,57217	769185
17,57630	795472
17,58042	753282
17,58453	661926
17,58867	550520
17,59278	434460
17,59690	326518
17,60103	240878
17,60515	180052
17,60927	135433
17,61340	104322
17,61752	83903
17,62163	67046
17,62577	60615
17,62988	59832
17,63400	70452
17,63812	97311
17,64225	161245
17,64637	258964
17,65048	408062
17,65462	594411
17,65873	801330
17,66285	969916
17,66698	1068087
17,67110	1061022
17,67522	979789
17,67935	830706
17,68347	653944
17,68758	507235
17,69172	370291
17,69583	277379
17,69995	206773
17,70408	158743
17,70820	125969
17,71232	101679
17,71645	87350
17,72057	75259
17,72468	64242
17,72880	58834
17,73293	53737
17,73705	44550
17,74117	43024
17,74530	38629
17,74942	35122
17,75353	33292
17,75767	31594
17,76178	28938
17,76590	29483
17,77003	26768
17,77415	23976
17,77827	24153
17,78240	24110
17,78652	23099
17,79063	21214
17,79477	20261
17,79888	21156
17,80300	21260
17,80713	20627
17,81125	20603
17,81537	19449
17,81948	18526
17,82362	18513
17,82773	19399
17,83185	18023
17,83598	19853
17,84010	18084
17,84422	17645
17,84835	16221
17,85247	14979
17,85658	15581
17,86072	14969
17,86483	15170
17,86895	16132
17,87308	14718
17,87720	15312
17,88132	18727
17,88545	25849
17,88957	48608
17,89368	85199
17,89782	158815
17,90193	270591
17,90605	442645
17,91017	650414
17,91430	844929
17,91842	1036109
17,92253	1147918
17,92667	1140133
17,93078	1018482
17,93490	846610
17,93903	651345
17,94315	485145
17,94727	352486
17,95140	260973
17,95552	196820
17,95963	152337
17,96377	122662
17,96788	100968
17,97200	86471
17,97613	76592
17,98025	64180
17,98437	57758
17,98850	51827
17,99262	49068
17,99673	42400
18,00085	40504
18,00498	38216
18,00910	37148
18,01322	33770
18,01735	31332
18,02147	30550
18,02558	29749
18,02972	29755
18,03383	28964
18,03795	28361
18,04208	27017
18,04620	25182
18,05032	24460
18,05445	22614
18,05857	24333
18,06268	23379
18,06682	23029
18,07093	22802
18,07505	23376
18,07918	19450
18,08330	21470
18,08742	18630
18,09153	19800
18,09567	18317
18,09978	17901
18,10390	18837
18,10803	17584
18,11215	17657
18,11627	17404
18,12040	19851
18,12452	22705
18,12863	32859
18,13277	54772
18,13688	96396
18,14100	169696
18,14513	285883
18,14925	440489
18,15337	614010
18,15750	774006
18,16162	889394
18,16573	920363
18,16987	868034
18,17398	764790
18,17810	624274
18,18222	486572
18,18635	368596
18,19047	274801
18,19458	206311
18,19872	157857
18,20283	125965
18,20695	99035
18,21108	81031
18,21520	72222
18,21932	62306
18,22345	55434
18,22757	49981
18,23168	45022
18,23582	40905
18,23993	39182
18,24405	35720
18,24818	33162
18,25230	33283
18,25642	31350
18,26055	28318
18,26467	28804
18,26878	27071
18,27290	25002
18,27703	24318
18,28115	23542
18,28527	22648
18,28940	20820
18,29352	21949
18,29763	20983
18,30177	19919
18,30588	19823
18,31000	19657
18,31413	18173
18,31825	18754
18,32237	15777
18,32650	18253
18,33062	16289
18,33473	17500
18,33887	16608
18,34298	16760
18,34710	15325
18,35123	15584
18,35535	16024
18,35947	15565
18,36358	15391
18,36772	15221
18,37183	14827
18,37595	14151
18,38008	16181
18,38420	14893
18,38832	14059
18,39245	17583
18,39657	15610
18,40068	15068
18,40482	17297
18,40893	15169
18,41305	13361
18,41718	14968
18,42130	14839
18,42542	14376
18,42955	14348
18,43367	14266
18,43778	13854
18,44192	15098
18,44603	16243
18,45015	20048
18,45427	26160
18,45840	39944
18,46252	69748
18,46663	120498
18,47077	211839
18,47488	343588
18,47900	547427
18,48313	806408
18,48725	1119126
18,49137	1469392
18,49550	1838707
18,49962	2158187
18,50373	2366373
18,50787	2390254
18,51198	2315312
18,51610	2124604
18,52023	1865287
18,52435	1614543
18,52847	1370815
18,53260	1147185
18,53672	936132
18,54083	750888
18,54495	592434
18,54908	461280
18,55320	363196
18,55732	289764
18,56145	241850
18,56557	196695
18,56968	171075
18,57382	147424
18,57793	130011
18,58205	112082
18,58618	102254
18,59030	94648
18,59442	85962
18,59855	79004
18,60267	74935
18,60678	66736
18,61092	63094
18,61503	60688
18,61915	56994
18,62328	53487
18,62740	50754
18,63152	49201
18,63563	45412
18,63977	45915
18,64388	40597
18,64800	41989
18,65213	40994
18,65625	38153
18,66037	38534
18,66450	35964
18,66862	33834
18,67273	35210
18,67687	34120
18,68098	32381
18,68510	34625
18,68923	34082
18,69335	36496
18,69747	33766
18,70160	40591
18,70572	47362
18,70983	61120
18,71397	84676
18,71808	130598
18,72220	200698
18,72632	301288
18,73045	435784
18,73457	573079
18,73868	682859
18,74282	757822
18,74693	769913
18,75105	727540
18,75518	645370
18,75930	535752
18,76342	443186
18,76755	369925
18,77167	320854
18,77578	319942
18,77992	355367
18,78403	447541
18,78815	566814
18,79228	710380
18,79640	878933
18,80052	1039233
18,80465	1161059
18,80877	1269702
18,81288	1342003
18,81700	1362447
18,82113	1331211
18,82525	1238562
18,82937	1090267
18,83350	916753
18,83762	736444
18,84173	586916
18,84587	457477
18,84998	357925
18,85410	290946
18,85823	236650
18,86235	199443
18,86647	173248
18,87060	149084
18,87472	133640
18,87883	119009
18,88297	111637
18,88708	101466
18,89120	90201
18,89533	84175
18,89945	75512
18,90357	71129
18,90768	66677
18,91182	61181
18,91593	58232
18,92005	53981
18,92418	49541
18,92830	48299
18,93242	46879
18,93655	45039
18,94067	44566
18,94478	42264
18,94892	40772
18,95303	38811
18,95715	36844
18,96128	33161
18,96540	32751
18,96952	32742
18,97365	32392
18,97777	32334
18,98188	29711
18,98602	29099
18,99013	27542
18,99425	27216
18,99837	28184
19,00250	27236
19,00662	28221
19,01073	26335
19,01487	26240
19,01898	25631
19,02310	29482
19,02723	38765
19,03135	52920
19,03547	82768
19,03960	131621
19,04372	209654
19,04783	319824
19,05197	456292
19,05608	610496
19,06020	775199
19,06433	902689
19,06845	962152
19,07257	955495
19,07670	885204
19,08082	751774
19,08493	618989
19,08905	494326
19,09318	387635
19,09730	305348
19,10142	246189
19,10555	203077
19,10967	169396
19,11378	141605
19,11792	122203
19,12203	108563
19,12615	96138
19,13028	90469
19,13440	80833
19,13852	73438
19,14265	65415
19,14677	61711
19,15088	58286
19,15502	55990
19,15913	52052
19,16325	49130
19,16738	48652
19,17150	45525
19,17562	44520
19,17973	41463
19,18387	43238
19,18798	41343
19,19210	38846
19,19623	36852
19,20035	37577
19,20447	33586
19,20860	33529
19,21272	33010
19,21683	31281
19,22097	31598
19,22508	29784
19,22920	30777
19,23333	28160
19,23745	27765
19,24157	27435
19,24570	24869
19,24982	25827
19,25393	26958
19,25807	26908
19,26218	25220
19,26630	27535
19,27043	27430
19,27455	27389
19,27867	27544
19,28278	27382
19,28692	29253
19,29103	34407
19,29515	42519
19,29928	66128
19,30340	100542
19,30752	160962
19,31165	241085
19,31577	350734
19,31988	477805
19,32402	600851
19,32813	702033
19,33225	756313
19,33638	767406
19,34050	724628
19,34462	650756
19,34875	552572
19,35287	456132
19,35698	361217
19,36112	288940
19,36523	232943
19,36935	182160
19,37347	155512
19,37760	125312
19,38172	112328
19,38583	97702
19,38997	91859
19,39408	88264
19,39820	95825
19,40233	112520
19,40645	148011
19,41057	201818
19,41470	273217
19,41882	354319
19,42293	447468
19,42707	527599
19,43118	569742
19,43530	582700
19,43943	565122
19,44355	521827
19,44767	462792
19,45180	385454
19,45592	317597
19,46003	255056
19,46415	202026
19,46828	171970
19,47240	141582
19,47652	115732
19,48065	100528
19,48477	85300
19,48888	75590
19,49302	71060
19,49713	60978
19,50125	57869
19,50538	52465
19,50950	49384
19,51362	45093
19,51775	44024
19,52187	43293
19,52598	39943
19,53012	38302
19,53423	39031
19,53835	36549
19,54248	33443
19,54660	32314
19,55072	32484
19,55483	34462
19,55897	30971
19,56308	31436
19,56720	29478
19,57133	27183
19,57545	27566
19,57957	28907
19,58370	27728
19,58782	27142
19,59193	28022
19,59607	25921
19,60018	26966
19,60430	27002
19,60843	24825
19,61255	28993
19,61667	32330
19,62080	44077
19,62492	62378
19,62903	91871
19,63317	148315
19,63728	227889
19,64140	337935
19,64552	489740
19,64965	676951
19,65377	897070
19,65788	1139261
19,66202	1368396
19,66613	1567180
19,67025	1703556
19,67438	1718080
19,67850	1621971
19,68262	1413525
19,68675	1180041
19,69087	945981
19,69498	757141
19,69912	596423
19,70323	472883
19,70735	387975
19,71148	325743
19,71560	270888
19,71972	233128
19,72385	208599
19,72797	182041
19,73208	162882
19,73620	147906
19,74033	136572
19,74445	124465
19,74857	114401
19,75270	105528
19,75682	99715
19,76093	92612
19,76507	86273
19,76918	81908
19,77330	78113
19,77743	74086
19,78155	71110
19,78567	63805
19,78980	63530
19,79392	62007
19,79803	53338
19,80217	54001
19,80628	51592
19,81040	53459
19,81453	47202
19,81865	49133
19,82277	45673
19,82688	44187
19,83102	45137
19,83513	42882
19,83925	38710
19,84338	40181
19,84750	41163
19,85162	39676
19,85575	36614
19,85987	37582
19,86398	36148
19,86812	32575
19,87223	33048
19,87635	33393
19,88048	35042
19,88460	34210
19,88872	32899
19,89285	30975
19,89697	29982
19,90108	30715
19,90522	30323
19,90933	27806
19,91345	29671
19,91757	30827
19,92170	28151
19,92582	29150
19,92993	28906
19,93407	30990
19,93818	29856
19,94230	30207
19,94643	28572
19,95055	26868
19,95467	28492
19,95880	28886
19,96292	28776
19,96703	32397
19,97117	38561
19,97528	48985
19,97940	69895
19,98353	103900
19,98765	153333
19,99177	220415
19,99590	316126
20,00002	428550
20,00413	542429
20,00825	644729
20,01238	741134
20,01650	787791
20,02062	774267
20,02475	730919
20,02887	661616
20,03298	567454
20,03712	478471
20,04123	398007
20,04535	328585
20,04948	277205
20,05360	227342
20,05772	192635
20,06185	166772
20,06597	148773
20,07008	128741
20,07422	115249
20,07833	102997
20,08245	93114
20,08658	86158
20,09070	81252
20,09482	75121
20,09893	68988
20,10307	66373
20,10718	61719
20,11130	59390
20,11543	56940
20,11955	53041
20,12367	48810
20,12780	50120
20,13192	47620
20,13603	45631
20,14017	47430
20,14428	44403
20,14840	42468
20,15253	43026
20,15665	41399
20,16077	44977
20,16490	42322
20,16902	40934
20,17313	41150
20,17727	38916
20,18138	36541
20,18550	37010
20,18962	33625
20,19375	33796
20,19787	33395
20,20198	31718
20,20612	31242
20,21023	29292
20,21435	28361
20,21848	28546
20,22260	28169
20,22672	26946
20,23085	27564
20,23497	26923
20,23908	25473
20,24322	26719
20,24733	24065
20,25145	25653
20,25558	26702
20,25970	26179
20,26382	25588
20,26795	23306
20,27207	24879
20,27618	24042
20,28030	24023
20,28443	25390
20,28855	25203
20,29267	24419
20,29680	24107
20,30092	22862
20,30503	20605
20,30917	21920
20,31328	21206
20,31740	23091
20,32153	22362
20,32565	24649
20,32977	23634
20,33390	26060
20,33802	25523
20,34213	27470
20,34627	30004
20,35038	29777
20,35450	28929
20,35863	31661
20,36275	30160
20,36687	27454
20,37098	26269
20,37512	23881
20,37923	25959
20,38335	26234
20,38748	24894
20,39160	21864
20,39572	20908
20,39985	21898
20,40397	22119
20,40808	21385
20,41222	22741
20,41633	19713
20,42045	19934
20,42458	20050
20,42870	21040
20,43282	19585
20,43695	19623
20,44107	21992
20,44518	20166
20,44932	20874
20,45343	19767
20,45755	19984
20,46167	20484
20,46580	19334
20,46992	20834
20,47403	18984
20,47817	19305
20,48228	19374
20,48640	20585
20,49053	22838
20,49465	21976
20,49877	21628
20,50290	23353
20,50702	24011
20,51113	22540
20,51527	21612
20,51938	22136
20,52350	20870
20,52763	23631
20,53175	21583
20,53587	20113
20,54000	20851
20,54412	21599
20,54823	21612
20,55235	20499
20,55648	22117
20,56060	20200
20,56472	21193
20,56885	22831
20,57297	23212
20,57708	23830
20,58122	22654
20,58533	23311
20,58945	23273
20,59358	24340
20,59770	21889
20,60182	21500
20,60595	20244
20,61007	19666
20,61418	21528
20,61832	21895
20,62243	18695
20,62655	18611
20,63068	18453
20,63480	19533
20,63892	18225
20,64303	18051
20,64717	18781
20,65128	18679
20,65540	19969
20,65953	17602
20,66365	20339
20,66777	18735
20,67190	20248
20,67602	20161
20,68013	18380
20,68427	21349
20,68838	19910
20,69250	18509
20,69663	19624
20,70075	21183
20,70487	20570
20,70900	18714
20,71312	17063
20,71723	19171
20,72137	17601
20,72548	19217
20,72960	16881
20,73372	19790
20,73785	18783
20,74197	18295
20,74608	17757
20,75022	19460
20,75433	19863
20,75845	18176
20,76258	18166
20,76670	19436
20,77082	19432
20,77495	20284
20,77907	21218
20,78318	21270
20,78732	19576
20,79143	20983
20,79555	19956
20,79968	20305
20,80380	21555
20,80792	19588
20,81205	19075
20,81617	20567
20,82028	17210
20,82442	18477
20,82853	17491
20,83265	18456
20,83677	18533
20,84090	19066
20,84502	18890
20,84913	17999
20,85327	18322
20,85738	16842
20,86150	18189
20,86563	18027
20,86975	17405
20,87387	18042
20,87800	18102
20,88212	17441
20,88623	18300
20,89037	18982
20,89448	18133
20,89860	16454
20,90273	18567
20,90685	18171
20,91097	17507
20,91510	18153
20,91922	20384
20,92333	18091
20,92745	18478
20,93158	18821
20,93570	17562
20,93982	18037
20,94395	18191
20,94807	17833
20,95218	18841
20,95632	17459
20,96043	16958
20,96455	17436
20,96868	17959
20,97280	16669
20,97692	18820
20,98105	18732
20,98517	16461
20,98928	17696
20,99342	20316
20,99753	17807
21,00165	18791
21,00578	19014
21,00990	19100
21,01402	17881
21,01813	20337
21,02227	18947
21,02638	18587
21,03050	20424
21,03463	21128
21,03875	21026
21,04287	19963
21,04700	23534
21,05112	31491
21,05523	40439
21,05937	57501
21,06348	79804
21,06760	114213
21,07173	153057
21,07585	194979
21,07997	249675
21,08410	295182
21,08822	336018
21,09233	365902
21,09647	385878
21,10058	377656
21,10470	365290
21,10882	340297
21,11295	306775
21,11707	268776
21,12118	233429
21,12532	203508
21,12943	172232
21,13355	146353
21,13768	129495
21,14180	110724
21,14592	96112
21,15005	85196
21,15417	76526
21,15828	69546
21,16242	61713
21,16653	60386
21,17065	56989
21,17478	49352
21,17890	49996
21,18302	44272
21,18715	42922
21,19127	40150
21,19538	38961
21,19950	38952
21,20363	37624
21,20775	35176
21,21187	32737
21,21600	32799
21,22012	29448
21,22423	29273
21,22837	28938
21,23248	30509
21,23660	28933
21,24073	28778
21,24485	27751
21,24897	28458
21,25310	26811
21,25722	26535
21,26133	24665
21,26547	23948
21,26958	26005
21,27370	24008
21,27783	25811
21,28195	25422
21,28607	25287
21,29018	24658
21,29432	21731
21,29843	24422
21,30255	21820
21,30668	23375
21,31080	22127
21,31492	22902
21,31905	21782
21,32317	22666
21,32728	21939
21,33142	21038
21,33553	23969
21,33965	23271
21,34378	20328
21,34790	21050
21,35202	22364
21,35615	20637
21,36027	20648
21,36438	20344
21,36852	20985
21,37263	19512
21,37675	20582
21,38087	19759
21,38500	19450
21,38912	19535
21,39323	19045
21,39737	18730
21,40148	18900
21,40560	19643
21,40973	18965
21,41385	17811
21,41797	16460
21,42210	18735
21,42622	18075
21,43033	18291
21,43447	18763
21,43858	19055
21,44270	18020
21,44683	17289
21,45095	17884
21,45507	18180
21,45920	19304
21,46332	18702
21,46743	20262
21,47155	17805
21,47568	17633
21,47980	18332
21,48392	18865
21,48805	17582
21,49217	16631
21,49628	19412
21,50042	18724
21,50453	18496
21,50865	18932
21,51278	18249
21,51690	19908
21,52102	19689
21,52515	18730
21,52927	19190
21,53338	18609
21,53752	20130
21,54163	19190
21,54575	18241
21,54988	19450
21,55400	18840
21,55812	19185
21,56223	17655
21,56637	17863
21,57048	17046
21,57460	18275
21,57873	17139
21,58285	17460
21,58697	18219
21,59110	18528
21,59522	17810
21,59933	17434
21,60347	16899
21,60758	18671
21,61170	18827
21,61583	18682
21,61995	19798
21,62407	19825
21,62820	19093
21,63232	19090
21,63643	18129
21,64057	18697
21,64468	19019
21,64880	18087
21,65292	17538
21,65705	17343
21,66117	17852
21,66528	17290
21,66942	18234
21,67353	18282
21,67765	17581
21,68178	18472
21,68590	16466
21,69002	17830
21,69415	16443
21,69827	16635
21,70238	18143
21,70652	18332
21,71063	17673
21,71475	17690
21,71888	16843
21,72300	17769
21,72712	18999
21,73125	18535
21,73537	17988
21,73948	19761
21,74360	18111
21,74773	18886
21,75185	18588
21,75597	18418
21,76010	17434
21,76422	19147
21,76833	17706
21,77247	17782
21,77658	18844
21,78070	18940
21,78483	18532
21,78895	19760
21,79307	19455
21,79720	19862
21,80132	21538
21,80543	19828
21,80957	22384
21,81368	21092
21,81780	20572
21,82193	20050
21,82605	20450
21,83017	20217
21,83428	18323
21,83842	19673
21,84253	18943
21,84665	18235
21,85078	15640
21,85490	19086
21,85902	16555
21,86315	15526
21,86727	19273
21,87138	18009
21,87552	17316
21,87963	16540
21,88375	15860
21,88788	18715
21,89200	18266
21,89612	19527
21,90025	17199
21,90437	16255
21,90848	17444
21,91262	17340
21,91673	18036
21,92085	19092
21,92497	18504
21,92910	16621
21,93322	17780
21,93733	17660
21,94147	17017
21,94558	18363
21,94970	18595
21,95383	18357
21,95795	17151
21,96207	17424
21,96620	16496
21,97032	18303
21,97443	17209
21,97857	16735
21,98268	16501
21,98680	16413
21,99093	16900
21,99505	15963
21,99917	14681
22,00330	17203
22,00742	18209
22,01153	14975
22,01565	16979
22,01978	16849
22,02390	16446
22,02802	15981
22,03215	16227
22,03627	16355
22,04038	15257
22,04452	16932
22,04863	17395
22,05275	17911
22,05688	16391
22,06100	16701
22,06512	17851
22,06925	18926
22,07337	17742
22,07748	18764
22,08162	16432
22,08573	18119
22,08985	17732
22,09398	18927
22,09810	17700
22,10222	18452
22,10633	18929
22,11047	18023
22,11458	16667
22,11870	16241
22,12283	17017
22,12695	18549
22,13107	19044
22,13520	16408
22,13932	17496
22,14343	17031
