D:\MassHunter\GCMS\1\data\Amal\Constant flow\140C\140C_1ml-min_8C-min_3.D Fri Sep 13 13:58:46 2024
Start of data points
4,84095,4175587
4,84507,3924156
4,84918,3793337
4,85332,3579933
4,85743,3401648
4,86155,3198592
4,86568,3047631
4,86980,2912242
4,87392,2737089
4,87805,2601726
4,88217,2485128
4,88628,2353976
4,89040,2222922
4,89453,2158025
4,89865,2023302
4,90277,1960061
4,90690,1834386
4,91102,1741959
4,91513,1663653
4,91927,1604030
4,92338,1540128
4,92750,1463819
4,93163,1372350
4,93575,1331826
4,93987,1236122
4,94400,1184281
4,94812,1136827
4,95223,1090509
4,95637,1034142
4,96048,985362
4,96460,934661
4,96873,895159
4,97285,867743
4,97697,824213
4,98108,784755
4,98522,751636
4,98933,719253
4,99345,680254
4,99758,652653
5,00170,617218
5,00582,602691
5,00995,571800
5,01407,548135
5,01818,515838
5,02232,488689
5,02643,466274
5,03055,451242
5,03468,421648
5,03880,409744
5,04292,394381
5,04705,369478
5,05117,358165
5,05528,340261
5,05942,327921
5,06353,313351
5,06765,299206
5,07177,290632
5,07590,283901
5,08002,268049
5,08413,259002
5,08827,245573
5,09238,239130
5,09650,229489
5,10063,228149
5,10475,220135
5,10887,207443
5,11300,203077
5,11712,195624
5,12123,189227
5,12537,185860
5,12948,179641
5,13360,176529
5,13773,172072
5,14185,169776
5,14597,165258
5,15010,158823
5,15422,158343
5,15833,148610
5,16245,147897
5,16658,143517
5,17070,138487
5,17482,137466
5,17895,138197
5,18307,133830
5,18718,130416
5,19132,131634
5,19543,128997
5,19955,124181
5,20368,121131
5,20780,120932
5,21192,118170
5,21605,114975
5,22017,115923
5,22428,111525
5,22842,111102
5,23253,112128
5,23665,111431
5,24078,107923
5,24490,106674
5,24902,103528
5,25313,102377
5,25727,105014
5,26138,102908
5,26550,101348
5,26963,102000
5,27375,99320
5,27787,99946
5,28200,96160
5,28612,97919
5,29023,96416
5,29437,99375
5,29848,94634
5,30260,96599
5,30673,96115
5,31085,92913
5,31497,91701
5,31910,92955
5,32322,92034
5,32733,92627
5,33147,88514
5,33558,90663
5,33970,89360
5,34382,88645
5,34795,86568
5,35207,85727
5,35618,87366
5,36032,84998
5,36443,88619
5,36855,90243
5,37268,103495
5,37680,134444
5,38092,205809
5,38505,319053
5,38917,484663
5,39328,679792
5,39742,873715
5,40153,1028545
5,40565,1129671
5,40978,1181717
5,41390,1185268
5,41802,1170138
5,42215,1125897
5,42627,1098482
5,43038,1052440
5,43450,1004262
5,43863,958152
5,44275,914618
5,44687,876014
5,45100,835581
5,45512,803294
5,45923,756721
5,46337,724212
5,46748,688874
5,47160,656890
5,47573,633014
5,47985,597708
5,48397,574864
5,48810,549913
5,49222,522011
5,49633,495475
5,50047,470128
5,50458,456802
5,50870,435277
5,51283,402638
5,51695,385892
5,52107,371886
5,52518,358657
5,52932,334412
5,53343,326402
5,53755,311030
5,54168,288995
5,54580,276226
5,54992,262466
5,55405,248907
5,55817,234906
5,56228,217284
5,56642,205200
5,57053,191459
5,57465,179240
5,57878,169952
5,58290,164066
5,58702,149973
5,59115,144356
5,59527,135619
5,59938,132355
5,60352,122934
5,60763,116943
5,61175,110960
5,61587,108936
5,62000,102088
5,62412,100690
5,62823,95731
5,63237,93292
5,63648,89536
5,64060,86262
5,64473,84673
5,64885,82378
5,65297,80720
5,65710,81194
5,66122,77548
5,66533,75685
5,66947,74956
5,67358,72036
5,67770,73324
5,68183,68620
5,68595,71206
5,69007,69350
5,69420,67138
5,69832,68706
5,70243,65208
5,70655,67221
5,71068,67110
5,71480,66059
5,71892,66349
5,72305,65799
5,72717,64549
5,73128,65126
5,73542,65084
5,73953,67907
5,74365,63760
5,74778,63796
5,75190,63063
5,75602,63393
5,76015,64541
5,76427,68682
5,76838,78872
5,77252,103421
5,77663,142661
5,78075,210661
5,78488,294420
5,78900,402944
5,79312,508322
5,79723,590090
5,80137,651218
5,80548,689708
5,80960,696320
5,81373,685324
5,81785,657910
5,82197,646931
5,82610,613022
5,83022,582907
5,83433,548116
5,83847,528738
5,84258,504765
5,84670,474429
5,85083,451759
5,85495,431493
5,85907,418956
5,86320,393420
5,86732,371959
5,87143,352544
5,87557,332076
5,87968,316846
5,88380,298003
5,88792,286496
5,89205,274975
5,89617,258447
5,90028,248190
5,90442,236583
5,90853,223945
5,91265,211087
5,91678,200570
5,92090,190534
5,92502,180728
5,92915,167992
5,93327,160444
5,93738,151409
5,94152,139868
5,94563,133482
5,94975,126567
5,95388,118219
5,95800,108880
5,96212,103928
5,96625,98609
5,97037,99034
5,97448,91251
5,97860,88498
5,98273,84000
5,98685,78842
5,99097,77945
5,99510,74369
5,99922,73760
6,00333,69981
6,00747,67985
6,01158,67394
6,01570,66784
6,01983,63912
6,02395,62028
6,02807,61656
6,03220,63137
6,03632,60189
6,04043,57479
6,04457,56517
6,04868,57213
6,05280,58171
6,05693,55953
6,06105,54693
6,06517,55199
6,06928,54615
6,07342,51528
6,07753,56287
6,08165,54248
6,08578,53141
6,08990,53961
6,09402,51281
6,09815,52887
6,10227,53242
6,10638,52751
6,11052,52707
6,11463,52561
6,11875,52141
6,12288,51691
6,12700,49030
6,13112,51458
6,13525,50892
6,13937,50754
6,14348,50891
6,14762,49743
6,15173,49834
6,15585,49694
6,15997,48417
6,16410,50276
6,16822,48164
6,17233,46788
6,17647,50145
6,18058,45257
6,18470,47454
6,18883,47173
6,19295,47748
6,19707,47045
6,20120,44814
6,20532,46169
6,20943,44597
6,21357,44675
6,21768,43902
6,22180,44805
6,22593,46231
6,23005,46100
6,23417,52036
6,23830,64107
6,24242,94563
6,24653,158360
6,25065,263100
6,25478,415244
6,25890,625587
6,26302,860847
6,26715,1095953
6,27127,1287892
6,27538,1406820
6,27952,1484788
6,28363,1523214
6,28775,1511794
6,29188,1467332
6,29600,1392425
6,30012,1313181
6,30425,1241663
6,30837,1167466
6,31248,1098300
6,31662,1032995
6,32073,959628
6,32485,907271
6,32898,842970
6,33310,794039
6,33722,735136
6,34133,693652
6,34547,643181
6,34958,602429
6,35370,555785
6,35783,513533
6,36195,482999
6,36607,443067
6,37020,413181
6,37432,383424
6,37843,354798
6,38257,329695
6,38668,300896
6,39080,273820
6,39493,248661
6,39905,220223
6,40317,202664
6,40730,182866
6,41142,164874
6,41553,151155
6,41967,140997
6,42378,126758
6,42790,117748
6,43202,104387
6,43615,100533
6,44027,93398
6,44438,86224
6,44852,81401
6,45263,76950
6,45675,72707
6,46088,66650
6,46500,66375
6,46912,61898
6,47325,58564
6,47737,59728
6,48148,56177
6,48562,53861
6,48973,51788
6,49385,51331
6,49798,48810
6,50210,48007
6,50622,47786
6,51035,46924
6,51447,45994
6,51858,47589
6,52272,43535
6,52683,45432
6,53095,45283
6,53507,44313
6,53920,43331
6,54332,43656
6,54743,42881
6,55157,40749
6,55568,40837
6,55980,41151
6,56393,40377
6,56805,39665
6,57217,38551
6,57630,40166
6,58042,38444
6,58453,38507
6,58867,38585
6,59278,37406
6,59690,37395
6,60103,37540
6,60515,35953
6,60927,36825
6,61340,36470
6,61752,38902
6,62163,35586
6,62575,36106
6,62988,35731
6,63400,36247
6,63812,35870
6,64225,37281
6,64637,34587
6,65048,35201
6,65462,36776
6,65873,36575
6,66285,35315
6,66698,34907
6,67110,37048
6,67522,34909
6,67935,33875
6,68347,35542
6,68758,33866
6,69172,35963
6,69583,35370
6,69995,34559
6,70408,34956
6,70820,33512
6,71232,35260
6,71643,32788
6,72057,33249
6,72468,33802
6,72880,32934
6,73293,34774
6,73705,35754
6,74117,33137
6,74530,33921
6,74942,34388
6,75353,33562
6,75767,33208
6,76178,33271
6,76590,33536
6,77003,34213
6,77415,33821
6,77827,35684
6,78240,41771
6,78652,48349
6,79063,70085
6,79477,109419
6,79888,171900
6,80300,265961
6,80712,385332
6,81125,513939
6,81537,646035
6,81948,755323
6,82362,835686
6,82773,877743
6,83185,890909
6,83598,874147
6,84010,844687
6,84422,791403
6,84835,751392
6,85247,716428
6,85658,661022
6,86072,609135
6,86483,556406
6,86895,517313
6,87308,477095
6,87720,442563
6,88132,399758
6,88545,378403
6,88957,349302
6,89368,322084
6,89780,291283
6,90193,268564
6,90605,243924
6,91017,224340
6,91430,199537
6,91842,182284
6,92253,165326
6,92667,148614
6,93078,131834
6,93490,119502
6,93903,110245
6,94315,99956
6,94727,90360
6,95140,84437
6,95552,77340
6,95963,70107
6,96377,66626
6,96788,61437
6,97200,59426
6,97613,59439
6,98025,52938
6,98437,52468
6,98848,48562
6,99262,48554
6,99673,48265
7,00085,44624
7,00498,45386
7,00910,43213
7,01322,42154
7,01735,40278
7,02147,39724
7,02558,39645
7,02972,38704
7,03383,37021
7,03795,37111
7,04208,36684
7,04620,35099
7,05032,36302
7,05445,35071
7,05857,32169
7,06268,35783
7,06682,34436
7,07093,32586
7,07505,31465
7,07917,33114
7,08330,31392
7,08742,31015
7,09153,34347
7,09567,32062
7,09978,34031
7,10390,33729
7,10803,34014
7,11215,34479
7,11627,34757
7,12040,33540
7,12452,34292
7,12863,33778
7,13277,34037
7,13688,31822
7,14100,33402
7,14513,32604
7,14925,33398
7,15337,31616
7,15750,31789
7,16162,33215
7,16573,29385
7,16985,29197
7,17398,31412
7,17810,30769
7,18222,28730
7,18635,27952
7,19047,29391
7,19458,29511
7,19872,29600
7,20283,29188
7,20695,27892
7,21108,27467
7,21520,27829
7,21932,27557
7,22345,26745
7,22757,28725
7,23168,28288
7,23582,28201
7,23993,27401
7,24405,28107
7,24818,28395
7,25230,27296
7,25642,25180
7,26053,26567
7,26467,28235
7,26878,26773
7,27290,27428
7,27703,25869
7,28115,26340
7,28527,26469
7,28940,27956
7,29352,27511
7,29763,26337
7,30177,26971
7,30588,26681
7,31000,26585
7,31413,27506
7,31825,26073
7,32237,28203
7,32650,27072
7,33062,27548
7,33473,27731
7,33887,25009
7,34298,26650
7,34710,26663
7,35122,26012
7,35535,28366
7,35947,26695
7,36358,26081
7,36772,27069
7,37183,26276
7,37595,27357
7,38008,25397
7,38420,28487
7,38832,29635
7,39245,37484
7,39657,54766
7,40068,92005
7,40482,161372
7,40893,276712
7,41305,447310
7,41718,692259
7,42130,976781
7,42542,1284949
7,42955,1562867
7,43367,1802427
7,43778,1964917
7,44190,2053968
7,44603,2045347
7,45015,1989741
7,45427,1899323
7,45840,1758496
7,46252,1635431
7,46663,1485442
7,47077,1333597
7,47488,1211474
7,47900,1084469
7,48313,968859
7,48725,871198
7,49137,775401
7,49550,690069
7,49962,607143
7,50373,527963
7,50787,466576
7,51198,410950
7,51610,359667
7,52023,308324
7,52435,267809
7,52847,230154
7,53258,200284
7,53672,174232
7,54083,156118
7,54495,136432
7,54908,123642
7,55320,110112
7,55732,100119
7,56145,90752
7,56557,82599
7,56968,76006
7,57382,71879
7,57793,67375
7,58205,60695
7,58618,58949
7,59030,53794
7,59442,53179
7,59855,53450
7,60267,48731
7,60678,48909
7,61092,45838
7,61503,41657
7,61915,41863
7,62327,41798
7,62740,41512
7,63152,39026
7,63563,38629
7,63977,38927
7,64388,38163
7,64800,38283
7,65213,38814
7,65625,40359
7,66037,40213
7,66450,41260
7,66862,40406
7,67273,40551
7,67687,39850
7,68098,41371
7,68510,40072
7,68923,38889
7,69335,38363
7,69747,37520
7,70160,35764
7,70572,35888
7,70983,33869
7,71395,33997
7,71808,33697
7,72220,33884
7,72632,32621
7,73045,30253
7,73457,32337
7,73868,32382
7,74282,30871
7,74693,32148
7,75105,32111
7,75518,31277
7,75930,31961
7,76342,30178
7,76755,32409
7,77167,28956
7,77578,29574
7,77992,30008
7,78403,30609
7,78815,29013
7,79228,29282
7,79640,27202
7,80052,26854
7,80463,26155
7,80877,27671
7,81288,27721
7,81700,28000
7,82113,28036
7,82525,28979
7,82937,30136
7,83350,29550
7,83762,30342
7,84173,29479
7,84587,30254
7,84998,30880
7,85410,30103
7,85823,30420
7,86235,32115
7,86647,32222
7,87060,31733
7,87472,33538
7,87883,34547
7,88297,37066
7,88708,36953
7,89120,39483
7,89532,42960
7,89945,48830
7,90357,70147
7,90768,104297
7,91182,157122
7,91593,237558
7,92005,351238
7,92418,486769
7,92830,627415
7,93242,769084
7,93655,885466
7,94067,966915
7,94478,1003579
7,94892,1011424
7,95303,981189
7,95715,936100
7,96128,872627
7,96540,802883
7,96952,724595
7,97365,654019
7,97777,587818
7,98188,524475
7,98600,463276
7,99013,407425
7,99425,356068
7,99837,313944
8,00250,272554
8,00662,236743
8,01073,208831
8,01487,181564
8,01898,153881
8,02310,133013
8,02723,115623
8,03135,106212
8,03547,91571
8,03960,82038
8,04372,71992
8,04783,68788
8,05197,63772
8,05608,66620
8,06020,75220
8,06433,100172
8,06845,144120
8,07257,217034
8,07670,326920
8,08082,467302
8,08493,637066
8,08905,810993
8,09318,966007
8,09730,1091280
8,10142,1150920
8,10555,1187169
8,10967,1160262
8,11378,1110368
8,11792,1038290
8,12203,938779
8,12615,847705
8,13028,765585
8,13440,667278
8,13852,586055
8,14265,511432
8,14677,450035
8,15088,382669
8,15502,328371
8,15913,282567
8,16325,244535
8,16738,205564
8,17150,179143
8,17562,153324
8,17973,132849
8,18387,116315
8,18798,100344
8,19210,91881
8,19623,82614
8,20035,74043
8,20447,66485
8,20860,61315
8,21272,58095
8,21683,54396
8,22097,53286
8,22508,50078
8,22920,48591
8,23333,43935
8,23745,44069
8,24157,40888
8,24570,38405
8,24982,38727
8,25393,36904
8,25807,36144
8,26218,35217
8,26630,34468
8,27042,33103
8,27455,33258
8,27867,30562
8,28278,31835
8,28692,30266
8,29103,30393
8,29515,29468
8,29928,28846
8,30340,28481
8,30752,28087
8,31165,27338
8,31577,26650
8,31988,29380
8,32402,27189
8,32813,26451
8,33225,27581
8,33638,25328
8,34050,25458
8,34462,26417
8,34875,24333
8,35287,25131
8,35698,25155
8,36110,24600
8,36523,24266
8,36935,23383
8,37347,24479
8,37760,23809
8,38172,25059
8,38583,25033
8,38997,23640
8,39408,24206
8,39820,24189
8,40233,24066
8,40645,23761
8,41057,22680
8,41470,23270
8,41882,21222
8,42293,21820
8,42707,22064
8,43118,22418
8,43530,22759
8,43943,21333
8,44355,21884
8,44767,21291
8,45178,22335
8,45592,22409
8,46003,21171
8,46415,20239
8,46828,19660
8,47240,20448
8,47652,19835
8,48065,20773
8,48477,20544
8,48888,19296
8,49302,19690
8,49713,19856
8,50125,19854
8,50538,20439
8,50950,20424
8,51362,21036
8,51775,18870
8,52187,19922
8,52598,19137
8,53012,20292
8,53423,19495
8,53835,20901
8,54247,20037
8,54660,21234
8,55072,18444
8,55483,18638
8,55897,18861
8,56308,19618
8,56720,18666
8,57133,20098
8,57545,20872
8,57957,20092
8,58370,21649
8,58782,26104
8,59193,35387
8,59607,52871
8,60018,84357
8,60430,139115
8,60843,228362
8,61255,348434
8,61667,499262
8,62080,661209
8,62492,838193
8,62903,991448
8,63315,1096195
8,63728,1156863
8,64140,1175229
8,64552,1130424
8,64965,1066886
8,65377,982093
8,65788,876158
8,66202,777762
8,66613,677889
8,67025,585699
8,67438,507348
8,67850,428900
8,68262,360617
8,68675,306012
8,69087,256264
8,69498,218992
8,69912,184345
8,70323,154570
8,70735,134308
8,71148,115092
8,71560,101111
8,71972,92054
8,72383,81646
8,72797,73123
8,73208,68298
8,73620,61791
8,74033,56433
8,74445,56706
8,74857,60487
8,75270,79391
8,75682,117328
8,76093,200097
8,76507,341324
8,76918,573030
8,77330,904561
8,77743,1367529
8,78155,1920134
8,78567,2498263
8,78980,3084763
8,79392,3584740
8,79803,3956709
8,80217,4107604
8,80628,4047503
8,81040,3850244
8,81452,3579542
8,81865,3188851
8,82277,2773743
8,82688,2350008
8,83102,1980152
8,83513,1662924
8,83925,1367012
8,84338,1131878
8,84750,928805
8,85162,768447
8,85575,638237
8,85987,515965
8,86398,441431
8,86812,362907
8,87223,306685
8,87635,271596
8,88048,234362
8,88460,202935
8,88872,186353
8,89285,166232
8,89697,149823
8,90108,134695
8,90520,127542
8,90933,115761
8,91345,108204
8,91757,103125
8,92170,96167
8,92582,89837
8,92993,82907
8,93407,80902
8,93818,77700
8,94230,73962
8,94643,69877
8,95055,66230
8,95467,66762
8,95880,61557
8,96292,57808
8,96703,59017
8,97117,55059
8,97528,53856
8,97940,52393
8,98353,52136
8,98765,47006
8,99177,47661
8,99588,44694
9,00002,44694
9,00413,45502
9,00825,43545
9,01238,41724
9,01650,40305
9,02062,40403
9,02475,37603
9,02887,37965
9,03298,35776
9,03712,36324
9,04123,34285
9,04535,34207
9,04948,32643
9,05360,34095
9,05772,30968
9,06185,32503
9,06597,31788
9,07008,30033
9,07422,29793
9,07833,28555
9,08245,30195
9,08657,30165
9,09070,29748
9,09482,29384
9,09893,29284
9,10307,29955
9,10718,28724
9,11130,29264
9,11543,27562
9,11955,27297
9,12367,27897
9,12780,28139
9,13192,25772
9,13603,26968
9,14017,27197
9,14428,24978
9,14840,24831
9,15253,25048
9,15665,26231
9,16077,26318
9,16490,25242
9,16902,28266
9,17313,26819
9,17725,25577
9,18138,25901
9,18550,24955
9,18962,26775
9,19375,25566
9,19787,25588
9,20198,26376
9,20612,28923
9,21023,32935
9,21435,44624
9,21848,69615
9,22260,114766
9,22672,186889
9,23085,289002
9,23497,429935
9,23908,612616
9,24322,806405
9,24733,1001602
9,25145,1153141
9,25558,1249283
9,25970,1295706
9,26382,1266518
9,26793,1201911
9,27207,1097525
9,27618,974144
9,28030,855260
9,28443,726112
9,28855,614815
9,29267,512045
9,29680,426589
9,30092,347506
9,30503,288994
9,30917,243127
9,31328,201864
9,31740,171986
9,32153,148078
9,32565,126235
9,32977,111644
9,33390,98908
9,33802,90363
9,34213,83485
9,34627,77878
9,35038,73694
9,35450,68470
9,35862,65915
9,36275,63624
9,36687,57772
9,37098,56732
9,37512,50151
9,37923,48524
9,38335,45280
9,38748,42746
9,39160,41534
9,39572,39627
9,39985,37116
9,40397,35495
9,40808,35034
9,41222,34143
9,41633,34603
9,42045,33377
9,42458,30251
9,42870,31375
9,43282,29787
9,43695,29597
9,44107,28243
9,44518,27231
9,44930,29302
9,45343,29337
9,45755,27531
9,46167,29357
9,46580,34549
9,46992,43485
9,47403,62815
9,47817,102523
9,48228,178018
9,48640,285356
9,49053,442714
9,49465,636859
9,49877,857774
9,50290,1076456
9,50702,1287390
9,51113,1415619
9,51527,1514209
9,51938,1502557
9,52350,1436793
9,52763,1314159
9,53175,1174516
9,53587,1007082
9,53998,845771
9,54412,702007
9,54823,579473
9,55235,472979
9,55648,386236
9,56060,316264
9,56472,261755
9,56885,219901
9,57297,183742
9,57708,159880
9,58122,137943
9,58533,123982
9,58945,108204
9,59358,93753
9,59770,88640
9,60182,81526
9,60595,72851
9,61007,68215
9,61418,64741
9,61832,61253
9,62243,55850
9,62655,53794
9,63067,50353
9,63480,50391
9,63892,47374
9,64303,46676
9,64717,42583
9,65128,40247
9,65540,39131
9,65953,40634
9,66365,37383
9,66777,38626
9,67190,37620
9,67602,36122
9,68013,34770
9,68427,34861
9,68838,33007
9,69250,33849
9,69663,32487
9,70075,32486
9,70487,31007
9,70900,28936
9,71312,29905
9,71723,28088
9,72137,27080
9,72548,27127
9,72960,27671
9,73372,26798
9,73785,25576
9,74197,25297
9,74608,25477
9,75022,27737
9,75433,25530
9,75845,25671
9,76258,26674
9,76670,26023
9,77082,25734
9,77495,25326
9,77907,25304
9,78318,24822
9,78732,23528
9,79143,24950
9,79555,24297
9,79968,23621
9,80380,24532
9,80792,23293
9,81205,22557
9,81617,21657
9,82028,22825
9,82440,22488
9,82853,23986
9,83265,21846
9,83677,21870
9,84090,21718
9,84502,21561
9,84913,20349
9,85327,20090
9,85738,20631
9,86150,19929
9,86563,20813
9,86975,22668
9,87387,19709
9,87800,21655
9,88212,19877
9,88623,19801
9,89037,19827
9,89448,19033
9,89860,19046
9,90273,20094
9,90685,19817
9,91097,19958
9,91508,21022
9,91922,18942
9,92333,20830
9,92745,22690
9,93158,26698
9,93570,32395
9,93982,55246
9,94395,90530
9,94807,148559
9,95218,249294
9,95632,391357
9,96043,567860
9,96455,772474
9,96868,1009389
9,97280,1209304
9,97692,1370180
9,98105,1443971
9,98517,1446031
9,98928,1400950
9,99342,1282380
9,99753,1140704
10,00165,978125
10,00577,822108
10,00990,677760
10,01402,547224
10,01813,446247
10,02227,360973
10,02638,294014
10,03050,243638
10,03463,209466
10,03875,174304
10,04287,153630
10,04700,130331
10,05112,114610
10,05523,103209
10,05937,94957
10,06348,83298
10,06760,76862
10,07173,71561
10,07585,66251
10,07997,61247
10,08410,57003
10,08822,54682
10,09233,53107
10,09645,48738
10,10058,47554
10,10470,44827
10,10882,42949
10,11295,41620
10,11707,39335
10,12118,40408
10,12532,34833
10,12943,36905
10,13355,37121
10,13768,34237
10,14180,32338
10,14592,32627
10,15005,29790
10,15417,30723
10,15828,30109
10,16242,29755
10,16653,28784
10,17065,28438
10,17478,28154
10,17890,30016
10,18302,30841
10,18713,32907
10,19127,45653
10,19538,74363
10,19950,123161
10,20363,226706
10,20775,398007
10,21187,654469
10,21600,1005712
10,22012,1459768
10,22423,1964443
10,22837,2461205
10,23248,2885893
10,23660,3226748
10,24073,3405655
10,24485,3413840
10,24897,3219217
10,25310,2902076
10,25722,2483697
10,26133,2076344
10,26547,1681679
10,26958,1344946
10,27370,1061651
10,27782,845918
10,28195,682838
10,28607,553496
10,29018,464080
10,29432,377727
10,29843,328917
10,30255,280857
10,30668,252336
10,31080,219974
10,31492,204672
10,31905,187586
10,32317,171157
10,32728,160899
10,33142,155490
10,33553,145185
10,33965,135117
10,34378,125167
10,34790,118796
10,35202,109976
10,35615,107329
10,36027,97707
10,36438,95707
10,36850,86039
10,37263,81136
10,37675,77013
10,38087,71881
10,38500,69123
10,38912,67656
10,39323,61041
10,39737,60249
10,40148,55684
10,40560,53217
10,40973,52774
10,41385,51750
10,41797,50821
10,42210,45728
10,42622,47994
10,43033,44014
10,43447,44305
10,43858,42056
10,44270,42589
10,44683,40036
10,45095,41647
10,45507,45236
10,45918,51983
10,46332,66456
10,46743,98447
10,47155,156347
10,47568,253568
10,47980,384806
10,48392,571643
10,48805,808757
10,49217,1064504
10,49628,1284461
10,50042,1481051
10,50453,1611134
10,50865,1641092
10,51278,1585868
10,51690,1456092
10,52102,1290804
10,52515,1087238
10,52927,897623
10,53338,742401
10,53752,595846
10,54163,489022
10,54575,394329
10,54987,324200
10,55400,270020
10,55812,228288
10,56223,200624
10,56637,172466
10,57048,152857
10,57460,135553
10,57873,120789
10,58285,111523
10,58697,102243
10,59110,95504
10,59522,95496
10,59933,105798
10,60347,132779
10,60758,193213
10,61170,302215
10,61583,501405
10,61995,779361
10,62407,1160182
10,62820,1608875
10,63232,2114347
10,63643,2577640
10,64055,2979048
10,64468,3234902
10,64880,3332470
10,65292,3246568
10,65705,2956899
10,66117,2577862
10,66528,2194796
10,66942,1800190
10,67353,1448099
10,67765,1157882
10,68178,921332
10,68590,749436
10,69002,604782
10,69415,498425
10,69827,424084
10,70238,361217
10,70652,311386
10,71063,274844
10,71475,243628
10,71888,211582
10,72300,194411
10,72712,176792
10,73123,162452
10,73537,146901
10,73948,134148
10,74360,126422
10,74773,118178
10,75185,113742
10,75597,106066
10,76010,98942
10,76422,94306
10,76833,87938
10,77247,84930
10,77658,81430
10,78070,78160
10,78483,73998
10,78895,71973
10,79307,69146
10,79720,64815
10,80132,63747
10,80543,62337
10,80957,59869
10,81368,57487
10,81780,56337
10,82192,55445
10,82605,51780
10,83017,52443
10,83428,48472
10,83842,46563
10,84253,46585
10,84665,43231
10,85078,42729
10,85490,43821
10,85902,43768
10,86315,41088
10,86727,41750
10,87138,40182
10,87552,39913
10,87963,40621
10,88375,42399
10,88788,46459
10,89200,59390
10,89612,81038
10,90025,124478
10,90437,202152
10,90848,330117
10,91260,507478
10,91673,756352
10,92085,1061440
10,92497,1418002
10,92910,1815774
10,93322,2216979
10,93733,2639164
10,94147,3079690
10,94558,3469742
10,94970,3792135
10,95383,4103279
10,95795,4280638
10,96207,4276556
10,96620,4016184
10,97032,3605135
10,97443,3107503
10,97857,2564035
10,98268,2089375
10,98680,1657457
10,99093,1329307
10,99505,1069954
10,99917,862355
11,00328,710305
11,00742,586064
11,01153,501361
11,01565,429541
11,01978,374246
11,02390,334543
11,02802,294213
11,03215,262998
11,03627,241306
11,04038,221099
11,04452,202015
11,04863,181726
11,05275,173186
11,05688,158645
11,06100,149811
11,06512,138654
11,06925,130922
11,07337,124614
11,07748,119975
11,08162,111149
11,08573,107599
11,08985,97234
11,09397,96542
11,09810,92415
11,10222,90923
11,10633,91419
11,11047,89260
11,11458,80983
11,11870,81206
11,12283,76734
11,12695,74644
11,13107,71509
11,13520,69026
11,13932,66129
11,14343,68645
11,14757,67373
11,15168,64454
11,15580,66551
11,15993,62256
11,16405,61389
11,16817,58451
11,17230,56954
11,17642,54972
11,18053,53857
11,18465,53155
11,18878,53055
11,19290,48901
11,19702,50808
11,20115,48047
11,20527,51257
11,20938,57835
11,21352,72073
11,21763,99959
11,22175,148743
11,22588,235580
11,23000,355208
11,23412,530353
11,23825,746810
11,24237,968679
11,24648,1188220
11,25062,1344054
11,25473,1436603
11,25885,1444091
11,26298,1378226
11,26710,1266218
11,27122,1106678
11,27533,939077
11,27947,765174
11,28358,619605
11,28770,510882
11,29183,416916
11,29595,343213
11,30007,289435
11,30420,241522
11,30832,208607
11,31243,180957
11,31657,160167
11,32068,140653
11,32480,126377
11,32893,119437
11,33305,110157
11,33717,101327
11,34130,95600
11,34542,88457
11,34953,82714
11,35367,82061
11,35778,76968
11,36190,71728
11,36603,71249
11,37015,63423
11,37427,62577
11,37838,58632
11,38252,57148
11,38663,56408
11,39075,52066
11,39488,51437
11,39900,48677
11,40312,47821
11,40725,48610
11,41137,45216
11,41548,44837
11,41962,43757
11,42373,41898
11,42785,41076
11,43198,39350
11,43610,39526
11,44022,39986
11,44435,37682
11,44847,39432
11,45258,38347
11,45672,36449
11,46083,37266
11,46495,36941
11,46907,35301
11,47320,35849
11,47732,33849
11,48143,33383
11,48557,32440
11,48968,32703
11,49380,32514
11,49793,31155
11,50205,32135
11,50617,32766
11,51030,31797
11,51442,29755
11,51853,28956
11,52267,30653
11,52678,30392
11,53090,29851
11,53503,29422
11,53915,30673
11,54327,29533
11,54740,30612
11,55152,29088
11,55563,31208
11,55975,29932
11,56388,29164
11,56800,31374
11,57212,28997
11,57625,28607
11,58037,27203
11,58448,29735
11,58862,28553
11,59273,27427
11,59685,27604
11,60098,28226
11,60510,27374
11,60922,26342
11,61335,28872
11,61747,32727
11,62158,38297
11,62572,58977
11,62983,98016
11,63395,175060
11,63808,313682
11,64220,532324
11,64632,867346
11,65043,1334007
11,65457,1925727
11,65868,2586081
11,66280,3294530
11,66693,3977550
11,67105,4504932
11,67517,4786823
11,67930,4808062
11,68342,4554750
11,68753,4203318
11,69167,3738010
11,69578,3217080
11,69990,2716325
11,70403,2265427
11,70815,1893476
11,71227,1559328
11,71640,1284184
11,72052,1052134
11,72463,874119
11,72877,724341
11,73288,616253
11,73700,526377
11,74112,453911
11,74525,399034
11,74937,352238
11,75348,314323
11,75762,287151
11,76173,259196
11,76585,234387
11,76998,215371
11,77410,200823
11,77822,184560
11,78235,174359
11,78647,161869
11,79058,152296
11,79472,144112
11,79883,132228
11,80295,128677
11,80708,120061
11,81120,114099
11,81532,109623
11,81945,105976
11,82357,96651
11,82768,97211
11,83180,92268
11,83593,88460
11,84005,86711
11,84417,83834
11,84830,80063
11,85242,76278
11,85653,74202
11,86067,71199
11,86478,71669
11,86890,66292
11,87303,65536
11,87715,64506
11,88127,64244
11,88540,61787
11,88952,59634
11,89363,58100
11,89777,59939
11,90188,61508
11,90600,62480
11,91013,65553
11,91425,71242
11,91837,87569
11,92248,117117
11,92662,164613
11,93073,244219
11,93485,357474
11,93898,510986
11,94310,702059
11,94722,911831
11,95135,1081965
11,95547,1230472
11,95958,1291041
11,96372,1296001
11,96783,1223707
11,97195,1107403
11,97608,952780
11,98020,815255
11,98432,669594
11,98845,551491
11,99257,448074
11,99668,370671
12,00082,306746
12,00493,257267
12,00905,217826
12,01317,195496
12,01730,175378
12,02142,179173
12,02553,191805
12,02967,232016
12,03378,321219
12,03790,458387
12,04203,664769
12,04615,916099
12,05027,1210537
12,05440,1511440
12,05852,1734221
12,06263,1868302
12,06677,1892937
12,07088,1799807
12,07500,1653248
12,07913,1421399
12,08325,1202734
12,08737,973667
12,09150,803126
12,09562,653401
12,09973,541420
12,10385,447400
12,10798,376346
12,11210,332095
12,11622,282431
12,12035,251753
12,12447,224621
12,12858,200451
12,13272,188152
12,13683,168061
12,14095,155964
12,14508,143004
12,14920,131915
12,15332,128936
12,15745,115904
12,16157,113157
12,16568,102850
12,16982,96681
12,17393,94803
12,17805,90501
12,18218,87272
12,18630,84211
12,19042,77810
12,19453,76097
12,19867,76044
12,20278,72192
12,20690,67782
12,21103,68019
12,21515,65024
12,21927,66299
12,22340,61757
12,22752,60405
12,23163,58413
12,23577,56205
12,23988,55470
12,24400,54635
12,24813,52066
12,25225,53251
12,25637,50110
12,26050,51106
12,26462,48572
12,26873,48580
12,27287,47720
12,27698,46967
12,28110,46611
12,28522,44785
12,28935,45633
12,29347,43403
12,29758,42652
12,30172,43819
12,30583,42266
12,30995,43122
12,31408,42428
12,31820,49571
12,32232,57070
12,32645,79997
12,33057,124109
12,33468,201655
12,33882,330584
12,34293,528958
12,34705,800823
12,35118,1119568
12,35530,1478693
12,35942,1784809
12,36355,2001146
12,36767,2119604
12,37178,2050402
12,37590,1881974
12,38003,1649929
12,38415,1387886
12,38827,1134611
12,39240,923270
12,39652,756872
12,40063,618000
12,40477,507512
12,40888,432506
12,41300,370162
12,41713,320310
12,42125,284122
12,42537,256141
12,42950,227554
12,43362,201891
12,43773,187279
12,44187,169332
12,44598,155433
12,45010,147172
12,45423,135978
12,45835,126960
12,46247,120939
12,46658,112686
12,47072,109074
12,47483,99967
12,47895,95572
12,48308,98878
12,48720,89814
12,49132,89727
12,49545,85480
12,49957,83846
12,50368,79093
12,50782,77256
12,51193,76364
12,51605,73726
12,52018,74652
12,52430,70561
12,52842,67925
12,53255,65404
12,53667,64049
12,54078,64021
12,54492,61299
12,54903,58898
12,55315,59181
12,55727,58740
12,56140,56370
12,56552,55607
12,56963,54054
12,57377,51389
12,57788,50870
12,58200,52546
12,58613,50721
12,59025,49707
12,59437,50820
12,59850,50032
12,60262,47344
12,60673,47284
12,61087,52652
12,61498,59034
12,61910,72755
12,62323,101089
12,62735,163995
12,63147,257383
12,63560,408963
12,63972,609398
12,64383,831655
12,64795,1107615
12,65208,1330771
12,65620,1522893
12,66032,1600881
12,66445,1588081
12,66857,1500567
12,67268,1340051
12,67682,1157179
12,68093,956033
12,68505,787233
12,68918,643339
12,69330,530382
12,69742,443470
12,70155,367883
12,70567,308610
12,70978,274018
12,71392,234469
12,71803,208425
12,72215,187281
12,72628,169302
12,73040,154815
12,73452,141557
12,73863,130899
12,74277,123237
12,74688,115224
12,75100,106309
12,75513,95774
12,75925,98461
12,76337,90603
12,76750,85651
12,77162,84566
12,77573,79260
12,77987,76738
12,78398,77071
12,78810,74030
12,79223,67624
12,79635,68116
12,80047,64849
12,80460,62511
12,80872,60605
12,81283,58262
12,81697,59262
12,82108,58433
12,82520,57317
12,82932,55553
12,83345,54655
12,83757,50215
12,84168,51224
12,84582,49723
12,84993,49024
12,85405,50633
12,85818,49088
12,86230,47484
12,86642,44944
12,87055,48159
12,87467,45002
12,87878,45138
12,88292,45225
12,88703,41744
12,89115,44651
12,89528,46573
12,89940,43123
12,90352,44227
12,90765,42818
12,91177,42462
12,91588,40744
12,92000,39805
12,92413,40845
12,92825,37838
12,93237,40881
12,93650,40148
12,94062,39483
12,94473,40951
12,94887,39824
12,95298,38953
12,95710,39141
12,96123,38671
12,96535,37211
12,96947,37396
12,97360,38543
12,97772,39609
12,98183,36781
12,98597,38620
12,99008,36670
12,99420,39082
12,99833,44554
13,00245,54382
13,00657,75922
13,01070,123591
13,01482,200217
13,01893,342665
13,02305,565553
13,02718,870411
13,03130,1297197
13,03542,1825959
13,03955,2413276
13,04367,3060062
13,04778,3677780
13,05192,4207810
13,05603,4561784
13,06015,4697660
13,06428,4548890
13,06840,4263004
13,07252,3889995
13,07665,3547755
13,08077,3210653
13,08488,2887343
13,08902,2565018
13,09313,2269439
13,09725,1974628
13,10138,1683599
13,10550,1426773
13,10962,1195887
13,11373,1011817
13,11787,850719
13,12198,726341
13,12610,626268
13,13023,547467
13,13435,485930
13,13847,434803
13,14260,395209
13,14672,354792
13,15083,328329
13,15497,300985
13,15908,281799
13,16320,260849
13,16733,245373
13,17145,231709
13,17557,218949
13,17970,202583
13,18382,191151
13,18793,185104
13,19207,171238
13,19618,165620
13,20030,157689
13,20442,149020
13,20855,145224
13,21267,139959
13,21678,132839
13,22092,131955
13,22503,125441
13,22915,120442
13,23328,116520
13,23740,114111
13,24152,109025
13,24565,109791
13,24977,107432
13,25388,105658
13,25802,100209
13,26213,100736
13,26625,101172
13,27038,95371
13,27450,97313
13,27862,95102
13,28275,94347
13,28687,96183
13,29098,101484
13,29510,104761
13,29923,120753
13,30335,157903
13,30747,215535
13,31160,314548
13,31572,456761
13,31983,653970
13,32397,889253
13,32808,1112998
13,33220,1310595
13,33633,1443641
13,34045,1487218
13,34457,1447486
13,34870,1344629
13,35282,1194294
13,35693,1033988
13,36107,898000
13,36518,790252
13,36930,738411
13,37343,748850
13,37755,808453
13,38167,928603
13,38578,1115438
13,38992,1307105
13,39403,1515029
13,39815,1722882
13,40228,1904481
13,40640,2062855
13,41052,2227729
13,41465,2382381
13,41877,2534855
13,42288,2619137
13,42702,2633890
13,43113,2528497
13,43525,2347343
13,43938,2104663
13,44350,1818580
13,44762,1537110
13,45175,1288304
13,45587,1077526
13,45998,917304
13,46412,774297
13,46823,659883
13,47235,580903
13,47647,506688
13,48060,461118
13,48472,408978
13,48883,371058
13,49297,342648
13,49708,310326
13,50120,285517
13,50533,264808
13,50945,254095
13,51357,232694
13,51770,221748
13,52182,204430
13,52593,197920
13,53007,187721
13,53418,179337
13,53830,176341
13,54243,163404
13,54655,156791
13,55067,148396
13,55480,142939
13,55892,138893
13,56303,133945
13,56715,131147
13,57128,126146
13,57540,122937
13,57952,118501
13,58365,114162
13,58777,109381
13,59188,107296
13,59602,108705
13,60013,103806
13,60425,101519
13,60838,98133
13,61250,94744
13,61662,92284
13,62075,91482
13,62487,88661
13,62898,89607
13,63312,87202
13,63723,86333
13,64135,84064
13,64548,79816
13,64960,83542
13,65372,79183
13,65783,80147
13,66197,89850
13,66608,99541
13,67020,124612
13,67433,170743
13,67845,247750
13,68257,384022
13,68670,579524
13,69082,850059
13,69493,1189958
13,69907,1541248
13,70318,1864219
13,70730,2099618
13,71143,2196073
13,71555,2136206
13,71967,1959651
13,72380,1716667
13,72792,1455092
13,73203,1212921
13,73617,1014140
13,74028,841505
13,74440,711265
13,74852,612122
13,75265,527095
13,75677,464167
13,76088,413288
13,76502,365317
13,76913,332456
13,77325,296683
13,77738,276690
13,78150,256502
13,78562,238080
13,78975,223191
13,79387,209618
13,79798,201363
13,80212,196835
13,80623,182289
13,81035,174799
13,81448,166367
13,81860,164027
13,82272,159005
13,82685,147624
13,83097,145967
13,83508,143524
13,83920,136030
13,84333,130755
13,84745,125753
13,85157,127172
13,85570,121529
13,85982,116008
13,86393,112261
13,86807,108941
13,87218,105884
13,87630,104837
13,88043,102230
13,88455,97829
13,88867,94572
13,89280,95141
13,89692,93309
13,90103,90893
13,90517,91279
13,90928,88071
13,91340,86760
13,91753,88491
13,92165,85594
13,92577,85885
13,92988,82003
13,93402,83018
13,93813,81450
13,94225,80420
13,94638,80413
13,95050,84321
13,95462,91035
13,95875,104607
13,96287,133610
13,96698,189862
13,97112,284421
13,97523,422279
13,97935,615812
13,98348,874376
13,98760,1153621
13,99172,1405343
13,99585,1601464
13,99997,1697553
14,00408,1706470
14,00822,1599259
14,01233,1453158
14,01645,1264239
14,02057,1077016
14,02470,903772
14,02882,767823
14,03293,643981
14,03707,545771
14,04118,468937
14,04530,410930
14,04943,366280
14,05355,335941
14,05767,314912
14,06180,301077
14,06592,315387
14,07003,358191
14,07417,427358
14,07828,529640
14,08240,672733
14,08653,831096
14,09065,999604
14,09477,1122204
14,09890,1220753
14,10302,1246870
14,10713,1238629
14,11125,1152400
14,11538,1045790
14,11950,920050
14,12362,789145
14,12775,682459
14,13187,582692
14,13598,496720
14,14012,430317
14,14423,367916
14,14835,332652
14,15248,286863
14,15660,260335
14,16072,238058
14,16485,215104
14,16897,197862
14,17308,184943
14,17722,171246
14,18133,160009
14,18545,150646
14,18958,145811
14,19370,139197
14,19782,135095
14,20193,128528
14,20607,120276
14,21018,115196
14,21430,114838
14,21843,110440
14,22255,106092
14,22667,105611
14,23080,102299
14,23492,100111
14,23903,94447
14,24317,95028
14,24728,92168
14,25140,89395
14,25553,86895
14,25965,85771
14,26377,84122
14,26790,83879
14,27202,83067
14,27613,80311
14,28027,79298
14,28438,79227
14,28850,78918
14,29262,77011
14,29675,74828
14,30087,74999
14,30498,75363
14,30912,76167
14,31323,72962
14,31735,74837
14,32148,77026
14,32560,82952
14,32972,101263
14,33385,130878
14,33797,179994
14,34208,270780
14,34622,394692
14,35033,585559
14,35445,835213
14,35858,1171441
14,36270,1618332
14,36682,2110909
14,37095,2633041
14,37507,3157877
14,37918,3592307
14,38330,3885062
14,38743,3952318
14,39155,3823158
14,39567,3468903
14,39980,3013526
14,40392,2541072
14,40803,2115028
14,41217,1755267
14,41628,1478762
14,42040,1236967
14,42453,1059619
14,42865,917345
14,43277,805581
14,43690,712692
14,44102,637799
14,44513,578413
14,44927,525770
14,45338,482450
14,45750,448510
14,46163,414200
14,46575,384863
14,46987,360546
14,47398,335419
14,47812,319302
14,48223,297049
14,48635,283255
14,49048,270756
14,49460,251712
14,49872,244771
14,50285,236740
14,50697,226874
14,51108,213232
14,51522,207397
14,51933,198022
14,52345,192286
14,52758,184956
14,53170,177737
14,53582,169256
14,53995,166586
14,54407,160319
14,54818,159813
14,55232,151884
14,55643,149344
14,56055,144141
14,56468,137129
14,56880,138715
14,57292,130768
14,57703,131635
14,58117,125965
14,58528,126173
14,58940,124972
14,59353,119377
14,59765,118310
14,60177,116524
14,60590,111129
14,61002,110316
14,61413,113297
14,61827,107230
14,62238,102518
14,62650,102686
14,63063,104370
14,63475,101249
14,63887,100175
14,64300,102095
14,64712,99990
14,65123,97279
14,65537,96306
14,65948,93076
14,66360,94699
14,66772,92277
14,67185,87557
14,67597,89014
14,68008,86820
14,68422,85979
14,68833,85810
14,69245,81796
14,69658,87343
14,70070,87269
14,70482,85060
14,70895,90335
14,71307,98758
14,71718,109883
14,72132,136100
14,72543,176953
14,72955,244142
14,73368,341662
14,73780,479679
14,74192,664407
14,74605,903492
14,75017,1145336
14,75428,1387361
14,75840,1596042
14,76253,1732393
14,76665,1798832
14,77077,1743727
14,77490,1633523
14,77902,1483242
14,78313,1310668
14,78727,1136495
14,79138,992116
14,79550,849445
14,79963,742133
14,80375,643381
14,80787,570011
14,81200,498751
14,81612,456396
14,82023,411852
14,82437,372576
14,82848,343616
14,83260,318579
14,83673,292992
14,84085,275370
14,84497,259606
14,84908,246041
14,85322,233031
14,85733,221675
14,86145,212188
14,86558,201691
14,86970,193657
14,87382,183623
14,87795,180444
14,88207,171363
14,88618,161455
14,89032,157727
14,89443,150988
14,89855,142710
14,90268,142296
14,90680,137730
14,91092,134379
14,91505,129057
14,91917,126039
14,92328,125279
14,92742,118815
14,93153,118661
14,93565,116355
14,93977,111275
14,94390,106006
14,94802,108909
14,95213,107129
14,95627,102052
14,96038,101304
14,96450,99526
14,96863,100998
14,97275,99543
14,97687,97905
14,98100,96466
14,98512,92984
14,98923,90012
14,99337,94346
14,99748,86479
15,00160,86843
15,00573,88573
15,00985,84388
15,01397,82912
15,01810,84383
15,02222,83836
15,02633,80679
15,03045,81599
15,03458,79480
15,03870,78046
15,04282,81247
15,04695,81312
15,05107,77941
15,05518,77066
15,05932,77967
15,06343,75148
15,06755,76074
15,07168,75296
15,07580,73304
15,07992,75063
15,08405,72075
15,08817,73456
15,09228,73190
15,09642,73197
15,10053,70171
15,10465,71889
15,10878,72259
15,11290,76028
15,11702,73387
15,12113,72813
15,12527,69631
15,12938,70803
15,13350,69826
15,13763,67213
15,14175,66378
15,14587,64017
15,15000,64695
15,15412,62432
15,15823,63138
15,16237,62062
15,16648,62705
15,17060,62472
15,17473,63470
15,17885,62130
15,18297,63496
15,18710,65596
15,19122,70623
15,19533,71391
15,19947,79887
15,20358,85222
15,20770,93086
15,21182,102857
15,21595,112106
15,22007,119149
15,22418,122640
15,22832,123611
15,23243,131024
15,23655,125979
15,24068,122054
15,24480,117966
15,24892,107374
15,25305,107291
15,25717,96954
15,26128,91659
15,26542,85592
15,26953,81610
15,27365,76566
15,27778,74024
15,28190,70973
15,28602,69592
15,29015,67607
15,29427,64468
15,29838,65712
15,30250,62946
15,30663,61113
15,31075,62796
15,31487,61784
15,31900,58720
15,32312,60869
15,32723,59592
15,33137,57401
15,33548,56247
15,33960,55674
15,34373,59956
15,34785,56682
15,35197,58777
15,35610,58647
15,36022,57610
15,36433,56922
15,36847,56516
15,37258,53882
15,37670,56167
15,38083,54060
15,38495,53142
15,38907,50229
15,39318,55308
15,39732,54921
15,40143,52426
15,40555,53314
15,40968,55377
15,41380,51482
15,41792,51903
15,42205,51841
15,42617,51797
15,43028,52202
15,43442,54615
15,43853,51705
15,44265,54036
15,44678,49932
15,45090,51986
15,45502,52428
15,45915,52058
15,46327,51226
15,46738,50770
15,47152,54908
15,47563,50541
15,47975,53161
15,48387,52729
15,48800,50223
15,49212,51029
15,49623,50631
15,50037,51221
15,50448,50570
15,50860,52292
15,51273,49491
15,51685,50005
15,52097,49846
15,52510,49149
15,52922,49833
15,53333,48749
15,53747,48490
15,54158,47279
15,54570,49774
15,54983,48513
15,55395,47196
15,55807,48540
15,56220,46070
15,56632,48282
15,57043,50863
15,57455,50045
15,57868,48558
15,58280,47362
15,58692,46324
15,59105,47328
15,59517,48668
15,59928,46438
15,60342,47464
15,60753,47722
15,61165,49045
15,61578,48875
15,61990,45305
15,62402,45029
15,62815,47428
15,63227,47532
15,63638,47287
15,64052,49835
15,64463,47043
15,64875,47220
15,65288,46879
15,65700,49046
15,66112,48356
15,66523,48918
15,66937,47563
15,67348,48476
15,67760,47344
15,68173,46258
15,68585,50500
15,68997,46729
15,69410,47397
15,69822,44405
15,70233,48481
15,70647,46641
15,71058,46205
15,71470,45721
15,71883,45883
15,72295,47141
15,72707,45042
15,73120,46402
15,73532,45545
15,73943,46393
15,74357,48150
15,74768,45187
15,75180,45590
15,75592,43060
15,76005,46458
15,76417,47357
15,76828,45062
15,77242,47255
15,77653,48256
15,78065,45712
15,78478,47380
15,78890,44622
15,79302,43899
15,79715,47379
15,80127,46847
15,80538,47140
15,80952,47672
15,81363,47322
15,81775,48145
15,82188,46804
15,82600,46153
15,83012,47316
15,83425,48025
15,83837,47002
15,84248,47946
15,84660,48910
15,85073,50552
15,85485,53475
15,85897,57541
15,86310,71458
15,86722,86515
15,87133,108794
15,87547,143050
15,87958,195826
15,88370,270679
15,88783,352007
15,89195,448968
15,89607,547627
15,90020,641572
15,90432,721399
15,90843,774888
15,91257,798215
15,91668,793131
15,92080,770518
15,92493,724705
15,92905,672188
15,93317,607353
15,93728,548421
15,94142,489653
15,94553,434880
15,94965,381794
15,95378,346398
15,95790,307251
15,96202,276849
15,96615,256172
15,97027,232614
15,97438,209019
15,97852,192170
15,98263,178977
15,98675,167337
15,99088,156909
15,99500,147485
15,99912,141101
16,00325,133512
16,00737,125334
16,01148,122065
16,01562,117657
16,01973,110253
16,02385,109686
16,02797,103559
16,03210,99201
16,03622,100350
16,04033,95103
16,04447,93816
16,04858,89810
16,05270,86357
16,05683,85060
16,06095,84062
16,06507,82907
16,06920,81763
16,07332,76787
16,07743,75390
16,08157,74962
16,08568,71908
16,08980,73539
16,09393,70837
16,09805,70485
16,10217,69029
16,10630,69279
16,11042,70679
16,11453,69191
16,11867,66929
16,12278,67149
16,12690,65097
16,13102,64464
16,13515,66497
16,13927,63518
16,14338,63364
16,14752,60617
16,15163,60988
16,15575,60711
16,15988,62338
16,16400,61486
16,16812,60274
16,17225,61209
16,17637,58383
16,18048,56838
16,18462,59195
16,18873,59097
16,19285,58610
16,19698,57366
16,20110,55676
16,20522,56137
16,20935,57073
16,21347,58865
16,21758,55557
16,22170,53011
16,22583,55193
16,22995,56538
16,23407,52964
16,23820,54634
16,24232,52966
16,24643,53793
16,25057,51650
16,25468,51106
16,25880,51621
16,26293,52297
16,26705,51783
16,27117,51701
16,27530,50922
16,27942,51619
16,28353,49723
16,28767,53028
16,29178,50379
16,29590,49960
16,30003,50143
16,30415,51837
16,30827,50414
16,31238,50200
16,31652,50656
16,32063,49589
16,32475,50568
16,32888,48623
16,33300,51806
16,33712,49035
16,34125,50202
