D:\MassHunter\GCMS\1\data\Amal\Constant flow\120C\120C_1ml-min_8C-min_1.D Tue Jul 30 15:30:48 2024
Start of data points
5,59095	26807
5,59508	25704
5,59920	24156
5,60332	23455
5,60745	23740
5,61157	23130
5,61568	22150
5,61982	22253
5,62393	20984
5,62805	19811
5,63218	19746
5,63630	19401
5,64042	20862
5,64455	19485
5,64867	18386
5,65278	20062
5,65692	18902
5,66103	19605
5,66515	18573
5,66928	17922
5,67340	17352
5,67752	17385
5,68163	17164
5,68577	18189
5,68988	17996
5,69400	17691
5,69813	16882
5,70225	17131
5,70637	17046
5,71050	17383
5,71462	16337
5,71873	17073
5,72287	16288
5,72698	17121
5,73110	16662
5,73523	18629
5,73935	17536
5,74347	16817
5,74760	16044
5,75172	16154
5,75583	16188
5,75997	16246
5,76408	16827
5,76820	16325
5,77232	15776
5,77645	16002
5,78057	16082
5,78468	16081
5,78882	15760
5,79293	16351
5,79705	15744
5,80118	16609
5,80530	15899
5,80942	16812
5,81355	16803
5,81767	17052
5,82178	16499
5,82592	14862
5,83003	15804
5,83415	15180
5,83828	16866
5,84240	15956
5,84652	15015
5,85065	15697
5,85477	15143
5,85888	16123
5,86300	16272
5,86713	15513
5,87125	16669
5,87537	15179
5,87950	15057
5,88362	15230
5,88773	17087
5,89187	15508
5,89598	16231
5,90010	16378
5,90423	15568
5,90835	14841
5,91247	15524
5,91660	16044
5,92072	14703
5,92483	15566
5,92897	14722
5,93308	15836
5,93720	15813
5,94133	13730
5,94545	14256
5,94957	14513
5,95370	15045
5,95782	14938
5,96193	15014
5,96605	14763
5,97018	14820
5,97430	14986
5,97842	13600
5,98255	14352
5,98667	13987
5,99078	13967
5,99492	13919
5,99903	13399
6,00315	12464
6,00728	12818
6,01140	13695
6,01552	13562
6,01965	13584
6,02377	13649
6,02788	12991
6,03202	13747
6,03613	13490
6,04025	13225
6,04438	13363
6,04850	14585
6,05262	13038
6,05673	13950
6,06087	13343
6,06498	13404
6,06910	14118
6,07323	13140
6,07735	14436
6,08147	14822
6,08560	14407
6,08972	14744
6,09383	15074
6,09797	15722
6,10208	14881
6,10620	14012
6,11033	14205
6,11445	14052
6,11857	13737
6,12270	13656
6,12682	14052
6,13093	14147
6,13507	13081
6,13918	13336
6,14330	13592
6,14742	13899
6,15155	13451
6,15567	13401
6,15978	13127
6,16392	12754
6,16803	13034
6,17215	12321
6,17628	12743
6,18040	12508
6,18452	13037
6,18865	11753
6,19277	12322
6,19688	12374
6,20102	11918
6,20513	11723
6,20925	11747
6,21338	11386
6,21750	12305
6,22162	13172
6,22575	12671
6,22987	12599
6,23398	11995
6,23810	12373
6,24223	11883
6,24635	11835
6,25047	11574
6,25460	11612
6,25872	10938
6,26283	11252
6,26697	11124
6,27108	11329
6,27520	12097
6,27933	11107
6,28345	11039
6,28757	10787
6,29170	10572
6,29582	10734
6,29993	10589
6,30407	11456
6,30818	11083
6,31230	11717
6,31643	11719
6,32055	11497
6,32467	11522
6,32878	11820
6,33292	12404
6,33703	10835
6,34115	11469
6,34528	11315
6,34940	11239
6,35352	12203
6,35765	11926
6,36177	11652
6,36588	11726
6,37002	12206
6,37413	15552
6,37825	21175
6,38238	34269
6,38650	56680
6,39062	91584
6,39475	143754
6,39887	201381
6,40298	266308
6,40712	325449
6,41123	374726
6,41535	402581
6,41947	416671
6,42360	416342
6,42772	400319
6,43183	386912
6,43597	368538
6,44008	342568
6,44420	326425
6,44833	305432
6,45245	287032
6,45657	269259
6,46070	250085
6,46482	231413
6,46893	218968
6,47307	201810
6,47718	188268
6,48130	173640
6,48543	160059
6,48955	148342
6,49367	138770
6,49780	125168
6,50192	116001
6,50603	109832
6,51015	100224
6,51428	91339
6,51840	84152
6,52252	76964
6,52665	71024
6,53077	61965
6,53488	56482
6,53902	50151
6,54313	47574
6,54725	40968
6,55138	36489
6,55550	34591
6,55962	31076
6,56375	27302
6,56787	27048
6,57198	23158
6,57612	21732
6,58023	20358
6,58435	19340
6,58848	16990
6,59260	16485
6,59672	15745
6,60083	13599
6,60497	15503
6,60908	13055
6,61320	13779
6,61733	12710
6,62145	12242
6,62557	11513
6,62970	11660
6,63382	10913
6,63793	11020
6,64207	10993
6,64618	11143
6,65030	10345
6,65443	10078
6,65855	9868
6,66267	9835
6,66680	10306
6,67092	9160
6,67503	10124
6,67917	8754
6,68328	9232
6,68740	9673
6,69152	9674
6,69565	9751
6,69977	10094
6,70388	10112
6,70802	9787
6,71213	9250
6,71625	8532
6,72038	9785
6,72450	8619
6,72862	9191
6,73275	8841
6,73687	9207
6,74098	9427
6,74512	9441
6,74923	8572
6,75335	8675
6,75748	9338
6,76160	8156
6,76572	8452
6,76985	9118
6,77397	8549
6,77808	9095
6,78220	9536
6,78633	8740
6,79045	7916
6,79457	8395
6,79870	8121
6,80282	8969
6,80693	9098
6,81107	10003
6,81518	7795
6,81930	8161
6,82343	8200
6,82755	8717
6,83167	7614
6,83580	7446
6,83992	7640
6,84403	8381
6,84817	8218
6,85228	8219
6,85640	7386
6,86053	7855
6,86465	7532
6,86877	8014
6,87288	8563
6,87702	7891
6,88113	7384
6,88525	8086
6,88938	7234
6,89350	7560
6,89762	7824
6,90175	7884
6,90587	7812
6,90998	7938
6,91412	7445
6,91823	7206
6,92235	7564
6,92648	8550
6,93060	7088
6,93472	6359
6,93885	6742
6,94297	7747
6,94708	7611
6,95122	7389
6,95533	7458
6,95945	7245
6,96357	7857
6,96770	7085
6,97182	7392
6,97593	7119
6,98007	7754
6,98418	7453
6,98830	7050
6,99243	6674
6,99655	6527
7,00067	7510
7,00480	6800
7,00892	8128
7,01303	9548
7,01717	11938
7,02128	18570
7,02540	29976
7,02953	50232
7,03365	76578
7,03777	113197
7,04190	156716
7,04602	197263
7,05013	234903
7,05425	265324
7,05838	284106
7,06250	284387
7,06662	276942
7,07075	267637
7,07487	254231
7,07898	245111
7,08312	224812
7,08723	206923
7,09135	191422
7,09548	180201
7,09960	162920
7,10372	148659
7,10785	135868
7,11197	121284
7,11608	112241
7,12022	103190
7,12433	92363
7,12845	84522
7,13258	73825
7,13670	65277
7,14082	61274
7,14493	56365
7,14907	47890
7,15318	41533
7,15730	37441
7,16143	33919
7,16555	28615
7,16967	25733
7,17380	22607
7,17792	21110
7,18203	18749
7,18617	16834
7,19028	15996
7,19440	14895
7,19853	12973
7,20265	13476
7,20677	11459
7,21090	11088
7,21502	10952
7,21913	9769
7,22327	9555
7,22738	8550
7,23150	8208
7,23562	8045
7,23975	7742
7,24387	7488
7,24798	7199
7,25212	8803
7,25623	7001
7,26035	7288
7,26448	7523
7,26860	7042
7,27272	7084
7,27685	6790
7,28097	6945
7,28508	6646
7,28922	6983
7,29333	7641
7,29745	7788
7,30158	8669
7,30570	7360
7,30982	9171
7,31395	8066
7,31807	8084
7,32218	8872
7,32630	7970
7,33043	8888
7,33455	8612
7,33867	8880
7,34280	8281
7,34692	7996
7,35103	8072
7,35517	7195
7,35928	7465
7,36340	7821
7,36753	7019
7,37165	8306
7,37577	7304
7,37990	6938
7,38402	6834
7,38813	7008
7,39227	6908
7,39638	6110
7,40050	7032
7,40463	6629
7,40875	6776
7,41287	6746
7,41698	6322
7,42112	6127
7,42523	6446
7,42935	6436
7,43348	6893
7,43760	5850
7,44172	7182
7,44585	5485
7,44997	5830
7,45408	5743
7,45822	6026
7,46233	5500
7,46645	6518
7,47058	5803
7,47470	6477
7,47882	6012
7,48295	5469
7,48707	4962
7,49118	5825
7,49532	5498
7,49943	5538
7,50355	4955
7,50767	5425
7,51180	5112
7,51592	5416
7,52003	4975
7,52417	4741
7,52828	5903
7,53240	5110
7,53653	5558
7,54065	5452
7,54477	5591
7,54890	5735
7,55302	5204
7,55713	4795
7,56127	5715
7,56538	5309
7,56950	5010
7,57363	5185
7,57775	4992
7,58187	5182
7,58600	5887
7,59012	5205
7,59423	5318
7,59837	5010
7,60248	5289
7,60660	5162
7,61072	5117
7,61485	5390
7,61897	5066
7,62308	4868
7,62722	5210
7,63133	5503
7,63545	4942
7,63958	5467
7,64370	5163
7,64782	5277
7,65195	5886
7,65607	5687
7,66018	4688
7,66432	5196
7,66843	4991
7,67255	5596
7,67668	5551
7,68080	5424
7,68492	5498
7,68905	5733
7,69317	5388
7,69728	4857
7,70140	5679
7,70553	5205
7,70965	5429
7,71377	5064
7,71790	5651
7,72202	4492
7,72613	5668
7,73027	7897
7,73438	11850
7,73850	23463
7,74263	41699
7,74675	76699
7,75087	133041
7,75500	214760
7,75912	311149
7,76323	419579
7,76737	525907
7,77148	623851
7,77560	695181
7,77973	729736
7,78385	734739
7,78797	713812
7,79208	683617
7,79622	636584
7,80033	582943
7,80445	531015
7,80858	483011
7,81270	430330
7,81682	384233
7,82095	339780
7,82507	296398
7,82918	255116
7,83332	223376
7,83743	193575
7,84155	164255
7,84568	144863
7,84980	119824
7,85392	102149
7,85805	87264
7,86217	71410
7,86628	61725
7,87042	53379
7,87453	45547
7,87865	38314
7,88277	33511
7,88690	29390
7,89102	26711
7,89513	24651
7,89927	20093
7,90338	19706
7,90750	17555
7,91163	15171
7,91575	14734
7,91987	14518
7,92400	13316
7,92812	10587
7,93223	11344
7,93637	10391
7,94048	10594
7,94460	9679
7,94873	9417
7,95285	8690
7,95697	7685
7,96110	7904
7,96522	7055
7,96933	8196
7,97345	6884
7,97758	7208
7,98170	7376
7,98582	7615
7,98995	6941
7,99407	5992
7,99818	6283
8,00232	5614
8,00643	6098
8,01055	5830
8,01468	5690
8,01880	6026
8,02292	5841
8,02705	5792
8,03117	5316
8,03528	5698
8,03942	5731
8,04353	5418
8,04765	5262
8,05178	5248
8,05590	6028
8,06002	5128
8,06413	5096
8,06827	5316
8,07238	4893
8,07650	5155
8,08063	4808
8,08475	4545
8,08887	5246
8,09300	5133
8,09712	5239
8,10123	4720
8,10537	4799
8,10948	5244
8,11360	5163
8,11773	4503
8,12185	4644
8,12597	4391
8,13010	4579
8,13422	4443
8,13833	5172
8,14247	4523
8,14658	5312
8,15070	4945
8,15482	4697
8,15895	4869
8,16307	4929
8,16718	5289
8,17132	4636
8,17543	4924
8,17955	5505
8,18368	4698
8,18780	4164
8,19192	4091
8,19605	4244
8,20017	4014
8,20428	4405
8,20842	4656
8,21253	4706
8,21665	3922
8,22078	3874
8,22490	4164
8,22902	3998
8,23315	4208
8,23727	4567
8,24138	4820
8,24550	4357
8,24963	4212
8,25375	3708
8,25787	4919
8,26200	4189
8,26612	4260
8,27023	3841
8,27437	4475
8,27848	4404
8,28260	5214
8,28673	4361
8,29085	4398
8,29497	4260
8,29910	5133
8,30322	4782
8,30733	4052
8,31147	4676
8,31558	4319
8,31970	4751
8,32383	4278
8,32795	3719
8,33207	4088
8,33618	4304
8,34032	3852
8,34443	4291
8,34855	3769
8,35268	4073
8,35680	4242
8,36092	3784
8,36505	4070
8,36917	4263
8,37328	3443
8,37742	4273
8,38153	3611
8,38565	4302
8,38978	4130
8,39390	4679
8,39802	4710
8,40215	5102
8,40627	6574
8,41038	6790
8,41452	6353
8,41863	7156
8,42275	6901
8,42687	7197
8,43100	6913
8,43512	6657
8,43923	6651
8,44337	6565
8,44748	7378
8,45160	6540
8,45573	5439
8,45985	6714
8,46397	5881
8,46810	5334
8,47222	4903
8,47633	5487
8,48047	5287
8,48458	5929
8,48870	4525
8,49283	4972
8,49695	4376
8,50107	4957
8,50520	5007
8,50932	7592
8,51343	11047
8,51755	19717
8,52168	38018
8,52580	64649
8,52992	104985
8,53405	156894
8,53817	222604
8,54228	299875
8,54642	359585
8,55053	406884
8,55465	445805
8,55878	450466
8,56290	449815
8,56702	424229
8,57115	390632
8,57527	346216
8,57938	308952
8,58352	273975
8,58763	235899
8,59175	200654
8,59588	169427
8,60000	139194
8,60412	116448
8,60823	93078
8,61237	74648
8,61648	62785
8,62060	50289
8,62473	41537
8,62885	34325
8,63297	31262
8,63710	25273
8,64122	20331
8,64533	18878
8,64947	16163
8,65358	14629
8,65770	12350
8,66183	12238
8,66595	10757
8,67007	10736
8,67420	8525
8,67832	8588
8,68243	8707
8,68657	7942
8,69068	6972
8,69480	6634
8,69892	6928
8,70305	7077
8,70717	6340
8,71128	6230
8,71542	5761
8,71953	5338
8,72365	5344
8,72778	4477
8,73190	4909
8,73602	5054
8,74015	4855
8,74427	4835
8,74838	4333
8,75252	4178
8,75663	5116
8,76075	3839
8,76488	4308
8,76900	4034
8,77312	5006
8,77725	4133
8,78137	4386
8,78548	4271
8,78960	4051
8,79373	3973
8,79785	3728
8,80197	4100
8,80610	3928
8,81022	4506
8,81433	3966
8,81847	3626
8,82258	4171
8,82670	4011
8,83083	4658
8,83495	3779
8,83907	3788
8,84320	3301
8,84732	3121
8,85143	3223
8,85557	3312
8,85968	3465
8,86380	3675
8,86793	3056
8,87205	3660
8,87617	3232
8,88028	3299
8,88442	3791
8,88853	3174
8,89265	3650
8,89678	3286
8,90090	3512
8,90502	3399
8,90915	4071
8,91327	3594
8,91738	2824
8,92152	3589
8,92563	3301
8,92975	4073
8,93388	4257
8,93800	3843
8,94212	4593
8,94625	5591
8,95037	4937
8,95448	5554
8,95862	5839
8,96273	5760
8,96685	5052
8,97097	4422
8,97510	5345
8,97922	5268
8,98333	4511
8,98747	3886
8,99158	3712
8,99570	3622
8,99983	4096
9,00395	2682
9,00807	3214
9,01220	4188
9,01632	3656
9,02043	3378
9,02457	2719
9,02868	2907
9,03280	2498
9,03693	3772
9,04105	3403
9,04517	2623
9,04930	3488
9,05342	3419
9,05753	2835
9,06165	2965
9,06578	3081
9,06990	3053
9,07402	3150
9,07815	3525
9,08227	3217
9,08638	2702
9,09052	2944
9,09463	2407
9,09875	2751
9,10288	2531
9,10700	2860
9,11112	2758
9,11525	2544
9,11937	3186
9,12348	2826
9,12762	3634
9,13173	2887
9,13585	2938
9,13998	3252
9,14410	2785
9,14822	3677
9,15233	2988
9,15647	3299
9,16058	3215
9,16470	4057
9,16883	4135
9,17295	4621
9,17707	4864
9,18120	4960
9,18532	4333
9,18943	4226
9,19357	4690
9,19768	4495
9,20180	4569
9,20593	4370
9,21005	4196
9,21417	3511
9,21830	3885
9,22242	3825
9,22653	3210
9,23067	2833
9,23478	2901
9,23890	3105
9,24303	2701
9,24715	3142
9,25127	2985
9,25538	2590
9,25952	3126
9,26363	2447
9,26775	2998
9,27188	2673
9,27600	3157
9,28012	2323
9,28425	3084
9,28837	2336
9,29248	2975
9,29662	2422
9,30073	2923
9,30485	2932
9,30898	2998
9,31310	3394
9,31722	6608
9,32135	11003
9,32547	22956
9,32958	43441
9,33372	83408
9,33783	154745
9,34195	252634
9,34607	385891
9,35020	544184
9,35432	715323
9,35843	863087
9,36257	992468
9,36668	1077628
9,37080	1111176
9,37493	1076129
9,37905	1010418
9,38317	906900
9,38730	782768
9,39142	649832
9,39553	534825
9,39967	425184
9,40378	336053
9,40790	273237
9,41203	208215
9,41615	158815
9,42027	127713
9,42440	100156
9,42852	79517
9,43263	62747
9,43675	51735
9,44088	44041
9,44500	38590
9,44912	31959
9,45325	28911
9,45737	25243
9,46148	23921
9,46562	21318
9,46973	20843
9,47385	19587
9,47798	18832
9,48210	17587
9,48622	16467
9,49035	17811
9,49447	16377
9,49858	14039
9,50272	14094
9,50683	12942
9,51095	11460
9,51508	11403
9,51920	10360
9,52332	8724
9,52743	8519
9,53157	8787
9,53568	8181
9,53980	7291
9,54393	6545
9,54805	7579
9,55217	5254
9,55630	5989
9,56042	5585
9,56453	4821
9,56867	4851
9,57278	4356
9,57690	5275
9,58103	4966
9,58515	4268
9,58927	4895
9,59340	5145
9,59752	5131
9,60163	5235
9,60577	6973
9,60988	7269
9,61400	6409
9,61812	6151
9,62225	6462
9,62637	4322
9,63048	4243
9,63462	4645
9,63873	4646
9,64285	3883
9,64698	4590
9,65110	5449
9,65522	5583
9,65935	5439
9,66347	6347
9,66758	6040
9,67172	7064
9,67583	5812
9,67995	6080
9,68408	5425
9,68820	4842
9,69232	5000
9,69645	4754
9,70057	5367
9,70468	4427
9,70880	4420
9,71293	3727
9,71705	3542
9,72117	3503
9,72530	3288
9,72942	3591
9,73353	2789
9,73767	2547
9,74178	3410
9,74590	3332
9,75003	3800
9,75415	3300
9,75827	4452
9,76240	4055
9,76652	4714
9,77063	4709
9,77477	4675
9,77888	4601
9,78300	4192
9,78713	4501
9,79125	4430
9,79537	3830
9,79948	3650
9,80362	3259
9,80773	3750
9,81185	3538
9,81598	3053
9,82010	3646
9,82422	2722
9,82835	2981
9,83247	2949
9,83658	2748
9,84072	3148
9,84483	2842
9,84895	3345
9,85308	2237
9,85720	2725
9,86132	2677
9,86545	2970
9,86957	2425
9,87368	2907
9,87782	2635
9,88193	2625
9,88605	2030
9,89017	2250
9,89430	2481
9,89842	2584
9,90253	2770
9,90667	3179
9,91078	2791
9,91490	2588
9,91903	2819
9,92315	4320
9,92727	10573
9,93140	17635
9,93552	36538
9,93963	66128
9,94377	110874
9,94788	171728
9,95200	246644
9,95613	331647
9,96025	412965
9,96437	481154
9,96850	529476
9,97262	541346
9,97673	529834
9,98085	494613
9,98498	440373
9,98910	376539
9,99322	310378
9,99735	253166
10,00147	207685
10,00558	157627
10,00972	121282
10,01383	93068
10,01795	74512
10,02208	59641
10,02620	47610
10,03032	40475
10,03445	32270
10,03857	26892
10,04268	21410
10,04682	18678
10,05093	16458
10,05505	15649
10,05918	12365
10,06330	11734
10,06742	10461
10,07153	9599
10,07567	8419
10,07978	7116
10,08390	7138
10,08803	7830
10,09215	7462
10,09627	6612
10,10040	5108
10,10452	4824
10,10863	4627
10,11277	4766
10,11688	5485
10,12100	4744
10,12513	4745
10,12925	4122
10,13337	4998
10,13750	4965
10,14162	5908
10,14573	7629
10,14987	13306
10,15398	26306
10,15810	45800
10,16222	84451
10,16635	141121
10,17047	217077
10,17458	313921
10,17872	411303
10,18283	499804
10,18695	569885
10,19108	617672
10,19520	624424
10,19932	581743
10,20345	541952
10,20757	463985
10,21168	387433
10,21582	304740
10,21993	241897
10,22405	185236
10,22818	139559
10,23230	105323
10,23642	81754
10,24055	63224
10,24467	50393
10,24878	39993
10,25290	32925
10,25703	27838
10,26115	24598
10,26527	20387
10,26940	16720
10,27352	16582
10,27763	14235
10,28177	12131
10,28588	13444
10,29000	11070
10,29413	10136
10,29825	9016
10,30237	7284
10,30650	8584
10,31062	6850
10,31473	6651
10,31887	6718
10,32298	5975
10,32710	6181
10,33123	5440
10,33535	4845
10,33947	5901
10,34358	5544
10,34772	4996
10,35183	5506
10,35595	3913
10,36008	4704
10,36420	3853
10,36832	4704
10,37245	4219
10,37657	3680
10,38068	3431
10,38482	3494
10,38893	3615
10,39305	4131
10,39718	3981
10,40130	3143
10,40542	3536
10,40955	3480
10,41367	3076
10,41778	2893
10,42192	3263
10,42603	3592
10,43015	2827
10,43427	2934
10,43840	3701
10,44252	2785
10,44663	3142
10,45077	3400
10,45488	2079
10,45900	3321
10,46313	2477
10,46725	2591
10,47137	2782
10,47550	2824
10,47962	2604
10,48373	2718
10,48787	1974
10,49198	2889
10,49610	2613
10,50023	2877
10,50435	2466
10,50847	2537
10,51260	2354
10,51672	2527
10,52083	2585
10,52495	2508
10,52908	2508
10,53320	2341
10,53732	2022
10,54145	2797
10,54557	2491
10,54968	2219
10,55382	2701
10,55793	3118
10,56205	2470
10,56618	2180
10,57030	2191
10,57442	1940
10,57855	2162
10,58267	2257
10,58678	2353
10,59092	2075
10,59503	2092
10,59915	2617
10,60328	2183
10,60740	2204
10,61152	2200
10,61563	1842
10,61977	2858
10,62388	2892
10,62800	1956
10,63213	1978
10,63625	2801
10,64037	2427
10,64450	1822
10,64862	1898
10,65273	2742
10,65687	1850
10,66098	2350
10,66510	2855
10,66923	1946
10,67335	2815
10,67747	2446
10,68160	2096
10,68572	2335
10,68983	2474
10,69397	2281
10,69808	2466
10,70220	2752
10,70632	2335
10,71045	2628
10,71457	2311
10,71868	2540
10,72282	2411
10,72693	2058
10,73105	1708
10,73518	2299
10,73930	1973
10,74342	2373
10,74755	2568
10,75167	2543
10,75578	4795
10,75992	9279
10,76403	20208
10,76815	38919
10,77228	71385
10,77640	126515
10,78052	199762
10,78465	292035
10,78877	396236
10,79288	487092
10,79700	571327
10,80113	615096
10,80525	622567
10,80937	584922
10,81350	536204
10,81762	454900
10,82173	372728
10,82587	299127
10,82998	226521
10,83410	175272
10,83823	132983
10,84235	102228
10,84647	79752
10,85060	59458
10,85472	50152
10,85883	38683
10,86297	32267
10,86708	27255
10,87120	23707
10,87533	20631
10,87945	15810
10,88357	15626
10,88770	13452
10,89182	11527
10,89593	11232
10,90005	10157
10,90418	8089
10,90830	8895
10,91242	8653
10,91655	8032
10,92067	6320
10,92478	5705
10,92892	5839
10,93303	5762
10,93715	5275
10,94128	4626
10,94540	4081
10,94952	4329
10,95365	5246
10,95777	4987
10,96188	5916
10,96602	7977
10,97013	17188
10,97425	33846
10,97838	65090
10,98250	126347
10,98662	222226
10,99073	374061
10,99487	578553
10,99898	852063
11,00310	1152676
11,00723	1487407
11,01135	1797599
11,01547	2002846
11,01960	2138142
11,02372	2110736
11,02783	1946264
11,03197	1660500
11,03608	1344958
11,04020	1032329
11,04433	769365
11,04845	563086
11,05257	414957
11,05670	301647
11,06082	226383
11,06493	177284
11,06907	137477
11,07318	114086
11,07730	94734
11,08142	78950
11,08555	67631
11,08967	58758
11,09378	51339
11,09792	45080
11,10203	39754
11,10615	35275
11,11028	33290
11,11440	29622
11,11852	26912
11,12265	25365
11,12677	22313
11,13088	21525
11,13502	20254
11,13913	18710
11,14325	18373
11,14738	16935
11,15150	16515
11,15562	13381
11,15975	13385
11,16387	13363
11,16798	12232
11,17210	11693
11,17623	10746
11,18035	10670
11,18447	9847
11,18860	8222
11,19272	9421
11,19683	8214
11,20097	8122
11,20508	9101
11,20920	7901
11,21333	6923
11,21745	6470
11,22157	6243
11,22570	6687
11,22982	6062
11,23393	5788
11,23807	5776
11,24218	5406
11,24630	4762
11,25043	5142
11,25455	5195
11,25867	4343
11,26278	5611
11,26692	4316
11,27103	4893
11,27515	3723
11,27928	4586
11,28340	4644
11,28752	3531
11,29165	4040
11,29577	3502
11,29988	3339
11,30402	3356
11,30813	4111
11,31225	3993
11,31638	4290
11,32050	3830
11,32462	4212
11,32875	4916
11,33287	5870
11,33698	7576
11,34112	7706
11,34523	8442
11,34935	5933
11,35347	5541
11,35760	4019
11,36172	3894
11,36583	3087
11,36997	3261
11,37408	2951
11,37820	3901
11,38233	3281
11,38645	3212
11,39057	3138
11,39470	2993
11,39882	3023
11,40293	2386
11,40707	3154
11,41118	2912
11,41530	3142
11,41943	2747
11,42355	3007
11,42767	3876
11,43180	3471
11,43592	4289
11,44003	3631
11,44415	3468
11,44828	3551
11,45240	2974
11,45652	3460
11,46065	3961
11,46477	3902
11,46888	5139
11,47302	8502
11,47713	17165
11,48125	34105
11,48538	68774
11,48950	113854
11,49362	182863
11,49775	278827
11,50187	386572
11,50598	498953
11,51012	590849
11,51423	651752
11,51835	667915
11,52248	633154
11,52660	574322
11,53072	482131
11,53483	391758
11,53897	304338
11,54308	238627
11,54720	173037
11,55133	127445
11,55545	101109
11,55957	76078
11,56370	62368
11,56782	51394
11,57193	40458
11,57607	33780
11,58018	29127
11,58430	25003
11,58843	21884
11,59255	18595
11,59667	17597
11,60080	15201
11,60492	13868
11,60903	14714
11,61317	14474
11,61728	13739
11,62140	12485
11,62552	14253
11,62965	12677
11,63377	12646
11,63788	11467
11,64202	10738
11,64613	12035
11,65025	12370
11,65438	12021
11,65850	12488
11,66262	11106
11,66675	11271
11,67087	9948
11,67498	8547
11,67912	9220
11,68323	8988
11,68735	6470
11,69148	7561
11,69560	5919
11,69972	5378
11,70385	4562
11,70797	4323
11,71208	4478
11,71620	4501
11,72033	3082
11,72445	2992
11,72857	2916
11,73270	4039
11,73682	3281
11,74093	3579
11,74507	3542
11,74918	3284
11,75330	2827
11,75743	3677
11,76155	2836
11,76567	3171
11,76980	3234
11,77392	3850
11,77803	4372
11,78217	8414
11,78628	16524
11,79040	34661
11,79453	67748
11,79865	117916
11,80277	191697
11,80688	298253
11,81102	413190
11,81513	532044
11,81925	648395
11,82338	724391
11,82750	748925
11,83162	723682
11,83575	644509
11,83987	548001
11,84398	442468
11,84812	343645
11,85223	256807
11,85635	189747
11,86048	142730
11,86460	105800
11,86872	81101
11,87285	63307
11,87697	48701
11,88108	41974
11,88522	34024
11,88933	28911
11,89345	25369
11,89757	22153
11,90170	19583
11,90582	18657
11,90993	16184
11,91407	13731
11,91818	13255
11,92230	13348
11,92643	11737
11,93055	10133
11,93467	10289
11,93880	9814
11,94292	8477
11,94703	7720
11,95117	8373
11,95528	7391
11,95940	7063
11,96353	7169
11,96765	6259
11,97177	5873
11,97590	6021
11,98002	5836
11,98413	5310
11,98825	5941
11,99238	4166
11,99650	4979
12,00062	3104
12,00475	4834
12,00887	4110
12,01298	4680
12,01712	3767
12,02123	4619
12,02535	4898
12,02948	5027
12,03360	4828
12,03772	6022
12,04185	4739
12,04597	5299
12,05008	4313
12,05422	4768
12,05833	4557
12,06245	4234
12,06658	4357
12,07070	4144
12,07482	4064
12,07893	3830
12,08307	4544
12,08718	3908
12,09130	3854
12,09543	4341
12,09955	3003
12,10367	3579
12,10780	3491
12,11192	4142
12,11603	4495
12,12017	3212
12,12428	3215
12,12840	4224
12,13253	3345
12,13665	4458
12,14077	4185
12,14490	3475
12,14902	3542
12,15313	3453
12,15727	4013
12,16138	4326
12,16550	3446
12,16962	4223
12,17375	4478
12,17787	3913
12,18198	4090
12,18612	3926
12,19023	3352
12,19435	3856
12,19848	2969
12,20260	4146
12,20672	3030
12,21085	3110
12,21497	2690
12,21908	3321
12,22322	2350
12,22733	2159
12,23145	2216
12,23558	2602
12,23970	3320
12,24382	2429
12,24795	2832
12,25207	2453
12,25618	2802
12,26030	3365
12,26443	2772
12,26855	3137
12,27267	4418
12,27680	8743
12,28092	16504
12,28503	33165
12,28917	60297
12,29328	108407
12,29740	179970
12,30153	276963
12,30565	392421
12,30977	503087
12,31390	619026
12,31802	699088
12,32213	739190
12,32627	715876
12,33038	649952
12,33450	551551
12,33863	443862
12,34275	344165
12,34687	262340
12,35098	196518
12,35512	150245
12,35923	109736
12,36335	88326
12,36748	68793
12,37160	54517
12,37572	45046
12,37985	36271
12,38397	31960
12,38808	28345
12,39222	23068
12,39633	21022
12,40045	17957
12,40458	16489
12,40870	14926
12,41282	14502
12,41695	11830
12,42107	11826
12,42518	11938
12,42932	9794
12,43343	9603
12,43755	8765
12,44168	7446
12,44580	7313
12,44992	7215
12,45403	6818
12,45817	5907
12,46228	6490
12,46640	6824
12,47053	3895
12,47465	4727
12,47877	4370
12,48290	5011
12,48702	4848
12,49113	4774
12,49527	4528
12,49938	4453
12,50350	3548
12,50763	4448
12,51175	4024
12,51587	3652
12,52000	4590
12,52412	3741
12,52823	4047
12,53237	3872
12,53648	4468
12,54060	3626
12,54472	2788
12,54885	2873
12,55297	3018
12,55708	3537
12,56122	3206
12,56533	4588
12,56945	6808
12,57358	10174
12,57770	18942
12,58182	37394
12,58595	69576
12,59007	127434
12,59418	223764
12,59832	357112
12,60243	539809
12,60655	762951
12,61068	1006660
12,61480	1251990
12,61892	1469552
12,62305	1612094
12,62717	1633183
12,63128	1545413
12,63540	1366095
12,63953	1126116
12,64365	872719
12,64777	656376
12,65190	476565
12,65602	350687
12,66013	258396
12,66427	197162
12,66838	148264
12,67250	119518
12,67663	97315
12,68075	80955
12,68487	67429
12,68900	58432
12,69312	52475
12,69723	44305
12,70137	39613
12,70548	36295
12,70960	33045
12,71373	30555
12,71785	26802
12,72197	24000
12,72608	24440
12,73022	21441
12,73433	19728
12,73845	19470
12,74258	17547
12,74670	16749
12,75082	14259
12,75495	15635
12,75907	14458
12,76318	13145
12,76732	12573
12,77143	12326
12,77555	12018
12,77968	9564
12,78380	9627
12,78792	9849
12,79205	7964
12,79617	8606
12,80028	7786
12,80442	7951
12,80853	8549
12,81265	7137
12,81677	6734
12,82090	6411
12,82502	6429
12,82913	6592
12,83327	5045
12,83738	5796
12,84150	6669
12,84563	6834
12,84975	7420
12,85387	10702
12,85800	19321
12,86212	36353
12,86623	66411
12,87037	116705
12,87448	187924
12,87860	282407
12,88273	394663
12,88685	525637
12,89097	632981
12,89510	730979
12,89922	779740
12,90333	773627
12,90745	706585
12,91158	608095
12,91570	499949
12,91982	393468
12,92395	295693
12,92807	223374
12,93218	163513
12,93632	126105
12,94043	93934
12,94455	75282
12,94868	63659
12,95280	49383
12,95692	43636
12,96105	38311
12,96517	29852
12,96928	28972
12,97342	24973
12,97753	23001
12,98165	19683
12,98578	18390
12,98990	17653
12,99402	21264
12,99813	25893
13,00227	41097
13,00638	70171
13,01050	124059
13,01463	210219
13,01875	336165
13,02287	514443
13,02700	733026
13,03112	983719
13,03523	1222295
13,03937	1408599
13,04348	1536779
13,04760	1538916
13,05173	1446012
13,05585	1265358
13,05997	1033567
13,06410	804443
13,06822	607602
13,07233	441847
13,07647	332461
13,08058	247406
13,08470	188131
13,08882	147497
13,09295	117703
13,09707	97839
13,10118	83644
13,10532	73395
13,10943	63411
13,11355	54643
13,11768	49039
13,12180	44359
13,12592	39544
13,13005	36582
13,13417	32261
13,13828	29896
13,14242	26362
13,14653	24332
13,15065	22939
13,15478	21282
13,15890	21108
13,16302	21476
13,16715	19961
13,17127	18232
13,17538	17317
13,17950	17079
13,18363	16129
13,18775	12860
13,19187	14187
13,19600	13227
13,20012	11311
13,20423	9803
13,20837	10676
13,21248	10228
13,21660	9600
13,22073	9308
13,22485	8944
13,22897	9224
13,23310	8489
13,23722	8336
13,24133	7856
13,24547	7532
13,24958	7886
13,25370	8123
13,25783	6850
13,26195	7278
13,26607	7810
13,27018	7941
13,27432	6376
13,27843	6504
13,28255	5490
13,28668	5159
13,29080	6099
13,29492	7188
13,29905	6628
13,30317	7566
13,30728	9945
13,31142	15735
13,31553	33305
13,31965	61791
13,32378	113446
13,32790	186521
13,33202	288917
13,33615	402407
13,34027	527148
13,34438	628581
13,34852	707087
13,35263	743770
13,35675	711354
13,36087	640439
13,36500	535355
13,36912	431202
13,37323	334006
13,37737	255988
13,38148	192155
13,38560	143192
13,38973	109833
13,39385	86345
13,39797	69303
13,40210	56890
13,40622	46795
13,41033	40594
13,41447	34700
13,41858	27963
13,42270	27821
13,42683	25698
13,43095	21510
13,43507	18584
13,43920	19644
13,44332	16204
13,44743	16577
13,45155	13324
13,45568	13727
13,45980	12402
13,46392	10771
13,46805	11442
13,47217	9596
13,47628	12091
13,48042	10518
13,48453	11168
13,48865	10116
13,49278	10255
13,49690	9227
13,50102	9477
13,50515	9233
13,50927	10351
13,51338	8746
13,51752	9820
13,52163	9173
13,52575	9494
13,52988	8716
13,53400	8572
13,53812	7894
13,54223	8066
13,54637	7257
13,55048	8226
13,55460	7688
13,55873	6623
13,56285	7442
13,56697	7276
13,57110	7212
13,57522	5624
13,57933	6807
13,58347	6479
13,58758	6622
13,59170	6895
13,59583	6924
13,59995	6258
13,60407	6587
13,60820	5832
13,61232	5465
13,61643	4606
13,62057	5293
13,62468	5142
13,62880	5795
13,63292	7653
13,63705	11756
13,64117	23733
13,64528	45482
13,64942	78669
13,65353	137910
13,65765	221035
13,66178	329325
13,66590	447001
13,67002	559626
13,67415	646870
13,67827	697114
13,68238	698736
13,68652	650237
13,69063	572432
13,69475	462386
13,69888	362660
13,70300	283410
13,70712	208541
13,71125	158481
13,71537	120707
13,71948	90960
13,72360	72805
13,72773	58011
13,73185	49704
13,73597	41060
13,74010	33379
13,74422	31284
13,74833	27024
13,75247	24554
13,75658	24856
13,76070	20935
13,76483	19384
13,76895	15983
13,77307	16919
13,77720	16840
13,78132	15470
13,78543	14210
13,78957	13120
13,79368	12038
13,79780	12808
13,80193	11846
13,80605	11310
13,81017	11887
13,81428	9334
13,81842	9601
13,82253	7563
13,82665	7916
13,83078	7972
13,83490	7769
13,83902	7350
13,84315	7476
13,84727	7457
13,85138	6328
13,85552	8064
13,85963	7003
13,86375	6948
13,86788	7610
13,87200	6429
13,87612	6281
13,88025	5609
13,88437	5474
13,88848	7222
13,89262	6549
13,89673	6329
13,90085	6897
13,90497	6767
13,90910	6846
13,91322	6701
13,91733	5845
13,92147	7711
13,92558	5390
13,92970	5838
13,93383	6904
13,93795	5818
13,94207	4687
13,94620	5788
13,95032	5141
13,95443	4541
13,95857	4531
13,96268	4333
13,96680	5173
13,97093	5058
13,97505	5325
13,97917	5179
13,98330	4834
13,98742	4413
13,99153	4874
13,99565	4478
13,99978	4504
14,00390	4631
14,00802	5260
14,01215	3974
14,01627	4589
14,02038	4733
14,02452	3699
14,02863	4133
14,03275	4295
14,03688	4460
14,04100	4285
14,04512	4277
14,04925	4820
14,05337	5198
14,05748	4164
14,06162	3958
14,06573	4205
14,06985	3240
14,07398	4033
14,07810	5642
14,08222	5664
14,08635	10607
14,09047	20460
14,09458	40275
14,09870	83534
14,10283	153311
14,10695	271221
14,11107	446334
14,11520	676183
14,11932	956453
14,12343	1273886
14,12757	1605946
14,13168	1906054
14,13580	2161591
14,13993	2299211
14,14405	2317441
14,14817	2182195
14,15230	1918973
14,15642	1597146
14,16053	1255483
14,16467	943947
14,16878	699372
14,17290	512081
14,17703	383070
14,18115	291235
14,18527	231082
14,18938	185136
14,19352	153378
14,19763	131481
14,20175	111156
14,20588	96861
14,21000	83238
14,21412	75146
14,21825	70900
14,22237	60505
14,22648	55398
14,23062	51706
14,23473	48765
14,23885	43130
14,24298	39413
14,24710	35685
14,25122	33786
14,25535	33865
14,25947	30697
14,26358	26496
14,26772	26939
14,27183	25012
14,27595	24012
14,28007	23869
14,28420	22064
14,28832	21648
14,29243	20339
14,29657	18281
14,30068	18026
14,30480	19500
14,30893	18216
14,31305	19132
14,31717	20830
14,32130	20453
14,32542	22194
14,32953	23989
14,33367	24118
14,33778	25747
14,34190	24802
14,34603	23280
14,35015	21681
14,35427	19295
14,35840	18711
14,36252	19866
14,36663	20314
14,37075	25219
14,37488	35178
14,37900	57322
14,38312	97462
14,38725	155947
14,39137	236860
14,39548	337257
14,39962	441900
14,40373	531526
14,40785	606773
14,41198	634400
14,41610	595805
14,42022	544641
14,42435	462919
14,42847	377632
14,43258	296783
14,43672	218913
14,44083	169999
14,44495	126220
14,44908	102233
14,45320	78117
14,45732	62237
14,46143	53047
14,46557	44830
14,46968	39537
14,47380	34221
14,47793	30765
14,48205	28922
14,48617	27790
14,49030	29989
14,49442	34010
14,49853	45384
14,50267	73237
14,50678	117115
14,51090	183337
14,51503	280095
14,51915	400879
14,52327	539111
14,52740	672179
14,53152	776676
14,53563	833024
14,53977	842886
14,54388	780800
14,54800	679388
14,55212	561856
14,55625	442088
14,56037	345425
14,56448	257404
14,56862	194130
14,57273	150607
14,57685	118731
14,58098	94720
14,58510	80007
14,58922	71699
14,59335	62126
14,59747	53484
14,60158	52153
14,60572	48294
14,60983	39912
14,61395	37846
14,61808	33178
14,62220	30210
14,62632	26251
14,63045	24114
14,63457	22515
14,63868	22320
14,64280	21068
14,64693	19221
14,65105	16984
14,65517	17481
14,65930	17408
14,66342	16525
14,66753	15518
14,67167	14778
14,67578	16287
14,67990	14768
14,68403	13987
14,68815	14482
14,69227	12440
14,69640	13295
14,70052	12547
14,70463	11266
14,70877	12453
14,71288	11706
14,71700	11517
14,72113	10806
14,72525	9979
14,72937	10246
14,73348	9555
14,73762	11418
14,74173	8521
14,74585	8297
14,74998	9229
14,75410	7563
14,75822	9008
14,76235	9038
14,76647	8858
14,77058	7895
14,77472	8569
14,77883	7369
14,78295	7210
14,78708	6846
14,79120	8245
14,79532	7569
14,79945	8611
14,80357	6965
14,80768	9667
14,81182	10822
14,81593	15876
14,82005	25970
14,82417	44978
14,82830	79684
14,83242	139907
14,83653	232630
14,84067	357318
14,84478	510046
14,84890	672654
14,85303	817550
14,85715	921970
14,86127	951252
14,86540	926528
14,86952	823947
14,87363	684734
14,87777	539122
14,88188	407252
14,88600	307613
14,89013	232920
14,89425	175969
14,89837	139212
14,90250	113094
14,90662	92113
14,91073	76626
14,91485	65974
14,91898	56562
14,92310	51899
14,92722	45371
14,93135	41339
14,93547	40002
14,93958	34126
14,94372	31498
14,94783	28998
14,95195	28621
14,95608	25362
14,96020	22605
14,96432	24440
14,96845	22941
14,97257	21116
14,97668	20299
14,98082	21867
14,98493	23018
14,98905	19124
14,99318	18613
14,99730	18286
15,00142	15577
15,00553	17399
15,00967	15785
15,01378	15991
15,01790	12762
15,02203	13768
15,02615	12324
15,03027	11906
15,03440	11132
15,03852	12717
15,04263	11770
15,04677	13680
15,05088	11702
15,05500	12017
15,05913	10886
15,06325	11281
15,06737	10108
15,07150	9736
15,07562	10498
15,07973	11077
15,08387	8326
15,08798	9744
15,09210	9673
15,09622	11372
15,10035	15156
15,10447	22485
15,10858	35568
15,11272	62985
15,11683	113717
15,12095	187538
15,12508	288534
15,12920	411066
15,13332	537243
15,13745	659658
15,14157	737275
15,14568	758611
15,14982	724845
15,15393	646494
15,15805	544163
15,16218	447792
15,16630	344637
15,17042	263005
15,17455	204410
15,17867	154304
15,18278	122236
15,18690	98445
15,19103	81523
15,19515	66890
15,19927	57332
15,20340	49480
15,20752	45789
15,21163	39324
15,21577	35083
15,21988	32152
15,22400	29867
15,22813	28280
15,23225	26018
15,23637	24220
15,24050	24010
15,24462	21024
15,24873	20949
15,25287	19485
15,25698	18018
15,26110	16911
15,26523	16486
15,26935	16608
15,27347	16307
15,27758	14265
15,28172	14686
15,28583	15058
15,28995	14647
15,29408	14172
15,29820	15075
15,30232	14076
15,30645	11537
15,31057	12034
15,31468	12308
15,31882	11538
15,32293	12650
15,32705	11660
15,33118	10994
15,33530	11489
15,33942	10633
15,34355	10927
15,34767	11550
15,35178	11106
15,35592	11346
15,36003	10965
15,36415	11987
15,36827	10951
15,37240	11743
15,37652	11042
15,38063	10505
15,38477	11356
15,38888	10217
15,39300	10027
15,39713	9480
15,40125	10707
15,40537	9221
15,40950	9291
15,41362	9592
15,41773	9199
15,42187	10706
15,42598	9820
15,43010	10192
15,43423	11349
15,43835	10123
15,44247	9998
15,44660	9121
15,45072	9019
15,45483	9326
15,45895	8941
15,46308	9943
15,46720	9427
15,47132	10430
15,47545	9892
15,47957	10215
15,48368	9912
15,48782	10529
15,49193	9861
15,49605	9209
15,50018	8620
15,50430	10314
15,50842	11130
15,51255	14434
15,51667	19488
15,52078	33212
15,52492	61735
15,52903	102615
15,53315	181239
15,53728	300441
15,54140	470180
15,54552	701247
15,54965	993393
15,55377	1344456
15,55788	1723713
15,56200	2082184
15,56613	2397565
15,57025	2597487
15,57437	2608098
15,57850	2436211
15,58262	2099582
15,58673	1683102
15,59087	1300896
15,59498	989396
15,59910	728957
15,60323	552053
15,60735	424660
15,61147	335115
15,61560	266557
15,61972	221894
15,62383	191632
15,62797	164783
15,63208	143124
15,63620	126862
15,64033	112958
15,64445	101094
15,64857	93157
15,65268	86656
15,65682	78564
15,66093	72381
15,66505	66801
15,66918	63434
15,67330	58677
15,67742	57668
15,68155	54834
15,68567	51417
15,68978	47563
15,69392	46840
15,69803	44010
15,70215	40432
15,70628	39290
15,71040	39314
15,71452	37393
15,71865	36526
15,72277	32985
15,72688	34026
15,73102	34159
15,73513	31972
15,73925	29031
15,74337	28451
15,74750	28263
15,75162	27240
15,75573	25614
15,75987	26599
15,76398	24266
15,76810	25208
15,77223	22091
15,77635	24074
15,78047	24185
15,78460	22947
15,78872	24740
15,79283	30506
15,79697	38631
15,80108	57302
15,80520	94731
15,80933	143339
15,81345	219933
15,81757	320104
15,82170	426811
15,82582	552891
15,82993	632948
15,83405	688312
15,83818	686142
15,84230	637645
15,84642	568789
15,85055	478450
15,85467	390727
15,85878	328944
15,86292	288893
15,86703	280660
15,87115	308116
15,87528	364038
15,87940	443159
15,88352	520381
15,88765	602408
15,89177	646605
15,89588	675555
15,90002	655652
15,90413	629965
15,90825	591786
15,91238	579010
15,91650	578628
15,92062	634840
15,92473	724846
15,92887	826394
15,93298	909749
15,93710	973508
15,94123	977490
15,94535	916661
15,94947	811779
15,95360	680770
15,95772	549071
15,96183	430390
15,96597	338478
15,97008	265575
15,97420	215773
15,97833	172335
15,98245	145795
15,98657	127803
15,99070	110705
15,99482	99399
15,99893	84260
16,00307	76122
16,00718	71285
16,01130	68238
16,01542	64110
16,01955	59611
16,02367	53375
16,02778	50115
16,03192	48163
16,03603	44250
16,04015	42031
16,04428	39290
16,04840	37383
16,05252	36188
16,05665	34725
16,06077	33941
16,06488	30597
16,06902	30564
16,07313	28940
16,07725	29324
16,08138	27680
16,08550	27181
16,08962	27563
16,09375	27023
16,09787	27999
16,10198	29076
16,10610	29943
16,11023	29616
16,11435	27260
16,11847	24830
16,12260	23063
16,12672	23104
16,13083	22694
16,13497	20260
16,13908	21408
16,14320	20398
16,14733	19090
16,15145	19713
16,15557	19419
16,15970	19865
16,16382	19799
16,16793	20193
16,17207	18870
16,17618	19083
16,18030	21630
16,18443	22458
16,18855	28144
16,19267	40876
16,19678	59028
16,20092	99017
16,20503	162263
16,20915	244548
16,21328	362002
16,21740	506031
16,22152	660060
16,22565	823052
16,22977	939020
16,23388	1002364
16,23802	982076
16,24213	889922
16,24625	761426
16,25038	611668
16,25450	476447
16,25862	369196
16,26275	287003
16,26687	222533
16,27098	184610
16,27512	153142
16,27923	129175
16,28335	109560
16,28747	97092
16,29160	85934
16,29572	77897
16,29983	70804
16,30397	64801
16,30808	61036
16,31220	53296
16,31633	50953
16,32045	49925
16,32457	48247
16,32870	43102
16,33282	41189
16,33693	39668
16,34107	41135
16,34518	38640
16,34930	37372
16,35343	36481
16,35755	36343
16,36167	34329
16,36580	32743
16,36992	30357
16,37403	31310
16,37815	28682
16,38228	27335
16,38640	25963
16,39052	25603
16,39465	25313
16,39877	25143
16,40288	24542
16,40702	25023
16,41113	26582
16,41525	24612
16,41938	25263
16,42350	24062
16,42762	24725
16,43175	22699
16,43587	22505
16,43998	20728
16,44412	20503
16,44823	19617
16,45235	19451
16,45648	19486
16,46060	19884
16,46472	20472
16,46883	21238
16,47297	26042
16,47708	36694
16,48120	57147
16,48533	89986
16,48945	141783
16,49357	223626
16,49770	320294
16,50182	445642
16,50593	577618
16,51007	687449
16,51418	777577
16,51830	800686
16,52243	768409
16,52655	688664
16,53067	585359
16,53480	478938
16,53892	384001
16,54303	302878
16,54717	235994
16,55128	188456
16,55540	154020
16,55952	125786
16,56365	114843
16,56777	116492
16,57188	122833
16,57602	147432
16,58013	190057
16,58425	246967
16,58838	321900
16,59250	407893
16,59662	484237
16,60075	547031
16,60487	570725
16,60898	567005
16,61312	530661
16,61723	481587
16,62135	409308
16,62548	338396
16,62960	274226
16,63372	220228
16,63785	179274
16,64197	143862
16,64608	117318
16,65020	100857
16,65433	86972
16,65845	75189
16,66257	66476
16,66670	59571
16,67082	56001
16,67493	53256
16,67907	47870
16,68318	42351
16,68730	42107
16,69143	38109
16,69555	37116
16,69967	34259
16,70380	34512
16,70792	31581
16,71203	31073
16,71617	30337
16,72028	29410
16,72440	26310
16,72853	28801
16,73265	26011
16,73677	24500
16,74088	26259
16,74502	23815
16,74913	23924
16,75325	24239
16,75738	22289
16,76150	22326
16,76562	21648
16,76975	22910
16,77387	21439
16,77798	22833
16,78212	22708
16,78623	21749
16,79035	20539
16,79448	21437
16,79860	20095
16,80272	19585
16,80685	20258
16,81097	20384
16,81508	19503
16,81922	18389
16,82333	19157
16,82745	19599
16,83157	18431
16,83570	18228
16,83982	17998
16,84393	17635
16,84807	18021
16,85218	19291
16,85630	21575
16,86043	22815
16,86455	33108
16,86867	48538
16,87280	77806
16,87692	119912
16,88103	186247
16,88517	279880
16,88928	408762
16,89340	562865
16,89753	741665
16,90165	949789
16,90577	1167944
16,90990	1388531
16,91402	1593214
16,91813	1743290
16,92225	1801285
16,92638	1751920
16,93050	1586210
16,93462	1342484
16,93875	1080532
16,94287	846739
16,94698	652983
16,95112	502555
16,95523	398083
16,95935	327511
16,96348	269322
16,96760	229559
16,97172	198105
16,97585	177809
16,97997	158695
16,98408	139642
16,98822	128386
16,99233	117012
16,99645	108091
17,00058	100806
17,00470	92933
17,00882	88082
17,01293	80020
17,01707	74822
17,02118	71387
17,02530	70145
17,02943	64330
17,03355	61799
17,03767	58174
17,04180	55324
17,04592	54186
17,05003	49868
17,05417	50199
17,05828	48556
17,06240	46166
17,06653	46116
17,07065	43561
17,07477	40774
17,07890	40302
17,08302	39707
17,08713	35777
17,09127	35589
17,09538	34958
17,09950	36813
17,10362	35157
17,10775	35218
17,11187	33386
17,11598	32457
17,12012	30875
17,12423	31897
17,12835	31052
17,13248	31350
17,13660	29567
17,14072	30251
17,14485	30583
17,14897	30299
17,15308	26497
17,15722	28278
17,16133	26633
17,16545	27295
17,16958	26873
17,17370	27634
17,17782	25720
17,18195	24140
17,18607	23240
17,19018	25473
17,19432	24529
17,19843	24399
17,20255	24622
17,20667	24210
17,21080	23996
17,21492	22656
17,21903	21337
17,22317	22200
17,22728	22703
17,23140	23877
17,23553	23821
17,23965	24450
17,24377	25682
17,24790	31889
17,25202	44318
17,25613	61549
17,26027	95404
17,26438	142774
17,26850	205858
17,27263	294381
17,27675	397772
17,28087	513427
17,28500	642068
17,28912	736069
17,29323	832079
17,29735	860068
17,30148	844600
17,30560	776776
17,30972	685031
17,31385	578597
17,31797	477143
17,32208	391202
17,32622	311222
17,33033	256633
17,33445	208576
17,33858	180074
17,34270	153069
17,34682	133243
17,35095	121110
17,35507	107109
17,35918	95302
17,36332	87643
17,36743	82457
17,37155	73371
17,37568	68514
17,37980	63583
17,38392	59453
17,38803	56923
17,39217	54245
17,39628	50825
17,40040	49174
17,40453	44941
17,40865	45196
17,41277	40919
17,41690	40707
17,42102	39632
17,42513	38342
17,42927	35514
17,43338	35852
17,43750	34949
17,44163	34091
17,44575	33898
17,44987	29305
17,45400	31344
17,45812	30331
17,46223	31162
17,46637	28456
17,47048	30380
17,47460	28739
17,47872	27909
17,48285	28221
17,48697	25146
17,49108	27466
17,49522	25802
17,49933	26852
17,50345	26436
17,50758	24763
17,51170	24808
17,51582	24059
17,51995	24241
17,52407	23781
17,52818	23433
17,53232	22682
17,53643	24389
17,54055	21822
17,54468	21516
17,54880	20832
17,55292	22008
17,55705	21186
17,56117	22558
17,56528	22694
17,56940	21503
17,57353	23924
17,57765	22278
17,58177	21413
17,58590	22675
17,59002	22948
17,59413	21443
17,59827	23943
17,60238	25128
17,60650	25067
17,61063	25532
17,61475	28908
17,61887	27358
17,62300	29617
17,62712	28070
17,63123	24898
17,63537	25610
17,63948	23667
17,64360	22823
17,64773	21616
17,65185	21252
17,65597	19789
17,66008	17735
17,66422	20011
17,66833	17801
17,67245	18641
17,67658	16574
17,68070	19535
17,68482	18344
17,68895	18035
17,69307	17304
17,69718	17975
17,70132	19686
17,70543	17774
17,70955	17976
17,71368	18187
17,71780	19217
17,72192	18100
17,72605	20149
17,73017	19192
17,73428	18632
17,73842	16927
17,74253	16748
17,74665	15572
17,75077	18100
17,75490	17187
17,75902	16958
17,76313	18116
17,76727	17458
17,77138	16710
17,77550	18704
17,77963	18857
17,78375	18177
17,78787	17729
17,79200	18193
17,79612	18010
17,80023	17239
17,80437	18260
17,80848	15862
17,81260	17496
17,81673	17319
17,82085	17315
17,82497	17534
17,82910	16653
17,83322	17226
17,83733	18110
17,84145	16957
17,84558	18133
17,84970	16348
17,85382	17312
17,85795	17737
17,86207	19030
17,86618	17574
17,87032	18088
17,87443	15425
17,87855	17207
17,88268	17753
17,88680	15386
17,89092	18420
17,89505	15965
17,89917	15414
17,90328	16734
17,90742	16336
17,91153	18150
17,91565	17708
17,91978	16539
17,92390	15344
17,92802	16214
17,93213	15787
17,93627	16000
17,94038	15698
17,94450	16243
17,94863	14559
17,95275	15888
17,95687	17934
17,96100	15545
17,96512	16818
17,96923	18784
17,97337	17300
17,97748	15207
17,98160	15480
17,98573	16800
17,98985	15309
17,99397	16434
17,99810	17933
18,00222	17708
18,00633	17198
18,01047	17285
18,01458	16401
18,01870	17045
18,02282	16192
18,02695	14837
18,03107	17791
18,03518	13982
18,03932	16606
18,04343	16784
18,04755	15362
18,05168	14394
18,05580	17504
18,05992	14818
18,06405	17070
18,06817	15712
18,07228	15368
18,07642	15306
18,08053	15700
18,08465	15938
18,08878	15744
18,09290	15754
18,09702	15514
18,10115	17124
18,10527	16991
18,10938	16441
18,11350	16292
18,11763	15195
18,12175	17804
18,12587	14798
18,13000	16222
18,13412	15895
18,13823	16437
18,14237	14186
18,14648	16222
18,15060	16483
18,15473	16609
18,15885	15327
18,16297	15621
18,16710	16244
18,17122	15144
18,17533	15989
18,17947	19080
18,18358	16603
18,18770	16064
18,19183	15625
18,19595	14796
18,20007	15400
18,20418	14285
18,20832	15558
18,21243	15973
18,21655	14260
18,22068	14792
18,22480	14855
18,22892	14867
18,23305	15313
18,23717	14691
18,24128	14425
18,24542	15210
18,24953	15444
18,25365	15492
18,25778	16494
18,26190	16134
18,26602	15571
18,27015	14636
18,27427	14774
18,27838	15457
18,28252	15864
18,28663	14866
18,29075	14751
18,29487	15634
18,29900	15082
18,30312	15275
18,30723	14785
18,31137	14295
18,31548	14400
18,31960	15115
18,32373	13819
18,32785	14755
18,33197	15498
18,33610	14466
18,34022	16182
18,34433	15434
18,34847	16231
18,35258	15492
18,35670	15058
18,36083	15935
18,36495	14179
18,36907	16454
18,37320	14135
18,37732	15098
18,38143	17421
18,38555	18400
18,38968	23626
18,39380	29896
18,39792	39368
18,40205	57310
18,40617	78531
18,41028	114321
18,41442	152918
18,41853	200397
18,42265	258640
18,42678	312306
18,43090	365501
18,43502	411595
18,43915	418291
18,44327	421410
18,44738	405071
18,45152	374678
18,45563	346285
18,45975	298798
18,46388	260819
18,46800	220138
18,47212	188851
18,47623	161461
18,48037	134721
18,48448	118319
18,48860	103014
18,49273	88840
18,49685	77922
18,50097	70542
18,50510	62950
18,50922	57255
18,51333	51624
18,51747	49702
18,52158	47806
18,52570	42320
18,52983	39568
18,53395	40226
18,53807	38014
18,54220	35209
18,54632	33969
18,55043	34354
18,55457	31874
18,55868	30337
18,56280	30392
18,56692	30018
18,57105	29856
18,57517	27863
18,57928	26932
18,58342	27601
18,58753	24251
18,59165	25269
18,59578	24587
18,59990	23498
18,60402	24233
18,60815	24816
18,61227	23321
18,61638	22147
18,62052	21609
18,62463	20769
18,62875	23881
18,63288	23105
18,63700	20979
18,64112	22763
18,64525	21361
18,64937	21548
18,65348	21956
18,65760	20648
18,66173	19871
18,66585	21329
18,66997	20187
18,67410	20281
18,67822	20865
18,68233	21527
18,68647	19737
18,69058	20008
18,69470	20546
18,69883	20689
18,70295	19595
18,70707	19751
18,71120	19579
18,71532	18419
18,71943	17507
18,72357	18414
18,72768	18900
18,73180	18859
18,73593	19094
18,74005	17593
18,74417	18245
18,74828	16898
18,75242	17564
18,75653	16660
18,76065	19164
18,76478	17071
18,76890	18101
18,77302	15867
18,77715	18635
18,78127	18605
18,78538	18288
18,78952	18053
18,79363	18597
18,79775	16951
18,80188	16860
18,80600	18715
18,81012	17097
18,81425	17105
18,81837	17392
18,82248	16579
18,82662	16146
18,83073	15825
18,83485	16503
18,83898	17696
18,84310	14592
18,84722	17337
18,85133	16115
18,85547	17412
18,85958	17413
18,86370	17091
18,86783	17143
18,87195	17529
18,87607	16375
18,88020	17146
18,88432	16857
18,88843	18123
18,89257	16377
18,89668	17050
18,90080	18482
18,90493	15410
18,90905	17232
18,91317	16802
18,91730	17013
18,92142	17835
18,92553	17627
18,92967	17769
18,93378	19730
18,93790	16059
18,94202	18308
18,94615	16993
18,95027	16038
18,95438	16557
18,95852	16479
18,96263	17530
18,96675	17304
18,97088	17764
18,97500	16861
18,97912	19087
18,98325	18102
18,98737	16359
18,99148	16275
18,99562	17621
18,99973	16833
19,00385	18248
19,00798	16921
19,01210	16283
19,01622	16940
19,02035	16860
19,02447	17684
19,02858	17292
19,03270	16541
19,03683	17125
19,04095	16906
19,04507	17047
19,04920	18182
19,05332	17436
19,05743	16645
19,06157	16907
19,06568	16616
19,06980	17756
19,07393	16270
19,07805	18702
19,08217	16809
19,08630	15774
19,09042	16583
19,09453	17097
19,09867	17999
19,10278	16117
19,10690	17842
19,11103	16906
19,11515	15098
19,11927	16404
19,12338	16940
19,12752	16202
19,13163	15829
19,13575	17716
19,13988	16547
19,14400	17190
19,14812	17258
19,15225	15394
19,15637	15059
19,16048	15295
19,16462	16952
19,16873	16265
19,17285	17493
19,17698	15199
19,18110	17028
19,18522	17924
19,18935	17462
19,19347	17179
19,19758	16408
19,20172	16125
19,20583	17271
19,20995	15903
19,21407	16072
19,21820	17469
19,22232	16993
19,22643	14897
19,23057	15947
19,23468	17914
19,23880	16468
19,24293	17561
19,24705	18184
19,25117	16475
19,25530	15425
19,25942	15293
19,26353	17134
19,26767	16984
19,27178	15721
19,27590	15242
19,28003	16363
19,28415	14714
19,28827	16767
19,29240	16900
19,29652	15856
19,30063	17222
19,30475	15835
19,30888	16577
19,31300	15732
19,31712	15711
19,32125	14837
19,32537	16043
19,32948	16256
19,33362	14859
19,33773	15140
19,34185	15619
19,34598	15553
19,35010	16128
19,35422	17484
19,35835	13838
19,36247	15994
19,36658	15942
19,37072	13981
19,37483	15815
19,37895	15499
19,38308	17692
19,38720	19319
19,39132	18866
19,39543	18228
19,39957	18945
19,40368	18782
19,40780	19255
19,41193	18814
19,41605	16849
19,42017	17025
19,42430	18343
19,42842	15090
19,43253	15954
19,43667	14983
19,44078	17875
19,44490	17595
19,44903	17386
19,45315	16659
19,45727	17303
19,46140	16490
19,46552	18132
19,46963	18111
19,47377	19066
19,47788	16338
19,48200	16989
19,48612	16912
19,49025	17208
19,49437	17205
19,49848	18391
19,50262	18138
19,50673	17431
19,51085	18729
19,51498	16901
19,51910	17558
19,52322	18042
19,52735	19328
19,53147	16884
19,53558	17347
19,53972	17609
19,54383	18463
19,54795	18017
19,55208	15306
19,55620	17813
19,56032	17071
19,56445	17178
19,56857	16849
19,57268	16617
19,57680	16227
19,58093	17499
19,58505	17158
19,58917	15738
19,59330	16907
19,59742	14973
19,60153	16021
19,60567	15804
19,60978	15986
19,61390	15498
19,61803	15090
19,62215	15911
19,62627	15829
19,63040	16813
19,63452	14917
19,63863	17485
19,64277	15322
19,64688	15794
19,65100	15513
19,65513	16670
19,65925	14782
19,66337	15906
19,66748	15620
19,67162	16528
19,67573	14785
19,67985	15617
19,68398	15633
19,68810	16341
19,69222	15276
19,69635	15572
19,70047	15952
19,70458	15897
19,70872	15331
19,71283	16429
19,71695	14055
19,72108	15288
19,72520	16467
19,72932	15597
19,73345	15482
19,73757	17048
19,74168	17882
19,74582	17752
19,74993	16748
19,75405	17358
19,75817	16034
19,76230	16662
19,76642	16700
19,77053	15468
19,77467	17105
19,77878	16241
19,78290	17017
19,78703	16739
19,79115	16061
19,79527	16036
19,79940	16197
19,80352	15972
19,80763	17224
19,81177	16849
19,81588	16583
19,82000	15086
19,82413	15275
19,82825	15002
19,83237	17095
19,83650	14864
19,84062	15515
19,84473	16057
19,84885	15996
19,85298	15537
19,85710	15726
19,86122	14332
19,86535	15476
19,86947	15930
19,87358	15325
19,87772	17257
19,88183	16992
19,88595	15936
19,89008	16806
19,89420	16573
19,89832	17250
19,90245	17049
19,90657	15984
19,91068	15082
19,91482	16365
19,91893	14396
19,92305	16116
19,92718	15261
19,93130	16126
19,93542	15984
19,93953	15649
19,94367	16496
19,94778	15035
19,95190	15613
19,95603	16637
19,96015	15420
19,96427	15329
19,96840	17541
19,97252	15733
19,97663	15902
19,98077	15138
19,98488	15705
19,98900	13504
19,99313	16584
19,99725	14723
20,00137	13958
20,00550	16288
20,00962	15630
20,01373	16956
20,01787	15345
20,02198	16736
20,02610	14698
20,03022	15421
20,03435	15957
20,03847	15180
20,04258	15664
20,04672	14228
20,05083	15992
20,05495	14101
20,05908	14085
20,06320	16786
20,06732	15052
20,07145	16564
20,07557	15974
20,07968	15550
20,08382	13788
20,08793	14640
20,09205	15216
20,09618	14967
20,10030	15298
20,10442	16215
20,10855	14450
20,11267	15471
20,11678	17437
20,12090	14983
20,12503	14703
20,12915	16149
20,13327	15305
20,13740	14721
20,14152	15847
20,14563	15885
20,14977	14978
20,15388	16678
20,15800	15721
20,16213	14357
20,16625	16681
20,17037	15267
20,17450	15255
20,17862	15692
20,18273	16089
20,18687	16156
20,19098	15450
20,19510	15172
20,19923	16612
20,20335	15163
20,20747	15891
20,21158	14993
20,21572	15484
20,21983	15399
20,22395	13873
20,22808	14994
20,23220	15733
20,23632	14996
20,24045	15645
20,24457	14985
20,24868	15234
20,25282	15184
20,25693	14459
20,26105	16280
20,26518	16269
20,26930	15026
20,27342	16043
20,27755	15328
20,28167	14655
20,28578	13279
20,28992	13903
20,29403	15699
20,29815	14467
20,30228	11907
20,30640	14203
20,31052	14686
20,31463	15087
20,31877	14776
20,32288	14637
20,32700	15140
20,33113	15466
20,33525	15723
20,33937	15193
20,34350	15934
20,34762	14373
20,35173	15968
20,35587	16212
20,35998	17036
20,36410	13796
20,36823	16845
20,37235	13238
20,37647	14562
20,38060	14883
20,38472	15269
20,38883	15876
20,39297	14455
20,39708	16272
20,40120	15846
20,40532	15888
20,40945	14569
20,41357	14265
20,41768	17950
20,42182	16930
20,42593	17872
20,43005	18059
20,43418	17268
20,43830	15028
20,44242	15724
20,44655	15719
20,45067	16234
20,45478	15106
20,45892	14713
20,46303	15352
20,46715	14849
20,47128	15245
20,47540	15341
20,47952	15826
20,48365	15677
20,48777	15745
20,49188	16229
20,49600	15112
20,50013	16105
20,50425	14551
20,50837	14945
20,51250	15500
20,51662	16783
20,52073	16810
20,52487	17704
20,52898	17353
20,53310	15868
20,53723	16907
20,54135	18076
20,54547	17153
20,54960	17464
20,55372	17526
20,55783	17175
20,56197	18318
20,56608	16898
20,57020	16597
20,57433	17576
20,57845	14394
20,58257	14908
20,58668	16615
20,59082	14691
20,59493	15030
20,59905	15621
20,60318	15765
20,60730	14913
20,61142	13836
20,61555	14856
20,61967	13900
20,62378	15739
20,62792	15400
20,63203	15551
20,63615	14486
20,64028	14073
20,64440	15569
20,64852	13396
20,65265	16625
20,65677	16363
20,66088	14788
20,66502	17442
20,66913	16548
20,67325	16012
20,67737	16223
20,68150	16265
20,68562	15530
20,68973	16467
20,69387	16546
20,69798	16436
20,70210	16172
20,70623	15562
20,71035	17047
20,71447	16322
20,71860	16332
20,72272	15894
20,72683	15359
20,73097	15963
20,73508	14714
20,73920	16863
20,74333	15592
20,74745	14249
20,75157	15194
20,75570	14593
20,75982	14517
20,76393	14524
20,76805	15334
20,77218	16077
20,77630	14693
20,78042	13726
20,78455	13337
20,78867	13844
20,79278	15685
20,79692	16170
20,80103	16283
20,80515	15647
