D:\MassHunter\GCMS\1\data\Amal\Constant flow\110C\110C_1ml-min_5C-min_1.D Tue Jul 30 18:24:50 2024
Start of data points
5,59093	29707
5,59507	29588
5,59918	27441
5,60330	28033
5,60743	27680
5,61155	27498
5,61567	26235
5,61980	26332
5,62392	25381
5,62803	25827
5,63217	25359
5,63628	25023
5,64040	22964
5,64452	25058
5,64865	22728
5,65277	22839
5,65688	22679
5,66102	22568
5,66513	21842
5,66925	22498
5,67338	23108
5,67750	22460
5,68162	22199
5,68575	22889
5,68987	23800
5,69398	22241
5,69812	21501
5,70223	21751
5,70635	21526
5,71048	21433
5,71460	20407
5,71872	20971
5,72285	20368
5,72697	20868
5,73108	20036
5,73520	20361
5,73933	19860
5,74345	20371
5,74757	20519
5,75170	21078
5,75582	19732
5,75993	19762
5,76407	19809
5,76818	20471
5,77230	19819
5,77643	19059
5,78055	21259
5,78467	19138
5,78880	19061
5,79292	20350
5,79703	19221
5,80117	20240
5,80528	18676
5,80940	20797
5,81353	20603
5,81765	19500
5,82177	19992
5,82588	19501
5,83002	19288
5,83413	18988
5,83825	18993
5,84238	19196
5,84650	18664
5,85062	19038
5,85475	17996
5,85887	18430
5,86298	18088
5,86712	17841
5,87123	18060
5,87535	17893
5,87948	18850
5,88360	17241
5,88772	18418
5,89185	17453
5,89597	18569
5,90008	17072
5,90422	18120
5,90833	17818
5,91245	17059
5,91657	17806
5,92070	16792
5,92482	17312
5,92893	16815
5,93307	17190
5,93718	16230
5,94130	17271
5,94543	17019
5,94955	17371
5,95367	16764
5,95780	17341
5,96192	17383
5,96603	18209
5,97017	16232
5,97428	17149
5,97840	16637
5,98253	17170
5,98665	16031
5,99077	17163
5,99490	17295
5,99902	17104
6,00313	17033
6,00725	17232
6,01138	16886
6,01550	16520
6,01962	17156
6,02375	16557
6,02787	16964
6,03198	17662
6,03612	17137
6,04023	15368
6,04435	15712
6,04848	16608
6,05260	16359
6,05672	16689
6,06085	15095
6,06497	16034
6,06908	16971
6,07322	14890
6,07733	16732
6,08145	16520
6,08558	15150
6,08970	16127
6,09382	15573
6,09793	16497
6,10207	16301
6,10618	15727
6,11030	15427
6,11443	16371
6,11855	16300
6,12267	15606
6,12680	16386
6,13092	15114
6,13503	15472
6,13917	15977
6,14328	14345
6,14740	15166
6,15153	15070
6,15565	14277
6,15977	15260
6,16390	15525
6,16802	15128
6,17213	15793
6,17627	14801
6,18038	15188
6,18450	15424
6,18862	14656
6,19275	14245
6,19687	14606
6,20098	16097
6,20512	14755
6,20923	15123
6,21335	15591
6,21748	14461
6,22160	16510
6,22572	15760
6,22985	17205
6,23397	16972
6,23808	18106
6,24222	21339
6,24633	26186
6,25045	33881
6,25458	41066
6,25870	52930
6,26282	65791
6,26695	72398
6,27107	83663
6,27518	91732
6,27930	93615
6,28343	95837
6,28755	96816
6,29167	93448
6,29580	90016
6,29992	89315
6,30403	84381
6,30817	82798
6,31228	77146
6,31640	71134
6,32053	66608
6,32465	65445
6,32877	62050
6,33290	56300
6,33702	55386
6,34113	49978
6,34527	50321
6,34938	47777
6,35350	45881
6,35763	42129
6,36175	42143
6,36587	38405
6,36998	38412
6,37412	36547
6,37823	32395
6,38235	32711
6,38648	30697
6,39060	32140
6,39472	29909
6,39885	29628
6,40297	27157
6,40708	26398
6,41122	26869
6,41533	25026
6,41945	24112
6,42358	23327
6,42770	20914
6,43182	20811
6,43595	18731
6,44007	18674
6,44418	18229
6,44832	17476
6,45243	17125
6,45655	17585
6,46067	16171
6,46480	15437
6,46892	15794
6,47303	16020
6,47717	13834
6,48128	15610
6,48540	13823
6,48953	13776
6,49365	13277
6,49777	13432
6,50190	12653
6,50602	12444
6,51013	12177
6,51427	11581
6,51838	12868
6,52250	11914
6,52663	12751
6,53075	11341
6,53487	11191
6,53900	12633
6,54312	11132
6,54723	10743
6,55135	11762
6,55548	11309
6,55960	10720
6,56372	10782
6,56785	10768
6,57197	11036
6,57608	10234
6,58022	11017
6,58433	10096
6,58845	10608
6,59258	10401
6,59670	9647
6,60082	10983
6,60495	10489
6,60907	10641
6,61318	11289
6,61732	9882
6,62143	10288
6,62555	10416
6,62968	9654
6,63380	9814
6,63792	10892
6,64203	10622
6,64617	10558
6,65028	9068
6,65440	9487
6,65853	9838
6,66265	9406
6,66677	9403
6,67090	10157
6,67502	9618
6,67913	9211
6,68327	9624
6,68738	9834
6,69150	9399
6,69563	10279
6,69975	9767
6,70387	9480
6,70800	9670
6,71212	9807
6,71623	8905
6,72037	10419
6,72448	9732
6,72860	10096
6,73272	10703
6,73685	10274
6,74097	9613
6,74508	9936
6,74922	9203
6,75333	9381
6,75745	10085
6,76158	8682
6,76570	9740
6,76982	8976
6,77395	9386
6,77807	10071
6,78218	10097
6,78632	10101
6,79043	10056
6,79455	9643
6,79868	9479
6,80280	10167
6,80692	9655
6,81105	9207
6,81517	9731
6,81928	9560
6,82340	9590
6,82753	9900
6,83165	9755
6,83577	9755
6,83990	9392
6,84402	10039
6,84813	9168
6,85227	9389
6,85638	9888
6,86050	9062
6,86463	9839
6,86875	9382
6,87287	9997
6,87700	9437
6,88112	9422
6,88523	8864
6,88937	9014
6,89348	8292
6,89760	9012
6,90173	9542
6,90585	8386
6,90997	8335
6,91408	9250
6,91822	9024
6,92233	8787
6,92645	9231
6,93058	9147
6,93470	9584
6,93882	7869
6,94295	8405
6,94707	8897
6,95118	8264
6,95532	8691
6,95943	7834
6,96355	8765
6,96768	8280
6,97180	8260
6,97592	8005
6,98005	8328
6,98417	8281
6,98828	8160
6,99242	8505
6,99653	8826
7,00065	7903
7,00477	7605
7,00890	8168
7,01302	8639
7,01713	8149
7,02127	8453
7,02538	7915
7,02950	8573
7,03363	7993
7,03775	8585
7,04187	8187
7,04600	7665
7,05012	8559
7,05423	9113
7,05837	8187
7,06248	8724
7,06660	7590
7,07073	9038
7,07485	8981
7,07897	8116
7,08310	8197
7,08722	8402
7,09133	7951
7,09545	7707
7,09958	9003
7,10370	8221
7,10782	8054
7,11195	8081
7,11607	8809
7,12018	8286
7,12432	8175
7,12843	8281
7,13255	8356
7,13668	7696
7,14080	8992
7,14492	8428
7,14905	8399
7,15317	8270
7,15728	7706
7,16142	8883
7,16553	9013
7,16965	8300
7,17378	8072
7,17790	8626
7,18202	8180
7,18613	7848
7,19027	8324
7,19438	7879
7,19850	8230
7,20263	7952
7,20675	7819
7,21087	8317
7,21500	7491
7,21912	7859
7,22323	7574
7,22737	7630
7,23148	7262
7,23560	7698
7,23973	7415
7,24385	7761
7,24797	7093
7,25210	8189
7,25622	7732
7,26033	7620
7,26447	8354
7,26858	8945
7,27270	8339
7,27683	8858
7,28095	8489
7,28507	8294
7,28918	8422
7,29332	8867
7,29743	8478
7,30155	8259
7,30568	9678
7,30980	8300
7,31392	9086
7,31805	9485
7,32217	8424
7,32628	7993
7,33042	8763
7,33453	8838
7,33865	7696
7,34278	8543
7,34690	7770
7,35102	8513
7,35515	7429
7,35927	8425
7,36338	7548
7,36752	7668
7,37163	7308
7,37575	7007
7,37987	7563
7,38400	7412
7,38812	7262
7,39223	6859
7,39637	8005
7,40048	7285
7,40460	7711
7,40873	7819
7,41285	7295
7,41697	7716
7,42110	7542
7,42522	6890
7,42933	7311
7,43347	6355
7,43758	7792
7,44170	7052
7,44583	6520
7,44995	6181
7,45407	7206
7,45820	7824
7,46232	6697
7,46643	6759
7,47055	6790
7,47468	6521
7,47880	6360
7,48292	6934
7,48705	6191
7,49117	6369
7,49528	6700
7,49942	6573
7,50353	7096
7,50765	7019
7,51178	7245
7,51590	6425
7,52002	7339
7,52415	6495
7,52827	7005
7,53238	6822
7,53652	6930
7,54063	6582
7,54475	7320
7,54888	6541
7,55300	7194
7,55712	6431
7,56123	6708
7,56537	6558
7,56948	6569
7,57360	6946
7,57773	7148
7,58185	6335
7,58597	6259
7,59010	6170
7,59422	6021
7,59833	6450
7,60247	5980
7,60658	6074
7,61070	6517
7,61483	6645
7,61895	6784
7,62307	6662
7,62720	6550
7,63132	6764
7,63543	6561
7,63957	6009
7,64368	5943
7,64780	5799
7,65192	6129
7,65605	6098
7,66017	6688
7,66428	6772
7,66842	6226
7,67253	6107
7,67665	5960
7,68078	6266
7,68490	6177
7,68902	6081
7,69315	5439
7,69727	7218
7,70138	6884
7,70552	6260
7,70963	6655
7,71375	7154
7,71788	6378
7,72200	6215
7,72612	6839
7,73025	5938
7,73437	5969
7,73848	6179
7,74260	7080
7,74673	6669
7,75085	6670
7,75497	6011
7,75910	5676
7,76322	6370
7,76733	5960
7,77147	6940
7,77558	6842
7,77970	5787
7,78383	6107
7,78795	6191
7,79207	6012
7,79620	6368
7,80032	6216
7,80443	6040
7,80857	6504
7,81268	6353
7,81680	6809
7,82093	6165
7,82505	6078
7,82917	6672
7,83328	6486
7,83742	6243
7,84153	6521
7,84565	6776
7,84978	6696
7,85390	6310
7,85802	6032
7,86215	6733
7,86627	5987
7,87038	5484
7,87452	5885
7,87863	5847
7,88275	6208
7,88688	6277
7,89100	6481
7,89512	5805
7,89925	5499
7,90337	5467
7,90748	6723
7,91162	6033
7,91573	5961
7,91985	5910
7,92397	5797
7,92810	5842
7,93222	6277
7,93633	5914
7,94047	5684
7,94458	5574
7,94870	5300
7,95283	5997
7,95695	5275
7,96107	5668
7,96520	5256
7,96932	6306
7,97343	5902
7,97757	6802
7,98168	7847
7,98580	10654
7,98993	14908
7,99405	22493
7,99817	34243
8,00230	53789
8,00642	81347
8,01053	116650
8,01465	161905
8,01878	210209
8,02290	261795
8,02702	310234
8,03115	351517
8,03527	382049
8,03938	404699
8,04352	411293
8,04763	413749
8,05175	412562
8,05588	395729
8,06000	371078
8,06412	358452
8,06825	328077
8,07237	305176
8,07648	283988
8,08062	259443
8,08473	241557
8,08885	218097
8,09298	201346
8,09710	183398
8,10122	168409
8,10533	152313
8,10947	142337
8,11358	128411
8,11770	114443
8,12183	104353
8,12595	94743
8,13007	84949
8,13420	78520
8,13832	66818
8,14243	62095
8,14657	54427
8,15068	48136
8,15480	44379
8,15893	40474
8,16305	34688
8,16717	31337
8,17130	29587
8,17542	25308
8,17953	24474
8,18367	22459
8,18778	18757
8,19190	18389
8,19602	17426
8,20015	16049
8,20427	15298
8,20838	13890
8,21252	13652
8,21663	12787
8,22075	11907
8,22488	11961
8,22900	10839
8,23312	11069
8,23725	10251
8,24137	9579
8,24548	9843
8,24962	8394
8,25373	9441
8,25785	8120
8,26198	8617
8,26610	8087
8,27022	8400
8,27435	8699
8,27847	7759
8,28258	7988
8,28670	6501
8,29083	7872
8,29495	7151
8,29907	6993
8,30320	7046
8,30732	7336
8,31143	6178
8,31557	6910
8,31968	6372
8,32380	6392
8,32793	7242
8,33205	6381
8,33617	6627
8,34030	5872
8,34442	6960
8,34853	5977
8,35267	6883
8,35678	6064
8,36090	6951
8,36503	5972
8,36915	5697
8,37327	5369
8,37738	6263
8,38152	6285
8,38563	5704
8,38975	6039
8,39388	5457
8,39800	6397
8,40212	5830
8,40625	5651
8,41037	5718
8,41448	4951
8,41862	6106
8,42273	6005
8,42685	7384
8,43098	6941
8,43510	6547
8,43922	6349
8,44335	7407
8,44747	6819
8,45158	6902
8,45572	6813
8,45983	6408
8,46395	6627
8,46807	5917
8,47220	5657
8,47632	5309
8,48043	6156
8,48457	5953
8,48868	5489
8,49280	4221
8,49693	5851
8,50105	4805
8,50517	6170
8,50930	5385
8,51342	5574
8,51753	5313
8,52167	4746
8,52578	5113
8,52990	5175
8,53403	5745
8,53815	5818
8,54227	5217
8,54640	5507
8,55052	5278
8,55463	4560
8,55875	4918
8,56288	4826
8,56700	5018
8,57112	4854
8,57525	5226
8,57937	4940
8,58348	4527
8,58762	4738
8,59173	5281
8,59585	4621
8,59998	4959
8,60410	4458
8,60822	4803
8,61235	4592
8,61647	4456
8,62058	4853
8,62472	4878
8,62883	4330
8,63295	4706
8,63708	4196
8,64120	4579
8,64532	5083
8,64943	5037
8,65357	4441
8,65768	4221
8,66180	4669
8,66593	4516
8,67005	4281
8,67417	4373
8,67830	5145
8,68242	4639
8,68653	4485
8,69067	4847
8,69478	4219
8,69890	4282
8,70303	4749
8,70715	4078
8,71127	4766
8,71540	4580
8,71952	4310
8,72363	4201
8,72777	3835
8,73188	4069
8,73600	4404
8,74012	4697
8,74425	4712
8,74837	5047
8,75248	4813
8,75662	4402
8,76073	4359
8,76485	5149
8,76898	4168
8,77310	4064
8,77722	4788
8,78135	4397
8,78547	4831
8,78958	4234
8,79372	3673
8,79783	4405
8,80195	4762
8,80608	4170
8,81020	4108
8,81432	4004
8,81845	4196
8,82257	5215
8,82668	4228
8,83082	4539
8,83493	4182
8,83905	4790
8,84317	4542
8,84730	4730
8,85142	4259
8,85553	5079
8,85967	4311
8,86378	3866
8,86790	4521
8,87203	3835
8,87615	4350
8,88027	4572
8,88440	4033
8,88852	4103
8,89263	4732
8,89677	5435
8,90088	4608
8,90500	4466
8,90913	4399
8,91325	4157
8,91737	4856
8,92150	4036
8,92562	4314
8,92973	3991
8,93385	4124
8,93798	4521
8,94210	4390
8,94622	4182
8,95035	4290
8,95447	4029
8,95858	3929
8,96272	3944
8,96683	4571
8,97095	4418
8,97508	4666
8,97920	3914
8,98332	3902
8,98745	4493
8,99157	4077
8,99568	4358
8,99982	3962
9,00393	3751
9,00805	4433
9,01218	4617
9,01630	4085
9,02042	4361
9,02453	4346
9,02867	4066
9,03278	3853
9,03690	4324
9,04103	4074
9,04515	3415
9,04927	4166
9,05340	3537
9,05752	4015
9,06163	4321
9,06577	4507
9,06988	3713
9,07400	4382
9,07813	3905
9,08225	4141
9,08637	4013
9,09050	4280
9,09462	4009
9,09873	4422
9,10287	4112
9,10698	4203
9,11110	5109
9,11522	5865
9,11935	6805
9,12347	10116
9,12758	15406
9,13172	24832
9,13583	35485
9,13995	55251
9,14408	75091
9,14820	103688
9,15232	134876
9,15645	167873
9,16057	195793
9,16468	225376
9,16882	247100
9,17293	265561
9,17705	275548
9,18118	276636
9,18530	267354
9,18942	261603
9,19355	248479
9,19767	230752
9,20178	214507
9,20590	200610
9,21003	184425
9,21415	166121
9,21827	145347
9,22240	135707
9,22652	117745
9,23063	103341
9,23477	91481
9,23888	84101
9,24300	71407
9,24713	63648
9,25125	56786
9,25537	49871
9,25950	41716
9,26362	38882
9,26773	33248
9,27187	30100
9,27598	25401
9,28010	24158
9,28423	20104
9,28835	19628
9,29247	17507
9,29658	15398
9,30072	14239
9,30483	12703
9,30895	12672
9,31308	12706
9,31720	12042
9,32132	11257
9,32545	11031
9,32957	9657
9,33368	9764
9,33782	10586
9,34193	8899
9,34605	8380
9,35018	9019
9,35430	6961
9,35842	8960
9,36255	7648
9,36667	7275
9,37078	7519
9,37492	7229
9,37903	7004
9,38315	6506
9,38727	5909
9,39140	6086
9,39552	6911
9,39963	6205
9,40377	6000
9,40788	5163
9,41200	5185
9,41613	5576
9,42025	5855
9,42437	5515
9,42850	5015
9,43262	5452
9,43673	5303
9,44087	4928
9,44498	5023
9,44910	4802
9,45323	5403
9,45735	5519
9,46147	4533
9,46560	3967
9,46972	4212
9,47383	4608
9,47795	4320
9,48208	4418
9,48620	3973
9,49032	4532
9,49445	4420
9,49857	3852
9,50268	3498
9,50682	4269
9,51093	4389
9,51505	4037
9,51918	3766
9,52330	4710
9,52742	3973
9,53155	4169
9,53567	4128
9,53978	4278
9,54392	4164
9,54803	4287
9,55215	3816
9,55628	4063
9,56040	3478
9,56452	4358
9,56863	3970
9,57277	3947
9,57688	4000
9,58100	3994
9,58513	3763
9,58925	3885
9,59337	4065
9,59750	2949
9,60162	4361
9,60573	3344
9,60987	3784
9,61398	3742
9,61810	4372
9,62223	4841
9,62635	4239
9,63047	4990
9,63460	4222
9,63872	4677
9,64283	4495
9,64697	4737
9,65108	3914
9,65520	3518
9,65932	3912
9,66345	3889
9,66757	3997
9,67168	4073
9,67582	4149
9,67993	4234
9,68405	3841
9,68818	3631
9,69230	3451
9,69642	3448
9,70055	4622
9,70467	4549
9,70878	3492
9,71292	3866
9,71703	3653
9,72115	3383
9,72528	3814
9,72940	3657
9,73352	3166
9,73765	2803
9,74177	2967
9,74588	3729
9,75000	2868
9,75413	3762
9,75825	3608
9,76237	3400
9,76650	3300
9,77062	3682
9,77473	3263
9,77887	3587
9,78298	3134
9,78710	3761
9,79123	3415
9,79535	3454
9,79947	3609
9,80360	3466
9,80772	3586
9,81183	3649
9,81597	3128
9,82008	3166
9,82420	3115
9,82833	3284
9,83245	3927
9,83657	3410
9,84068	3390
9,84482	3382
9,84893	3268
9,85305	3327
9,85718	3074
9,86130	3237
9,86542	2977
9,86955	2622
9,87367	2907
9,87778	3173
9,88192	3405
9,88603	3050
9,89015	3108
9,89428	3737
9,89840	3187
9,90252	3484
9,90665	2587
9,91077	2944
9,91488	2960
9,91902	3498
9,92313	3315
9,92725	3738
9,93137	3390
9,93550	3044
9,93962	3126
9,94373	2712
9,94787	2866
9,95198	3289
9,95610	3566
9,96023	3257
9,96435	2948
9,96847	2979
9,97260	3135
9,97672	3510
9,98083	3240
9,98497	3318
9,98908	3095
9,99320	2894
9,99733	3472
10,00145	2688
10,00557	2777
10,00970	3055
10,01382	2934
10,01793	2538
10,02205	2747
10,02618	3323
10,03030	3563
10,03442	3046
10,03855	3187
10,04267	3314
10,04678	3265
10,05092	2566
10,05503	3253
10,05915	2678
10,06328	2958
10,06740	3181
10,07152	2969
10,07565	3254
10,07977	2846
10,08388	3168
10,08802	3597
10,09213	2964
10,09625	3042
10,10038	3489
10,10450	2888
10,10862	2844
10,11273	3404
10,11687	2866
10,12098	3561
10,12510	2936
10,12923	2912
10,13335	3060
10,13747	3590
10,14160	2879
10,14572	3298
10,14983	3040
10,15397	2794
10,15808	3217
10,16220	3641
10,16633	2792
10,17045	2691
10,17457	2801
10,17870	2976
10,18282	3246
10,18693	2998
10,19107	3029
10,19518	3152
10,19930	2912
10,20342	3042
10,20755	3071
10,21167	3296
10,21578	2915
10,21992	2645
10,22403	2846
10,22815	2719
10,23228	3201
10,23640	3284
10,24052	3363
10,24465	2599
10,24877	2977
10,25288	3902
10,25702	3403
10,26113	3668
10,26525	3076
10,26938	2870
10,27350	3608
10,27762	3520
10,28175	3049
10,28587	3155
10,28998	3044
10,29410	3650
10,29823	3769
10,30235	3303
10,30647	3592
10,31060	2540
10,31472	3015
10,31883	3269
10,32297	3041
10,32708	3057
10,33120	2993
10,33533	3117
10,33945	2794
10,34357	2750
10,34770	2913
10,35182	2660
10,35593	2795
10,36007	2793
10,36418	4283
10,36830	5310
10,37243	8202
10,37655	12142
10,38067	20291
10,38478	32973
10,38892	53889
10,39303	86097
10,39715	126539
10,40128	183660
10,40540	249185
10,40952	323965
10,41365	398482
10,41777	476103
10,42188	549563
10,42602	606816
10,43013	665288
10,43425	691774
10,43838	695070
10,44250	692301
10,44662	671445
10,45075	627670
10,45487	583047
10,45898	527545
10,46312	471108
10,46723	419194
10,47135	367845
10,47548	319774
10,47960	272091
10,48372	237554
10,48783	196891
10,49197	172318
10,49608	143260
10,50020	123367
10,50433	103972
10,50845	90305
10,51257	76210
10,51670	64786
10,52082	55935
10,52493	48717
10,52907	42356
10,53318	36973
10,53730	35642
10,54143	30338
10,54555	28773
10,54967	24937
10,55380	22927
10,55792	21372
10,56203	20772
10,56617	17678
10,57028	16858
10,57440	16255
10,57852	16055
10,58265	13367
10,58677	12994
10,59088	12486
10,59502	12104
10,59913	10831
10,60325	11379
10,60738	10126
10,61150	9469
10,61562	9555
10,61975	9345
10,62387	8452
10,62798	8415
10,63212	8615
10,63623	8192
10,64035	7419
10,64448	7913
10,64860	6248
10,65272	6231
10,65685	6418
10,66097	7619
10,66508	6501
10,66920	5766
10,67333	6399
10,67745	6243
10,68157	6533
10,68570	5431
10,68982	5016
10,69393	5267
10,69807	5093
10,70218	4872
10,70630	4196
10,71043	5227
10,71455	4956
10,71867	4999
10,72280	4480
10,72692	4235
10,73103	4299
10,73517	4780
10,73928	4559
10,74340	3884
10,74753	4485
10,75165	3814
10,75577	4242
10,75988	4342
10,76402	3895
10,76813	4219
10,77225	3303
10,77638	3259
10,78050	2888
10,78462	3790
10,78875	3336
10,79287	3578
10,79698	3542
10,80112	3465
10,80523	3456
10,80935	3452
10,81348	3153
10,81760	2537
10,82172	3276
10,82585	3432
10,82997	3351
10,83408	2964
10,83822	3278
10,84233	3421
10,84645	3558
10,85057	3573
10,85470	3272
10,85882	3045
10,86293	2791
10,86707	2425
10,87118	2951
10,87530	2513
10,87943	3135
10,88355	3031
10,88767	3348
10,89180	2752
10,89592	2928
10,90003	3195
10,90417	2868
10,90828	2594
10,91240	2444
10,91653	2572
10,92065	3034
10,92477	3087
10,92890	3217
10,93302	3422
10,93713	2957
10,94125	3057
10,94538	3128
10,94950	2830
10,95362	2917
10,95775	2943
10,96187	2367
10,96598	3015
10,97012	2357
10,97423	2160
10,97835	2550
10,98248	3402
10,98660	2744
10,99072	2733
10,99485	2789
10,99897	2353
11,00308	2640
11,00722	2506
11,01133	3009
11,01545	2513
11,01958	2664
11,02370	2221
11,02782	3186
11,03193	2748
11,03607	2693
11,04018	2655
11,04430	2911
11,04843	2444
11,05255	2436
11,05667	2797
11,06080	2441
11,06492	2519
11,06903	2608
11,07317	2637
11,07728	2581
11,08140	3275
11,08553	2821
11,08965	3119
11,09377	3160
11,09790	2401
11,10202	2846
11,10613	2425
11,11027	2556
11,11438	2958
11,11850	2736
11,12262	3222
11,12675	3423
11,13087	4309
11,13498	4731
11,13912	4646
11,14323	4582
11,14735	5194
11,15148	5559
11,15560	5369
11,15972	6302
11,16385	6402
11,16797	6226
11,17208	5503
11,17622	5395
11,18033	5106
11,18445	5181
11,18858	5269
11,19270	5187
11,19682	4311
11,20095	4012
11,20507	4058
11,20918	3724
11,21330	4082
11,21743	3089
11,22155	3429
11,22567	3296
11,22980	2401
11,23392	3015
11,23803	3761
11,24217	3749
11,24628	3796
11,25040	3990
11,25453	4159
11,25865	4533
11,26277	4087
11,26690	4443
11,27102	3485
11,27513	2672
11,27927	2837
11,28338	2308
11,28750	2162
11,29163	2965
11,29575	2812
11,29987	2450
11,30398	2297
11,30812	2225
11,31223	2241
11,31635	2374
11,32048	2378
11,32460	1825
11,32872	2305
11,33285	2097
11,33697	2434
11,34108	2082
11,34522	2071
11,34933	2165
11,35345	2343
11,35758	2178
11,36170	2457
11,36582	2330
11,36995	2055
11,37407	1824
11,37818	2494
11,38232	2727
11,38643	1943
11,39055	2468
11,39467	2612
11,39880	2378
11,40292	2017
11,40703	2175
11,41117	2448
11,41528	1636
11,41940	1881
11,42353	1921
11,42765	2141
11,43177	2308
11,43590	2249
11,44002	1916
11,44413	2702
11,44827	2025
11,45238	2502
11,45650	2366
11,46063	2277
11,46475	2113
11,46887	2325
11,47300	2331
11,47712	2258
11,48123	2336
11,48535	1913
11,48948	1603
11,49360	2119
11,49772	1700
11,50185	1947
11,50597	1993
11,51008	1830
11,51422	1922
11,51833	2040
11,52245	1940
11,52658	2617
11,53070	2136
11,53482	2190
11,53895	2342
11,54307	2038
11,54718	2273
11,55132	2037
11,55543	2072
11,55955	1991
11,56368	1692
11,56780	2387
11,57192	2170
11,57603	2587
11,58017	2127
11,58428	2362
11,58840	2031
11,59253	2828
11,59665	1790
11,60077	1839
11,60490	2011
11,60902	2075
11,61313	1966
11,61727	2154
11,62138	1593
11,62550	1910
11,62963	2221
11,63375	2003
11,63787	1847
11,64200	1738
11,64612	1832
11,65023	2289
11,65437	1769
11,65848	2049
11,66260	2133
11,66672	2082
11,67085	2777
11,67497	2109
11,67908	1569
11,68322	2291
11,68733	2141
11,69145	1701
11,69558	2056
11,69970	3074
11,70382	3299
11,70795	4367
11,71207	6476
11,71618	10939
11,72032	18032
11,72443	29502
11,72855	46992
11,73268	70139
11,73680	102723
11,74092	139214
11,74505	179486
11,74917	236398
11,75328	280932
11,75740	329313
11,76153	363668
11,76565	390345
11,76977	407546
11,77390	409476
11,77802	402421
11,78213	379706
11,78627	353718
11,79038	319190
11,79450	284739
11,79863	249621
11,80275	217292
11,80687	182073
11,81100	152312
11,81512	125738
11,81923	106350
11,82337	88431
11,82748	74702
11,83160	64080
11,83573	52464
11,83985	45071
11,84397	38253
11,84808	33134
11,85222	29252
11,85633	26188
11,86045	21824
11,86458	19715
11,86870	17993
11,87282	16634
11,87695	15611
11,88107	13332
11,88518	11915
11,88932	11464
11,89343	10383
11,89755	9340
11,90168	9263
11,90580	9036
11,90992	8580
11,91405	7315
11,91817	7734
11,92228	6953
11,92642	6685
11,93053	6252
11,93465	6086
11,93877	5222
11,94290	5736
11,94702	5367
11,95113	4529
11,95527	5597
11,95938	4535
11,96350	3685
11,96763	4616
11,97175	4473
11,97587	5221
11,98000	3854
11,98412	4634
11,98823	4217
11,99237	4158
11,99648	3451
12,00060	3099
12,00473	3649
12,00885	3791
12,01297	3815
12,01710	2833
12,02122	3037
12,02533	3094
12,02947	3487
12,03358	2959
12,03770	3012
12,04182	2692
12,04595	2267
12,05007	2559
12,05418	2859
12,05832	3148
12,06243	2412
12,06655	3366
12,07068	3243
12,07480	2432
12,07892	2665
12,08305	2015
12,08717	3020
12,09128	2393
12,09542	2219
12,09953	2810
12,10365	2448
12,10778	2374
12,11190	2732
12,11602	3141
12,12015	2075
12,12427	2152
12,12838	2485
12,13250	2528
12,13663	2244
12,14075	1801
12,14487	2533
12,14900	2002
12,15312	1892
12,15723	2309
12,16137	2116
12,16548	2278
12,16960	2392
12,17373	1984
12,17785	2092
12,18197	2108
12,18610	2290
12,19022	1983
12,19433	2038
12,19847	1357
12,20258	2207
12,20670	1548
12,21083	2120
12,21495	1775
12,21907	2412
12,22318	2026
12,22732	2546
12,23143	2198
12,23555	2069
12,23968	1461
12,24380	2502
12,24792	2082
12,25205	1929
12,25617	2166
12,26028	1615
12,26442	2231
12,26853	1859
12,27265	2256
12,27678	1875
12,28090	1519
12,28502	1796
12,28915	1506
12,29327	1725
12,29738	2280
12,30152	1902
12,30563	1237
12,30975	1669
12,31387	2086
12,31800	1687
12,32212	1840
12,32623	1304
12,33037	1759
12,33448	1629
12,33860	1252
12,34273	1881
12,34685	1941
12,35097	1791
12,35510	1629
12,35922	1911
12,36333	1651
12,36747	1751
12,37158	1559
12,37570	2175
12,37983	1429
12,38395	1801
12,38807	1021
12,39220	1752
12,39632	1736
12,40043	2222
12,40455	2272
12,40868	2140
12,41280	1879
12,41692	1952
12,42105	2056
12,42517	2206
12,42928	1965
12,43342	2042
12,43753	2891
12,44165	2665
12,44578	2651
12,44990	3317
12,45402	2481
12,45815	2625
12,46227	3117
12,46638	3161
12,47052	3127
12,47463	3129
12,47875	2973
12,48288	2676
12,48700	2754
12,49112	2358
12,49523	2519
12,49937	2542
12,50348	2644
12,50760	2182
12,51173	2044
12,51585	1869
12,51997	2755
12,52410	2349
12,52822	2830
12,53233	2563
12,53647	2050
12,54058	3669
12,54470	2968
12,54883	3056
12,55295	3915
12,55707	2583
12,56120	2919
12,56532	2845
12,56943	2236
12,57357	2478
12,57768	2542
12,58180	2409
12,58592	2067
12,59005	2301
12,59417	1818
12,59828	1947
12,60242	1906
12,60653	1827
12,61065	1157
12,61478	1731
12,61890	1644
12,62302	2296
12,62715	2111
12,63127	1628
12,63538	1517
12,63952	1320
12,64363	1783
12,64775	1620
12,65188	1760
12,65600	1564
12,66012	1448
12,66425	1527
12,66837	1930
12,67248	1830
12,67660	1883
12,68073	1254
12,68485	1627
12,68897	1625
12,69310	1516
12,69722	1903
12,70133	1525
12,70547	1509
12,70958	1861
12,71370	1517
12,71783	1416
12,72195	1785
12,72607	1969
12,73020	1818
12,73432	1131
12,73843	1841
12,74257	1662
12,74668	1808
12,75080	1504
12,75493	1696
12,75905	1600
12,76317	1666
12,76728	1128
12,77142	1986
12,77553	1442
12,77965	1460
12,78378	1866
12,78790	1389
12,79202	1531
12,79615	1523
12,80027	1557
12,80438	1689
12,80852	1418
12,81263	1803
12,81675	1599
12,82088	1751
12,82500	1442
12,82912	1543
12,83325	1374
12,83737	1706
12,84148	1697
12,84562	1156
12,84973	1265
12,85385	1320
12,85797	1575
12,86210	1243
12,86622	1563
12,87033	1601
12,87447	1198
12,87858	1160
12,88270	1653
12,88683	1580
12,89095	1631
12,89507	1559
12,89920	1658
12,90332	1634
12,90743	1473
12,91157	1473
12,91568	1660
12,91980	1937
12,92393	1397
12,92805	1136
12,93217	1703
12,93630	1549
12,94042	1237
12,94453	1345
12,94865	1639
12,95278	1452
12,95690	1151
12,96102	1472
12,96515	1494
12,96927	1418
12,97338	1270
12,97752	1440
12,98163	1445
12,98575	1873
12,98988	2072
12,99400	1852
12,99812	2288
13,00225	2585
13,00637	3214
13,01048	2993
13,01462	3691
13,01873	3416
13,02285	4042
13,02698	3959
13,03110	3932
13,03522	4841
13,03933	4079
13,04347	4179
13,04758	4025
13,05170	3120
13,05583	4324
13,05995	2591
13,06407	3216
13,06820	2609
13,07232	3919
13,07643	4662
13,08057	6769
13,08468	10317
13,08880	17415
13,09293	30409
13,09705	49437
13,10117	78703
13,10530	122398
13,10942	176928
13,11353	255584
13,11767	345883
13,12178	451723
13,12590	553160
13,13002	663456
13,13415	774937
13,13827	860416
13,14238	920130
13,14652	950730
13,15063	958081
13,15475	919325
13,15888	859266
13,16300	775397
13,16712	689411
13,17125	590389
13,17537	506229
13,17948	413397
13,18362	338165
13,18773	282373
13,19185	234482
13,19598	190577
13,20010	157627
13,20422	128881
13,20835	110502
13,21247	90862
13,21658	80251
13,22070	69386
13,22483	59611
13,22895	53102
13,23307	46109
13,23720	43345
13,24132	40292
13,24543	36914
13,24957	31602
13,25368	31172
13,25780	27652
13,26193	26111
13,26605	23531
13,27017	21145
13,27430	20209
13,27842	18905
13,28253	16853
13,28667	15758
13,29078	15117
13,29490	15113
13,29903	12189
13,30315	12356
13,30727	11288
13,31138	10444
13,31552	9408
13,31963	8954
13,32375	9071
13,32788	8383
13,33200	8188
13,33612	6500
13,34025	6798
13,34437	6429
13,34848	7176
13,35262	6279
13,35673	6195
13,36085	4732
13,36498	5609
13,36910	5355
13,37322	5899
13,37735	5313
13,38147	5062
13,38558	5105
13,38972	3972
13,39383	4521
13,39795	4862
13,40207	3781
13,40620	3970
13,41032	3964
13,41443	3494
13,41857	3546
13,42268	2991
13,42680	3732
13,43093	3061
13,43505	3277
13,43917	3392
13,44330	2726
13,44742	2928
13,45153	3051
13,45567	3447
13,45978	3396
13,46390	2768
13,46803	2211
13,47215	1975
13,47627	2478
13,48040	2741
13,48452	2136
13,48863	2553
13,49275	2702
13,49688	2199
13,50100	2738
13,50512	2420
13,50925	2453
13,51337	2306
13,51748	1907
13,52162	2531
13,52573	1976
13,52985	1994
13,53398	1986
13,53810	2401
13,54222	2356
13,54635	2144
13,55047	2285
13,55458	1993
13,55872	1945
13,56283	2352
13,56695	1636
13,57108	1806
13,57520	1941
13,57932	1948
13,58343	2149
13,58757	1752
13,59168	1686
13,59580	1717
13,59993	1988
13,60405	1565
13,60817	1958
13,61230	1353
13,61642	1652
13,62053	1405
13,62467	1301
13,62878	2078
13,63290	1913
13,63703	1272
13,64115	1297
13,64527	1457
13,64940	1396
13,65352	1352
13,65763	1915
13,66177	1613
13,66588	1374
13,67000	2241
13,67413	1460
13,67825	1404
13,68237	1726
13,68648	1660
13,69062	1495
13,69473	1468
13,69885	1359
13,70298	1522
13,70710	1528
13,71122	1287
13,71535	1243
13,71947	1591
13,72358	1434
13,72772	1873
13,73183	1493
13,73595	1240
13,74008	1295
13,74420	1776
13,74832	1254
13,75245	1094
13,75657	1083
13,76068	1530
13,76482	1195
13,76893	1441
13,77305	1262
13,77717	1307
13,78130	1713
13,78542	1171
13,78953	1544
13,79367	1468
13,79778	1159
13,80190	1397
13,80603	2212
13,81015	1907
13,81427	1896
13,81840	2107
13,82252	2137
13,82663	2026
13,83077	2477
13,83488	2142
13,83900	2136
13,84313	2686
13,84725	2063
13,85137	2192
13,85550	1588
13,85962	2430
13,86373	2290
13,86785	1280
13,87198	1945
13,87610	1677
13,88022	1303
13,88435	1667
13,88847	1232
13,89258	1507
13,89672	1490
13,90083	1531
13,90495	1311
13,90908	1262
13,91320	1027
13,91732	1061
13,92145	1477
13,92557	1286
13,92968	1431
13,93382	1023
13,93793	1133
13,94205	1181
13,94618	888
13,95030	1212
13,95442	1435
13,95853	1210
13,96267	1166
13,96678	1204
13,97090	1273
13,97503	1347
13,97915	1468
13,98327	1157
13,98740	1192
13,99152	1344
13,99563	1027
13,99977	1477
14,00388	825
14,00800	1363
14,01213	1140
14,01625	1087
14,02037	1033
14,02450	1526
14,02862	878
14,03273	1509
14,03687	1528
14,04098	2609
14,04510	3401
14,04922	7683
14,05335	12851
14,05747	23364
14,06158	37257
14,06572	60016
14,06983	90536
14,07395	126238
14,07808	169109
14,08220	219582
14,08632	275570
14,09045	327721
14,09457	370382
14,09868	407033
14,10282	435365
14,10693	450059
14,11105	439175
14,11518	427171
14,11930	393421
14,12342	349211
14,12755	315187
14,13167	276353
14,13578	232082
14,13990	195843
14,14403	160934
14,14815	133928
14,15227	112943
14,15640	91345
14,16052	74969
14,16463	64561
14,16877	51776
14,17288	44588
14,17700	37084
14,18113	34224
14,18525	29632
14,18937	25664
14,19350	24182
14,19762	20212
14,20173	17723
14,20587	16561
14,20998	14555
14,21410	13283
14,21823	11829
14,22235	11096
14,22647	11286
14,23058	9307
14,23472	8649
14,23883	8863
14,24295	8947
14,24708	6332
14,25120	6950
14,25532	5600
14,25945	5120
14,26357	4387
14,26768	4305
14,27182	4056
14,27593	4587
14,28005	3951
14,28418	3523
14,28830	2724
14,29242	3853
14,29655	3188
14,30067	3499
14,30478	2381
14,30892	2952
14,31303	2246
14,31715	2218
14,32127	3421
14,32540	2725
14,32952	2582
14,33363	2063
14,33777	1841
14,34188	2385
14,34600	1938
14,35013	2153
14,35425	2049
14,35837	1971
14,36250	2213
14,36662	1694
14,37073	1831
14,37487	2006
14,37898	1987
14,38310	1693
14,38723	1505
14,39135	1836
14,39547	1877
14,39960	1766
14,40372	1303
14,40783	1139
14,41195	1460
14,41608	1293
14,42020	1832
14,42432	1244
14,42845	1632
14,43257	989
14,43668	1230
14,44082	1809
14,44493	1614
14,44905	1292
14,45318	1658
14,45730	2949
14,46142	4451
14,46555	5843
14,46967	11144
14,47378	19657
14,47792	32183
14,48203	51362
14,48615	80278
14,49028	120359
14,49440	168808
14,49852	221894
14,50263	285827
14,50677	342491
14,51088	401673
14,51500	449259
14,51913	482850
14,52325	505487
14,52737	508641
14,53150	489405
14,53562	461346
14,53973	406763
14,54387	358746
14,54798	310520
14,55210	258901
14,55623	219071
14,56035	175885
14,56447	143518
14,56860	117282
14,57272	94683
14,57683	78956
14,58097	66061
14,58508	56818
14,58920	47571
14,59332	40439
14,59745	36043
14,60157	31869
14,60568	26936
14,60982	25550
14,61393	21224
14,61805	18879
14,62218	16025
14,62630	15059
14,63042	13727
14,63455	13395
14,63867	11578
14,64278	11605
14,64692	10073
14,65103	9572
14,65515	8560
14,65928	7478
14,66340	6900
14,66752	6829
14,67165	7280
14,67577	6578
14,67988	7102
14,68400	5982
14,68813	5040
14,69225	5378
14,69637	4946
14,70050	4624
14,70462	4505
14,70873	4132
14,71287	3603
14,71698	3925
14,72110	3721
14,72523	3637
14,72935	2895
14,73347	2548
14,73760	2893
14,74172	2388
14,74583	3096
14,74997	3605
14,75408	2591
14,75820	2791
14,76233	2747
14,76645	2274
14,77057	2422
14,77468	2916
14,77882	2183
14,78293	1980
14,78705	2051
14,79118	1925
14,79530	2242
14,79942	2220
14,80355	2278
14,80767	1919
14,81178	1941
14,81592	2418
14,82003	1766
14,82415	1822
14,82828	2128
14,83240	1962
14,83652	2329
14,84065	1248
14,84477	1982
14,84888	1497
14,85302	1679
14,85713	1636
14,86125	1641
14,86537	1673
14,86950	1781
14,87362	1684
14,87773	1758
14,88187	1084
14,88598	1701
14,89010	1133
14,89423	1721
14,89835	1630
14,90247	1357
14,90660	1470
14,91072	1586
14,91483	1670
14,91897	1390
14,92308	1866
14,92720	1831
14,93133	2033
14,93545	1734
14,93957	1405
14,94370	1380
14,94782	1007
14,95193	1557
14,95605	1540
14,96018	1079
14,96430	1386
14,96842	1605
14,97255	1502
14,97667	1262
14,98078	1048
14,98492	1265
14,98903	1003
14,99315	1076
14,99728	1332
15,00140	874
15,00552	1078
15,00965	1030
15,01377	1612
15,01788	1465
15,02202	1146
15,02613	1352
15,03025	1099
15,03438	1548
15,03850	1288
15,04262	1637
15,04673	923
15,05087	1046
15,05498	1351
15,05910	1688
15,06323	1859
15,06735	1300
15,07147	867
15,07560	1094
15,07972	804
15,08383	1156
15,08797	1022
15,09208	1297
15,09620	1168
15,10033	1263
15,10445	842
15,10857	1352
15,11270	1504
15,11682	1082
15,12093	978
15,12507	797
15,12918	1071
15,13330	885
15,13742	1166
15,14155	1009
15,14567	1103
15,14978	1007
15,15392	877
15,15803	1162
15,16215	1050
15,16628	665
15,17040	1012
15,17452	1015
15,17865	1164
15,18277	1073
15,18688	1032
15,19102	1129
15,19513	1394
15,19925	843
15,20338	922
15,20750	922
15,21162	938
15,21575	1010
15,21987	1158
15,22398	1165
15,22812	1055
15,23223	1414
15,23635	1214
15,24047	1241
15,24460	1330
15,24872	1143
15,25283	1306
15,25697	1225
15,26108	1070
15,26520	1030
15,26933	613
15,27345	705
15,27757	627
15,28170	1012
15,28582	746
15,28993	842
15,29407	752
15,29818	1239
15,30230	826
15,30643	864
15,31055	863
15,31467	1190
15,31880	964
15,32292	916
15,32703	1367
15,33115	814
15,33528	941
15,33940	1086
15,34352	1269
15,34765	1079
15,35177	977
15,35588	1360
15,36002	986
15,36413	621
15,36825	797
15,37238	975
15,37650	1246
15,38062	981
15,38475	771
15,38887	1081
15,39298	891
15,39712	1213
15,40123	1287
15,40535	980
15,40948	1269
15,41360	1193
15,41772	1503
15,42183	1684
15,42597	3538
15,43008	6277
15,43420	11728
15,43833	19515
15,44245	31442
15,44657	52838
15,45070	79221
15,45482	122607
15,45893	164037
15,46307	224102
15,46718	280244
15,47130	337302
15,47543	398172
15,47955	438418
15,48367	475757
15,48780	494419
15,49192	490609
15,49603	472301
15,50017	437024
15,50428	388358
15,50840	340971
15,51252	292268
15,51665	247165
15,52077	208775
15,52488	169563
15,52902	142398
15,53313	115500
15,53725	91634
15,54138	77558
15,54550	68437
15,54962	56426
15,55375	48235
15,55787	39812
15,56198	34404
15,56612	29206
15,57023	25483
15,57435	23238
15,57848	20997
15,58260	16794
15,58672	17645
15,59085	14917
15,59497	13641
15,59908	12764
15,60320	11064
15,60733	10909
15,61145	9203
15,61557	8162
15,61970	9009
15,62382	8035
15,62793	6563
15,63207	6960
15,63618	5509
15,64030	5567
15,64443	5148
15,64855	4794
15,65267	4237
15,65680	4149
15,66092	4493
15,66503	3209
15,66917	3941
15,67328	3786
15,67740	2826
15,68153	3083
15,68565	3124
15,68977	2690
15,69388	2810
15,69802	1704
15,70213	2861
15,70625	2130
15,71038	2448
15,71450	1936
15,71862	2161
15,72275	1930
15,72687	2066
15,73098	1703
15,73512	2621
15,73923	1550
15,74335	1706
15,74748	1474
15,75160	926
15,75572	1227
15,75985	1268
15,76397	1465
15,76808	1395
15,77222	1283
15,77633	1154
15,78045	992
15,78457	1212
15,78870	1393
15,79282	1399
15,79693	1288
15,80107	1843
15,80518	1197
15,80930	2265
15,81343	2098
15,81755	2401
15,82167	3795
15,82580	7800
15,82992	14023
15,83403	24572
15,83817	45018
15,84228	73610
15,84640	120805
15,85053	181714
15,85465	267215
15,85877	371262
15,86290	506159
15,86702	651533
15,87113	823120
15,87525	1001088
15,87938	1167489
15,88350	1348519
15,88762	1497433
15,89175	1615840
15,89587	1675021
15,89998	1657671
15,90412	1589262
15,90823	1451947
15,91235	1293121
15,91648	1106779
15,92060	921777
15,92472	747665
15,92885	594898
15,93297	473634
15,93708	382285
15,94122	310790
15,94533	255293
15,94945	207244
15,95358	174804
15,95770	145129
15,96182	125842
15,96593	109042
15,97007	96045
15,97418	83354
15,97830	74148
15,98243	66506
15,98655	59161
15,99067	56211
15,99480	49850
15,99892	46075
16,00303	42793
16,00717	39403
16,01128	35852
16,01540	32565
16,01953	30253
16,02365	29941
16,02777	26358
16,03190	24482
16,03602	22164
16,04013	22448
16,04427	21266
16,04838	18633
16,05250	17108
16,05662	17093
16,06075	16176
16,06487	15972
16,06898	13482
16,07312	13446
16,07723	13605
16,08135	12228
16,08548	10365
16,08960	10937
16,09372	8936
16,09785	9959
16,10197	8736
16,10608	8676
16,11022	8337
16,11433	7637
16,11845	7232
16,12258	6821
16,12670	6881
16,13082	6442
16,13495	6090
16,13907	6178
16,14318	5692
16,14730	6318
16,15143	5395
16,15555	5679
16,15967	5343
16,16380	4971
16,16792	4112
16,17203	4929
16,17617	3456
16,18028	3964
16,18440	3819
16,18853	4162
16,19265	4428
16,19677	3229
16,20090	3331
16,20502	3422
16,20913	3133
16,21327	2336
16,21738	2329
16,22150	2835
16,22563	2915
16,22975	3174
16,23387	2907
16,23798	2429
16,24212	2488
16,24623	2151
16,25035	2197
16,25448	2870
16,25860	2011
16,26272	2413
16,26685	2698
16,27097	2267
16,27508	2444
16,27922	2164
16,28333	1974
16,28745	2818
16,29158	1960
16,29570	1898
16,29982	2264
16,30395	2092
16,30807	2039
16,31218	2085
16,31632	1408
16,32043	1485
16,32455	1589
16,32867	2114
16,33280	2025
16,33692	2094
16,34103	978
16,34517	2010
16,34928	1398
16,35340	1752
16,35753	1724
16,36165	1876
16,36577	1309
16,36990	1685
16,37402	1612
16,37813	1753
16,38227	1617
16,38638	1346
16,39050	2294
16,39463	1352
16,39875	1132
16,40287	2005
16,40700	1912
16,41112	1985
16,41523	1589
16,41935	1647
16,42348	1547
16,42760	1829
16,43172	1867
16,43585	1495
16,43997	1508
16,44408	1133
16,44822	971
16,45233	1400
16,45645	1268
16,46058	1472
16,46470	1130
16,46882	1761
16,47295	1095
16,47707	1267
16,48118	1381
16,48532	1050
16,48943	1367
16,49355	788
16,49768	1255
16,50180	1686
16,50592	1233
16,51003	1820
16,51417	3172
16,51828	4164
16,52240	3757
16,52653	4338
16,53065	5087
16,53477	5141
16,53890	5288
16,54302	5999
16,54713	6175
16,55127	6064
16,55538	6562
16,55950	6166
16,56363	5180
16,56775	4824
16,57187	4153
16,57600	4670
16,58012	3646
16,58423	3304
16,58837	3314
16,59248	3604
16,59660	3169
16,60072	4229
16,60485	6229
16,60897	9204
16,61308	15406
16,61722	26800
16,62133	43242
16,62545	69599
16,62958	102977
16,63370	146015
16,63782	199729
16,64195	263126
16,64607	321194
16,65018	391994
16,65432	443879
16,65843	482064
16,66255	507401
16,66668	515622
16,67080	498049
16,67492	458356
16,67905	423402
16,68317	379620
16,68728	329068
16,69140	278983
16,69553	230280
16,69965	189585
16,70377	155036
16,70790	126657
16,71202	101753
16,71613	86328
16,72027	72740
16,72438	60408
16,72850	49959
16,73263	43575
16,73675	37664
16,74087	32310
16,74500	28909
16,74912	26696
16,75323	22284
16,75737	18480
16,76148	18185
16,76560	16081
16,76973	14491
16,77385	12198
16,77797	12729
16,78208	12105
16,78622	9621
16,79033	9634
16,79445	8887
16,79858	7460
16,80270	7833
16,80682	7688
16,81095	8295
16,81507	7442
16,81918	6867
16,82332	7075
16,82743	8171
16,83155	6362
16,83568	8255
16,83980	8533
16,84392	6312
16,84805	7919
16,85217	6006
16,85628	5950
16,86042	4051
16,86453	4531
16,86865	4319
16,87278	4260
16,87690	4276
16,88102	3680
16,88513	3679
16,88927	2959
16,89338	2363
16,89750	2717
16,90163	2535
16,90575	2560
16,90987	2744
16,91400	2440
16,91812	3268
16,92223	3237
16,92637	2926
16,93048	2621
16,93460	3389
16,93873	2780
16,94285	2500
16,94697	2344
16,95110	1618
16,95522	2509
16,95933	3357
16,96347	3576
16,96758	4337
16,97170	4340
16,97582	4776
16,97995	4294
16,98407	3902
16,98818	2964
16,99232	3315
16,99643	2536
17,00055	1420
17,00468	1262
17,00880	1227
17,01292	1627
17,01705	1075
17,02117	845
17,02528	1307
17,02942	1045
17,03353	1832
17,03765	1292
17,04178	909
17,04590	1417
17,05002	1342
17,05415	1670
17,05827	1246
17,06238	1349
17,06650	1579
17,07063	2101
17,07475	1778
17,07887	1403
17,08300	1406
17,08712	766
17,09123	1264
17,09537	1370
17,09948	1125
17,10360	516
17,10773	1003
17,11185	1220
17,11597	1580
17,12010	937
17,12422	604
17,12833	1501
17,13247	1536
17,13658	824
17,14070	1237
17,14483	1164
17,14895	1467
17,15307	1706
17,15718	3540
17,16132	5568
17,16543	10481
17,16955	16338
17,17368	29255
17,17780	48160
17,18192	77777
17,18605	116443
17,19017	166908
17,19428	226498
17,19842	295805
17,20253	377736
17,20665	446118
17,21078	515366
17,21490	559707
17,21902	584954
17,22315	584596
17,22727	562213
17,23138	538904
17,23552	478901
17,23963	414144
17,24375	359388
17,24787	299389
17,25200	247451
17,25612	197358
17,26023	161327
17,26437	128156
17,26848	105252
17,27260	89614
17,27673	74122
17,28085	61355
17,28497	52871
17,28910	44868
17,29322	38800
17,29733	34019
17,30147	31383
17,30558	26429
17,30970	23857
17,31383	22501
17,31795	20333
17,32207	18787
17,32620	15286
17,33032	14289
17,33443	14141
17,33855	13268
17,34268	12175
17,34680	11913
17,35092	10905
17,35505	8874
17,35917	10927
17,36328	9180
17,36742	8882
17,37153	8755
17,37565	8924
17,37978	7155
17,38390	7454
17,38802	6290
17,39215	5915
17,39627	5975
17,40038	4589
17,40452	5208
17,40863	4011
17,41275	4539
17,41688	3957
17,42100	3555
17,42512	3980
17,42923	3937
17,43337	3492
17,43748	3039
17,44160	3022
17,44573	3289
17,44985	3305
17,45397	2931
17,45810	2946
17,46222	2116
17,46633	2045
17,47047	2558
17,47458	2690
17,47870	1908
17,48283	1987
17,48695	2141
17,49107	2241
17,49520	2043
17,49932	1792
17,50343	1631
17,50757	1917
17,51168	2065
17,51580	1610
17,51992	1816
17,52405	1404
17,52817	1693
17,53228	1560
17,53642	2329
17,54053	1280
17,54465	1098
17,54878	880
17,55290	924
17,55702	1787
17,56115	1966
17,56527	1249
17,56938	1563
17,57352	1184
17,57763	1103
17,58175	1326
17,58588	1364
17,59000	1256
17,59412	1147
17,59825	1857
17,60237	1629
17,60648	1935
17,61060	1509
17,61473	1162
17,61885	1470
17,62297	1465
17,62710	2192
17,63122	1203
17,63533	1573
17,63947	1086
17,64358	1425
17,64770	1617
17,65183	1695
17,65595	916
17,66007	1142
17,66420	1375
17,66832	1091
17,67243	1682
17,67657	1527
17,68068	1274
17,68480	1425
17,68893	1236
17,69305	837
17,69717	992
17,70128	1268
17,70542	1035
17,70953	789
17,71365	1179
17,71778	1169
17,72190	1921
17,72602	846
17,73015	1401
17,73427	1382
17,73838	613
17,74252	980
17,74663	809
17,75075	1194
17,75488	1334
17,75900	1396
17,76312	1085
17,76725	655
17,77137	587
17,77548	1165
17,77962	1465
17,78373	1055
17,78785	683
17,79197	1002
17,79610	1139
17,80022	1088
17,80433	602
17,80847	1187
17,81258	1333
17,81670	848
17,82083	756
17,82495	957
17,82907	792
17,83320	1167
17,83732	686
17,84143	991
17,84557	1139
17,84968	1338
17,85380	1301
17,85793	738
17,86205	706
17,86617	772
17,87030	923
17,87442	1297
17,87853	1251
17,88265	943
17,88678	945
17,89090	1495
17,89502	1105
17,89915	876
17,90327	1364
17,90738	913
17,91152	1658
17,91563	1724
17,91975	2511
17,92388	4968
17,92800	9855
17,93212	15768
17,93625	28722
17,94037	47189
17,94448	73120
17,94862	113658
17,95273	162115
17,95685	222139
17,96098	283980
17,96510	353518
17,96922	426914
17,97333	483488
17,97747	529800
17,98158	554455
17,98570	561490
17,98983	546648
17,99395	509990
17,99807	467698
18,00220	412505
18,00632	357029
18,01043	303272
18,01457	247589
18,01868	206470
18,02280	166629
18,02693	137875
18,03105	110385
18,03517	91080
18,03930	75468
18,04342	63104
18,04753	53976
18,05167	45525
18,05578	40607
18,05990	35804
18,06402	31830
18,06815	29579
18,07227	27894
18,07638	26969
18,08052	26787
18,08463	26584
18,08875	24611
18,09288	23826
18,09700	22750
18,10112	21153
18,10525	21615
18,10937	20180
18,11348	18799
18,11762	17138
18,12173	16107
18,12585	13684
18,12998	12553
18,13410	12347
18,13822	11325
18,14235	9145
18,14647	9742
18,15058	7974
18,15470	8110
18,15883	6974
18,16295	5830
18,16707	5537
18,17120	6284
18,17532	5204
18,17943	5302
18,18357	4923
18,18768	5464
18,19180	3882
18,19593	4261
18,20005	3164
18,20417	3197
18,20830	3400
18,21242	3955
18,21653	2707
18,22067	2373
18,22478	2464
18,22890	3249
18,23303	2224
18,23715	2117
18,24127	2218
18,24538	1822
18,24952	2493
18,25363	2134
18,25775	2042
18,26188	1835
18,26600	2095
18,27012	1984
18,27425	1731
18,27837	1670
18,28248	1826
18,28662	1195
18,29073	1514
18,29485	1473
18,29898	2023
18,30310	907
18,30722	1354
18,31135	901
18,31547	1459
18,31958	1734
18,32372	958
18,32783	2047
18,33195	1178
18,33607	1394
18,34020	955
18,34432	1494
18,34843	1670
18,35257	1113
18,35668	1709
18,36080	1317
18,36493	1153
18,36905	1969
18,37317	1249
18,37730	1029
18,38142	892
18,38553	965
18,38967	1541
18,39378	2006
18,39790	1695
18,40203	959
18,40615	1733
18,41027	1279
18,41440	1094
18,41852	1817
18,42263	1577
18,42675	1362
18,43088	1501
18,43500	1753
18,43912	1598
18,44325	1605
18,44737	2210
18,45148	3560
18,45562	5765
18,45973	8992
18,46385	16406
18,46798	28648
18,47210	48362
18,47622	78229
18,48035	120142
18,48447	173176
18,48858	254303
18,49272	341031
18,49683	459566
18,50095	574966
18,50508	705141
18,50920	847842
18,51332	995860
18,51745	1104274
18,52157	1195058
18,52568	1268713
18,52980	1286817
18,53393	1246218
18,53805	1161559
18,54217	1038944
18,54630	910358
18,55042	761476
18,55453	628221
18,55867	511421
18,56278	412456
18,56690	333486
18,57103	265491
18,57515	219159
18,57927	178520
18,58340	149579
18,58752	127189
18,59163	109638
18,59577	91828
18,59988	83244
18,60400	71179
18,60813	64930
18,61225	58143
18,61637	49981
18,62048	46754
18,62462	42987
18,62873	38431
18,63285	34900
18,63698	33573
18,64110	30839
18,64522	27966
18,64935	25962
18,65347	24947
18,65758	20170
18,66172	19420
18,66583	18693
18,66995	17598
18,67408	17315
18,67820	14960
18,68232	13976
18,68645	13944
18,69057	12469
18,69468	11764
18,69882	11549
18,70293	10696
18,70705	10329
18,71117	9961
18,71530	9994
18,71942	8968
18,72353	9222
18,72767	7897
18,73178	7614
18,73590	7476
18,74003	7188
18,74415	6909
18,74827	6228
18,75240	6584
18,75652	5708
18,76063	5422
18,76477	5582
18,76888	5125
18,77300	5270
18,77713	4536
18,78125	4829
18,78537	4334
18,78950	4537
18,79362	4784
18,79773	4264
18,80185	3773
18,80598	3271
18,81010	4328
18,81422	3439
18,81835	3571
18,82247	3755
18,82658	3291
18,83072	2861
18,83483	2563
18,83895	2625
18,84308	2980
18,84720	2357
18,85132	2701
18,85545	2923
18,85957	3068
18,86368	2254
18,86782	2719
18,87193	2692
18,87605	3119
18,88018	4520
18,88430	4975
18,88842	9291
18,89253	14163
18,89667	22862
18,90078	39068
18,90490	63164
18,90903	91867
18,91315	134063
18,91727	185848
18,92140	246368
18,92552	320683
18,92963	389007
18,93377	459508
18,93788	519135
18,94200	565877
18,94613	597043
18,95025	604461
18,95437	575209
18,95850	547634
18,96262	492881
18,96673	436485
18,97087	383528
18,97498	324749
18,97910	265291
18,98322	213047
18,98735	176060
18,99147	145566
18,99558	119443
18,99972	97590
19,00383	85847
19,00795	72432
19,01208	58898
19,01620	51130
19,02032	43325
19,02445	37982
19,02857	32356
19,03268	30912
19,03682	26589
19,04093	25465
19,04505	21239
19,04918	20308
19,05330	17881
19,05742	16984
19,06155	15915
19,06567	14762
19,06978	14134
19,07390	13411
19,07803	11616
19,08215	10545
19,08627	11602
19,09040	12221
19,09452	13945
19,09863	17738
19,10277	23146
19,10688	34539
19,11100	54222
19,11513	80540
19,11925	122988
19,12337	178029
19,12750	249327
19,13162	341214
19,13573	441349
19,13987	574066
19,14398	704414
19,14810	840392
19,15223	968082
19,15635	1086257
19,16047	1162925
19,16458	1213588
19,16872	1181733
19,17283	1136350
19,17695	1039797
19,18108	930988
19,18520	801222
19,18932	664991
19,19345	543519
19,19757	438257
19,20168	362557
19,20582	295717
19,20993	241410
19,21405	202358
19,21818	164551
19,22230	141956
19,22642	121707
19,23055	101418
19,23467	90887
19,23878	77800
19,24292	67985
19,24703	62493
19,25115	58218
19,25527	50859
19,25940	46471
19,26352	41658
19,26763	39838
19,27177	37136
19,27588	32910
19,28000	29154
19,28413	28592
19,28825	27369
19,29237	24859
19,29650	20836
19,30062	21642
19,30473	18762
19,30887	19115
19,31298	17704
19,31710	16940
19,32123	14454
19,32535	14441
19,32947	13052
19,33360	12866
19,33772	12789
19,34183	11508
19,34595	10286
19,35008	11225
19,35420	9707
19,35832	9499
19,36245	8512
19,36657	7917
19,37068	7351
19,37482	7871
19,37893	9189
19,38305	6617
19,38718	6688
19,39130	5300
19,39542	6012
19,39955	6166
19,40367	5078
19,40778	5664
19,41192	5399
19,41603	5606
19,42015	4542
19,42428	5550
19,42840	4477
19,43252	4182
19,43663	4103
19,44077	4136
19,44488	3821
19,44900	3171
19,45313	3756
19,45725	4026
19,46137	3142
19,46550	3828
19,46962	3042
19,47373	3060
19,47787	3446
19,48198	3366
19,48610	2988
19,49023	3163
19,49435	3073
19,49847	2543
19,50260	2592
19,50672	3247
19,51083	2821
19,51497	2671
19,51908	3314
19,52320	3266
19,52732	2534
19,53145	3286
19,53557	2825
19,53968	3025
19,54382	3256
19,54793	2119
19,55205	2713
19,55618	3416
19,56030	3172
19,56442	3220
19,56855	2642
19,57267	2506
19,57678	2932
19,58092	2770
19,58503	2348
19,58915	2062
19,59328	1884
19,59740	2043
19,60152	1864
19,60565	3067
19,60977	2906
19,61388	4220
19,61800	8102
19,62213	11065
19,62625	18219
19,63037	32614
19,63450	52686
19,63862	81219
19,64273	124564
19,64687	176154
19,65098	234377
19,65510	303362
19,65923	379285
19,66335	442109
19,66747	502903
19,67160	545762
19,67572	559427
19,67983	562115
19,68397	543393
19,68808	508642
19,69220	457354
19,69633	394143
19,70045	336396
19,70457	279159
19,70868	230863
19,71282	190152
19,71693	151354
19,72105	122290
19,72518	103049
19,72930	86802
19,73342	70406
19,73755	62937
19,74167	55746
19,74578	46151
19,74992	42252
19,75403	38201
19,75815	34187
19,76228	31977
19,76640	28538
19,77052	25941
19,77465	23560
19,77877	20251
19,78288	19991
19,78702	18546
19,79113	16264
19,79525	15190
19,79937	13034
19,80350	12218
19,80762	10814
19,81173	11736
19,81587	9676
19,81998	10231
19,82410	9324
19,82823	8643
19,83235	8083
19,83647	6968
19,84060	6669
19,84472	6640
19,84883	6388
19,85297	5616
19,85708	5691
19,86120	5956
19,86533	5297
19,86945	5188
19,87357	4545
19,87770	5893
19,88182	4747
19,88593	4848
19,89005	5387
19,89418	4771
19,89830	4953
19,90242	3853
19,90655	5202
19,91067	4598
19,91478	4641
19,91892	4497
19,92303	4349
19,92715	3113
19,93128	4126
19,93540	3689
19,93952	4089
19,94365	3324
19,94777	3770
19,95188	3395
19,95602	2675
19,96013	2392
19,96425	2876
19,96838	2375
19,97250	2765
19,97662	2808
19,98073	2338
19,98487	2589
19,98898	2948
19,99310	2506
19,99723	3124
20,00135	2463
20,00547	2821
20,00960	2563
20,01372	2664
20,01783	2835
20,02197	3097
20,02608	2164
20,03020	3027
20,03433	2255
20,03845	3219
20,04257	3364
20,04670	3018
20,05082	2401
20,05493	3460
20,05907	2916
20,06318	2455
20,06730	2443
20,07142	2644
20,07555	2528
20,07967	3076
20,08378	3292
20,08792	3292
20,09203	3839
20,09615	4030
20,10028	5078
20,10440	8298
20,10852	13539
20,11265	20769
20,11677	33750
20,12088	53877
20,12502	84734
20,12913	126267
20,13325	176554
20,13738	231112
20,14150	294643
20,14562	367948
20,14975	434763
20,15387	477334
20,15798	517652
20,16210	532123
20,16623	525470
20,17035	506444
20,17447	466023
20,17860	419669
20,18272	368161
20,18683	311526
20,19097	265770
20,19508	216947
20,19920	183875
20,20333	146226
20,20745	123853
20,21157	98785
20,21570	83590
20,21982	70142
20,22393	59182
20,22807	53122
20,23218	45183
20,23630	40768
20,24043	34925
20,24455	30218
20,24867	27630
20,25280	25294
20,25692	22153
20,26103	20798
20,26515	16851
20,26928	16658
20,27340	15934
20,27752	15444
20,28165	13628
20,28577	11788
20,28988	10625
20,29402	10291
20,29813	11148
20,30225	9953
20,30638	9141
20,31050	9095
20,31462	7432
20,31875	7894
20,32287	5992
20,32698	7039
20,33112	5485
20,33523	6222
20,33935	5383
20,34348	6192
20,34760	5885
20,35172	5460
20,35583	4892
20,35997	5704
20,36408	5089
20,36820	5802
20,37233	5532
20,37645	4890
20,38057	5376
20,38470	4527
20,38882	4360
20,39293	4242
20,39707	3918
20,40118	3800
20,40530	3238
20,40943	2802
20,41355	3464
20,41767	3442
20,42180	3054
20,42592	3581
20,43003	2357
20,43417	2793
20,43828	2978
20,44240	2436
20,44652	2906
20,45065	2175
20,45477	3326
20,45888	2477
20,46302	1803
20,46713	1576
20,47125	1803
20,47538	2517
20,47950	1701
20,48362	2028
20,48775	2005
20,49187	2150
20,49598	2056
20,50012	2434
20,50423	1201
20,50835	2028
20,51248	1821
20,51660	1365
20,52072	1419
20,52485	1922
20,52897	2062
20,53308	1981
20,53720	2121
20,54133	1886
20,54545	1797
20,54957	919
20,55370	1656
20,55782	1626
20,56193	1255
20,56607	1837
20,57018	1403
20,57430	1435
20,57843	1943
20,58255	1321
20,58667	1064
20,59080	1311
20,59492	2041
20,59903	1246
20,60317	1792
20,60728	1886
20,61140	2541
20,61553	2103
20,61965	1391
20,62377	1464
20,62788	1403
20,63202	1626
20,63613	1243
20,64025	1655
20,64438	1269
20,64850	1963
20,65262	1197
20,65675	1047
20,66087	1328
20,66498	1183
20,66912	1368
20,67323	1211
20,67735	1375
20,68148	998
20,68560	1427
20,68972	1099
20,69385	1648
20,69797	1299
20,70208	1287
20,70622	1104
20,71033	1241
20,71445	1164
20,71857	2129
20,72270	1811
20,72682	1452
20,73093	1707
20,73507	1040
20,73918	1487
20,74330	1019
20,74743	990
20,75155	1570
20,75567	1749
20,75980	1838
20,76392	1448
20,76803	978
20,77217	1011
20,77628	1414
20,78040	1672
20,78453	1374
20,78865	1784
20,79277	1093
20,79690	1861
20,80102	3585
20,80513	3610
20,80925	6344
20,81338	12970
20,81750	21559
20,82162	34217
20,82575	56107
20,82987	83401
20,83398	123363
20,83812	168489
20,84223	218467
20,84635	281264
20,85048	341323
20,85460	393215
20,85872	435921
20,86285	462067
20,86697	470404
20,87108	475974
20,87522	453974
20,87933	418565
20,88345	372821
20,88758	323076
20,89170	283979
20,89582	232580
20,89993	189774
20,90407	159865
20,90818	133987
20,91230	110447
20,91643	97835
20,92055	84623
20,92467	81960
20,92880	82773
20,93292	89884
20,93703	106180
20,94117	133917
20,94528	171806
20,94940	227647
20,95353	292305
20,95765	384752
20,96177	488473
20,96590	607288
20,97002	732969
20,97413	874879
20,97827	1020184
20,98238	1143426
20,98650	1284315
20,99062	1373617
20,99475	1433533
20,99887	1442471
21,00298	1380699
21,00712	1267376
21,01123	1127184
21,01535	958199
21,01948	791466
21,02360	643924
21,02772	527926
21,03185	421849
21,03597	342393
21,04008	282023
21,04422	233194
21,04833	196166
21,05245	164524
21,05658	139799
21,06070	124703
21,06482	110259
21,06895	97087
21,07307	84637
21,07718	80423
21,08130	70000
21,08543	63317
21,08955	58604
21,09367	54904
21,09780	50633
21,10192	45322
21,10603	41538
21,11017	37780
21,11428	34192
21,11840	33165
21,12253	32255
21,12665	29932
21,13077	29977
21,13490	27007
21,13902	23938
21,14313	23396
21,14727	23037
21,15138	21800
21,15550	20319
21,15963	18059
21,16375	17386
21,16787	16897
21,17198	16158
21,17612	15244
21,18023	14338
21,18435	13806
21,18848	13132
21,19260	12157
21,19672	11023
21,20085	11167
21,20497	11605
21,20908	11125
21,21322	9254
21,21733	8827
21,22145	9866
21,22558	8816
21,22970	8713
21,23382	7274
21,23795	7504
21,24207	8724
21,24618	7451
21,25032	7793
21,25443	8833
21,25855	9882
21,26267	12314
21,26680	15729
21,27092	25581
21,27503	37036
21,27917	58043
21,28328	81788
21,28740	113192
21,29153	159732
21,29565	208054
21,29977	256467
21,30390	317740
21,30802	371648
21,31213	414084
21,31627	445084
21,32038	466041
21,32450	460252
21,32863	444060
21,33275	415705
21,33687	381440
21,34100	330416
21,34512	285497
21,34923	235890
21,35335	201036
21,35748	166358
21,36160	137508
21,36572	115153
21,36985	95136
21,37397	80470
21,37808	69326
21,38222	56738
21,38633	50284
21,39045	43296
21,39458	39774
21,39870	35573
21,40282	32865
21,40695	30093
21,41107	25286
21,41518	22739
21,41932	22098
21,42343	20169
21,42755	18795
21,43168	18689
21,43580	16212
21,43992	14963
21,44403	13940
21,44817	12807
21,45228	12389
21,45640	12291
21,46053	10905
21,46465	10559
21,46877	10642
21,47290	9516
21,47702	9859
21,48113	8862
21,48527	8127
21,48938	7518
21,49350	7910
21,49763	6966
21,50175	7184
21,50587	6869
21,51000	6739
21,51412	7120
21,51823	7559
21,52237	10355
21,52648	13723
21,53060	21616
21,53472	30411
21,53885	47473
21,54297	70085
21,54708	103958
21,55122	153073
21,55533	203484
21,55945	270400
21,56358	346201
21,56770	421784
21,57182	498277
21,57595	571735
21,58007	627990
21,58418	655114
21,58832	667017
21,59243	653608
21,59655	603707
21,60068	548518
21,60480	481850
21,60892	412968
21,61305	344985
21,61717	290765
21,62128	239220
21,62540	196903
21,62953	162130
21,63365	136331
21,63777	116147
21,64190	96406
21,64602	81319
21,65013	70424
21,65427	60760
21,65838	54339
21,66250	46940
21,66663	41520
21,67075	40224
21,67487	35242
21,67900	31593
21,68312	30654
21,68723	26607
21,69137	24531
21,69548	22546
21,69960	20746
21,70373	20348
21,70785	19698
21,71197	16152
21,71608	16202
21,72022	15013
21,72433	15162
21,72845	13313
21,73258	12858
21,73670	12590
21,74082	10486
21,74495	10944
21,74907	10472
21,75318	10180
21,75732	9096
21,76143	8052
21,76555	9643
21,76968	7158
21,77380	8791
21,77792	6374
21,78205	7454
21,78617	5595
21,79028	6564
21,79442	6236
21,79853	5506
21,80265	6576
21,80677	5788
21,81090	5453
21,81502	5281
21,81913	4436
21,82327	4847
21,82738	4750
21,83150	5201
21,83563	4229
21,83975	3971
21,84387	5227
21,84800	4300
21,85212	4578
21,85623	3951
21,86037	3437
21,86448	4295
21,86860	4258
21,87273	2714
21,87685	3745
21,88097	3045
21,88510	3270
21,88922	3597
21,89333	4629
21,89747	3417
21,90158	3328
21,90570	4037
21,90982	3163
21,91395	3422
21,91807	3246
21,92218	3349
21,92632	2910
21,93043	3164
21,93455	3227
21,93868	2839
21,94280	2575
21,94692	3081
21,95105	2549
21,95517	3435
21,95928	3243
21,96342	2200
21,96753	2268
21,97165	3369
21,97578	2925
21,97990	2586
21,98402	1913
21,98815	2208
21,99227	2714
21,99638	2106
22,00050	2973
22,00463	3319
22,00875	2914
22,01287	2558
22,01700	2434
22,02112	2367
22,02523	2578
22,02937	2296
22,03348	2246
22,03760	2432
22,04173	1557
22,04585	2296
22,04997	2640
22,05410	2077
22,05822	3224
22,06233	2916
22,06647	2184
22,07058	2391
22,07470	3580
22,07883	2999
22,08295	4859
22,08707	6158
22,09118	9924
22,09532	15098
22,09943	25291
22,10355	42006
22,10768	68534
22,11180	102616
22,11592	144480
22,12005	205461
22,12417	274291
22,12828	356080
22,13242	444728
22,13653	542810
22,14065	622628
22,14478	687634
22,14890	738634
22,15302	758780
22,15715	744419
22,16127	706249
22,16538	643957
22,16952	565894
22,17363	481464
22,17775	402931
22,18187	331793
22,18600	267320
22,19012	222148
22,19423	180008
22,19837	146374
22,20248	122345
22,20660	105922
22,21073	92201
22,21485	77193
22,21897	68099
22,22310	61236
22,22722	58123
22,23133	51928
22,23547	47211
22,23958	43651
22,24370	37118
22,24783	36722
22,25195	34240
22,25607	30179
22,26020	27165
22,26432	25407
22,26843	23054
22,27255	22485
22,27668	21499
22,28080	20230
22,28492	18922
22,28905	17289
22,29317	16879
22,29728	15909
22,30142	17257
22,30553	14788
22,30965	13844
22,31378	13677
22,31790	13303
22,32202	11852
22,32615	12105
22,33027	11401
22,33438	10302
22,33852	9367
22,34263	9682
22,34675	7809
22,35088	8027
22,35500	7996
22,35912	6655
22,36323	6871
22,36737	7954
22,37148	6488
22,37560	6626
22,37973	6497
22,38385	6437
22,38797	6118
22,39210	5887
22,39622	5969
22,40033	6178
22,40447	6977
22,40858	6019
22,41270	5048
22,41683	5040
22,42095	6388
22,42507	6232
22,42920	4664
22,43332	4632
22,43743	4420
22,44157	4112
22,44568	4903
22,44980	5228
22,45392	3642
22,45805	3607
22,46217	4352
22,46628	4058
22,47042	4286
22,47453	6026
22,47865	7638
22,48278	8863
22,48690	13040
22,49102	22834
22,49515	36620
22,49927	57763
22,50338	83165
22,50752	126252
22,51163	174950
22,51575	229707
22,51988	296592
22,52400	373013
22,52812	437278
22,53225	499389
22,53637	548527
22,54048	570624
22,54460	583258
22,54873	575536
22,55285	538300
22,55697	492519
22,56110	436453
22,56522	371599
22,56933	310435
22,57347	263149
22,57758	223848
22,58170	184330
22,58583	150128
22,58995	124547
22,59407	104195
22,59820	85929
22,60232	73741
22,60643	66249
22,61057	56456
22,61468	50222
22,61880	45963
22,62293	40210
22,62705	35434
22,63117	34203
22,63528	29843
22,63942	27263
22,64353	23688
22,64765	23467
22,65178	21977
22,65590	19588
22,66002	18119
22,66415	17330
22,66827	17278
22,67238	15255
22,67652	13540
22,68063	13936
22,68475	13003
22,68888	11834
22,69300	11820
22,69712	10937
22,70125	10727
22,70537	9509
22,70948	9244
22,71362	9406
22,71773	9735
22,72185	8975
22,72597	7981
22,73010	9036
22,73422	7618
22,73833	7901
22,74247	7969
22,74658	6554
22,75070	6725
22,75483	6923
22,75895	7384
22,76307	6636
22,76720	5869
22,77132	6387
22,77543	5484
22,77957	6055
22,78368	5535
22,78780	5661
22,79193	4858
22,79605	6191
22,80017	4473
22,80430	5700
22,80842	4533
22,81253	4062
22,81665	4201
22,82078	4636
22,82490	4583
22,82902	4449
22,83315	4595
22,83727	4183
22,84138	3444
22,84552	3957
22,84963	3984
22,85375	3824
22,85788	3884
22,86200	3703
22,86612	3942
22,87025	3213
22,87437	3585
22,87848	3334
22,88262	3258
22,88673	2876
22,89085	3989
22,89498	3595
22,89910	3474
22,90322	2869
22,90733	4005
22,91147	4501
22,91558	3251
22,91970	3012
22,92383	3778
22,92795	4149
22,93207	3354
22,93620	4198
22,94032	3625
22,94443	3983
22,94857	3106
22,95268	2759
22,95680	3366
22,96093	2496
22,96505	3844
22,96917	3107
22,97330	3523
22,97742	3306
22,98153	3367
22,98567	3115
22,98978	3429
22,99390	3795
22,99802	3515
23,00215	3571
23,00627	3586
23,01038	3330
23,01452	3345
23,01863	3206
23,02275	3292
23,02688	4884
23,03100	5056
23,03512	4359
23,03925	4419
23,04337	4839
23,04748	4157
23,05162	5291
23,05573	4616
23,05985	4909
23,06398	3919
23,06810	5114
23,07222	4364
23,07635	3517
23,08047	4135
23,08458	4439
23,08870	3297
23,09283	4084
23,09695	2980
23,10107	2847
23,10520	2453
23,10932	3128
23,11343	3511
23,11757	3225
23,12168	3029
23,12580	4095
23,12993	3526
23,13405	3639
23,13817	3645
23,14230	5475
23,14642	8320
23,15053	11983
23,15467	21224
23,15878	32337
23,16290	49614
23,16703	76125
23,17115	106791
23,17527	159372
23,17938	211361
23,18352	279338
23,18763	336440
23,19175	401484
23,19588	460495
23,20000	502549
23,20412	526824
23,20825	534879
23,21237	520913
23,21648	491154
23,22062	444249
23,22473	402660
23,22885	364846
23,23298	327073
23,23710	300679
23,24122	289227
23,24535	296022
23,24947	319378
23,25358	364737
23,25772	429724
23,26183	511934
23,26595	606742
23,27007	718266
23,27420	837265
23,27832	958545
23,28243	1097942
23,28657	1232477
23,29068	1340341
23,29480	1428469
23,29893	1507709
23,30305	1510637
23,30717	1453907
23,31130	1340466
23,31542	1183093
23,31953	1003514
23,32367	844064
23,32778	701646
23,33190	565169
23,33603	462045
23,34015	377046
23,34427	318801
23,34840	267038
23,35252	223021
23,35663	192040
23,36075	174215
23,36488	149786
23,36900	133761
23,37312	121365
23,37725	108820
23,38137	101003
23,38548	93949
23,38962	83956
23,39373	78881
23,39785	69807
23,40198	66467
23,40610	60882
23,41022	57162
23,41435	53580
23,41847	51571
23,42258	49186
23,42672	43968
23,43083	43607
23,43495	40254
23,43908	37390
23,44320	35611
23,44732	32262
23,45143	32040
23,45557	30238
23,45968	29699
23,46380	26495
23,46793	26758
23,47205	26041
23,47617	23645
23,48030	22475
23,48442	24453
23,48853	22128
23,49267	21448
23,49678	20774
23,50090	17309
23,50503	18576
23,50915	18169
23,51327	16218
23,51740	17836
23,52152	15422
23,52563	16194
23,52977	16163
23,53388	15331
23,53800	16418
23,54213	15119
23,54625	14802
23,55037	14853
23,55448	15217
23,55862	15637
23,56273	16895
23,56685	16303
23,57098	18031
23,57510	22255
23,57922	27986
23,58335	40162
23,58747	54486
23,59158	79020
23,59572	111443
23,59983	154236
23,60395	206015
23,60808	266858
23,61220	330172
23,61632	395938
23,62045	451064
23,62457	504629
23,62868	535414
23,63282	551873
23,63693	536528
23,64105	513090
23,64517	476806
23,64930	453914
23,65342	420094
23,65753	389667
23,66167	379652
23,66578	376399
23,66990	387589
23,67403	417763
23,67815	455381
23,68227	489897
23,68640	516492
23,69052	530153
23,69463	532969
23,69877	531409
23,70288	511305
23,70700	470625
23,71113	429660
23,71525	384966
23,71937	332254
23,72350	285906
23,72762	242509
23,73173	203016
23,73585	173130
23,73998	146899
23,74410	122864
23,74822	107212
23,75235	91240
23,75647	81141
23,76058	71017
23,76472	65512
23,76883	56214
23,77295	51827
23,77708	50535
23,78120	45222
23,78532	43294
23,78945	42483
23,79357	43011
23,79768	47326
23,80182	55191
23,80593	66943
23,81005	90853
23,81418	119696
23,81830	163650
23,82242	211823
23,82653	276452
23,83067	351269
23,83478	423597
23,83890	507247
23,84303	580995
23,84715	643970
23,85127	687723
23,85540	701516
23,85952	694902
23,86363	665250
23,86777	620956
23,87188	555446
23,87600	495154
23,88013	421674
23,88425	351637
23,88837	298804
23,89250	250098
23,89662	205041
23,90073	174443
23,90487	148298
23,90898	127332
23,91310	111408
23,91722	96885
23,92135	85313
23,92547	75715
23,92958	68362
23,93372	62622
23,93783	55530
23,94195	54979
23,94608	49201
23,95020	47765
23,95432	41215
23,95845	39945
23,96257	37049
23,96668	35957
23,97082	34185
23,97493	30717
23,97905	29432
23,98318	27377
23,98730	26943
23,99142	25519
23,99555	23370
23,99967	23261
24,00378	21114
24,00790	20292
24,01203	19136
24,01615	17962
24,02027	17563
24,02440	17429
24,02852	15882
24,03263	16306
24,03677	14330
24,04088	16427
24,04500	14789
24,04913	15073
24,05325	11804
24,05737	14080
24,06150	13131
24,06562	12402
24,06973	13269
24,07387	11837
24,07798	12152
24,08210	11668
24,08623	11847
24,09035	10046
24,09447	10046
24,09858	10393
24,10272	9467
24,10683	9340
24,11095	9859
24,11508	8692
24,11920	9199
24,12332	10316
24,12745	7942
24,13157	9100
24,13568	8266
24,13982	7940
24,14393	7497
24,14805	7917
24,15218	8583
24,15630	8462
24,16042	7161
24,16455	6891
24,16867	7524
24,17278	6914
24,17692	7466
24,18103	6754
24,18515	7673
24,18927	6324
24,19340	6352
24,19752	6679
24,20163	5937
24,20577	6447
24,20988	6497
24,21400	6429
24,21813	5666
24,22225	6486
24,22637	6633
24,23050	5364
24,23462	6288
24,23873	5405
24,24287	5518
24,24698	6139
24,25110	5970
24,25523	6114
24,25935	5551
24,26347	5820
24,26760	5517
24,27172	5610
24,27583	5827
24,27995	5412
24,28408	6288
24,28820	5399
24,29232	6834
24,29645	7338
24,30057	9861
24,30468	11271
24,30882	16589
24,31293	25138
24,31705	35396
24,32118	52045
24,32530	78368
24,32942	111945
24,33355	153871
24,33767	210924
24,34178	277050
24,34592	352495
24,35003	432573
24,35415	517753
24,35828	602846
24,36240	677555
24,36652	730121
24,37063	762104
24,37477	769216
24,37888	732833
24,38300	671612
24,38713	599912
24,39125	517540
24,39537	439141
24,39950	365625
24,40362	306043
24,40773	253214
24,41187	209216
24,41598	174680
24,42010	148422
24,42423	131372
24,42835	113263
24,43247	98561
24,43660	89573
24,44072	79936
24,44483	69438
24,44897	63223
24,45308	59076
24,45720	54274
24,46132	50341
24,46545	45640
24,46957	43934
24,47368	41391
24,47782	36400
24,48193	35275
24,48605	33897
24,49018	32101
24,49430	28884
24,49842	28952
24,50255	26683
24,50667	26077
24,51078	26029
24,51492	23100
24,51903	23000
24,52315	23332
24,52728	21413
24,53140	20224
24,53552	21362
24,53965	19439
24,54377	18088
24,54788	16272
24,55200	17335
24,55613	17561
24,56025	16651
24,56437	14351
24,56850	13462
24,57262	14057
24,57673	13257
24,58087	12147
24,58498	12929
24,58910	11860
24,59323	11796
24,59735	11631
24,60147	12108
24,60560	10956
24,60972	11256
24,61383	9902
24,61797	9460
24,62208	11910
24,62620	10300
24,63033	10757
24,63445	10671
24,63857	9767
24,64268	10041
24,64682	10001
24,65093	11023
24,65505	12292
24,65918	14176
24,66330	13135
24,66742	12290
24,67155	13054
24,67567	11877
24,67978	10842
24,68392	11147
24,68803	10625
24,69215	12959
24,69628	14796
24,70040	19228
24,70452	26312
24,70865	38358
24,71277	58805
24,71688	82345
24,72102	121674
24,72513	165978
24,72925	221937
24,73337	295902
24,73750	361047
24,74162	446308
24,74573	513681
24,74987	570093
24,75398	626453
24,75810	650087
24,76223	651896
24,76635	651773
24,77047	618776
24,77460	601900
24,77872	580448
24,78283	562263
24,78697	556327
24,79108	557558
24,79520	561605
24,79933	571783
24,80345	577359
24,80757	565199
24,81170	547322
24,81582	520844
24,81993	475810
24,82405	435436
24,82818	378830
24,83230	337524
24,83642	292488
24,84055	248526
24,84467	214947
24,84878	182158
24,85292	152407
24,85703	130479
24,86115	113413
24,86528	101984
24,86940	89202
24,87352	76622
24,87765	70715
24,88177	62005
24,88588	59200
24,89002	55218
24,89413	53005
24,89825	45097
24,90238	42972
24,90650	39246
24,91062	37418
24,91473	36551
24,91887	32606
24,92298	30957
24,92710	30982
24,93123	28217
24,93535	27435
24,93947	25530
24,94360	22643
24,94772	22659
24,95183	22604
24,95597	21183
24,96008	21065
24,96420	20443
24,96833	20806
24,97245	18795
24,97657	17859
24,98070	16440
24,98482	17445
24,98893	16259
24,99307	16249
24,99718	14783
25,00130	13946
25,00542	14164
25,00955	13514
25,01367	13195
25,01778	13775
25,02192	14268
25,02603	13116
25,03015	12443
25,03428	12228
25,03840	11368
25,04252	11495
25,04665	12476
25,05077	10596
25,05488	11267
25,05902	9821
25,06313	10948
25,06725	10009
25,07138	11046
25,07550	9458
25,07962	9156
25,08375	9759
25,08787	8545
25,09198	9320
25,09610	9549
25,10023	9444
25,10435	9634
25,10847	10199
25,11260	9281
25,11672	8827
25,12083	8707
25,12497	9028
25,12908	7992
25,13320	9589
25,13733	8783
25,14145	8825
25,14557	8046
25,14970	8924
25,15382	7625
25,15793	7423
25,16207	8017
25,16618	8118
25,17030	7579
25,17443	7443
25,17855	8340
25,18267	7993
25,18680	7001
25,19092	7516
25,19503	7590
25,19915	7649
25,20328	7301
25,20740	8283
25,21152	7732
25,21565	8251
25,21977	7496
25,22388	6788
25,22802	7098
25,23213	6799
25,23625	7485
25,24038	7697
25,24450	6622
25,24862	7417
25,25275	7397
25,25687	8201
25,26098	6329
25,26512	6832
25,26923	7841
25,27335	6858
25,27748	7170
25,28160	7776
25,28572	7397
25,28983	6508
25,29397	6344
25,29808	7526
25,30220	7475
25,30633	6956
25,31045	7921
25,31457	6593
25,31870	6777
25,32282	5993
25,32693	8073
25,33107	5928
25,33518	7937
25,33930	6901
25,34343	6576
25,34755	7963
25,35167	7536
25,35580	9527
25,35992	11402
25,36403	14077
25,36817	19107
25,37228	27558
25,37640	39765
25,38052	61633
25,38465	85460
25,38877	127003
25,39288	170371
25,39702	232093
25,40113	299334
25,40525	393090
25,40938	482118
25,41350	595272
25,41762	698096
25,42175	825819
25,42587	942777
25,42998	1049642
25,43412	1182526
25,43823	1308291
25,44235	1407520
25,44648	1459103
25,45060	1464208
25,45472	1397114
25,45885	1282367
25,46297	1127958
25,46708	955065
25,47120	787494
25,47533	648509
25,47945	530796
25,48357	443092
25,48770	365713
25,49182	309377
25,49593	266717
25,50007	226332
25,50418	202768
25,50830	175871
25,51243	156001
25,51655	143330
25,52067	130782
25,52480	115345
25,52892	110576
25,53303	100387
25,53717	91003
25,54128	88825
25,54540	81917
25,54953	76876
25,55365	69838
25,55777	68851
25,56188	63401
25,56602	61974
25,57013	56589
25,57425	53039
25,57838	52232
25,58250	49748
25,58662	48682
25,59075	44396
25,59487	43887
25,59898	39024
25,60312	39880
25,60723	40894
25,61135	36805
25,61548	35312
25,61960	35988
25,62372	34553
25,62785	31304
25,63197	31043
25,63608	30922
25,64022	27134
25,64433	29522
25,64845	27052
25,65257	25982
25,65670	25859
25,66082	23120
25,66493	23511
25,66907	23155
25,67318	21669
25,67730	22192
25,68143	21216
25,68555	20213
25,68967	20020
25,69380	20004
25,69792	19706
25,70203	20003
25,70617	18620
25,71028	18128
25,71440	16423
25,71853	16302
25,72265	18459
25,72677	16353
25,73090	16449
25,73502	15418
25,73913	15239
25,74325	15289
25,74738	15302
25,75150	15000
25,75562	15918
25,75975	15118
25,76387	14176
25,76798	13671
25,77212	14435
25,77623	15172
25,78035	13723
25,78448	13251
25,78860	13277
25,79272	13833
25,79685	13476
25,80097	12039
25,80508	11954
25,80922	12507
25,81333	11341
25,81745	12253
25,82158	12529
25,82570	11927
25,82982	12559
25,83393	11892
25,83807	10303
25,84218	11622
25,84630	11589
25,85043	12236
25,85455	11886
25,85867	11515
25,86280	10887
25,86692	10140
25,87103	11777
25,87517	10554
25,87928	10829
25,88340	10284
25,88753	9823
25,89165	10184
25,89577	11363
25,89990	11696
25,90402	13880
25,90813	15786
25,91227	20006
25,91638	28354
25,92050	41874
25,92462	63376
25,92875	89156
25,93287	124044
25,93698	169556
25,94112	224544
25,94523	286989
25,94935	366492
25,95348	435942
25,95760	520851
25,96172	586947
25,96585	662059
25,96997	699266
25,97408	726174
25,97822	720553
25,98233	687036
25,98645	625089
25,99058	560894
25,99470	492447
25,99882	421254
26,00295	354076
26,00707	295810
26,01118	247040
26,01530	209168
26,01943	182546
26,02355	157010
26,02767	136690
26,03180	120330
26,03592	104227
26,04003	95061
26,04417	85141
26,04828	79553
26,05240	71891
26,05653	65579
26,06065	62141
26,06477	58670
26,06890	52492
26,07302	49663
26,07713	46777
26,08127	44181
26,08538	41255
26,08950	39137
26,09363	36971
26,09775	36031
26,10187	34106
26,10598	30948
26,11012	29773
26,11423	27110
26,11835	26500
26,12248	27012
26,12660	24195
26,13072	24510
26,13485	24331
26,13897	21974
26,14308	22957
26,14722	21327
26,15133	21431
26,15545	18749
26,15958	20040
26,16370	18823
26,16782	17806
26,17195	18166
26,17607	18064
26,18018	19426
26,18432	17123
26,18843	17440
26,19255	17017
26,19667	15488
26,20080	14787
26,20492	14571
26,20903	16866
26,21317	15049
26,21728	14615
26,22140	13912
26,22553	14276
26,22965	14405
26,23377	14279
26,23790	14972
26,24202	14686
26,24613	13514
26,25027	15623
26,25438	14522
26,25850	16538
26,26263	16242
26,26675	15937
26,27087	16569
26,27500	17389
26,27912	16698
26,28323	18126
26,28735	16282
26,29148	17008
26,29560	15200
26,29972	15706
26,30385	15959
26,30797	15970
26,31208	14334
26,31622	13525
26,32033	12963
26,32445	12179
26,32858	12776
26,33270	12559
26,33682	12125
26,34095	11056
26,34507	11986
26,34918	11959
26,35332	11172
26,35743	9904
26,36155	11954
26,36568	10375
26,36980	10713
26,37392	10447
26,37803	10236
26,38217	11433
26,38628	10398
26,39040	10009
26,39453	10161
26,39865	11052
26,40277	12198
26,40690	10528
26,41102	10824
26,41513	11500
26,41927	9941
26,42338	10159
26,42750	10016
26,43163	9373
26,43575	9921
26,43987	10679
26,44400	9766
26,44812	8523
26,45223	9636
26,45637	9586
26,46048	9618
26,46460	10129
26,46872	10115
26,47285	10119
26,47697	8692
26,48108	9405
26,48522	9919
26,48933	9516
26,49345	9677
26,49758	9914
26,50170	9493
26,50582	9801
26,50995	8626
26,51407	8827
26,51818	9622
26,52232	9593
26,52643	8810
26,53055	9355
26,53468	10338
26,53880	9469
26,54292	9560
26,54705	9884
26,55117	9099
26,55528	9869
26,55940	8556
26,56353	10819
26,56765	9142
26,57177	9404
26,57590	9318
26,58002	9778
26,58413	9021
26,58827	9793
26,59238	9996
26,59650	11154
26,60063	11650
26,60475	9847
26,60887	9426
26,61300	8237
26,61712	10243
26,62123	9802
26,62537	9574
26,62948	9765
26,63360	9973
26,63773	9461
26,64185	8860
26,64597	8515
26,65008	8915
26,65422	8065
26,65833	8843
26,66245	9108
26,66658	9665
26,67070	9442
26,67482	8302
26,67895	9742
26,68307	8143
26,68718	8624
26,69132	7208
26,69543	8910
26,69955	8002
26,70368	8810
26,70780	8886
26,71192	8956
26,71605	8646
26,72017	8811
26,72428	9059
26,72842	9308
26,73253	9244
26,73665	8180
26,74078	8384
26,74490	7941
26,74902	8877
26,75313	8709
26,75727	8445
26,76138	9624
26,76550	8756
26,76963	7903
26,77375	9717
26,77787	9011
26,78200	7638
26,78612	8042
26,79023	9483
26,79437	8645
26,79848	9615
26,80260	9556
26,80673	8956
26,81085	9277
26,81497	9375
26,81910	10215
26,82322	9361
26,82733	10203
26,83147	9574
26,83558	9034
26,83970	9558
26,84382	9921
26,84795	9045
26,85207	8946
26,85618	8496
26,86032	9625
26,86443	9134
26,86855	8830
26,87268	9997
26,87680	9648
26,88092	9361
26,88505	9070
26,88917	9133
26,89328	9528
26,89742	9128
26,90153	10018
26,90565	9712
26,90978	10005
26,91390	9279
26,91802	8611
26,92215	9935
26,92627	8804
26,93038	6705
26,93450	10065
26,93863	9304
26,94275	10698
26,94687	11426
26,95100	12277
26,95512	12793
26,95923	13625
26,96337	11074
26,96748	11617
26,97160	11308
26,97573	11814
26,97985	9492
26,98397	8348
26,98810	9447
26,99222	9568
26,99633	8755
27,00047	7881
27,00458	9091
27,00870	8166
27,01283	9855
27,01695	9631
27,02107	10230
27,02518	9775
27,02932	8960
27,03343	8233
27,03755	7828
27,04168	10011
27,04580	10212
27,04992	8255
27,05405	8798
27,05817	8764
27,06228	7616
27,06642	7148
27,07053	8588
27,07465	8859
27,07878	9199
27,08290	8946
27,08702	9419
27,09115	7226
27,09527	8460
27,09938	8729
27,10352	8821
27,10763	8948
27,11175	8738
27,11587	7330
27,12000	9963
27,12412	9581
27,12823	8546
27,13237	8010
27,13648	8423
27,14060	9183
27,14473	7264
27,14885	10285
27,15297	9136
27,15710	8852
27,16122	9666
27,16533	8536
27,16947	9648
27,17358	10621
27,17770	9869
27,18183	10890
27,18595	8847
27,19007	9313
27,19420	9089
27,19832	9016
27,20243	9973
27,20655	9281
27,21068	10340
27,21480	9289
27,21892	9008
27,22305	9415
27,22717	8194
27,23128	8707
27,23542	8703
27,23953	9363
27,24365	8928
27,24778	9635
27,25190	8701
27,25602	8666
27,26015	8946
27,26427	10124
27,26838	9066
27,27252	9699
27,27663	8020
27,28075	8504
27,28488	9516
27,28900	8923
27,29312	9009
27,29723	9697
27,30137	9414
27,30548	9834
27,30960	10271
27,31373	11032
27,31785	9542
27,32197	9892
27,32610	8962
27,33022	9146
27,33433	9020
27,33847	8773
27,34258	10564
27,34670	11103
27,35083	9384
27,35495	11409
27,35907	10874
27,36320	14929
27,36732	17906
27,37143	24035
27,37557	34166
27,37968	47510
27,38380	69315
27,38792	98548
27,39205	130805
27,39617	175650
27,40028	221831
27,40442	274868
27,40853	317623
27,41265	364034
27,41678	402318
27,42090	418712
27,42502	427145
27,42915	424213
27,43327	406479
27,43738	375421
27,44152	334792
27,44563	297876
27,44975	255285
27,45388	222428
27,45800	191283
27,46212	160248
27,46625	136432
27,47037	117164
27,47448	99766
27,47860	88536
27,48273	77687
27,48685	68794
27,49097	62779
27,49510	55031
27,49922	51682
27,50333	47060
27,50747	42844
27,51158	39747
27,51570	38713
27,51983	34820
27,52395	35505
27,52807	30574
27,53220	30040
27,53632	28399
27,54043	27231
27,54457	25664
27,54868	22369
27,55280	24858
27,55693	23614
27,56105	21729
27,56517	21383
27,56928	20992
27,57342	20134
27,57753	20305
27,58165	17377
27,58578	21313
27,58990	19538
27,59402	18152
27,59815	18187
27,60227	17774
27,60638	16886
27,61052	16156
27,61463	15220
27,61875	18179
27,62288	15430
27,62700	17004
27,63112	15833
27,63525	16814
27,63937	15284
27,64348	14234
27,64762	13413
27,65173	15137
27,65585	15946
27,65997	14860
27,66410	14191
27,66822	14335
27,67233	14722
27,67647	12696
27,68058	13653
27,68470	14094
27,68883	13613
27,69295	13106
27,69707	12582
27,70120	13112
27,70532	13805
27,70943	12870
27,71357	11589
27,71768	13617
27,72180	12082
27,72593	10982
27,73005	12275
27,73417	12065
27,73830	13282
27,74242	13125
27,74653	12427
27,75065	11295
27,75478	12544
27,75890	13278
27,76302	12872
27,76715	11504
27,77127	12312
27,77538	11170
27,77952	11802
27,78363	12246
27,78775	11152
27,79188	11651
27,79600	11428
27,80012	11881
27,80425	12286
27,80837	10541
27,81248	10396
27,81662	12514
27,82073	12307
27,82485	12431
27,82898	13014
27,83310	12366
27,83722	11371
27,84133	12797
27,84547	12147
27,84958	12588
27,85370	12901
27,85783	10915
27,86195	12881
27,86607	12217
27,87020	13189
27,87432	12023
27,87843	11347
27,88257	13621
27,88668	12373
27,89080	12280
27,89493	11604
27,89905	10731
27,90317	12704
27,90730	11061
27,91142	11913
27,91553	12876
27,91967	13268
27,92378	13370
27,92790	12999
27,93202	13689
27,93615	13977
27,94027	12358
27,94438	13502
27,94852	11844
27,95263	13589
27,95675	12790
27,96088	12535
27,96500	13151
27,96912	12754
27,97325	12888
27,97737	12881
27,98148	12135
27,98562	12852
27,98973	12851
27,99385	11772
27,99798	12628
28,00210	12955
28,00622	13974
28,01035	13578
28,01447	13618
28,01858	13413
28,02270	12367
28,02683	11702
28,03095	11661
28,03507	12270
28,03920	13387
28,04332	11543
28,04743	13109
28,05157	11455
28,05568	11942
28,05980	12426
28,06393	13220
28,06805	13361
28,07217	12403
28,07630	11636
28,08042	11794
28,08453	11810
28,08867	11527
28,09278	10315
28,09690	9942
28,10103	11715
28,10515	11377
28,10927	10548
28,11338	10513
28,11752	11050
28,12163	11268
28,12575	12526
28,12988	12764
28,13400	12676
28,13812	11726
28,14225	11460
28,14637	11179
28,15048	12221
28,15462	12567
28,15873	12061
28,16285	13234
28,16698	11392
28,17110	11900
28,17522	11185
28,17935	13879
28,18347	13092
28,18758	11719
28,19172	11346
28,19583	12613
28,19995	12346
28,20407	12522
28,20820	11935
28,21232	12943
28,21643	12702
28,22057	12448
28,22468	13102
28,22880	12257
28,23293	12619
28,23705	12053
28,24117	11524
28,24530	12592
28,24942	11813
28,25353	12945
28,25767	12148
28,26178	12828
28,26590	12632
28,27003	12407
28,27415	11965
28,27827	14449
28,28240	13357
28,28652	11958
28,29063	12522
28,29475	12160
28,29888	13627
28,30300	14738
28,30712	14015
28,31125	13779
28,31537	14184
28,31948	12256
28,32362	13286
28,32773	12966
28,33185	13565
28,33598	13453
28,34010	12153
28,34422	13994
28,34835	13960
28,35247	13351
28,35658	12799
28,36072	12731
28,36483	12601
28,36895	13108
28,37308	13148
28,37720	13274
28,38132	13326
28,38545	13457
28,38957	12120
28,39368	11533
28,39780	12957
28,40193	13109
28,40605	13733
28,41017	13688
28,41430	13655
28,41842	13799
28,42253	13999
28,42667	12847
28,43078	16187
28,43490	14332
28,43903	14252
28,44315	14159
28,44727	13867
28,45140	12382
28,45552	14482
28,45963	14385
28,46377	13824
28,46788	13879
28,47200	12400
28,47613	11473
28,48025	13623
28,48437	11330
28,48848	12456
28,49262	13041
28,49673	12643
28,50085	11649
28,50498	11414
28,50910	14072
28,51322	12332
28,51735	11340
28,52147	12401
28,52558	12449
28,52972	13151
28,53383	11660
28,53795	12714
28,54208	13779
28,54620	14160
28,55032	11663
28,55445	12587
28,55857	12960
28,56268	13093
28,56682	11727
28,57093	14355
28,57505	13393
28,57917	12086
28,58330	12260
28,58742	13189
28,59153	12411
28,59567	12419
28,59978	12805
28,60390	11683
28,60803	12179
28,61215	12070
28,61627	12667
28,62040	12097
28,62452	11701
28,62863	12918
28,63277	13359
28,63688	13523
28,64100	12468
28,64513	12527
28,64925	13083
28,65337	13220
28,65750	12329
28,66162	12396
28,66573	12505
28,66985	13798
28,67398	13573
28,67810	13424
28,68222	13749
28,68635	13562
28,69047	13422
28,69458	14371
28,69872	13536
28,70283	13687
28,70695	13203
28,71108	14135
28,71520	13669
28,71932	12087
28,72345	13141
28,72757	13452
28,73168	12965
28,73582	13495
28,73993	12677
28,74405	13433
28,74818	13279
28,75230	13096
28,75642	13194
28,76053	11349
28,76467	12144
28,76878	13794
28,77290	12457
28,77703	14002
28,78115	12391
28,78527	12105
28,78940	13236
28,79352	13106
28,79763	14665
28,80177	13253
28,80588	13905
28,81000	13551
28,81413	13705
28,81825	15709
28,82237	13111
28,82650	15366
28,83062	12381
28,83473	13317
28,83887	12681
28,84298	13184
28,84710	13595
28,85122	14043
28,85535	13889
28,85947	14238
28,86358	11887
28,86772	13476
28,87183	12637
28,87595	12864
28,88008	13730
28,88420	14638
28,88832	13426
28,89245	13988
28,89657	14068
28,90068	12621
28,90482	12643
28,90893	14226
28,91305	13980
28,91718	13313
28,92130	13378
28,92542	14610
28,92955	14040
28,93367	14022
28,93778	15521
28,94190	13378
28,94603	13246
28,95015	12898
28,95427	12485
28,95840	13759
28,96252	12923
28,96663	12868
28,97077	12341
28,97488	14468
28,97900	12940
28,98313	13385
28,98725	11870
28,99137	11288
28,99550	13454
28,99962	13777
29,00373	12237
29,00787	12733
29,01198	12404
29,01610	12845
29,02023	12160
29,02435	12224
29,02847	13640
29,03258	12452
29,03672	13887
