D:\MassHunter\GCMS\1\data\Amal\Constant flow\140C\140C_1ml-min_5C-min_1.D Fri Jul 26 17:20:08 2024
Start of data points
5,04122	353666
5,04567	336205
5,05010	328633
5,05455	311606
5,05898	298787
5,06343	284643
5,06787	274641
5,07232	265147
5,07675	253540
5,08120	244789
5,08565	237314
5,09008	230015
5,09453	221032
5,09897	210363
5,10342	198245
5,10785	197147
5,11230	189900
5,11673	184784
5,12118	176033
5,12562	169708
5,13007	164729
5,13450	158681
5,13895	155225
5,14338	147918
5,14783	142138
5,15227	140114
5,15672	133255
5,16115	129804
5,16560	127790
5,17003	121300
5,17448	116895
5,17892	114668
5,18337	112478
5,18780	106155
5,19225	102361
5,19668	101187
5,20113	99857
5,20558	96951
5,21002	92698
5,21447	94103
5,21890	92122
5,22335	89409
5,22778	88448
5,23223	85965
5,23667	84883
5,24112	79785
5,24555	80450
5,25000	79429
5,25443	78768
5,25888	79347
5,26332	75040
5,26777	74638
5,27220	71762
5,27665	72799
5,28108	70050
5,28553	67768
5,28997	68421
5,29442	70189
5,29885	68000
5,30330	67373
5,30773	66812
5,31218	65850
5,31662	64357
5,32107	63515
5,32552	63403
5,32995	64628
5,33440	62294
5,33883	64358
5,34328	63809
5,34772	62305
5,35217	61580
5,35660	59601
5,36105	60512
5,36548	57154
5,36993	60524
5,37437	59960
5,37882	58689
5,38325	57462
5,38770	57187
5,39213	57371
5,39658	57653
5,40102	56863
5,40547	53458
5,40990	55797
5,41435	54936
5,41878	55240
5,42323	52699
5,42767	52624
5,43212	51073
5,43655	56438
5,44100	53221
5,44545	53151
5,44988	53716
5,45433	53052
5,45877	53297
5,46322	51867
5,46765	51770
5,47210	51734
5,47653	50149
5,48098	50627
5,48542	51381
5,48987	50352
5,49430	49535
5,49875	51591
5,50318	50263
5,50763	49458
5,51207	50048
5,51652	51100
5,52095	50468
5,52540	51266
5,52983	47893
5,53428	49061
5,53872	47915
5,54317	48809
5,54760	49041
5,55205	48370
5,55648	47590
5,56093	47798
5,56538	46536
5,56982	46846
5,57427	47961
5,57870	46178
5,58315	46761
5,58758	46478
5,59203	45942
5,59647	46613
5,60092	49573
5,60535	46585
5,60980	44811
5,61423	44881
5,61868	44926
5,62312	46192
5,62757	45856
5,63200	43430
5,63645	44704
5,64088	44040
5,64533	43921
5,64977	45064
5,65422	45123
5,65865	44823
5,66310	44405
5,66753	44348
5,67198	43338
5,67642	42517
5,68087	47394
5,68532	56407
5,68975	72430
5,69420	105832
5,69863	149507
5,70308	211661
5,70752	286553
5,71197	352009
5,71640	403779
5,72085	432692
5,72528	449316
5,72973	451469
5,73417	453108
5,73862	439471
5,74305	435638
5,74750	424040
5,75193	409547
5,75638	395316
5,76082	383447
5,76527	376201
5,76970	360661
5,77415	350323
5,77858	334595
5,78303	325922
5,78747	311933
5,79192	305127
5,79635	298785
5,80080	282869
5,80523	272438
5,80968	262871
5,81413	251721
5,81857	242753
5,82302	231268
5,82745	220968
5,83190	211987
5,83633	207035
5,84078	197207
5,84522	186290
5,84967	180823
5,85410	169745
5,85855	159926
5,86298	155883
5,86743	144322
5,87187	135081
5,87632	127812
5,88075	120815
5,88520	114346
5,88963	109262
5,89408	100671
5,89852	94303
5,90297	90781
5,90740	85875
5,91185	81289
5,91628	78191
5,92073	71311
5,92517	69415
5,92962	65753
5,93407	63227
5,93850	62011
5,94295	61219
5,94738	57328
5,95183	56570
5,95627	51843
5,96072	50112
5,96515	49461
5,96960	48489
5,97403	44382
5,97848	45986
5,98292	43709
5,98737	44517
5,99180	40935
5,99625	42713
6,00068	42644
6,00513	39568
6,00957	38606
6,01402	38487
6,01845	38571
6,02290	37505
6,02733	38290
6,03178	38861
6,03622	35748
6,04067	36810
6,04510	36617
6,04955	36302
6,05400	36118
6,05843	35993
6,06288	36274
6,06732	35272
6,07177	35349
6,07620	34582
6,08065	34884
6,08508	32639
6,08953	33908
6,09397	31871
6,09842	34225
6,10285	33120
6,10730	33889
6,11173	34734
6,11618	33749
6,12062	33612
6,12507	33365
6,12950	34575
6,13395	33422
6,13838	33721
6,14283	32317
6,14727	32821
6,15172	33520
6,15615	31582
6,16060	32624
6,16503	31235
6,16948	32316
6,17393	32928
6,17837	31384
6,18282	31279
6,18725	32226
6,19170	30778
6,19613	31273
6,20058	31220
6,20502	30552
6,20947	33369
6,21390	33915
6,21835	40632
6,22278	55470
6,22723	74648
6,23167	100450
6,23612	138629
6,24055	180535
6,24500	219033
6,24943	249767
6,25388	269721
6,25832	285412
6,26277	287495
6,26720	291384
6,27165	283835
6,27608	281604
6,28053	273443
6,28497	265191
6,28942	253958
6,29387	246777
6,29830	235858
6,30275	233309
6,30718	220772
6,31163	215442
6,31607	206280
6,32052	199101
6,32495	189391
6,32940	179166
6,33383	168816
6,33828	164450
6,34272	158133
6,34717	152594
6,35160	144598
6,35605	139964
6,36048	130819
6,36493	128164
6,36937	117174
6,37382	113412
6,37825	105359
6,38270	99851
6,38713	94972
6,39158	86215
6,39602	81109
6,40047	74989
6,40490	69950
6,40935	66426
6,41380	61758
6,41823	59071
6,42268	54083
6,42712	54030
6,43157	49214
6,43600	48652
6,44045	45441
6,44488	43292
6,44933	41627
6,45377	39084
6,45822	39111
6,46265	36954
6,46710	36113
6,47153	34838
6,47598	34205
6,48042	31643
6,48487	31499
6,48930	30621
6,49375	29292
6,49818	28514
6,50263	28852
6,50707	28614
6,51152	28298
6,51595	28516
6,52040	27797
6,52483	26495
6,52928	25501
6,53372	24630
6,53817	25940
6,54262	25313
6,54705	25495
6,55150	25255
6,55593	25857
6,56038	22826
6,56482	24232
6,56927	24004
6,57370	24450
6,57815	23366
6,58258	23630
6,58703	24647
6,59147	24018
6,59592	22923
6,60035	25332
6,60480	24910
6,60923	24267
6,61368	24453
6,61812	24668
6,62257	23683
6,62700	24424
6,63145	24432
6,63588	23573
6,64033	24770
6,64477	25194
6,64922	22305
6,65365	22964
6,65810	23387
6,66255	22040
6,66698	23127
6,67143	23586
6,67587	22725
6,68032	23345
6,68475	23740
6,68920	21714
6,69363	22703
6,69808	22516
6,70252	22403
6,70697	22147
6,71140	22407
6,71585	22501
6,72028	22575
6,72473	21120
6,72917	20420
6,73362	21665
6,73805	22484
6,74250	20819
6,74693	21403
6,75138	22124
6,75582	22501
6,76027	21930
6,76470	21475
6,76915	21916
6,77358	21839
6,77803	21885
6,78248	22520
6,78692	21718
6,79137	21077
6,79580	22095
6,80025	21270
6,80468	21700
6,80913	20813
6,81357	21010
6,81802	21115
6,82245	23191
6,82690	21887
6,83133	21920
6,83578	21858
6,84022	22650
6,84467	22195
6,84910	21995
6,85355	21718
6,85798	23103
6,86243	25209
6,86687	31138
6,87132	43610
6,87575	64224
6,88020	102752
6,88463	160749
6,88908	238325
6,89352	322460
6,89797	412726
6,90242	496571
6,90685	564499
6,91130	619013
6,91573	643651
6,92018	662942
6,92462	663708
6,92907	646337
6,93350	641434
6,93795	616394
6,94238	590792
6,94683	565813
6,95127	543489
6,95572	521324
6,96015	497350
6,96460	471886
6,96903	450182
6,97348	421719
6,97792	409362
6,98237	382516
6,98680	361364
6,99125	343540
6,99568	319352
7,00013	299818
7,00457	279449
7,00902	260531
7,01345	240678
7,01790	224019
7,02235	202966
7,02678	189441
7,03123	171300
7,03567	158122
7,04012	142438
7,04455	126054
7,04900	116562
7,05343	107838
7,05788	97547
7,06232	88695
7,06677	79606
7,07120	72555
7,07565	68899
7,08008	60926
7,08453	58991
7,08897	53230
7,09342	47751
7,09785	46189
7,10230	42117
7,10673	39898
7,11118	37127
7,11562	34906
7,12007	33693
7,12450	31076
7,12895	29616
7,13338	27397
7,13783	27805
7,14228	27259
7,14672	25395
7,15117	25756
7,15560	24167
7,16005	23647
7,16448	23628
7,16893	22739
7,17337	22257
7,17782	22838
7,18225	22793
7,18670	20067
7,19113	21201
7,19558	20801
7,20002	20856
7,20447	20340
7,20890	19969
7,21335	19827
7,21778	20599
7,22223	18960
7,22667	20394
7,23112	20045
7,23555	19942
7,24000	19067
7,24443	18395
7,24888	20069
7,25332	19095
7,25777	18366
7,26220	18607
7,26665	18483
7,27110	17740
7,27553	18575
7,27998	17231
7,28442	19338
7,28887	19410
7,29330	18163
7,29775	18333
7,30218	17583
7,30663	17682
7,31107	18293
7,31552	18553
7,31995	18550
7,32440	18524
7,32883	18398
7,33328	17906
7,33772	17498
7,34217	18585
7,34660	17845
7,35105	18019
7,35548	17945
7,35993	17963
7,36437	16514
7,36882	16825
7,37325	16967
7,37770	17199
7,38213	17344
7,38658	17658
7,39103	18068
7,39547	17322
7,39992	16741
7,40435	17444
7,40880	16018
7,41323	16278
7,41768	17114
7,42212	17091
7,42657	16687
7,43100	17303
7,43545	17141
7,43988	16863
7,44433	17882
7,44877	17090
7,45322	16816
7,45765	17350
7,46210	17310
7,46653	16623
7,47098	17423
7,47542	16377
7,47987	16500
7,48430	17262
7,48875	16693
7,49318	16482
7,49763	17110
7,50207	17071
7,50652	16654
7,51097	16575
7,51540	15960
7,51985	16695
7,52428	17225
7,52873	16856
7,53317	16881
7,53762	16647
7,54205	16464
7,54650	15440
7,55093	16120
7,55538	16089
7,55982	17790
7,56427	16604
7,56870	16955
7,57315	16537
7,57758	16572
7,58203	15963
7,58647	17332
7,59092	15808
7,59535	17407
7,59980	16192
7,60423	15230
7,60868	16574
7,61312	15982
7,61757	15989
7,62200	17169
7,62645	16573
7,63090	17049
7,63533	18850
7,63978	18745
7,64422	23018
7,64867	30808
7,65310	39092
7,65755	58350
7,66198	84727
7,66643	120475
7,67087	166209
7,67532	214498
7,67975	263444
7,68420	310930
7,68863	348921
7,69308	374089
7,69752	385975
7,70197	393302
7,70640	388903
7,71085	382491
7,71528	366919
7,71973	355817
7,72417	346320
7,72862	327823
7,73305	311058
7,73750	298593
7,74193	281620
7,74638	260910
7,75083	242240
7,75527	229919
7,75972	208117
7,76415	196998
7,76860	183014
7,77303	167001
7,77748	151489
7,78192	136892
7,78637	123890
7,79080	113500
7,79525	101857
7,79968	91960
7,80413	82474
7,80857	75553
7,81302	66526
7,81745	61608
7,82190	54620
7,82633	50887
7,83078	45492
7,83522	39641
7,83967	37685
7,84410	34849
7,84855	32441
7,85298	31464
7,85743	27601
7,86187	26379
7,86632	26925
7,87077	24104
7,87520	23931
7,87965	22426
7,88408	20336
7,88853	20065
7,89297	20410
7,89742	19024
7,90185	18484
7,90630	18446
7,91073	17147
7,91518	17964
7,91962	16995
7,92407	17339
7,92850	17376
7,93295	16574
7,93738	17049
7,94183	16525
7,94627	15307
7,95072	16723
7,95515	15550
7,95960	15268
7,96403	16267
7,96848	14459
7,97292	15535
7,97737	14951
7,98180	15861
7,98625	15973
7,99068	14333
7,99513	13639
7,99958	14672
8,00402	14820
8,00847	15628
8,01290	14965
8,01735	13900
8,02178	14387
8,02623	15113
8,03067	13844
8,03512	14520
8,03955	14893
8,04400	14254
8,04843	14947
8,05288	14550
8,05732	14477
8,06177	13608
8,06620	15105
8,07065	14093
8,07508	14602
8,07953	13842
8,08397	14821
8,08842	15013
8,09285	14442
8,09730	13735
8,10173	13754
8,10618	15596
8,11062	15338
8,11507	15824
8,11952	15770
8,12395	15075
8,12840	15362
8,13283	15691
8,13728	16089
8,14172	15395
8,14617	14908
8,15060	14370
8,15505	15438
8,15948	15413
8,16393	15428
8,16837	15469
8,17282	14450
8,17725	14576
8,18170	14908
8,18613	13848
8,19058	14938
8,19502	14314
8,19947	13803
8,20390	14025
8,20835	13558
8,21278	13847
8,21723	13522
8,22167	14563
8,22612	13029
8,23055	14641
8,23500	13581
8,23945	13775
8,24388	13224
8,24833	14089
8,25277	14042
8,25722	12899
8,26165	13241
8,26610	13330
8,27053	13321
8,27498	14310
8,27942	14145
8,28387	13623
8,28830	14113
8,29275	12960
8,29718	12609
8,30163	13561
8,30607	13072
8,31052	13891
8,31495	12538
8,31940	13169
8,32383	13364
8,32828	13587
8,33272	13503
8,33717	13652
8,34160	13587
8,34605	13629
8,35048	12952
8,35493	12248
8,35938	13512
8,36382	13234
8,36827	12514
8,37270	13247
8,37715	12502
8,38158	12940
8,38603	13303
8,39047	12974
8,39492	12841
8,39935	14300
8,40380	12994
8,40823	13447
8,41268	14678
8,41712	13678
8,42157	14141
8,42600	14621
8,43045	14234
8,43488	14274
8,43933	15421
8,44377	15960
8,44822	13427
8,45265	14414
8,45710	13903
8,46153	15733
8,46598	13575
8,47042	14234
8,47487	14666
8,47932	13795
8,48375	14493
8,48820	13312
8,49263	13203
8,49708	13704
8,50152	13224
8,50597	14208
8,51040	14013
8,51485	13870
8,51928	14092
8,52373	14209
8,52817	14593
8,53262	18793
8,53705	24599
8,54150	39011
8,54593	61493
8,55038	97583
8,55482	154926
8,55927	230186
8,56370	327499
8,56815	433523
8,57258	543754
8,57703	651048
8,58147	749133
8,58592	813364
8,59035	864811
8,59480	900315
8,59925	916534
8,60368	905826
8,60813	875823
8,61257	840859
8,61702	803493
8,62145	756553
8,62590	718997
8,63033	660049
8,63478	617868
8,63922	565839
8,64367	511308
8,64810	465748
8,65255	415715
8,65698	368268
8,66143	325038
8,66587	288546
8,67032	245906
8,67475	216725
8,67920	189713
8,68363	163829
8,68808	141132
8,69252	121833
8,69697	106338
8,70140	91371
8,70585	80711
8,71028	71752
8,71473	62033
8,71917	57232
8,72362	48739
8,72807	44308
8,73250	39113
8,73695	37966
8,74138	33932
8,74583	32683
8,75027	29545
8,75472	26979
8,75915	25443
8,76360	25216
8,76803	26272
8,77248	22521
8,77692	24469
8,78137	23327
8,78580	21974
8,79025	21464
8,79468	21808
8,79913	21411
8,80357	21251
8,80802	19580
8,81245	19400
8,81690	19033
8,82133	19600
8,82578	18637
8,83022	18999
8,83467	17456
8,83910	16943
8,84355	17250
8,84800	17392
8,85243	16085
8,85688	18646
8,86132	17603
8,86577	17722
8,87020	14799
8,87465	15589
8,87908	15063
8,88353	15292
8,88797	15367
8,89242	14541
8,89685	14400
8,90130	14981
8,90573	13610
8,91018	14214
8,91462	14313
8,91907	13538
8,92350	13377
8,92795	12507
8,93238	13489
8,93683	13011
8,94127	12277
8,94572	12536
8,95015	12786
8,95460	13704
8,95903	14142
8,96348	12774
8,96793	12879
8,97237	13754
8,97682	14424
8,98125	14185
8,98570	13513
8,99013	13470
8,99458	14397
8,99902	14182
9,00347	13932
9,00790	13913
9,01235	13845
9,01678	15452
9,02123	15066
9,02567	14232
9,03012	14082
9,03455	13865
9,03900	14225
9,04343	14247
9,04788	14892
9,05232	14757
9,05677	13765
9,06120	14203
9,06565	14119
9,07008	15246
9,07453	14812
9,07897	14090
9,08342	13233
9,08787	13601
9,09230	13055
9,09675	13592
9,10118	12930
9,10563	13495
9,11007	12756
9,11452	13577
9,11895	13000
9,12340	12555
9,12783	11715
9,13228	12473
9,13672	11598
9,14117	12993
9,14560	12390
9,15005	11785
9,15448	11661
9,15893	12103
9,16337	12187
9,16782	11843
9,17225	12257
9,17670	11923
9,18113	11645
9,18558	12010
9,19002	11968
9,19447	11995
9,19890	11390
9,20335	11170
9,20780	11878
9,21223	11401
9,21668	10886
9,22112	11153
9,22557	10543
9,23000	11758
9,23445	10864
9,23888	11651
9,24333	11712
9,24777	12136
9,25222	12312
9,25665	13000
9,26110	16822
9,26553	24978
9,26998	34430
9,27442	52710
9,27887	80282
9,28330	113584
9,28775	157909
9,29218	208591
9,29663	255855
9,30107	312845
9,30552	360117
9,30995	394033
9,31440	426126
9,31883	447978
9,32328	452088
9,32773	442197
9,33217	433175
9,33662	414857
9,34105	389747
9,34550	371583
9,34993	338522
9,35438	312947
9,35882	287390
9,36327	257528
9,36770	230391
9,37215	209929
9,37658	186097
9,38103	160047
9,38547	139344
9,38992	120502
9,39435	104655
9,39880	91433
9,40323	81953
9,40768	69395
9,41212	61133
9,41657	52240
9,42100	47531
9,42545	41100
9,42988	36261
9,43433	31694
9,43877	30548
9,44322	26267
9,44765	26015
9,45210	23922
9,45655	21098
9,46098	20426
9,46543	19561
9,46987	18274
9,47432	17383
9,47875	17335
9,48320	15772
9,48763	14909
9,49208	14346
9,49652	14454
9,50097	13492
9,50540	14023
9,50985	13377
9,51428	14221
9,51873	14452
9,52317	16683
9,52762	23545
9,53205	32713
9,53650	49186
9,54093	74245
9,54538	103851
9,54982	149521
9,55427	202708
9,55870	262347
9,56315	325613
9,56758	384410
9,57203	433679
9,57648	477194
9,58092	499685
9,58537	509902
9,58980	515506
9,59425	506692
9,59868	484081
9,60313	452944
9,60757	426150
9,61202	393467
9,61645	364019
9,62090	324225
9,62533	289796
9,62978	254249
9,63422	221146
9,63867	191237
9,64310	165882
9,64755	140651
9,65198	121526
9,65643	102238
9,66087	87845
9,66532	74096
9,66975	62532
9,67420	55367
9,67863	47749
9,68308	42720
9,68752	38608
9,69197	34112
9,69642	30466
9,70085	27621
9,70530	25076
9,70973	21743
9,71418	23357
9,71862	19199
9,72307	19170
9,72750	17752
9,73195	17936
9,73638	16994
9,74083	15964
9,74527	14515
9,74972	15406
9,75415	14491
9,75860	13179
9,76303	14684
9,76748	13820
9,77192	13349
9,77637	12916
9,78080	13061
9,78525	12186
9,78968	11546
9,79413	11457
9,79857	12504
9,80302	11412
9,80745	11885
9,81190	12478
9,81635	12236
9,82078	12159
9,82523	11155
9,82967	11434
9,83412	11124
9,83855	11684
9,84300	11688
9,84743	12043
9,85188	10288
9,85632	10767
9,86077	11287
9,86520	10685
9,86965	10892
9,87408	10263
9,87853	11150
9,88297	11391
9,88742	10774
9,89185	10953
9,89630	10488
9,90073	10620
9,90518	10993
9,90962	10607
9,91407	11007
9,91850	10461
9,92295	10103
9,92738	10612
9,93183	10772
9,93628	10205
9,94072	10459
9,94517	9642
9,94960	10501
9,95405	9775
9,95848	10583
9,96293	9735
9,96737	10516
9,97182	9685
9,97625	9958
9,98070	10091
9,98513	11576
9,98958	9949
9,99402	9860
9,99847	10110
10,00290	9739
10,00735	9431
10,01178	10328
10,01623	10462
10,02067	10284
10,02512	9493
10,02955	11120
10,03400	9608
10,03843	10431
10,04288	10535
10,04732	9603
10,05177	10886
10,05622	10285
10,06065	9820
10,06510	10271
10,06953	9165
10,07398	9904
10,07842	9537
10,08287	10414
10,08730	10708
10,09175	9941
10,09618	9987
10,10063	10776
10,10507	9973
10,10952	10733
10,11395	10596
10,11840	9726
10,12283	10501
10,12728	10228
10,13172	8920
10,13617	10823
10,14060	10197
10,14505	10742
10,14948	9051
10,15393	9640
10,15837	11059
10,16282	9580
10,16725	10378
10,17170	10553
10,17613	9583
10,18058	9664
10,18503	10055
10,18947	10413
10,19392	9753
10,19835	9969
10,20280	10478
10,20723	9657
10,21168	9253
10,21612	9591
10,22057	9966
10,22500	10092
10,22945	9442
10,23388	9951
10,23833	10991
10,24277	9641
10,24722	9746
10,25165	9314
10,25610	9356
10,26053	9551
10,26498	9636
10,26942	9963
10,27387	9957
10,27830	9832
10,28275	9503
10,28718	9364
10,29163	10419
10,29607	11665
10,30052	11119
10,30497	12266
10,30940	16889
10,31385	25815
10,31828	38738
10,32273	63247
10,32717	92466
10,33162	134584
10,33605	185296
10,34050	243268
10,34493	307882
10,34938	364549
10,35382	419446
10,35827	460827
10,36270	493249
10,36715	511645
10,37158	515892
10,37603	504490
10,38047	491826
10,38492	452124
10,38935	430116
10,39380	390443
10,39823	350800
10,40268	315347
10,40712	274415
10,41157	238959
10,41600	206144
10,42045	173887
10,42490	146748
10,42933	122788
10,43378	105821
10,43822	89225
10,44267	75533
10,44710	65219
10,45155	55967
10,45598	47479
10,46043	41187
10,46487	37435
10,46932	32573
10,47375	28756
10,47820	26740
10,48263	24035
10,48708	21191
10,49152	20576
10,49597	18954
10,50040	18364
10,50485	17716
10,50928	17988
10,51373	16112
10,51817	15538
10,52262	14138
10,52705	14334
10,53150	13894
10,53593	13690
10,54038	12766
10,54483	12082
10,54927	12279
10,55372	12146
10,55815	12769
10,56260	11897
10,56703	13823
10,57148	13166
10,57592	16122
10,58037	21283
10,58480	33850
10,58925	51018
10,59368	84371
10,59813	135352
10,60257	211609
10,60702	320967
10,61145	447129
10,61590	599170
10,62033	785301
10,62478	981604
10,62922	1169935
10,63367	1370504
10,63810	1533628
10,64255	1662568
10,64698	1751280
10,65143	1817773
10,65587	1776182
10,66032	1694316
10,66477	1588279
10,66920	1446006
10,67365	1275523
10,67808	1123517
10,68253	955255
10,68697	806271
10,69142	674033
10,69585	552349
10,70030	461171
10,70473	373524
10,70918	311180
10,71362	253073
10,71807	212048
10,72250	177201
10,72695	145426
10,73138	124289
10,73583	107271
10,74027	92890
10,74472	83399
10,74915	72858
10,75360	64812
10,75803	58582
10,76248	54089
10,76692	47075
10,77137	44125
10,77580	40474
10,78025	36528
10,78468	35104
10,78913	34061
10,79358	31819
10,79802	27816
10,80247	27646
10,80690	25081
10,81135	26698
10,81578	25132
10,82023	22417
10,82467	22523
10,82912	22355
10,83355	21095
10,83800	20165
10,84243	18961
10,84688	19210
10,85132	19085
10,85577	17778
10,86020	16844
10,86465	15798
10,86908	16238
10,87353	16483
10,87797	15077
10,88242	15675
10,88685	14856
10,89130	15344
10,89573	13203
10,90018	13783
10,90462	15037
10,90907	13785
10,91352	13548
10,91795	12818
10,92240	13326
10,92683	12219
10,93128	14100
10,93572	11391
10,94017	11241
10,94460	11745
10,94905	11785
10,95348	11130
10,95793	11767
10,96237	11103
10,96682	10796
10,97125	11083
10,97570	11060
10,98013	11405
10,98458	10907
10,98902	11528
10,99347	10926
10,99790	10366
11,00235	10899
11,00678	10573
11,01123	10096
11,01567	10146
11,02012	10105
11,02455	10788
11,02900	9542
11,03345	10095
11,03788	10376
11,04233	10035
11,04677	10618
11,05122	10578
11,05565	9529
11,06010	10866
11,06453	10150
11,06898	10136
11,07342	10557
11,07787	10614
11,08230	9467
11,08675	10918
11,09118	10724
11,09563	10352
11,10007	11078
11,10452	10442
11,10895	9960
11,11340	9800
11,11783	10167
11,12228	10112
11,12672	10591
11,13117	9154
11,13560	9555
11,14005	9562
11,14448	9097
11,14893	9456
11,15338	9575
11,15782	9172
11,16227	9873
11,16670	8802
11,17115	9490
11,17558	9508
11,18003	8500
11,18447	9186
11,18892	9439
11,19335	9863
11,19780	8845
11,20223	9466
11,20668	10122
11,21112	9931
11,21557	10136
11,22000	9356
11,22445	8931
11,22888	8964
11,23333	10202
11,23777	9639
11,24222	10275
11,24665	10901
11,25110	13293
11,25553	14367
11,25998	18093
11,26442	26245
11,26887	38050
11,27332	56244
11,27775	82978
11,28220	121903
11,28663	171086
11,29108	224460
11,29552	292585
11,29997	357352
11,30440	426417
11,30885	485292
11,31328	526740
11,31773	560011
11,32217	566440
11,32662	563964
11,33105	537036
11,33550	510856
11,33993	466957
11,34438	419422
11,34882	362699
11,35327	316574
11,35770	266887
11,36215	221663
11,36658	189379
11,37103	158397
11,37547	134324
11,37992	107480
11,38435	90129
11,38880	76688
11,39325	65167
11,39768	53075
11,40213	46253
11,40657	42230
11,41102	36635
11,41545	33890
11,41990	29919
11,42433	29001
11,42878	26373
11,43322	25464
11,43767	23710
11,44210	22937
11,44655	24549
11,45098	23183
11,45543	24728
11,45987	22793
11,46432	22263
11,46875	21998
11,47320	21552
11,47763	20006
11,48208	21281
11,48652	18782
11,49097	18866
11,49540	17915
11,49985	17019
11,50428	16289
11,50873	15704
11,51317	15019
11,51762	13276
11,52207	13182
11,52650	12969
11,53095	12647
11,53538	12363
11,53983	11119
11,54427	10659
11,54872	10526
11,55315	10936
11,55760	10055
11,56203	8567
11,56648	10654
11,57092	9550
11,57537	9038
11,57980	10436
11,58425	10084
11,58868	11481
11,59313	10102
11,59757	9740
11,60202	10050
11,60645	8597
11,61090	9722
11,61533	9494
11,61978	9579
11,62422	9435
11,62867	8880
11,63310	8578
11,63755	8720
11,64200	8460
11,64643	8792
11,65088	9310
11,65532	8723
11,65977	9056
11,66420	9914
11,66865	8750
11,67308	8960
11,67753	9771
11,68197	9657
11,68642	12471
11,69085	16355
11,69530	26027
11,69973	40871
11,70418	60413
11,70862	92523
11,71307	133289
11,71750	191104
11,72195	254232
11,72638	333464
11,73083	405978
11,73527	476842
11,73972	549857
11,74415	601438
11,74860	636496
11,75303	643779
11,75748	638638
11,76193	609504
11,76637	550399
11,77082	490776
11,77525	436903
11,77970	367884
11,78413	309509
11,78858	256324
11,79302	214481
11,79747	177548
11,80190	143151
11,80635	120724
11,81078	100253
11,81523	82259
11,81967	67443
11,82412	59208
11,82855	48739
11,83300	45599
11,83743	39690
11,84188	34899
11,84632	31101
11,85077	28623
11,85520	25796
11,85965	22741
11,86408	21735
11,86853	21380
11,87297	19291
11,87742	19779
11,88187	17880
11,88630	17680
11,89075	15331
11,89518	17152
11,89963	13188
11,90407	14934
11,90852	14050
11,91295	13243
11,91740	11872
11,92183	11805
11,92628	11762
11,93072	12417
11,93517	11581
11,93960	12065
11,94405	12710
11,94848	11137
11,95293	10917
11,95737	10886
11,96182	10627
11,96625	10669
11,97070	10542
11,97513	9723
11,97958	11254
11,98402	10294
11,98847	10575
11,99290	9930
11,99735	9465
12,00180	10298
12,00623	9152
12,01068	9515
12,01512	9969
12,01957	10243
12,02400	10177
12,02845	9351
12,03288	9449
12,03733	8854
12,04177	8899
12,04622	9051
12,05065	9168
12,05510	9093
12,05953	8822
12,06398	9319
12,06842	8193
12,07287	9561
12,07730	10049
12,08175	9162
12,08618	9027
12,09063	9002
12,09507	8802
12,09952	8938
12,10395	8780
12,10840	9372
12,11283	9108
12,11728	9902
12,12173	8377
12,12617	8245
12,13062	9408
12,13505	8353
12,13950	8512
12,14393	8940
12,14838	8796
12,15282	8109
12,15727	8502
12,16170	8479
12,16615	9142
12,17058	8510
12,17503	9963
12,17947	8465
12,18392	8655
12,18835	8653
12,19280	9222
12,19723	8201
12,20168	7635
12,20612	8086
12,21057	9182
12,21500	8273
12,21945	8091
12,22388	9004
12,22833	8720
12,23277	8056
12,23722	7985
12,24165	7972
12,24610	9604
12,25055	8101
12,25498	8244
12,25943	8407
12,26387	8285
12,26832	8278
12,27275	8667
12,27720	8176
12,28163	7761
12,28608	9677
12,29052	8714
12,29497	9026
12,29940	8427
12,30385	8316
12,30828	8937
12,31273	7992
12,31717	7987
12,32162	8066
12,32605	8103
12,33050	8955
12,33493	8219
12,33938	9294
12,34382	9183
12,34827	9675
12,35270	8526
12,35715	8892
12,36158	8237
12,36603	9248
12,37048	8917
12,37492	9560
12,37937	11321
12,38380	17095
12,38825	22754
12,39268	35097
12,39713	54550
12,40157	81911
12,40602	126430
12,41045	180142
12,41490	242557
12,41933	322866
12,42378	397247
12,42822	466743
12,43267	530299
12,43710	584635
12,44155	620166
12,44598	632143
12,45043	624677
12,45487	592487
12,45932	544561
12,46375	492884
12,46820	426954
12,47263	363383
12,47708	308419
12,48152	260207
12,48597	212312
12,49042	174078
12,49485	140911
12,49930	116335
12,50373	94423
12,50818	80779
12,51262	68378
12,51707	56285
12,52150	48431
12,52595	43493
12,53038	38850
12,53483	34434
12,53927	31407
12,54372	28571
12,54815	26074
12,55260	23418
12,55703	22716
12,56148	20587
12,56592	17316
12,57037	17173
12,57480	18106
12,57925	16729
12,58368	14216
12,58813	14129
12,59257	14871
12,59702	12122
12,60145	13933
12,60590	13333
12,61035	12790
12,61478	10935
12,61923	12822
12,62367	12389
12,62812	11628
12,63255	10390
12,63700	10450
12,64143	10858
12,64588	9950
12,65032	10490
12,65477	10157
12,65920	10633
12,66365	9365
12,66808	9794
12,67253	9273
12,67697	9838
12,68142	9287
12,68585	9514
12,69030	8915
12,69473	8705
12,69918	9799
12,70362	9615
12,70807	11262
12,71250	11358
12,71695	11384
12,72138	11685
12,72583	12773
12,73028	14243
12,73472	14520
12,73917	15270
12,74360	15924
12,74805	16848
12,75248	17525
12,75693	16621
12,76137	17726
12,76582	16161
12,77025	15182
12,77470	15338
12,77913	15211
12,78358	13445
12,78802	12745
12,79247	12223
12,79690	11830
12,80135	11999
12,80578	11781
12,81023	12013
12,81467	14702
12,81912	19337
12,82355	31088
12,82800	49471
12,83243	80242
12,83688	125001
12,84132	192401
12,84577	275463
12,85022	379528
12,85465	508893
12,85910	658552
12,86353	814465
12,86798	981590
12,87242	1142090
12,87687	1273224
12,88130	1357371
12,88575	1415232
12,89018	1410529
12,89463	1348919
12,89907	1240397
12,90352	1107581
12,90795	954704
12,91240	789644
12,91683	649315
12,92128	517413
12,92572	419624
12,93017	337868
12,93460	270911
12,93905	218653
12,94348	177971
12,94793	150290
12,95237	124099
12,95682	108178
12,96125	91674
12,96570	80498
12,97013	70011
12,97458	62671
12,97903	55336
12,98347	52383
12,98792	48667
12,99235	42607
12,99680	40944
13,00123	37728
13,00568	34387
13,01012	32883
13,01457	30565
13,01900	28252
13,02345	26420
13,02788	25572
13,03233	24745
13,03677	22754
13,04122	21571
13,04565	20412
13,05010	19762
13,05453	19151
13,05898	18288
13,06342	17384
13,06787	16101
13,07230	16886
13,07675	16400
13,08118	16145
13,08563	16564
13,09007	13809
13,09452	14181
13,09897	14012
13,10340	13512
13,10785	14069
13,11228	13545
13,11673	12337
13,12117	12508
13,12562	12652
13,13005	12127
13,13450	11550
13,13893	11307
13,14338	11727
13,14782	11459
13,15227	11451
13,15670	11409
13,16115	11385
13,16558	11036
13,17003	10314
13,17447	11160
13,17892	10411
13,18335	9963
13,18780	9386
13,19223	9713
13,19668	10214
13,20112	9896
13,20557	10072
13,21000	9944
13,21445	11837
13,21890	12587
13,22333	18775
13,22778	25706
13,23222	40021
13,23667	61412
13,24110	94301
13,24555	134585
13,24998	193053
13,25443	259709
13,25887	336701
13,26332	421454
13,26775	506933
13,27220	570442
13,27663	626438
13,28108	654556
13,28552	665500
13,28997	650364
13,29440	607834
13,29885	553369
13,30328	492966
13,30773	428698
13,31217	357571
13,31662	293808
13,32105	239264
13,32550	195279
13,32993	160926
13,33438	130961
13,33883	106771
13,34327	89456
13,34772	75826
13,35215	62508
13,35660	55844
13,36103	47977
13,36548	44371
13,36992	38171
13,37437	33973
13,37880	31393
13,38325	28683
13,38768	25696
13,39213	23016
13,39657	23144
13,40102	21181
13,40545	19663
13,40990	19934
13,41433	19730
13,41878	21773
13,42322	24634
13,42767	32634
13,43210	49192
13,43655	74145
13,44098	112538
13,44543	165529
13,44987	250486
13,45432	349470
13,45877	474515
13,46320	616714
13,46765	774106
13,47208	929860
13,47653	1088538
13,48097	1209665
13,48542	1296996
13,48985	1341343
13,49430	1319133
13,49873	1256879
13,50318	1169749
13,50762	1023225
13,51207	874310
13,51650	720060
13,52095	584957
13,52538	478585
13,52983	385507
13,53427	315202
13,53872	252982
13,54315	207666
13,54760	170450
13,55203	143251
13,55648	122158
13,56092	107009
13,56537	91514
13,56980	81896
13,57425	70060
13,57870	63654
13,58313	57937
13,58758	53203
13,59202	47411
13,59647	43613
13,60090	39230
13,60535	37767
13,60978	33806
13,61423	31018
13,61867	30509
13,62312	27268
13,62755	26357
13,63200	26222
13,63643	24288
13,64088	25527
13,64532	22515
13,64977	20851
13,65420	21983
13,65865	19312
13,66308	18745
13,66753	19648
13,67197	17549
13,67642	18949
13,68085	17339
13,68530	17300
13,68973	14900
13,69418	16839
13,69862	13766
13,70307	13976
13,70752	13225
13,71195	14147
13,71640	14043
13,72083	13009
13,72528	12557
13,72972	10822
13,73417	12123
13,73860	14037
13,74305	12860
13,74748	12112
13,75193	10694
13,75637	11721
13,76082	11305
13,76525	11609
13,76970	11416
13,77413	14093
13,77858	13623
13,78302	15056
13,78747	13384
13,79190	11600
13,79635	11594
13,80078	11953
13,80523	11026
13,80967	9602
13,81412	10068
13,81855	9802
13,82300	9742
13,82745	9495
13,83188	9850
13,83633	9383
13,84077	8945
13,84522	9508
13,84965	9664
13,85410	9277
13,85853	8917
13,86298	8941
13,86742	8552
13,87187	9387
13,87630	8303
13,88075	10719
13,88518	11564
13,88963	11329
13,89407	15905
13,89852	23926
13,90295	34122
13,90740	53398
13,91183	83153
13,91628	124381
13,92072	174564
13,92517	245170
13,92960	314409
13,93405	402207
13,93848	482729
13,94293	559679
13,94738	598791
13,95182	624252
13,95627	618045
13,96070	597596
13,96515	553692
13,96958	496093
13,97403	429227
13,97847	364326
13,98292	302182
13,98735	249496
13,99180	207537
13,99623	166536
14,00068	137600
14,00512	112353
14,00957	95955
14,01400	81510
14,01845	69984
14,02288	58534
14,02733	53616
14,03177	45852
14,03622	40837
14,04065	36624
14,04510	33179
14,04953	30038
14,05398	29491
14,05842	27451
14,06287	24245
14,06732	22014
14,07175	20794
14,07620	20933
14,08063	18120
14,08508	18475
14,08952	16796
14,09397	16759
14,09840	15626
14,10285	15418
14,10728	15347
14,11173	13565
14,11617	14296
14,12062	14057
14,12505	12649
14,12950	12068
14,13393	11387
14,13838	11344
14,14282	11524
14,14727	12409
14,15170	12239
14,15615	10724
14,16058	10506
14,16503	11482
14,16947	11615
14,17392	9830
14,17835	11093
14,18280	10912
14,18725	11233
14,19168	12214
14,19613	11743
14,20057	10747
14,20502	10174
14,20945	11848
14,21390	10948
14,21833	10868
14,22278	10500
14,22722	9924
14,23167	9522
14,23610	9895
14,24055	9739
14,24498	8770
14,24943	10531
14,25387	9542
14,25832	10124
14,26275	9519
14,26720	9314
14,27163	9265
14,27608	9851
14,28052	9374
14,28497	9255
14,28940	9462
14,29385	9662
14,29828	8598
14,30273	9651
14,30718	9639
14,31162	8436
14,31607	8205
14,32050	8672
14,32495	9871
14,32938	7879
14,33383	9057
14,33827	8738
14,34272	8801
14,34715	9841
14,35160	9730
14,35603	11517
14,36048	14927
14,36492	22656
14,36937	29249
14,37380	46407
14,37825	70669
14,38268	106734
14,38713	156390
14,39157	215725
14,39602	282269
14,40045	362481
14,40490	433005
14,40933	503189
14,41378	558093
14,41822	599831
14,42267	604589
14,42710	590675
14,43155	557277
14,43600	503047
14,44043	438963
14,44488	376725
14,44932	322114
14,45377	264857
14,45820	218059
14,46265	178038
14,46708	144912
14,47153	118541
14,47597	99043
14,48042	83937
14,48485	70273
14,48930	59091
14,49373	51914
14,49818	46253
14,50262	39822
14,50707	36323
14,51150	32742
14,51595	31182
14,52038	26465
14,52483	26804
14,52927	23975
14,53372	21733
14,53815	20263
14,54260	18166
14,54703	19555
14,55148	18291
14,55593	16521
14,56037	17211
14,56482	16876
14,56925	14603
14,57370	16607
14,57813	14920
14,58258	13801
14,58702	13501
14,59147	13202
14,59590	13595
14,60035	12994
14,60478	13364
14,60923	12304
14,61367	13207
14,61812	12679
14,62255	11950
14,62700	10713
14,63143	11926
14,63588	10536
14,64032	12159
14,64477	10557
14,64920	10853
14,65365	10374
14,65808	10375
14,66253	9975
14,66697	10836
14,67142	10669
14,67587	9060
14,68030	9125
14,68475	9021
14,68918	9057
14,69363	9444
14,69807	8764
14,70252	9319
14,70695	9209
14,71140	8556
14,71583	8576
14,72028	8058
14,72472	8457
14,72917	9411
14,73360	8355
14,73805	9062
14,74248	8918
14,74693	8843
14,75137	8180
14,75582	7528
14,76025	9341
14,76470	8468
14,76913	8264
14,77358	8583
14,77802	9052
14,78247	8358
14,78690	7876
14,79135	8817
14,79580	8497
14,80023	8660
14,80468	8891
14,80912	8974
14,81357	8510
14,81800	9211
14,82245	8614
14,82688	9099
14,83133	9260
14,83577	8847
14,84022	9128
14,84465	8146
14,84910	8412
14,85353	9156
14,85798	8429
14,86242	7510
14,86687	9481
14,87130	9180
14,87575	8401
14,88018	7674
14,88463	8420
14,88907	8524
14,89352	8188
14,89795	7885
14,90240	8559
14,90683	8958
14,91128	9156
14,91573	9255
14,92017	8414
14,92462	8165
14,92905	7498
14,93350	8871
14,93793	8613
14,94238	8700
14,94682	7071
14,95127	8027
14,95570	8850
14,96015	7417
14,96458	8263
14,96903	9024
14,97347	9191
14,97792	7911
14,98235	8487
14,98680	7734
14,99123	8212
14,99568	8091
15,00012	7822
15,00457	7854
15,00900	7496
15,01345	8608
15,01788	9255
15,02233	10006
15,02677	12651
15,03122	17634
15,03567	25665
15,04010	38874
15,04455	62844
15,04898	94822
15,05343	133039
15,05787	186254
15,06232	251196
15,06675	324989
15,07120	401427
15,07563	466743
15,08008	526206
15,08452	568165
15,08897	595966
15,09340	602943
15,09785	594833
15,10228	591874
15,10673	603782
15,11117	618995
15,11562	663106
15,12005	728659
15,12450	838607
15,12893	957523
15,13338	1097090
15,13782	1238455
15,14227	1385927
15,14670	1488241
15,15115	1557591
15,15558	1549120
15,16003	1490933
15,16448	1386416
15,16892	1207170
15,17337	1021690
15,17780	838672
15,18225	686211
15,18668	543696
15,19113	439612
15,19557	350005
15,20002	288408
15,20445	236712
15,20890	197248
15,21333	167682
15,21778	145213
15,22222	124440
15,22667	107195
15,23110	98350
15,23555	87456
15,23998	82014
15,24443	73469
15,24887	70138
15,25332	65139
15,25775	62578
15,26220	59590
15,26663	52252
15,27108	51647
15,27552	50909
15,27997	46064
15,28442	42902
15,28885	40524
15,29330	37055
15,29773	34578
15,30218	31786
15,30662	30756
15,31107	27817
15,31550	26604
15,31995	26075
15,32438	24869
15,32883	22940
15,33327	23857
15,33772	21510
15,34215	20152
15,34660	19923
15,35103	19460
15,35548	18930
15,35992	18700
15,36437	18708
15,36880	18304
15,37325	17260
15,37768	17050
15,38213	15864
15,38657	15038
15,39102	15873
15,39545	15495
15,39990	14158
15,40435	14096
15,40878	13444
15,41323	14284
15,41767	15285
15,42212	13509
15,42655	13926
15,43100	13048
15,43543	13452
15,43988	12663
15,44432	13925
15,44877	14522
15,45320	17333
15,45765	22979
15,46208	32001
15,46653	46271
15,47097	67763
15,47542	99540
15,47985	145741
15,48430	195013
15,48873	263523
15,49318	328639
15,49762	390217
15,50207	452473
15,50650	511854
15,51095	531320
15,51538	540218
15,51983	519913
15,52428	489302
15,52872	437001
15,53317	383799
15,53760	327754
15,54205	274649
15,54648	227453
15,55093	190765
15,55537	155625
15,55982	126623
15,56425	107896
15,56870	89114
15,57313	73705
15,57758	63604
15,58202	53573
15,58647	48920
15,59090	42584
15,59535	38327
15,59978	36015
15,60423	31492
15,60867	28576
15,61312	27776
15,61755	24651
15,62200	23778
15,62643	21518
15,63088	21865
15,63532	21056
15,63977	19490
15,64422	18040
15,64865	18614
15,65310	18675
15,65753	18120
15,66198	17263
15,66642	17653
15,67087	18137
15,67530	21474
15,67975	28086
15,68418	37947
15,68863	57066
15,69307	84539
15,69752	118695
15,70195	171666
15,70640	239994
15,71083	313601
15,71528	399283
15,71972	490265
15,72417	581456
15,72860	635511
15,73305	685151
15,73748	695609
15,74193	676917
15,74637	639601
15,75082	575826
15,75525	506368
15,75970	431464
15,76415	362185
15,76858	293664
15,77303	245361
15,77747	197767
15,78192	163920
15,78635	132909
15,79080	110398
15,79523	95429
15,79968	81246
15,80412	68700
15,80857	61278
15,81300	54099
15,81745	50462
15,82188	43970
15,82633	42005
15,83077	37691
15,83522	33775
15,83965	32310
15,84410	28989
15,84853	27837
15,85298	25523
15,85742	25270
15,86187	23099
15,86630	24480
15,87075	21661
15,87518	20650
15,87963	21480
15,88407	18191
15,88852	18187
15,89297	17560
15,89740	15738
15,90185	16622
15,90628	14470
15,91073	14706
15,91517	15292
15,91962	13573
15,92405	15581
15,92850	13729
15,93293	14232
15,93738	13694
15,94182	11889
15,94627	12079
15,95070	12893
15,95515	12350
15,95958	11454
15,96403	12118
15,96847	12127
15,97292	10298
15,97735	12281
15,98180	10438
15,98623	11149
15,99068	11474
15,99512	12561
15,99957	10848
16,00400	10592
16,00845	9933
16,01290	11912
16,01733	9751
16,02178	10578
16,02622	10807
16,03067	10049
16,03510	10443
16,03955	9812
16,04398	10064
16,04843	9214
16,05287	10245
16,05732	9310
16,06175	9846
16,06620	10256
16,07063	10477
16,07508	9697
16,07952	9777
16,08397	11087
16,08840	9368
16,09285	9624
16,09728	10563
16,10173	8979
16,10617	10315
16,11062	9556
16,11505	10172
16,11950	9469
16,12393	9080
16,12838	8949
16,13283	8880
16,13727	8706
16,14172	8736
16,14615	8867
16,15060	9289
16,15503	10148
16,15948	8760
16,16392	9055
16,16837	9066
16,17280	9898
16,17725	9423
16,18168	10239
16,18613	11051
16,19057	10896
16,19502	14782
16,19945	18385
16,20390	27229
16,20833	40288
16,21278	61450
16,21722	95395
16,22167	145495
16,22610	207294
16,23055	278942
16,23498	371169
16,23943	473580
16,24387	562383
16,24832	657632
16,25277	725389
16,25720	770725
16,26165	770831
16,26608	739760
16,27053	683515
16,27497	600999
16,27942	516003
16,28385	430387
16,28830	351397
16,29273	287465
16,29718	232415
16,30162	191733
16,30607	153699
16,31050	126937
16,31495	108897
16,31938	94048
16,32383	79004
16,32827	72544
16,33272	61223
16,33715	53485
16,34160	48936
16,34603	46008
16,35048	41793
16,35492	36903
16,35937	32338
16,36380	32759
16,36825	31132
16,37270	29598
16,37713	26604
16,38158	25191
16,38602	24324
16,39047	23178
16,39490	21126
16,39935	20448
16,40378	21498
16,40823	19251
16,41267	20769
16,41712	19430
16,42155	20948
16,42600	18768
16,43043	18624
16,43488	17159
16,43932	16850
16,44377	16075
16,44820	16750
16,45265	13899
16,45708	13671
16,46153	14511
16,46597	14949
16,47042	12472
16,47485	13991
16,47930	13767
16,48373	12482
16,48818	13122
16,49263	11576
16,49707	13067
16,50152	13452
16,50595	12179
16,51040	12267
16,51483	11360
16,51928	11501
16,52372	12863
16,52817	12370
16,53260	11013
16,53705	11664
16,54148	12669
16,54593	11390
16,55037	12036
16,55482	12518
16,55925	11400
16,56370	10709
16,56813	10306
16,57258	11291
16,57702	10391
16,58147	10084
16,58590	11934
16,59035	12014
16,59478	13183
16,59923	16598
16,60367	22219
16,60812	29814
16,61255	44625
16,61700	67699
16,62145	99354
16,62588	150702
16,63033	207943
16,63477	281757
16,63922	364977
16,64365	429314
16,64810	503360
16,65253	561857
16,65698	600131
16,66142	615051
16,66587	597596
16,67030	554625
16,67475	504409
16,67918	445559
16,68363	378163
16,68807	316534
16,69252	266070
16,69695	216247
16,70140	174225
16,70583	145389
16,71028	119010
16,71472	100715
16,71917	86565
16,72360	72586
16,72805	65595
16,73248	56058
16,73693	49768
16,74138	45136
16,74582	40626
16,75027	37557
16,75470	35321
16,75915	31549
16,76358	28550
16,76803	28605
16,77247	25615
16,77692	24035
16,78135	23468
16,78580	19999
16,79023	20889
16,79468	20501
16,79912	19363
16,80357	19796
16,80800	18514
16,81245	18425
16,81688	17864
16,82133	17422
16,82577	18155
16,83022	15723
16,83465	14302
16,83910	15200
16,84353	15092
16,84798	14107
16,85242	14378
16,85687	13159
16,86132	12812
16,86575	13580
16,87020	13666
16,87463	13074
16,87908	12121
16,88352	11139
16,88797	10465
16,89240	12703
16,89685	12119
16,90128	11964
16,90573	12055
16,91017	10810
16,91462	10486
16,91905	12161
16,92350	11583
16,92793	11001
16,93238	12203
16,93682	11014
16,94127	11571
16,94570	11618
16,95015	11409
16,95458	9129
16,95903	10577
16,96347	10374
16,96792	10325
16,97235	10375
16,97680	9497
16,98125	10547
16,98568	10271
16,99013	10244
16,99457	11473
16,99902	9102
17,00345	10542
17,00790	9829
17,01233	10124
17,01678	9568
17,02122	9403
17,02567	10682
17,03010	11174
17,03455	10755
17,03898	9034
17,04343	10124
17,04787	9801
17,05232	9563
17,05675	11307
17,06120	10057
17,06563	10221
17,07008	11226
17,07452	11031
17,07897	11332
17,08340	10741
17,08785	10972
17,09228	10936
17,09673	10056
17,10118	10611
17,10562	10161
17,11007	10984
17,11450	11196
17,11895	10037
17,12338	10290
17,12783	11101
17,13227	9358
17,13672	10161
17,14115	9560
17,14560	9681
17,15003	10225
17,15448	10292
17,15892	9738
17,16337	9524
17,16780	8914
17,17225	9468
17,17668	10201
17,18113	9887
17,18557	9704
17,19002	8478
17,19445	9972
17,19890	10522
17,20333	9997
17,20778	9142
17,21222	9962
17,21667	10157
17,22112	9968
17,22555	9259
17,23000	10285
17,23443	11465
17,23888	11217
17,24332	12678
17,24777	16396
17,25220	21293
17,25665	27402
17,26108	44149
17,26553	64523
17,26997	97460
17,27442	136871
17,27885	194798
17,28330	263594
17,28773	333320
17,29218	416442
17,29662	495593
17,30107	574746
17,30550	637537
17,30995	697375
17,31438	744513
17,31883	793592
17,32327	829096
17,32772	878051
17,33215	957821
17,33660	1047162
17,34103	1140250
17,34548	1267276
17,34993	1374546
17,35437	1479313
17,35882	1568951
17,36325	1580138
17,36770	1557477
17,37213	1460316
17,37658	1323847
17,38102	1144992
17,38547	977426
17,38990	796315
17,39435	633922
17,39878	512167
17,40323	419158
17,40767	342221
17,41212	287966
17,41655	242175
17,42100	202740
17,42543	174526
17,42988	154500
17,43432	133957
17,43877	120222
17,44320	111210
17,44765	97750
17,45208	93517
17,45653	82922
17,46097	76820
17,46542	70692
17,46987	64806
17,47430	60854
17,47875	59159
17,48318	55278
17,48763	52435
17,49207	48784
17,49652	44849
17,50095	42378
17,50540	42296
17,50983	40506
17,51428	38222
17,51872	36634
17,52317	34858
17,52760	32232
17,53205	33528
17,53648	31213
17,54093	30630
17,54537	28756
17,54982	26945
17,55425	28080
17,55870	26139
17,56313	25775
17,56758	25011
17,57202	25127
17,57647	23360
17,58090	24311
17,58535	22701
17,58980	21262
17,59423	22376
17,59868	20637
17,60312	20509
17,60757	20475
17,61200	20556
17,61645	19297
17,62088	20814
17,62533	20038
17,62977	19717
17,63422	19562
17,63865	20231
17,64310	18775
17,64753	18005
17,65198	20031
17,65642	23159
17,66087	24836
17,66530	30398
17,66975	40443
17,67418	54300
17,67863	76601
17,68307	111587
17,68752	158265
17,69195	219104
17,69640	282107
17,70083	358815
17,70528	431900
17,70973	502223
17,71417	544211
17,71862	574264
17,72305	575503
17,72750	554284
17,73193	517472
17,73638	472486
17,74082	424446
17,74527	391651
17,74970	357264
17,75415	348757
17,75858	346990
17,76303	373400
17,76747	409603
17,77192	445017
17,77635	490458
17,78080	531246
17,78523	557283
17,78968	571779
17,79412	556927
17,79857	528225
17,80300	478899
17,80745	434623
17,81188	377892
17,81633	325407
17,82077	275222
17,82522	233480
17,82967	189865
17,83410	162649
17,83855	135643
17,84298	116615
17,84743	99894
17,85187	88659
17,85632	81625
17,86075	75219
17,86520	79646
17,86963	85622
17,87408	100146
17,87852	125796
17,88297	164778
17,88740	214366
17,89185	277198
17,89628	343206
17,90073	426875
17,90517	511746
17,90962	588506
17,91405	652879
17,91850	696028
17,92293	714955
17,92738	702481
17,93182	655006
17,93627	582821
17,94070	514447
17,94515	442274
17,94960	373093
17,95403	308166
17,95848	253353
17,96292	211677
17,96737	180420
17,97180	153481
17,97625	128224
17,98068	111401
17,98513	99401
17,98957	87771
17,99402	78255
17,99845	69071
18,00290	62931
18,00733	59483
18,01178	55905
18,01622	52038
18,02067	46063
18,02510	45577
18,02955	41783
18,03398	39557
18,03843	39284
18,04287	35806
18,04732	34316
18,05175	33763
18,05620	31084
18,06063	28516
18,06508	27731
18,06953	27423
18,07397	26628
18,07842	27239
18,08285	25417
18,08730	23746
18,09173	20576
18,09618	23836
18,10062	22174
18,10507	21318
18,10950	19782
18,11395	19809
18,11838	18675
18,12283	19693
18,12727	21082
18,13172	19404
18,13615	19065
18,14060	19384
18,14503	17620
18,14948	18323
18,15392	16989
18,15837	18331
18,16280	17794
18,16725	17699
18,17168	17165
18,17613	16516
18,18057	16702
18,18502	16534
18,18945	16592
18,19390	16053
18,19835	16136
18,20278	15775
18,20723	15299
18,21167	15491
18,21612	15291
18,22055	14869
18,22500	14144
18,22943	15028
18,23388	13945
18,23832	14740
18,24277	14202
18,24720	14328
18,25165	13079
18,25608	14400
18,26053	13221
18,26497	13759
18,26942	13518
18,27385	14171
18,27830	13781
18,28273	13751
18,28718	12411
18,29162	13705
18,29607	12720
18,30050	14644
18,30495	12971
18,30938	12288
18,31383	13870
18,31828	13093
18,32272	13175
18,32717	12523
18,33160	13706
18,33605	13042
18,34048	14092
18,34493	17117
18,34937	18024
18,35382	24451
18,35825	34832
18,36270	50533
18,36713	70954
18,37158	103535
18,37602	148355
18,38047	207605
18,38490	281169
18,38935	368960
18,39378	449982
18,39823	547970
18,40267	631050
18,40712	694854
18,41155	756020
18,41600	762263
18,42043	739674
18,42488	687378
18,42932	621913
18,43377	529252
18,43822	448680
18,44265	374567
18,44710	306226
18,45153	252240
18,45598	209926
18,46042	172936
18,46487	147625
18,46930	127138
18,47375	109391
18,47818	95282
18,48263	88926
18,48707	77393
18,49152	71987
18,49595	66020
18,50040	60712
18,50483	53547
18,50928	50655
18,51372	46820
18,51817	46981
18,52260	42311
18,52705	41077
18,53148	39267
18,53593	38460
18,54037	35856
18,54482	35237
18,54925	33243
18,55370	32575
18,55815	32041
18,56258	29673
18,56703	28808
18,57147	27765
18,57592	29304
18,58035	26560
18,58480	24818
18,58923	23233
18,59368	24747
18,59812	23764
18,60257	23493
18,60700	19799
18,61145	22238
18,61588	20253
18,62033	20419
18,62477	20817
18,62922	18985
18,63365	18773
18,63810	18258
18,64253	18605
18,64698	18296
18,65142	19380
18,65587	21716
18,66030	20670
18,66475	20427
18,66918	21061
18,67363	20248
18,67808	21714
18,68252	20269
18,68697	18502
18,69140	18190
18,69585	17978
18,70028	17157
18,70473	16555
18,70917	14915
18,71362	16125
18,71805	17270
18,72250	15336
18,72693	16103
18,73138	16224
18,73582	14966
18,74027	17077
18,74470	19688
18,74915	21959
18,75358	28346
18,75803	39524
18,76247	54964
18,76692	84284
18,77135	122976
18,77580	172672
18,78023	239633
18,78468	318943
18,78912	386576
18,79357	461634
18,79802	533669
18,80245	583311
18,80690	611869
18,81133	618971
18,81578	602257
18,82022	570985
18,82467	506903
18,82910	451036
18,83355	409201
18,83798	375722
18,84243	364324
18,84687	360371
18,85132	381499
18,85575	418639
18,86020	448974
18,86463	482643
18,86908	516723
18,87352	534145
18,87797	539672
18,88240	521954
18,88685	489434
18,89128	459592
18,89573	400589
18,90017	346787
18,90462	299486
18,90905	255071
18,91350	216000
18,91793	178649
18,92238	150580
18,92683	127738
18,93127	110841
18,93572	97731
18,94015	84788
18,94460	76869
18,94903	67045
18,95348	62004
18,95792	56188
18,96237	52519
18,96680	47170
18,97125	41272
18,97568	42125
18,98013	39267
18,98457	37743
18,98902	34604
18,99345	33079
18,99790	32583
19,00233	28833
19,00678	28299
19,01122	27424
19,01567	27275
19,02010	27641
19,02455	27119
19,02898	26278
19,03343	22394
19,03787	23386
19,04232	23856
19,04677	22457
19,05120	23033
19,05565	22284
19,06008	22458
19,06453	20655
19,06897	19517
19,07342	20525
19,07785	18778
19,08230	19899
19,08673	19230
19,09118	18725
19,09562	18608
19,10007	17991
19,10450	18637
19,10895	17080
19,11338	17121
19,11783	17660
19,12227	18672
19,12672	16979
19,13115	18270
19,13560	16891
19,14003	18164
19,14448	17012
19,14892	17831
19,15337	17153
19,15780	18117
19,16225	16858
19,16670	16444
19,17113	16709
19,17558	18282
19,18002	16220
19,18447	15516
19,18890	16744
19,19335	17433
19,19778	17397
19,20223	16447
19,20667	16221
19,21112	15114
19,21555	15580
19,22000	16393
19,22443	14685
19,22888	16104
19,23332	16057
19,23777	15910
19,24220	16494
19,24665	15295
19,25108	16309
19,25553	14836
19,25997	15420
19,26442	16341
19,26885	14867
19,27330	15839
19,27773	15275
19,28218	15371
19,28663	14522
19,29107	14332
19,29552	16233
19,29995	14104
19,30440	14129
19,30883	14162
19,31328	15091
19,31772	14742
19,32217	15152
19,32660	15109
19,33105	15291
19,33548	13658
19,33993	14126
19,34437	14155
19,34882	14074
19,35325	14285
19,35770	15049
19,36213	15253
19,36658	15219
19,37102	15815
19,37547	16038
19,37990	17495
19,38435	18398
19,38878	21332
19,39323	25541
19,39767	34711
19,40212	47618
19,40657	66962
19,41100	98549
19,41545	142853
19,41988	193903
19,42433	256775
19,42877	341541
19,43322	439878
19,43765	551394
19,44210	673245
19,44653	810841
19,45098	949330
19,45542	1089489
19,45987	1236742
19,46430	1339793
19,46875	1425651
19,47318	1447114
19,47763	1406498
19,48207	1304600
19,48652	1151669
19,49095	974948
19,49540	805407
19,49983	663182
19,50428	533473
19,50872	436434
19,51317	359580
19,51760	304695
19,52205	257778
19,52648	221150
19,53093	193714
19,53538	169153
19,53982	151225
19,54427	135054
19,54870	123699
19,55315	113202
19,55758	102270
19,56203	91886
19,56647	89031
19,57092	82508
19,57535	77892
19,57980	72624
19,58423	68155
19,58868	65573
19,59312	62030
19,59757	56680
19,60200	55308
19,60645	52848
19,61088	50436
19,61533	47733
19,61977	48971
19,62422	47402
19,62865	43074
19,63310	40692
19,63753	42986
19,64198	39003
19,64642	37561
19,65087	36801
19,65532	36612
19,65975	34714
19,66420	34847
19,66863	33184
19,67308	31285
19,67752	32151
19,68197	29592
19,68640	29198
19,69085	30302
19,69528	30308
19,69973	29356
19,70417	28258
19,70862	27686
19,71305	27767
19,71750	28213
19,72193	28601
19,72638	26892
19,73082	25690
19,73527	25979
19,73970	25863
19,74415	24528
19,74858	23890
19,75303	24003
19,75747	24806
19,76192	24139
19,76635	23057
19,77080	22151
19,77525	21967
19,77968	23421
19,78413	20869
19,78857	20939
19,79302	21043
19,79745	21413
19,80190	20168
19,80633	20881
19,81078	21878
19,81522	20206
19,81967	20045
19,82410	21856
19,82855	20829
19,83298	19798
19,83743	20720
19,84187	19646
19,84632	18936
19,85075	19790
19,85520	20088
19,85963	18597
19,86408	17933
19,86852	19478
19,87297	19520
19,87740	18494
19,88185	20526
19,88628	17798
19,89073	17057
19,89518	18360
19,89962	17558
19,90407	18052
19,90850	17813
19,91295	19876
19,91738	18020
19,92183	19181
19,92627	18184
19,93072	21900
19,93515	24241
19,93960	28858
19,94403	37908
19,94848	49900
19,95292	75108
19,95737	104087
19,96180	143867
19,96625	198693
19,97068	267001
19,97513	343210
19,97957	420403
19,98402	495414
19,98845	573840
19,99290	638178
19,99733	679072
20,00178	701935
20,00622	679526
20,01067	638858
20,01512	578487
20,01955	510882
20,02400	433301
20,02843	367532
20,03288	311068
20,03732	258255
20,04177	216062
20,04620	181466
20,05065	155169
20,05508	136812
20,05953	119846
20,06397	106546
20,06842	96204
20,07285	84825
20,07730	79317
20,08173	72738
20,08618	66243
20,09062	63910
20,09507	55305
20,09950	53688
20,10395	50583
20,10838	48650
20,11283	45786
20,11727	46233
20,12172	42278
20,12615	36525
20,13060	37299
20,13505	34216
20,13948	35092
20,14393	32988
20,14837	36057
20,15282	32051
20,15725	29980
20,16170	31211
20,16613	29327
20,17058	29696
20,17502	27693
20,17947	27314
20,18390	26176
20,18835	25518
20,19278	27079
20,19723	25774
20,20167	25321
20,20612	24812
20,21055	24114
20,21500	22846
20,21943	22441
20,22388	22790
20,22832	22580
20,23277	21233
20,23720	21546
20,24165	22186
20,24608	20166
20,25053	21729
20,25497	22044
20,25942	20931
20,26387	21495
20,26830	21077
20,27275	19396
20,27718	20520
20,28163	20090
20,28607	20143
20,29052	20401
20,29495	19796
20,29940	20490
20,30383	21962
20,30828	20870
20,31272	21238
20,31717	21458
20,32160	21626
20,32605	22216
20,33048	21982
20,33493	21499
20,33937	22439
20,34382	19070
20,34825	20896
20,35270	22627
20,35713	20616
20,36158	20256
20,36602	19706
20,37047	18459
20,37490	19260
20,37935	19232
20,38380	20331
20,38823	18890
20,39268	19139
20,39712	18183
20,40157	17324
20,40600	18416
20,41045	19179
20,41488	17014
20,41933	17803
20,42377	17246
20,42822	18107
20,43265	19756
20,43710	17544
20,44153	18490
20,44598	19480
20,45042	17152
20,45487	18120
20,45930	17665
20,46375	19060
20,46818	16585
20,47263	16960
20,47707	17602
20,48152	17283
20,48595	17546
20,49040	17549
20,49483	17491
20,49928	16151
20,50373	17023
20,50817	16794
20,51262	16843
20,51705	17637
20,52150	17754
20,52593	16642
20,53038	17336
20,53482	16936
20,53927	16371
20,54370	16675
20,54815	15701
20,55258	15957
20,55703	17256
20,56147	16137
20,56592	16157
20,57035	19018
20,57480	16036
20,57923	16502
20,58368	15382
20,58812	17394
20,59257	18267
20,59700	18190
20,60145	16927
20,60588	15660
20,61033	16026
20,61477	17517
20,61922	18358
20,62367	16476
20,62810	18545
20,63255	17292
20,63698	16537
20,64143	16865
20,64587	17653
20,65032	17280
20,65475	17890
20,65920	16798
20,66363	18819
20,66808	19155
20,67252	17549
20,67697	19028
20,68140	17895
20,68585	15873
20,69028	17540
20,69473	19400
20,69917	17667
20,70362	15350
20,70805	15531
20,71250	16885
20,71693	16031
20,72138	16918
20,72582	16719
20,73027	16647
20,73470	17160
20,73915	17090
20,74360	16387
20,74803	14896
20,75248	15655
20,75692	16244
20,76137	16862
20,76580	18377
20,77025	17291
20,77468	17141
20,77913	18015
20,78357	18336
20,78802	17761
20,79245	17874
20,79690	16790
20,80133	17023
20,80578	18430
20,81022	16610
20,81467	16800
20,81910	18337
20,82355	17104
20,82798	18411
20,83243	17627
20,83687	16671
20,84132	17284
20,84575	17468
20,85020	17998
20,85463	18303
20,85908	17265
20,86353	17791
20,86797	19717
20,87242	16779
20,87685	18499
20,88130	17753
20,88573	16645
20,89018	18035
20,89462	18468
20,89907	18958
20,90350	18447
20,90795	17342
20,91238	17244
20,91683	17958
20,92127	19204
20,92572	19364
20,93015	20113
20,93460	18396
20,93903	20672
20,94348	21709
20,94792	21457
20,95237	20503
20,95680	21376
20,96125	20731
20,96568	18437
20,97013	19721
20,97457	19046
20,97902	18623
20,98345	18410
20,98790	19052
20,99235	17633
20,99678	18601
21,00123	17798
21,00567	17914
21,01012	18589
21,01455	17345
21,01900	17246
21,02343	17389
21,02788	17747
21,03232	17039
21,03677	18215
21,04120	17023
21,04565	17097
21,05008	19026
21,05453	18350
21,05897	18465
21,06342	17699
21,06785	18649
21,07230	16863
21,07673	17906
21,08118	15518
21,08562	17261
21,09007	16754
21,09450	17562
21,09895	16245
21,10338	16326
21,10783	16947
21,11228	16664
21,11672	17934
21,12117	18094
21,12560	17664
21,13005	17342
21,13448	17155
21,13893	19273
21,14337	18080
21,14782	18286
21,15225	18119
21,15670	16836
21,16113	20038
21,16558	17148
21,17002	16983
21,17447	16067
21,17890	17483
21,18335	17767
21,18778	18137
21,19223	18758
21,19667	16885
21,20112	17993
21,20555	18771
21,21000	18728
21,21443	18055
21,21888	19175
21,22332	18168
21,22777	19950
21,23222	17305
21,23665	17864
21,24110	18158
21,24553	19141
21,24998	17228
21,25442	17779
21,25887	18209
21,26330	19516
21,26775	18423
21,27218	16916
21,27663	17457
21,28107	19215
21,28552	18980
21,28995	19052
21,29440	17883
21,29883	19826
21,30328	19848
21,30772	17994
21,31217	19265
21,31660	18102
21,32105	18935
21,32548	18364
21,32993	17298
21,33437	19011
21,33882	19237
21,34325	17826
21,34770	18281
21,35215	18554
21,35658	19742
21,36103	19704
21,36547	18660
21,36992	18540
21,37435	19467
21,37880	19310
21,38323	21331
21,38768	20937
21,39212	26509
21,39657	32179
21,40100	43933
21,40545	60827
21,40988	81495
21,41433	113761
21,41877	158111
21,42322	204123
21,42765	258383
21,43210	308415
21,43653	364540
21,44098	396531
21,44542	427362
21,44987	436200
21,45430	433361
21,45875	411369
21,46318	381936
21,46763	339490
21,47208	300209
21,47652	255340
21,48097	217601
21,48540	186123
21,48985	155436
21,49428	133741
21,49873	114303
21,50317	96181
21,50762	83301
21,51205	77710
21,51650	69532
21,52093	62955
21,52538	56360
21,52982	51815
21,53427	47555
21,53870	47601
21,54315	44136
21,54758	41452
21,55203	39443
21,55647	37613
21,56092	35131
21,56535	32826
21,56980	31407
21,57423	30245
21,57868	32169
21,58312	30576
21,58757	28354
21,59202	28697
21,59645	27836
21,60090	27513
21,60533	28625
21,60978	27679
21,61422	27776
21,61867	27162
21,62310	25063
21,62755	26511
21,63198	27062
21,63643	23658
21,64087	22715
21,64532	24555
21,64975	25373
21,65420	24207
21,65863	24050
21,66308	25281
21,66752	23348
21,67197	22377
21,67640	22767
21,68085	22177
21,68528	22850
21,68973	24226
21,69417	25124
21,69862	23701
21,70305	23543
21,70750	23011
21,71193	21950
21,71638	23297
21,72083	22156
21,72527	22709
21,72972	21730
21,73415	22701
21,73860	21338
21,74303	21396
21,74748	20939
21,75192	21367
21,75637	21000
21,76080	21097
21,76525	23749
21,76968	21659
21,77413	23150
21,77857	22533
21,78302	22441
21,78745	21983
21,79190	22637
21,79633	24817
21,80078	22741
21,80522	21181
21,80967	20261
21,81410	22066
21,81855	21803
21,82298	20878
21,82743	20921
21,83187	22420
21,83632	21260
21,84077	19664
21,84520	23015
21,84965	21165
21,85408	21952
21,85853	21083
21,86297	21842
21,86742	22364
21,87185	19368
21,87630	22546
21,88073	22200
21,88518	21899
21,88962	21725
21,89407	21763
21,89850	21794
21,90295	21261
21,90738	20093
21,91183	21990
21,91627	21855
21,92072	22420
21,92515	21080
21,92960	20743
21,93403	21887
21,93848	20371
21,94292	22071
21,94737	21746
21,95180	21723
21,95625	21710
21,96070	22026
21,96513	21932
21,96958	20645
21,97402	22344
21,97847	20999
