D:\MassHunter\GCMS\1\data\Amal\Constant flow\90C\90C_1ml-min_5C-min_2.D Thu Sep 05 17:19:01 2024
Start of data points
5,59107,182165
5,59518,179020
5,59930,180760
5,60343,177710
5,60755,179887
5,61167,179266
5,61580,182799
5,61992,185924
5,62403,188424
5,62817,196811
5,63228,194945
5,63640,201037
5,64053,201337
5,64465,205503
5,64877,201241
5,65288,200530
5,65702,196081
5,66113,198813
5,66525,191910
5,66938,188356
5,67350,188350
5,67762,187808
5,68175,185482
5,68587,180772
5,68998,174610
5,69412,177035
5,69823,169844
5,70235,168885
5,70648,167685
5,71060,167627
5,71472,162716
5,71885,160416
5,72297,162505
5,72708,153638
5,73122,156004
5,73533,153630
5,73945,151309
5,74357,146715
5,74770,149248
5,75182,150366
5,75593,148166
5,76007,146914
5,76418,145811
5,76830,142042
5,77243,143035
5,77655,139781
5,78067,141232
5,78480,137151
5,78892,137747
5,79303,136157
5,79717,133071
5,80128,132650
5,80540,128950
5,80953,127933
5,81365,123117
5,81777,126467
5,82190,124667
5,82602,118997
5,83013,124226
5,83425,119191
5,83838,119786
5,84250,115988
5,84662,113427
5,85075,115195
5,85487,116181
5,85898,114063
5,86312,111862
5,86723,109826
5,87135,110038
5,87548,107607
5,87960,105051
5,88372,106237
5,88785,105353
5,89197,102822
5,89608,101724
5,90022,103655
5,90433,100121
5,90845,102271
5,91258,99724
5,91670,97513
5,92082,100114
5,92493,97416
5,92907,97978
5,93318,96918
5,93730,94734
5,94143,96151
5,94555,96040
5,94967,93519
5,95380,92889
5,95792,93784
5,96203,93702
5,96617,93021
5,97028,93373
5,97440,90588
5,97853,91302
5,98265,92101
5,98677,88749
5,99090,89127
5,99502,87193
5,99913,91003
6,00327,86661
6,00738,90338
6,01150,94099
6,01563,100490
6,01975,116177
6,02387,137631
6,02798,171340
6,03212,222813
6,03623,285914
6,04035,361258
6,04448,429234
6,04860,498705
6,05272,555543
6,05685,597903
6,06097,621502
6,06508,621989
6,06922,622886
6,07333,610025
6,07745,585952
6,08158,562523
6,08570,536793
6,08982,518309
6,09395,492929
6,09807,462984
6,10218,444549
6,10632,422920
6,11043,405499
6,11455,388028
6,11867,375383
6,12280,353171
6,12692,340523
6,13103,325959
6,13517,315557
6,13928,300880
6,14340,283539
6,14753,275664
6,15165,263652
6,15577,259223
6,15990,240859
6,16402,236739
6,16813,228594
6,17227,219903
6,17638,207113
6,18050,198717
6,18463,188430
6,18875,180778
6,19287,176236
6,19700,166938
6,20112,157648
6,20523,152785
6,20935,146237
6,21348,134365
6,21760,131939
6,22172,127266
6,22585,121233
6,22997,117814
6,23408,111162
6,23822,110269
6,24233,104899
6,24645,100346
6,25058,100881
6,25470,96687
6,25882,93898
6,26295,93114
6,26707,86603
6,27118,86411
6,27532,84111
6,27943,83357
6,28355,81342
6,28768,79242
6,29180,76601
6,29592,75337
6,30003,76401
6,30417,73895
6,30828,74189
6,31240,72104
6,31653,73760
6,32065,71129
6,32477,68723
6,32890,70944
6,33302,67702
6,33713,69242
6,34127,69026
6,34538,66883
6,34950,69131
6,35363,66133
6,35775,65980
6,36187,64255
6,36600,66697
6,37012,64641
6,37423,63817
6,37837,65421
6,38248,62161
6,38660,63292
6,39072,61965
6,39485,63672
6,39897,62835
6,40308,63410
6,40722,60395
6,41133,61093
6,41545,61986
6,41958,61043
6,42370,58934
6,42782,58511
6,43195,58271
6,43607,59401
6,44018,57057
6,44432,59515
6,44843,57020
6,45255,57437
6,45668,55484
6,46080,57126
6,46492,55576
6,46905,55377
6,47317,55728
6,47728,55642
6,48140,52976
6,48553,56111
6,48965,53462
6,49377,55332
6,49790,54776
6,50202,53649
6,50613,52566
6,51027,54873
6,51438,55622
6,51850,53810
6,52263,54389
6,52675,54104
6,53087,54480
6,53500,53749
6,53912,52286
6,54323,53755
6,54737,53878
6,55148,53528
6,55560,51808
6,55973,49605
6,56385,52695
6,56797,52520
6,57208,52176
6,57622,51788
6,58033,51931
6,58445,51250
6,58858,52137
6,59270,51960
6,59682,50390
6,60095,51596
6,60507,50563
6,60918,51254
6,61332,50224
6,61743,51448
6,62155,49693
6,62568,50422
6,62980,50686
6,63392,48055
6,63805,48802
6,64217,48999
6,64628,47561
6,65042,48832
6,65453,48196
6,65865,47510
6,66277,47883
6,66690,46197
6,67102,46877
6,67513,46868
6,67927,46569
6,68338,46313
6,68750,45057
6,69163,44193
6,69575,43076
6,69987,44192
6,70400,43298
6,70812,42853
6,71223,42171
6,71637,44725
6,72048,45352
6,72460,43090
6,72873,42681
6,73285,43503
6,73697,44622
6,74110,44102
6,74522,43260
6,74933,44396
6,75345,42024
6,75758,42408
6,76170,42378
6,76582,43451
6,76995,40976
6,77407,42315
6,77818,43014
6,78232,42297
6,78643,41338
6,79055,41175
6,79468,39882
6,79880,40017
6,80292,40179
6,80705,40720
6,81117,41341
6,81528,40544
6,81942,41505
6,82353,40564
6,82765,39847
6,83178,40356
6,83590,39972
6,84002,41001
6,84413,40684
6,84827,38091
6,85238,39766
6,85650,39331
6,86063,39582
6,86475,39850
6,86887,38689
6,87300,40249
6,87712,41293
6,88123,42710
6,88537,39646
6,88948,39195
6,89360,39865
6,89773,38939
6,90185,39973
6,90597,39328
6,91010,38374
6,91422,39566
6,91833,38619
6,92247,38813
6,92658,38477
6,93070,38023
6,93482,38479
6,93895,39486
6,94307,37646
6,94718,38650
6,95132,37798
6,95543,37139
6,95955,38608
6,96368,35483
6,96780,37678
6,97192,37071
6,97605,38554
6,98017,35760
6,98428,36564
6,98842,37377
6,99253,37636
6,99665,36560
7,00078,36274
7,00490,36843
7,00902,36627
7,01315,36150
7,01727,37154
7,02138,37745
7,02550,34161
7,02963,34740
7,03375,35729
7,03787,35088
7,04200,36299
7,04612,35315
7,05023,35993
7,05437,34784
7,05848,34867
7,06260,36739
7,06673,33363
7,07085,37027
7,07497,36097
7,07910,35108
7,08322,33934
7,08733,34165
7,09147,33848
7,09558,34574
7,09970,34037
7,10383,33525
7,10795,34982
7,11207,34277
7,11618,32829
7,12032,34116
7,12443,33284
7,12855,33910
7,13268,33576
7,13680,34163
7,14092,34070
7,14505,31957
7,14917,33502
7,15328,32947
7,15742,32251
7,16153,32805
7,16565,33698
7,16978,34140
7,17390,32391
7,17802,33287
7,18215,32125
7,18627,32208
7,19038,35080
7,19452,33677
7,19863,35921
7,20275,37168
7,20687,36264
7,21100,37452
7,21512,37538
7,21923,38963
7,22337,39138
7,22748,40700
7,23160,39201
7,23573,38850
7,23985,39417
7,24397,37774
7,24810,39811
7,25222,39906
7,25633,39260
7,26047,39326
7,26458,39629
7,26870,37385
7,27283,40302
7,27695,40199
7,28107,40428
7,28520,39148
7,28932,41802
7,29343,42310
7,29755,42230
7,30168,45500
7,30580,44055
7,30992,43809
7,31405,44797
7,31817,45887
7,32228,43646
7,32642,44178
7,33053,45728
7,33465,44446
7,33878,44340
7,34290,43448
7,34702,44859
7,35115,45553
7,35527,45476
7,35938,43902
7,36352,43103
7,36763,42440
7,37175,41717
7,37588,40077
7,38000,41402
7,38412,39904
7,38823,40675
7,39237,39848
7,39648,37575
7,40060,37887
7,40473,39153
7,40885,39468
7,41297,37491
7,41710,37731
7,42122,35408
7,42533,37343
7,42947,35359
7,43358,35299
7,43770,35926
7,44183,35103
7,44595,34676
7,45007,34356
7,45420,34171
7,45832,32815
7,46243,33820
7,46657,33750
7,47068,33064
7,47480,33304
7,47892,33038
7,48305,32409
7,48717,33076
7,49128,33412
7,49542,32230
7,49953,32718
7,50365,32824
7,50778,31907
7,51190,32162
7,51602,32213
7,52015,31579
7,52427,31888
7,52838,31724
7,53252,32730
7,53663,32408
7,54075,31086
7,54488,30979
7,54900,30908
7,55312,32546
7,55725,31722
7,56137,30535
7,56548,29868
7,56960,30868
7,57373,30662
7,57785,30922
7,58197,31547
7,58610,29977
7,59022,30460
7,59433,30444
7,59847,31732
7,60258,30800
7,60670,30268
7,61083,30539
7,61495,29652
7,61907,30584
7,62320,31698
7,62732,31021
7,63143,28876
7,63557,28267
7,63968,31008
7,64380,30472
7,64793,29679
7,65205,30697
7,65617,29289
7,66030,29544
7,66442,31398
7,66853,29839
7,67265,29274
7,67678,29405
7,68090,31298
7,68502,30776
7,68915,29397
7,69327,28137
7,69738,28797
7,70152,29414
7,70563,28583
7,70975,30289
7,71388,29072
7,71800,29482
7,72212,29177
7,72625,29807
7,73037,28772
7,73448,29848
7,73862,28590
7,74273,29486
7,74685,28818
7,75098,28175
7,75510,28185
7,75922,27633
7,76333,28692
7,76747,27993
7,77158,27159
7,77570,26158
7,77983,27077
7,78395,29134
7,78807,29593
7,79220,27476
7,79632,27474
7,80043,28868
7,80457,28388
7,80868,28420
7,81280,29178
7,81693,27705
7,82105,26426
7,82517,28213
7,82930,27184
7,83342,27965
7,83753,26806
7,84167,27827
7,84578,26298
7,84990,27064
7,85402,26227
7,85815,28875
7,86227,27765
7,86638,30785
7,87052,33787
7,87463,40232
7,87875,51126
7,88288,67798
7,88700,96130
7,89112,132183
7,89525,193047
7,89937,255068
7,90348,341560
7,90762,440363
7,91173,535078
7,91585,638599
7,91998,727115
7,92410,803014
7,92822,875645
7,93235,911563
7,93647,926274
7,94058,935557
7,94470,923802
7,94883,896186
7,95295,865328
7,95707,823578
7,96120,780352
7,96532,732637
7,96943,685009
7,97357,638797
7,97768,594226
7,98180,553985
7,98593,516829
7,99005,477348
7,99417,443007
7,99830,411188
8,00242,378299
8,00653,350754
8,01067,318842
8,01478,294653
8,01890,268820
8,02303,243169
8,02715,224154
8,03127,199146
8,03538,185480
8,03952,170412
8,04363,155140
8,04775,142331
8,05188,132302
8,05600,117487
8,06012,110656
8,06425,102649
8,06837,94095
8,07248,86732
8,07662,81005
8,08073,74596
8,08485,69034
8,08898,65960
8,09310,63633
8,09722,61127
8,10135,57458
8,10547,53749
8,10958,53199
8,11372,51156
8,11783,48468
8,12195,47241
8,12607,45536
8,13020,42946
8,13432,41875
8,13843,42653
8,14257,41618
8,14668,39493
8,15080,39741
8,15493,38185
8,15905,36885
8,16317,36256
8,16730,37556
8,17142,35212
8,17553,34204
8,17967,34019
8,18378,32435
8,18790,35290
8,19203,32091
8,19615,32014
8,20027,33229
8,20440,33018
8,20852,32054
8,21263,31595
8,21675,28162
8,22088,29174
8,22500,31043
8,22912,28882
8,23325,28671
8,23737,28014
8,24148,30145
8,24562,28966
8,24973,27807
8,25385,27154
8,25798,26777
8,26210,26385
8,26622,28623
8,27035,27125
8,27447,26595
8,27858,25231
8,28272,26818
8,28683,25415
8,29095,26576
8,29508,26750
8,29920,25380
8,30332,25731
8,30743,26207
8,31157,23307
8,31568,25438
8,31980,25130
8,32393,24503
8,32805,24132
8,33217,26714
8,33630,25224
8,34042,24336
8,34453,24261
8,34867,23329
8,35278,23815
8,35690,23455
8,36103,24610
8,36515,22395
8,36927,23751
8,37340,23981
8,37752,23062
8,38163,24250
8,38577,23090
8,38988,23126
8,39400,22771
8,39812,23494
8,40225,23161
8,40637,22376
8,41048,22257
8,41462,22427
8,41873,23795
8,42285,23963
8,42698,23542
8,43110,22453
8,43522,21719
8,43935,22223
8,44347,22606
8,44758,21852
8,45172,22757
8,45583,22350
8,45995,23132
8,46408,22221
8,46820,22283
8,47232,21464
8,47645,21417
8,48057,23054
8,48468,22532
8,48880,21987
8,49293,21392
8,49705,20744
8,50117,22046
8,50530,21527
8,50942,21568
8,51353,22051
8,51767,21768
8,52178,21065
8,52590,21360
8,53003,22460
8,53415,21276
8,53827,20614
8,54240,21215
8,54652,20950
8,55063,21731
8,55477,21116
8,55888,21608
8,56300,21050
8,56713,21342
8,57125,21774
8,57537,23471
8,57948,22446
8,58362,21788
8,58773,20757
8,59185,19915
8,59598,21221
8,60010,20464
8,60422,21334
8,60835,21238
8,61247,20994
8,61658,20943
8,62072,20203
8,62483,20368
8,62895,20464
8,63308,22006
8,63720,19940
8,64132,20906
8,64545,20450
8,64957,20297
8,65368,20082
8,65782,20160
8,66193,20079
8,66605,20453
8,67017,19632
8,67430,19502
8,67842,20141
8,68253,19982
8,68667,19691
8,69078,19354
8,69490,20638
8,69903,19097
8,70315,19735
8,70727,20068
8,71140,19034
8,71552,19753
8,71963,19994
8,72377,19469
8,72788,18989
8,73200,19830
8,73613,19073
8,74025,19407
8,74437,19225
8,74850,19721
8,75262,19300
8,75673,19945
8,76085,20852
8,76498,19100
8,76910,20106
8,77322,19550
8,77735,19284
8,78147,20426
8,78558,19877
8,78972,20219
8,79383,20051
8,79795,18909
8,80208,19323
8,80620,19377
8,81032,18123
8,81445,19600
8,81857,17577
8,82268,20238
8,82682,18577
8,83093,18554
8,83505,18511
8,83918,18977
8,84330,18751
8,84742,17702
8,85153,18481
8,85567,18083
8,85978,17629
8,86390,17429
8,86803,18452
8,87215,18880
8,87627,18097
8,88040,18553
8,88452,17273
8,88863,17900
8,89277,17048
8,89688,18586
8,90100,18246
8,90513,18602
8,90925,19001
8,91337,17745
8,91750,19910
8,92162,18788
8,92573,18291
8,92987,17759
8,93398,16862
8,93810,17777
8,94222,18064
8,94635,17828
8,95047,17922
8,95458,16852
8,95872,18410
8,96283,18730
8,96695,17832
8,97108,16932
8,97520,16765
8,97932,18110
8,98345,17548
8,98757,18540
8,99168,19210
8,99582,17808
8,99993,17627
9,00405,18511
9,00818,18928
9,01230,18542
9,01642,18394
9,02055,19024
9,02467,17576
9,02878,19090
9,03290,19136
9,03703,17013
9,04115,17395
9,04527,17843
9,04940,16968
9,05352,17920
9,05763,18787
9,06177,17535
9,06588,17881
9,07000,18723
9,07413,16464
9,07825,16247
9,08237,18256
9,08650,17246
9,09062,18709
9,09473,16595
9,09887,17278
9,10298,16698
9,10710,17191
9,11123,18005
9,11535,16555
9,11947,16790
9,12358,17066
9,12772,16870
9,13183,17400
9,13595,17370
9,14008,17566
9,14420,16905
9,14832,16202
9,15245,15927
9,15657,16645
9,16068,17380
9,16482,15542
9,16893,16090
9,17305,16440
9,17718,16199
9,18130,16760
9,18542,18080
9,18955,16755
9,19367,17506
9,19778,18448
9,20192,17513
9,20603,18763
9,21015,17629
9,21428,17624
9,21840,17678
9,22252,15742
9,22663,17718
9,23077,18011
9,23488,16939
9,23900,17288
9,24313,17024
9,24725,17000
9,25137,17192
9,25550,17944
9,25962,16214
9,26373,16099
9,26787,15068
9,27198,16416
9,27610,15555
9,28023,17404
9,28435,17284
9,28847,17606
9,29260,17135
9,29672,17228
9,30083,15333
9,30497,17594
9,30908,17673
9,31320,17747
9,31732,18370
9,32145,16989
9,32557,16990
9,32968,17782
9,33382,18613
9,33793,18039
9,34205,18680
9,34618,17968
9,35030,18326
9,35442,18562
9,35855,17704
9,36267,17807
9,36678,17876
9,37092,17973
9,37503,18310
9,37915,18002
9,38328,15721
9,38740,17984
9,39152,16301
9,39565,16422
9,39977,17233
9,40388,14782
9,40800,16587
9,41213,14949
9,41625,16213
9,42037,15827
9,42450,15651
9,42862,15894
9,43273,16096
9,43687,15645
9,44098,17065
9,44510,13894
9,44923,15389
9,45335,15796
9,45747,15257
9,46160,15124
9,46572,15587
9,46983,15146
9,47397,15888
9,47808,15078
9,48220,15483
9,48633,14559
9,49045,15713
9,49457,15470
9,49868,16077
9,50282,15321
9,50693,16905
9,51105,17248
9,51518,16896
9,51930,15346
9,52342,17124
9,52755,14954
9,53167,17140
9,53578,15975
9,53992,15021
9,54403,16088
9,54815,16054
9,55228,15796
9,55640,15047
9,56052,17153
9,56465,16072
9,56877,14555
9,57288,14843
9,57702,15691
9,58113,13505
9,58525,14447
9,58937,13943
9,59350,13890
9,59762,13696
9,60173,14443
9,60587,14188
9,60998,13653
9,61410,14797
9,61823,15237
9,62235,15614
9,62647,14480
9,63060,13939
9,63472,14317
9,63883,14021
9,64297,14254
9,64708,14500
9,65120,13079
9,65533,14633
9,65945,14516
9,66357,13184
9,66770,14678
9,67182,14564
9,67593,14448
9,68005,13497
9,68418,14059
9,68830,14271
9,69242,14523
9,69655,13633
9,70067,14106
9,70478,13422
9,70892,13831
9,71303,13719
9,71715,13865
9,72128,14684
9,72540,13202
9,72952,13814
9,73365,13059
9,73777,13909
9,74188,13644
9,74602,14554
9,75013,13349
9,75425,14703
9,75838,14471
9,76250,15667
9,76662,13750
9,77073,14730
9,77487,13741
9,77898,14378
9,78310,15017
9,78723,14832
9,79135,13102
9,79547,13453
9,79960,14356
9,80372,14026
9,80783,14505
9,81197,13233
9,81608,13261
9,82020,13478
9,82433,14226
9,82845,13560
9,83257,13957
9,83670,12888
9,84082,13647
9,84493,12811
9,84907,13283
9,85318,13506
9,85730,13004
9,86142,13890
9,86555,12700
9,86967,13612
9,87378,13551
9,87792,13022
9,88203,13416
9,88615,12075
9,89028,14120
9,89440,12575
9,89852,13110
9,90265,12970
9,90677,13007
9,91088,12376
9,91502,13852
9,91913,13165
9,92325,13102
9,92738,11806
9,93150,12832
9,93562,12344
9,93975,12322
9,94387,13979
9,94798,12266
9,95210,13209
9,95623,13802
9,96035,11517
9,96447,12572
9,96860,12277
9,97272,13301
9,97683,12215
9,98097,13044
9,98508,12996
9,98920,13162
9,99333,12723
9,99745,13989
10,00157,12387
10,00570,12567
10,00982,12356
10,01393,13910
10,01807,14549
10,02218,12982
10,02630,12633
10,03043,14423
10,03455,13028
10,03867,13708
10,04278,12987
10,04692,12654
10,05103,12835
10,05515,14150
10,05928,13127
10,06340,13226
10,06752,13214
10,07165,13499
10,07577,12418
10,07988,12271
10,08402,14059
10,08813,11574
10,09225,12837
10,09638,13248
10,10050,12682
10,10462,13366
10,10875,13276
10,11287,12812
10,11698,12290
10,12112,12295
10,12523,13482
10,12935,12524
10,13347,12429
10,13760,12913
10,14172,12789
10,14583,11879
10,14997,13134
10,15408,11811
10,15820,11962
10,16233,13077
10,16645,12620
10,17057,12929
10,17470,12656
10,17882,12442
10,18293,12891
10,18707,13004
10,19118,12625
10,19530,13860
10,19943,12673
10,20355,12119
10,20767,12718
10,21180,12530
10,21592,13197
10,22003,12420
10,22415,13311
10,22828,12011
10,23240,12050
10,23652,13409
10,24065,12101
10,24477,12641
10,24888,11971
10,25302,11986
10,25713,13984
10,26125,12093
10,26538,11917
10,26950,12473
10,27362,12372
10,27775,13090
10,28187,12857
10,28598,12251
10,29012,13049
10,29423,12773
10,29835,12682
10,30248,13069
10,30660,12999
10,31072,12768
10,31483,11192
10,31897,11310
10,32308,12752
10,32720,10731
10,33133,11979
10,33545,11429
10,33957,12731
10,34370,11909
10,34782,12656
10,35193,10625
10,35607,12007
10,36018,12280
10,36430,12228
10,36843,12193
10,37255,12207
10,37667,13432
10,38080,12988
10,38492,12527
10,38903,11642
10,39317,11743
10,39728,11691
10,40140,12554
10,40552,12600
10,40965,12413
10,41377,13301
10,41788,12450
10,42202,12655
10,42613,12108
10,43025,12007
10,43438,12015
10,43850,13848
10,44262,12456
10,44675,12287
10,45087,12634
10,45498,12576
10,45912,13109
10,46323,12721
10,46735,11127
10,47148,12476
10,47560,11965
10,47972,11507
10,48385,11553
10,48797,11492
10,49208,11804
10,49620,12213
10,50033,11633
10,50445,11804
10,50857,11377
10,51270,10775
10,51682,11275
10,52093,11543
10,52507,11568
10,52918,12837
10,53330,12755
10,53743,10848
10,54155,11567
10,54567,11623
10,54980,11270
10,55392,11996
10,55803,13072
10,56217,14414
10,56628,17854
10,57040,23524
10,57453,32850
10,57865,48498
10,58277,76277
10,58688,108410
10,59102,166136
10,59513,237106
10,59925,324207
10,60338,441513
10,60750,570741
10,61162,709747
10,61575,853792
10,61987,1001637
10,62398,1127584
10,62812,1232386
10,63223,1315803
10,63635,1352508
10,64048,1352717
10,64460,1336260
10,64872,1294460
10,65285,1241853
10,65697,1153621
10,66108,1059905
10,66522,973359
10,66933,880068
10,67345,778120
10,67757,686845
10,68170,606703
10,68582,540144
10,68993,466370
10,69407,406457
10,69818,359044
10,70230,313648
10,70643,278475
10,71055,244834
10,71467,211095
10,71880,187701
10,72292,171656
10,72703,152695
10,73117,134902
10,73528,124257
10,73940,112791
10,74353,104651
10,74765,95192
10,75177,87051
10,75590,80991
10,76002,76237
10,76413,68494
10,76825,68845
10,77238,63571
10,77650,59537
10,78062,57653
10,78475,53462
10,78887,49231
10,79298,48796
10,79712,45281
10,80123,44810
10,80535,42459
10,80948,38009
10,81360,39758
10,81772,36542
10,82185,37719
10,82597,35265
10,83008,34086
10,83422,32354
10,83833,31737
10,84245,31973
10,84658,28386
10,85070,28190
10,85482,28658
10,85895,27270
10,86307,24964
10,86718,24981
10,87130,24695
10,87543,24896
10,87955,23954
10,88367,23406
10,88780,22793
10,89192,22573
10,89603,22759
10,90017,22396
10,90428,21377
10,90840,19873
10,91253,21323
10,91665,21111
10,92077,19364
10,92490,19533
10,92902,18544
10,93313,19954
10,93727,20348
10,94138,19764
10,94550,18559
10,94963,19230
10,95375,19025
10,95787,18840
10,96198,18338
10,96612,19038
10,97023,18065
10,97435,17659
10,97848,18922
10,98260,18061
10,98672,18456
10,99085,17138
10,99497,17634
10,99908,17778
11,00322,17452
11,00733,16561
11,01145,16345
11,01558,16363
11,01970,16093
11,02382,15693
11,02795,14645
11,03207,14148
11,03618,15452
11,04032,15199
11,04443,15246
11,04855,15187
11,05267,14625
11,05680,14411
11,06092,13905
11,06503,13952
11,06917,13066
11,07328,14011
11,07740,14048
11,08153,13914
11,08565,13673
11,08977,13361
11,09390,13637
11,09802,12472
11,10213,12502
11,10627,13403
11,11038,13779
11,11450,13034
11,11863,12379
11,12275,12568
11,12687,12847
11,13100,12531
11,13512,11824
11,13923,11582
11,14335,12183
11,14748,12960
11,15160,12302
11,15572,11989
11,15985,12893
11,16397,11750
11,16808,11135
11,17222,12097
11,17633,13220
11,18045,12787
11,18458,12135
11,18870,11939
11,19282,11921
11,19695,11741
11,20107,12548
11,20518,11353
11,20932,10466
11,21343,11302
11,21755,13080
11,22168,10986
11,22580,10829
11,22992,12248
11,23403,12464
11,23817,11787
11,24228,11908
11,24640,11891
11,25053,12754
11,25465,12865
11,25877,12017
11,26290,12250
11,26702,12097
11,27113,12862
11,27527,13293
11,27938,11983
11,28350,13231
11,28763,13102
11,29175,12822
11,29587,11674
11,30000,12500
11,30412,13361
11,30823,12239
11,31237,12065
11,31648,12684
11,32060,12320
11,32472,11274
11,32885,12116
11,33297,11300
11,33708,11701
11,34122,11932
11,34533,12067
11,34945,11822
11,35358,11271
11,35770,11648
11,36182,11656
11,36595,11596
11,37007,10615
11,37418,10987
11,37832,11216
11,38243,10084
11,38655,10879
11,39068,11361
11,39480,11043
11,39892,11118
11,40305,11548
11,40717,10440
11,41128,11145
11,41540,10466
11,41953,10497
11,42365,11437
11,42777,10091
11,43190,10542
11,43602,10742
11,44013,10843
11,44427,10565
11,44838,9735
11,45250,9429
11,45663,10817
11,46075,10254
11,46487,9390
11,46900,11594
11,47312,10967
11,47723,11004
11,48137,10243
11,48548,12136
11,48960,11032
11,49373,11207
11,49785,11129
11,50197,11558
11,50608,10653
11,51022,11633
11,51433,10765
11,51845,11512
11,52258,10705
11,52670,11332
11,53082,10496
11,53495,11272
11,53907,10600
11,54318,10421
11,54732,10499
11,55143,10508
11,55555,10259
11,55968,9071
11,56380,10419
11,56792,10153
11,57205,10119
11,57617,9698
11,58028,9833
11,58442,9535
11,58853,9474
11,59265,9897
11,59677,9634
11,60090,9364
11,60502,10273
11,60913,9568
11,61327,10744
11,61738,8828
11,62150,9781
11,62563,9130
11,62975,10205
11,63387,10622
11,63800,9523
11,64212,10036
11,64623,10124
11,65037,9621
11,65448,9302
11,65860,10958
11,66273,9739
11,66685,8914
11,67097,10202
11,67510,10218
11,67922,9446
11,68333,10291
11,68745,9019
11,69158,9783
11,69570,10274
11,69982,9250
11,70395,9454
11,70807,9125
11,71218,9004
11,71632,10688
11,72043,9436
11,72455,9537
11,72868,10248
11,73280,10031
11,73692,9478
11,74105,10853
11,74517,10593
11,74928,10678
11,75342,9579
11,75753,10208
11,76165,10060
11,76578,9223
11,76990,9113
11,77402,10366
11,77813,10763
11,78227,10596
11,78638,9880
11,79050,9668
11,79463,10751
11,79875,9793
11,80287,10820
11,80700,9902
11,81112,9558
11,81523,9585
11,81937,9145
11,82348,10542
11,82760,10187
11,83173,10422
11,83585,9309
11,83997,8885
11,84410,10442
11,84822,9564
11,85233,10166
11,85647,9415
11,86058,9390
11,86470,10016
11,86882,9376
11,87295,9411
11,87707,9994
11,88118,8674
11,88532,10348
11,88943,10495
11,89355,10004
11,89768,10306
11,90180,9189
11,90592,8819
11,91005,9473
11,91417,9187
11,91828,11107
11,92242,10340
11,92653,9783
11,93065,9237
11,93478,8747
11,93890,10348
11,94302,9354
11,94715,10151
11,95127,9894
11,95538,9467
11,95950,9677
11,96363,9675
11,96775,9500
11,97187,9166
11,97600,9445
11,98012,9856
11,98423,8984
11,98837,9239
11,99248,9433
11,99660,7985
12,00073,8627
12,00485,9315
12,00897,9480
12,01310,8812
12,01722,9275
12,02133,9846
12,02547,8725
12,02958,8988
12,03370,9083
12,03783,9995
12,04195,10735
12,04607,10384
12,05018,10020
12,05432,11028
12,05843,11242
12,06255,11073
12,06668,11784
12,07080,10584
12,07492,11088
12,07905,10593
12,08317,11268
12,08728,10688
12,09142,13625
12,09553,13665
12,09965,17146
12,10378,21988
12,10790,29751
12,11202,43242
12,11615,63189
12,12027,92395
12,12438,134016
12,12852,188466
12,13263,256354
12,13675,323366
12,14087,410855
12,14500,491547
12,14912,576001
12,15323,648711
12,15737,708204
12,16148,750041
12,16560,768542
12,16973,762911
12,17385,739886
12,17797,716489
12,18210,669400
12,18622,612323
12,19033,561584
12,19447,489659
12,19858,433046
12,20270,386106
12,20683,333671
12,21095,287680
12,21507,254086
12,21920,216022
12,22332,185832
12,22743,161905
12,23155,141988
12,23568,126647
12,23980,109381
12,24392,101038
12,24805,88314
12,25217,79884
12,25628,70760
12,26042,69675
12,26453,61777
12,26865,56582
12,27278,55566
12,27690,49669
12,28102,46948
12,28515,43320
12,28927,40370
12,29338,39142
12,29752,36594
12,30163,34827
12,30575,33016
12,30988,32406
12,31400,31010
12,31812,29178
12,32223,27611
12,32637,27448
12,33048,25528
12,33460,24894
12,33873,23932
12,34285,22887
12,34697,22767
12,35110,22972
12,35522,21667
12,35933,20423
12,36347,20163
12,36758,19059
12,37170,19439
12,37583,18563
12,37995,17849
12,38407,17792
12,38820,17290
12,39232,16818
12,39643,16725
12,40057,16575
12,40468,16406
12,40880,15050
12,41292,17086
12,41705,15342
12,42117,14131
12,42528,16305
12,42942,13124
12,43353,15193
12,43765,13647
12,44178,14019
12,44590,14039
12,45002,12719
12,45415,13175
12,45827,13595
12,46238,13404
12,46652,12496
12,47063,13860
12,47475,12408
12,47888,11188
12,48300,11464
12,48712,11296
12,49125,12088
12,49537,12698
12,49948,10447
12,50360,11398
12,50773,11697
12,51185,10314
12,51597,11077
12,52010,11023
12,52422,11031
12,52833,10165
12,53247,10300
12,53658,10050
12,54070,10259
12,54483,10669
12,54895,9994
12,55307,10602
12,55720,9862
12,56132,10045
12,56543,10202
12,56957,9978
12,57368,10094
12,57780,10691
12,58193,10355
12,58605,7941
12,59017,9426
12,59430,9809
12,59842,10588
12,60253,8312
12,60665,9388
12,61078,9539
12,61490,9038
12,61902,9270
12,62315,8672
12,62727,8850
12,63138,9353
12,63552,8548
12,63963,9794
12,64375,9718
12,64788,8665
12,65200,9770
12,65612,9826
12,66025,9169
12,66437,9318
12,66848,8729
12,67262,9739
12,67673,8492
12,68085,9710
12,68498,9383
12,68910,8721
12,69322,9457
12,69733,8450
12,70147,9533
12,70558,10257
12,70970,9692
12,71383,8768
12,71795,8841
12,72207,9071
12,72620,7864
12,73032,9045
12,73443,9386
12,73857,9528
12,74268,9955
12,74680,9529
12,75093,9488
12,75505,12062
12,75917,10240
12,76330,10512
12,76742,11811
12,77153,11236
12,77567,11885
12,77978,12100
12,78390,12497
12,78802,11167
12,79215,11119
12,79627,10899
12,80038,10220
12,80452,10839
12,80863,11064
12,81275,9455
12,81688,10836
12,82100,8981
12,82512,8177
12,82925,9969
12,83337,9111
12,83748,8309
12,84162,8353
12,84573,8748
12,84985,7764
12,85398,8653
12,85810,8605
12,86222,9102
12,86635,8940
12,87047,7734
12,87458,7119
12,87870,9258
12,88283,8554
12,88695,8802
12,89107,7787
12,89520,7411
12,89932,7275
12,90343,6714
12,90757,8406
12,91168,7197
12,91580,9074
12,91993,8726
12,92405,7765
12,92817,7915
12,93230,8954
12,93642,7518
12,94053,8769
12,94467,9132
12,94878,8059
12,95290,7679
12,95703,8392
12,96115,7863
12,96527,7808
12,96938,8260
12,97352,8332
12,97763,8870
12,98175,8833
12,98588,7757
12,99000,8510
12,99412,8285
12,99825,8251
13,00237,7292
13,00648,7962
13,01062,9119
13,01473,8785
13,01885,8931
13,02298,7592
13,02710,8135
13,03122,9170
13,03535,8678
13,03947,8581
13,04358,8410
13,04772,8286
13,05183,8348
13,05595,8842
13,06007,7605
13,06420,6641
13,06832,7604
13,07243,7965
13,07657,8655
13,08068,8291
13,08480,7910
13,08893,7397
13,09305,6672
13,09717,7023
13,10130,7681
13,10542,7527
13,10953,8433
13,11367,8295
13,11778,7591
13,12190,7241
13,12603,8088
13,13015,7407
13,13427,8364
13,13840,7137
13,14252,7626
13,14663,7146
13,15075,6288
13,15488,8333
13,15900,7491
13,16312,8235
13,16725,7466
13,17137,7134
13,17548,7630
13,17962,6030
13,18373,7858
13,18785,6803
13,19198,7456
13,19610,8314
13,20022,6251
13,20435,7572
13,20847,7014
13,21258,7046
13,21672,7762
13,22083,7348
13,22495,7179
13,22908,7788
13,23320,7416
13,23732,7330
13,24143,7812
13,24557,7262
13,24968,7490
13,25380,7887
13,25793,7005
13,26205,7542
13,26617,7673
13,27030,7133
13,27442,7275
13,27853,7385
13,28267,8167
13,28678,7688
13,29090,8074
13,29503,8207
13,29915,6758
13,30327,7516
13,30740,7195
13,31152,7453
13,31563,8016
13,31977,7799
13,32388,8249
13,32800,8225
13,33212,7842
13,33625,7734
13,34037,8852
13,34448,8131
13,34862,9267
13,35273,8946
13,35685,7985
13,36098,8053
13,36510,8197
13,36922,8392
13,37335,7575
13,37747,9371
13,38158,7392
13,38572,7356
13,38983,8612
13,39395,9131
13,39808,8551
13,40220,8282
13,40632,8711
13,41045,8018
13,41457,7930
13,41868,7831
13,42280,8498
13,42693,7651
13,43105,7611
13,43517,8394
13,43930,8086
13,44342,8681
13,44753,8159
13,45167,7695
13,45578,7796
13,45990,8100
13,46403,8261
13,46815,6598
13,47227,7969
13,47640,6786
13,48052,8535
13,48463,7265
13,48877,7269
13,49288,7288
13,49700,8146
13,50113,8033
13,50525,6923
13,50937,7525
13,51348,7485
13,51762,7972
13,52173,7679
13,52585,6447
13,52998,7475
13,53410,8157
13,53822,7882
13,54235,7172
13,54647,7230
13,55058,6868
13,55472,7264
13,55883,6167
13,56295,8050
13,56708,6592
13,57120,7102
13,57532,7432
13,57945,7280
13,58357,7560
13,58768,7384
13,59182,6784
13,59593,7163
13,60005,6912
13,60417,8194
13,60830,7052
13,61242,7081
13,61653,7732
13,62067,6464
13,62478,7415
13,62890,6474
13,63303,6413
13,63715,7113
13,64127,6666
13,64540,7488
13,64952,7659
13,65363,8455
13,65777,9956
13,66188,12834
13,66600,19523
13,67013,31846
13,67425,47477
13,67837,71465
13,68250,118333
13,68662,182854
13,69073,268589
13,69485,385199
13,69898,525213
13,70310,699994
13,70722,881945
13,71135,1088738
13,71547,1280271
13,71958,1441819
13,72372,1594084
13,72783,1688474
13,73195,1731313
13,73608,1722257
13,74020,1671633
13,74432,1563860
13,74845,1447140
13,75257,1309030
13,75668,1156794
13,76082,1017374
13,76493,882296
13,76905,758216
13,77318,642058
13,77730,544541
13,78142,477014
13,78553,403329
13,78967,349443
13,79378,301193
13,79790,267081
13,80203,229480
13,80615,204996
13,81027,183475
13,81440,163192
13,81852,149056
13,82263,133465
13,82677,123789
13,83088,111780
13,83500,103106
13,83913,96766
13,84325,86078
13,84737,81975
13,85150,75788
13,85562,72769
13,85973,69740
13,86387,60775
13,86798,58643
13,87210,55271
13,87622,51901
13,88035,49555
13,88447,48471
13,88858,44553
13,89272,43171
13,89683,40603
13,90095,41895
13,90508,36010
13,90920,38025
13,91332,35056
13,91745,33234
13,92157,32876
13,92568,30826
13,92982,29512
13,93393,28343
13,93805,28222
13,94218,25760
13,94630,25606
13,95042,25304
13,95455,24056
13,95867,23605
13,96278,21937
13,96690,21849
13,97103,22036
13,97515,21544
13,97927,20895
13,98340,20441
13,98752,20180
13,99163,18953
13,99577,19604
13,99988,17438
14,00400,19118
14,00813,18135
14,01225,17796
14,01637,17997
14,02050,16946
14,02462,15788
14,02873,17436
14,03287,14629
14,03698,15887
14,04110,15580
14,04523,15198
14,04935,14579
14,05347,14926
14,05758,13713
14,06172,15352
14,06583,14335
14,06995,14245
14,07408,13851
14,07820,13054
14,08232,13042
14,08645,13279
14,09057,12790
14,09468,12076
14,09882,12973
14,10293,11637
14,10705,11584
14,11118,12586
14,11530,11591
14,11942,11617
14,12355,11685
14,12767,11614
14,13178,11049
14,13592,11071
14,14003,10807
14,14415,11287
14,14828,10773
14,15240,10547
14,15652,10541
14,16063,9779
14,16477,9436
14,16888,9253
14,17300,9991
14,17713,10194
14,18125,10041
14,18537,10373
14,18950,10122
14,19362,9246
14,19773,8625
14,20187,9437
14,20598,8965
14,21010,8733
14,21423,8017
14,21835,10336
14,22247,9775
14,22660,8517
14,23072,9193
14,23483,8464
14,23897,8309
14,24308,7824
14,24720,9612
14,25132,9111
14,25545,8966
14,25957,9343
14,26368,7965
14,26782,7989
14,27193,9151
14,27605,8502
14,28018,8964
14,28430,8241
14,28842,9699
14,29255,9016
14,29667,10394
14,30078,10560
14,30492,11130
14,30903,11319
14,31315,11135
14,31728,11702
14,32140,11937
14,32552,12546
14,32965,12072
14,33377,12786
14,33788,13588
14,34200,13767
14,34613,14528
14,35025,13368
14,35437,12155
14,35850,13303
14,36262,12827
14,36673,12658
14,37087,12016
14,37498,11500
14,37910,11403
14,38323,11350
14,38735,10723
14,39147,10089
14,39560,10249
14,39972,9780
14,40383,10218
14,40797,8760
14,41208,8015
14,41620,9183
14,42033,9068
14,42445,8530
14,42857,8069
14,43268,7650
14,43682,8779
14,44093,7796
14,44505,7588
14,44918,8828
14,45330,8589
14,45742,8511
14,46155,7531
14,46567,8118
14,46978,7928
14,47392,7732
14,47803,7171
14,48215,6478
14,48628,7635
14,49040,7460
14,49452,7163
14,49865,6756
14,50277,7017
14,50688,6791
14,51102,8366
14,51513,7985
14,51925,6474
14,52337,6887
14,52750,7071
14,53162,7553
14,53573,6638
14,53987,7431
14,54398,7250
14,54810,7534
14,55223,6534
14,55635,6962
14,56047,7070
14,56460,6622
14,56872,7098
14,57283,6964
14,57697,6882
14,58108,6838
14,58520,6831
14,58933,8402
14,59345,6918
14,59757,6403
14,60170,7146
14,60582,6970
14,60993,6805
14,61405,7253
14,61818,7790
14,62230,6509
14,62642,6425
14,63055,5870
14,63467,6739
14,63878,5576
14,64292,6383
14,64703,6874
14,65115,6111
14,65528,5985
14,65940,6979
14,66352,7020
14,66765,6179
14,67177,5655
14,67588,5817
14,68002,6224
14,68413,6366
14,68825,6170
14,69238,5676
14,69650,6550
14,70062,6606
14,70473,6332
14,70887,6859
14,71298,6442
14,71710,6298
14,72123,6808
14,72535,6313
14,72947,5829
14,73360,6219
14,73772,6351
14,74183,6548
14,74597,7211
14,75008,6812
14,75420,6586
14,75833,6171
14,76245,5216
14,76657,6160
14,77070,6400
14,77482,6718
14,77893,6371
14,78307,6777
14,78718,6373
14,79130,5501
14,79542,6120
14,79955,7275
14,80367,6118
14,80778,6355
14,81192,6210
14,81603,6555
14,82015,6420
14,82428,6649
14,82840,5890
14,83252,5719
14,83665,6158
14,84077,6634
14,84488,6580
14,84902,5917
14,85313,5554
14,85725,6451
14,86138,6078
14,86550,5932
14,86962,6577
14,87375,6129
14,87787,7500
14,88198,7145
14,88610,6469
14,89023,7053
14,89435,6863
14,89847,6791
14,90260,6761
14,90672,6464
14,91083,6584
14,91497,6165
14,91908,5089
14,92320,6736
14,92733,5214
14,93145,5522
14,93557,6142
14,93970,6400
14,94382,5966
14,94793,6253
14,95207,6464
14,95618,5677
14,96030,6631
14,96443,5553
14,96855,6089
14,97267,6947
14,97678,5822
14,98092,5850
14,98503,6240
14,98915,6183
14,99328,6594
14,99740,6003
15,00152,6873
15,00565,6649
15,00977,6328
15,01388,6758
15,01802,6897
15,02213,7031
15,02625,6125
15,03038,6360
15,03450,6941
15,03862,6898
15,04275,5872
15,04687,6340
15,05098,6970
15,05512,5814
15,05923,6945
15,06335,6932
15,06747,6204
15,07160,5967
15,07572,5640
15,07983,6300
15,08397,6388
15,08808,6651
15,09220,6108
15,09633,6816
15,10045,5741
15,10457,5010
15,10870,6465
15,11282,5526
15,11693,6561
15,12107,6954
15,12518,5495
15,12930,4800
15,13343,5733
15,13755,6114
15,14167,6399
15,14580,5767
15,14992,5708
15,15403,5829
15,15815,6783
15,16228,5869
15,16640,6237
15,17052,5664
15,17465,5831
15,17877,5152
15,18288,5058
15,18702,5019
15,19113,5335
15,19525,4761
15,19938,5778
15,20350,6018
15,20762,5385
15,21175,5901
15,21587,5679
15,21998,6942
15,22412,8872
15,22823,12098
15,23235,18863
15,23648,28833
15,24060,45427
15,24472,72452
15,24883,105022
15,25297,153268
15,25708,224702
15,26120,303894
15,26533,395118
15,26945,510735
15,27357,613196
15,27770,720937
15,28182,798946
15,28593,878847
15,29007,910686
15,29418,923720
15,29830,895173
15,30243,858116
15,30655,790073
15,31067,721069
15,31480,637983
15,31892,566021
15,32303,490559
15,32717,419681
15,33128,360102
15,33540,306436
15,33952,258823
15,34365,225896
15,34777,190523
15,35188,167051
15,35602,146598
15,36013,123928
15,36425,116530
15,36838,100991
15,37250,90948
15,37662,80214
15,38075,72106
15,38487,67555
15,38898,61700
15,39312,56690
15,39723,51144
15,40135,50016
15,40548,45415
15,40960,40280
15,41372,38960
15,41785,37493
15,42197,34955
15,42608,32928
15,43020,30589
15,43433,31066
15,43845,28095
15,44257,27342
15,44670,26742
15,45082,24000
15,45493,22490
15,45907,21505
15,46318,22272
15,46730,20526
15,47143,20238
15,47555,18649
15,47967,20639
15,48380,18652
15,48792,18285
15,49203,16572
15,49617,16256
15,50028,15386
15,50440,15228
15,50853,15287
15,51265,15942
15,51677,14888
15,52088,13499
15,52502,13444
15,52913,12757
15,53325,13481
15,53738,12517
15,54150,12114
15,54562,12064
15,54975,11048
15,55387,11698
15,55798,11029
15,56212,10589
15,56623,10114
15,57035,11462
15,57448,10174
15,57860,10315
15,58272,11110
15,58685,10453
15,59097,10032
15,59508,9612
15,59922,9327
15,60333,9034
15,60745,10037
15,61157,8641
15,61570,9337
15,61982,9313
15,62393,8492
15,62807,8014
15,63218,8856
15,63630,8283
15,64043,9576
15,64455,8189
15,64867,8274
15,65280,8806
15,65692,6815
15,66103,7522
15,66517,8436
15,66928,7843
15,67340,6670
15,67753,7112
15,68165,6911
15,68577,6733
15,68990,6584
15,69402,8254
15,69813,6993
15,70227,7662
15,70638,6829
15,71050,7796
15,71462,6329
15,71875,6716
15,72287,6653
15,72698,6687
15,73112,6057
15,73523,6061
15,73935,7098
15,74348,6614
15,74760,5953
15,75172,6109
15,75585,6030
15,75997,6804
15,76408,5722
15,76822,6462
15,77233,5666
15,77645,5971
15,78058,6876
15,78470,6826
15,78882,7030
15,79295,7182
15,79707,6559
15,80118,6747
15,80530,6456
15,80943,5577
15,81355,6206
15,81767,6168
15,82180,6060
15,82592,6258
15,83003,5475
15,83417,6530
15,83828,6392
15,84240,5239
15,84653,5803
15,85065,5949
15,85477,5886
15,85890,6380
15,86302,5663
15,86713,5621
15,87127,5681
15,87538,6331
15,87950,5083
15,88363,5700
15,88775,6124
15,89187,6739
15,89598,5475
15,90012,5129
15,90423,6469
15,90835,6443
15,91248,5478
15,91660,6283
15,92072,5846
15,92485,5976
15,92897,6301
15,93308,4906
15,93722,5440
15,94133,5251
15,94545,5901
15,94958,5257
15,95370,5844
15,95782,5246
15,96195,6332
15,96607,6041
15,97018,5274
15,97432,6295
15,97843,7142
15,98255,7961
15,98667,9307
15,99080,7665
15,99492,9195
15,99903,9556
16,00317,9449
16,00728,9099
16,01140,9658
16,01553,11208
16,01965,10356
16,02377,10163
16,02790,9716
16,03202,11321
16,03613,9912
16,04027,10692
16,04438,10459
16,04850,8750
16,05263,11528
16,05675,10317
16,06087,10820
16,06500,10648
16,06912,9524
16,07323,10515
16,07735,10508
16,08148,11342
16,08560,11024
16,08972,7994
16,09385,9784
16,09797,7494
16,10208,9005
16,10622,8254
16,11033,6315
16,11445,6957
16,11858,6124
16,12270,6330
16,12682,5892
16,13095,6788
16,13507,6820
16,13918,5541
16,14332,5433
16,14743,6436
16,15155,5410
16,15568,5795
16,15980,4917
16,16392,5763
16,16803,5427
16,17217,5278
16,17628,4725
16,18040,5314
16,18453,6211
16,18865,5111
16,19277,5327
16,19690,6019
16,20102,5504
16,20513,5692
16,20927,4979
16,21338,5612
16,21750,6076
16,22163,4952
16,22575,5734
16,22987,6098
16,23400,5766
16,23812,4437
16,24223,5296
16,24637,6466
16,25048,4673
16,25460,5257
16,25872,5460
16,26285,5674
16,26697,5330
16,27108,5373
16,27522,5428
16,27933,5823
16,28345,6084
16,28758,5058
16,29170,4851
16,29582,6113
16,29995,4941
16,30407,5024
16,30818,5209
16,31232,5135
16,31643,4606
16,32055,5119
16,32468,5193
16,32880,5436
16,33292,4164
16,33705,5152
16,34117,5172
16,34528,5212
16,34940,4388
16,35353,5901
16,35765,5242
16,36177,5546
16,36590,4608
16,37002,5033
16,37413,5695
16,37827,4789
16,38238,5408
16,38650,4312
16,39063,4815
16,39475,4579
16,39887,5157
16,40300,4993
16,40712,4540
16,41123,4554
16,41537,4983
16,41948,4615
16,42360,4245
16,42773,4870
16,43185,5147
16,43597,6237
16,44008,6278
16,44422,5335
16,44833,5430
16,45245,5589
16,45658,5933
16,46070,5899
16,46482,4878
16,46895,5384
16,47307,6115
16,47718,5606
16,48132,5121
16,48543,4867
16,48955,5146
16,49368,5433
16,49780,6468
16,50192,5493
16,50605,4870
16,51017,5857
16,51428,6777
16,51842,7272
16,52253,7391
16,52665,9558
16,53077,9198
16,53490,10206
16,53902,12160
16,54313,11071
16,54727,11532
16,55138,11345
16,55550,11415
16,55963,11461
16,56375,11127
16,56787,10739
16,57200,9772
16,57612,9248
16,58023,9360
16,58437,9842
16,58848,8941
16,59260,8601
16,59673,7557
16,60085,7646
16,60497,6729
16,60910,6241
16,61322,7478
16,61733,6611
16,62145,6310
16,62558,5955
16,62970,5978
16,63382,6333
16,63795,6278
16,64207,6378
16,64618,5869
16,65032,5367
16,65443,6277
16,65855,5970
16,66268,5194
16,66680,5786
16,67092,5182
16,67505,4978
16,67917,4347
16,68328,5597
16,68742,5026
16,69153,4472
16,69565,4867
16,69978,6487
16,70390,6483
16,70802,5787
16,71213,5521
16,71627,7124
16,72038,6509
16,72450,7719
16,72863,8683
16,73275,8804
16,73687,8766
16,74100,9832
16,74512,10529
16,74923,14143
16,75337,13288
16,75748,19437
16,76160,27537
16,76573,41659
16,76985,67806
16,77397,104816
16,77810,166509
16,78222,253276
16,78633,380850
16,79047,534809
16,79458,725837
16,79870,935187
16,80282,1173771
16,80695,1406033
16,81107,1614896
16,81518,1806127
16,81932,1913382
16,82343,2001900
16,82755,1974262
16,83168,1902718
16,83580,1780509
16,83992,1629070
16,84405,1454675
16,84817,1281305
16,85228,1109449
16,85642,938895
16,86053,790955
16,86465,673993
16,86878,569608
16,87290,483727
16,87702,415693
16,88115,353477
16,88527,305007
16,88938,265914
16,89350,240215
16,89763,206268
16,90175,185556
16,90587,162390
16,91000,149436
16,91412,136104
16,91823,120869
16,92237,114760
16,92648,104099
16,93060,93927
16,93473,88273
16,93885,80785
16,94297,75576
16,94710,71974
16,95122,65839
16,95533,61775
16,95947,60857
16,96358,57637
16,96770,53893
16,97183,49862
16,97595,44587
16,98007,44451
16,98418,41971
16,98832,38778
16,99243,39502
16,99655,35209
17,00068,35958
17,00480,32927
17,00892,30471
17,01305,30042
17,01717,29448
17,02128,26915
17,02542,28400
17,02953,27001
17,03365,25502
17,03778,23352
17,04190,22330
17,04602,22085
17,05015,21202
17,05427,21003
17,05838,20936
17,06252,19783
17,06663,19551
17,07075,18753
17,07487,18854
17,07900,18232
17,08312,16458
17,08723,16970
17,09137,17113
17,09548,15094
17,09960,14627
17,10373,16164
17,10785,14620
17,11197,13194
17,11610,14517
17,12022,14669
17,12433,13718
17,12847,13081
17,13258,13098
17,13670,12490
17,14083,13267
17,14495,12272
17,14907,11727
17,15320,11633
17,15732,12372
17,16143,11816
17,16555,12116
17,16968,11147
17,17380,10558
17,17792,10199
17,18205,10240
17,18617,9493
17,19028,9385
17,19442,7899
17,19853,10153
17,20265,8613
17,20678,9328
17,21090,8370
17,21502,8940
17,21915,6987
17,22327,9365
17,22738,9310
17,23152,7580
17,23563,7853
17,23975,6974
17,24388,7909
17,24800,7812
17,25212,7614
17,25623,6711
17,26037,7345
17,26448,6667
17,26860,7434
17,27273,7381
17,27685,6606
17,28097,6787
17,28510,6473
17,28922,6250
17,29333,7591
17,29747,6661
17,30158,7975
17,30570,6837
17,30983,6538
17,31395,6836
17,31807,7653
17,32220,6142
17,32632,5997
17,33043,6706
17,33457,5924
17,33868,7149
17,34280,5748
17,34693,6532
17,35105,5538
17,35517,6714
17,35928,5069
17,36342,6537
17,36753,5943
17,37165,5477
17,37578,5264
17,37990,6275
17,38402,5843
17,38815,5804
17,39227,6021
17,39638,5397
17,40052,4829
17,40463,4844
17,40875,5450
17,41288,5326
17,41700,5420
17,42112,5676
17,42525,5358
17,42937,5656
17,43348,6302
17,43762,5615
17,44173,5526
17,44585,6365
17,44997,5786
17,45410,4642
17,45822,5119
17,46233,5983
17,46647,5103
17,47058,5655
17,47470,5276
17,47883,5327
17,48295,5473
17,48707,5453
17,49120,5723
17,49532,4611
17,49943,5599
17,50357,6010
17,50768,4333
17,51180,4867
17,51593,5006
17,52005,5642
17,52417,4917
17,52830,5128
17,53242,5299
17,53653,6232
17,54065,6096
17,54478,5210
17,54890,6020
17,55302,5936
17,55715,6618
17,56127,7078
17,56538,6557
17,56952,7707
17,57363,8352
17,57775,7407
17,58188,7117
17,58600,8275
17,59012,7167
17,59425,6757
17,59837,7073
17,60248,6877
17,60662,7625
17,61073,6060
17,61485,5439
17,61898,5899
17,62310,5639
17,62722,6611
17,63133,5965
17,63547,6257
17,63958,5618
17,64370,6014
17,64783,4924
17,65195,4818
17,65607,5394
17,66020,4643
17,66432,5120
17,66843,4841
17,67257,5579
17,67668,4829
17,68080,5812
17,68493,4687
17,68905,4752
17,69317,4425
17,69730,4957
17,70142,5020
17,70553,5083
17,70967,5046
17,71378,5957
17,71790,4446
17,72202,5249
17,72615,4844
17,73027,5964
17,73438,5298
17,73852,5596
17,74263,5416
17,74675,5167
17,75088,4502
17,75500,5317
17,75912,5427
17,76325,4793
17,76737,5951
17,77148,6995
17,77562,9191
17,77973,12557
17,78385,19756
17,78798,27865
17,79210,46609
17,79622,70932
17,80035,108757
17,80447,155525
17,80858,224790
17,81270,309638
17,81683,408546
17,82095,513701
17,82507,632213
17,82920,716435
17,83332,806364
17,83743,877455
17,84157,893644
17,84568,915481
17,84980,885562
17,85393,839082
17,85805,772439
17,86217,697018
17,86630,618666
17,87042,537939
17,87453,466632
17,87867,402536
17,88278,348017
17,88690,297345
17,89103,251810
17,89515,215803
17,89927,182926
17,90338,162657
17,90752,141994
17,91163,125313
17,91575,111204
17,91988,99261
17,92400,89696
17,92812,82461
17,93225,73389
17,93637,70684
17,94048,63614
17,94462,54595
17,94873,53829
17,95285,48692
17,95698,44935
17,96110,44954
17,96522,39924
17,96935,35801
17,97347,35822
17,97758,32740
17,98172,30982
17,98583,27323
17,98995,29195
17,99407,25802
17,99820,24587
18,00232,26240
18,00643,22807
18,01057,22005
18,01468,23154
18,01880,20306
18,02293,18498
18,02705,18153
18,03117,17126
18,03530,16520
18,03942,15864
18,04353,15948
18,04767,14723
18,05178,16392
18,05590,14060
18,06003,14225
18,06415,13077
18,06827,14462
18,07240,13180
18,07652,11426
18,08063,13412
18,08475,12014
18,08888,10272
18,09300,11836
18,09712,11907
18,10125,12794
18,10537,13312
18,10948,13953
18,11362,14535
18,11773,14869
18,12185,15064
18,12598,15691
18,13010,15323
18,13422,16344
18,13835,15755
18,14247,15925
18,14658,14930
18,15072,14182
18,15483,13809
18,15895,12126
18,16308,12262
18,16720,11179
18,17132,10204
18,17543,9342
18,17957,10755
18,18368,10095
18,18780,7724
18,19193,8339
18,19605,7527
18,20017,8184
18,20430,7328
18,20842,8583
18,21253,7563
18,21667,6858
18,22078,6525
18,22490,7192
18,22903,8650
18,23315,7140
18,23727,8452
18,24140,11608
18,24552,17336
18,24963,23129
18,25377,37159
18,25788,56180
18,26200,89049
18,26612,133598
18,27025,201827
18,27437,281090
18,27848,383586
18,28262,505661
18,28673,629162
18,29085,748084
18,29498,852660
18,29910,931745
18,30322,998272
18,30735,1033154
18,31147,1019201
18,31558,973207
18,31972,904222
18,32383,815527
18,32795,720386
18,33208,628565
18,33620,545649
18,34032,462546
18,34445,386362
18,34857,330757
18,35268,282618
18,35680,244294
18,36093,204875
18,36505,177978
18,36917,154071
18,37330,134232
18,37742,118798
18,38153,107473
18,38567,93528
18,38978,86656
18,39390,78885
18,39803,70086
18,40215,65799
18,40627,56836
18,41040,53968
18,41452,50811
18,41863,46302
18,42277,43265
18,42688,40295
18,43100,37698
18,43513,34372
18,43925,32969
18,44337,32449
18,44748,29808
18,45162,27454
18,45573,27738
18,45985,26374
18,46398,24277
18,46810,23785
18,47222,22836
18,47635,20549
18,48047,20670
18,48458,18348
18,48872,18286
18,49283,18876
18,49695,16175
18,50108,15445
18,50520,17435
18,50932,14300
18,51345,15741
18,51757,14749
18,52168,14525
18,52582,13321
18,52993,13219
18,53405,13260
18,53817,12403
18,54230,11708
18,54642,12075
18,55053,12433
18,55467,10962
18,55878,10785
18,56290,10360
18,56703,9889
18,57115,11482
18,57527,9533
18,57940,10029
18,58352,10049
18,58763,8989
18,59177,9965
18,59588,8547
18,60000,10184
18,60413,9429
18,60825,8633
18,61237,9186
18,61650,8199
18,62062,8953
18,62473,7953
18,62885,8703
18,63298,8615
18,63710,8853
18,64122,7894
18,64535,7611
18,64947,9252
18,65358,8050
18,65772,7551
18,66183,7323
18,66595,6868
18,67008,7644
18,67420,6687
18,67832,6494
18,68245,6199
18,68657,5876
18,69068,6206
18,69482,6043
18,69893,6093
18,70305,6985
18,70718,6659
18,71130,5705
18,71542,6558
18,71953,5892
18,72367,5388
18,72778,6298
18,73190,6066
18,73603,5400
18,74015,6968
18,74427,6266
18,74840,5672
18,75252,5593
18,75663,5671
18,76077,6051
18,76488,6248
18,76900,4630
18,77313,4723
18,77725,5569
18,78137,4402
18,78550,5051
18,78962,5779
18,79373,5095
18,79787,5644
18,80198,5300
18,80610,6411
18,81022,6087
18,81435,6046
18,81847,4123
18,82258,5899
18,82672,5664
18,83083,4600
18,83495,5115
18,83908,5633
18,84320,4779
18,84732,3629
18,85145,5026
18,85557,5412
18,85968,4803
18,86382,5409
18,86793,5071
18,87205,5348
18,87618,4193
18,88030,4933
18,88442,4802
18,88855,4259
18,89267,3427
18,89678,5756
18,90090,5138
18,90503,4744
18,90915,3935
18,91327,3742
18,91740,4731
18,92152,4380
18,92563,5477
18,92977,5069
18,93388,4860
18,93800,5179
18,94213,4421
18,94625,4237
18,95037,4773
18,95450,6069
18,95862,4601
18,96273,5178
18,96687,4863
18,97098,5627
18,97510,5280
18,97923,4582
18,98335,6158
18,98747,4579
18,99160,6363
18,99572,5263
18,99983,5150
19,00395,4497
19,00808,5106
19,01220,4761
19,01632,4888
19,02045,4785
19,02457,5316
19,02868,5508
19,03282,4937
19,03693,4950
19,04105,5476
19,04518,4211
19,04930,3712
19,05342,4678
19,05755,5129
19,06167,5770
19,06578,5464
19,06992,4943
19,07403,4133
19,07815,5116
19,08228,3989
19,08640,5865
19,09052,4747
19,09463,5511
19,09877,5549
19,10288,4880
19,10700,5490
19,11113,5391
19,11525,5071
19,11937,4925
19,12350,5242
19,12762,4401
19,13173,5126
19,13587,4370
19,13998,4868
19,14410,5381
19,14823,4938
19,15235,4635
19,15647,4761
19,16060,4800
19,16472,5912
19,16883,4173
19,17297,4697
19,17708,3728
19,18120,3669
19,18532,4807
19,18945,4171
19,19357,5080
19,19768,4712
19,20182,4614
19,20593,3882
19,21005,4374
19,21418,4035
19,21830,4359
19,22242,4298
19,22655,4430
19,23067,4788
19,23478,6543
19,23892,6318
19,24303,9766
19,24715,13119
19,25128,23362
19,25540,35118
19,25952,57034
19,26365,87817
19,26777,133664
19,27188,201253
19,27600,276299
19,28013,384123
19,28425,489352
19,28837,599483
19,29250,708247
19,29662,805202
19,30073,884569
19,30487,935639
19,30898,952327
19,31310,949295
19,31723,898860
19,32135,828626
19,32547,758450
19,32960,678773
19,33372,592773
19,33783,513606
19,34197,440731
19,34608,378925
19,35020,320663
19,35433,275332
19,35845,232541
19,36257,200904
19,36668,175825
19,37082,146888
19,37493,130377
19,37905,115052
19,38318,103995
19,38730,94524
19,39142,83766
19,39555,77440
19,39967,65928
19,40378,64069
19,40792,58428
19,41203,53131
19,41615,49373
19,42028,46580
19,42440,41739
19,42852,39414
19,43265,36711
19,43677,35227
19,44088,34138
19,44502,30575
19,44913,30799
19,45325,26977
19,45737,26339
19,46150,25309
19,46562,24237
19,46973,23208
19,47387,22489
19,47798,20298
19,48210,19993
19,48623,19269
19,49035,19254
19,49447,16550
19,49860,16589
19,50272,16005
19,50683,15290
19,51097,16331
19,51508,13476
19,51920,13464
19,52333,12963
19,52745,13095
19,53157,12596
19,53570,11866
19,53982,12135
19,54393,10793
19,54805,11509
19,55218,11391
19,55630,10731
19,56042,10661
19,56455,9770
19,56867,10786
19,57278,9053
19,57692,8925
19,58103,9012
19,58515,8680
19,58928,7778
19,59340,9236
19,59752,7645
19,60165,7337
19,60577,7287
19,60988,7864
19,61402,8001
19,61813,6682
19,62225,7551
19,62638,6693
19,63050,6392
19,63462,7332
19,63873,6877
19,64287,7129
19,64698,5966
19,65110,6308
19,65523,6376
19,65935,7535
19,66347,8256
19,66760,10028
19,67172,15332
19,67583,22188
19,67997,37549
19,68408,62606
19,68820,103653
19,69233,163171
19,69645,260419
19,70057,402105
19,70470,593226
19,70882,812463
19,71293,1091793
19,71707,1409783
19,72118,1776544
19,72530,2130699
19,72942,2500105
19,73355,2844105
19,73767,3092834
19,74178,3240650
19,74592,3301847
19,75003,3240045
19,75415,3049192
19,75828,2785051
19,76240,2491424
19,76652,2161023
19,77065,1863529
19,77477,1586754
19,77888,1319885
19,78302,1100238
19,78713,925365
19,79125,787798
19,79538,668101
19,79950,572198
19,80362,496289
19,80775,435808
19,81187,376872
19,81598,337745
19,82010,298386
19,82423,266937
19,82835,243011
19,83247,216062
19,83660,197073
19,84072,181870
19,84483,167240
19,84897,153202
19,85308,139165
19,85720,130644
19,86133,120339
19,86545,113974
19,86957,107206
19,87370,98515
19,87782,94183
19,88193,87396
19,88607,81951
19,89018,76365
19,89430,74292
19,89843,67381
19,90255,64038
19,90667,60257
19,91078,58751
19,91492,55506
19,91903,53646
19,92315,49570
19,92728,46100
19,93140,44385
19,93552,43391
19,93965,40685
19,94377,39758
19,94788,35882
19,95202,36498
19,95613,32524
19,96025,33232
19,96438,32411
19,96850,30937
19,97262,28266
19,97675,27734
19,98087,26734
19,98498,26395
19,98912,24935
19,99323,24417
19,99735,24322
20,00147,23943
20,00560,22063
20,00972,20267
20,01383,20047
20,01797,19340
20,02208,20500
20,02620,18162
20,03033,17500
20,03445,17652
20,03857,17351
20,04270,17454
20,04682,16237
20,05093,15252
20,05507,15702
20,05918,15791
20,06330,13239
20,06743,13750
20,07155,14054
20,07567,13099
20,07980,13210
20,08392,11998
20,08803,13294
20,09215,12577
20,09628,12695
20,10040,11650
20,10452,12823
20,10865,11186
20,11277,11373
20,11688,11207
20,12102,12201
20,12513,10817
20,12925,10887
20,13338,9571
20,13750,9777
20,14162,8957
20,14575,9896
20,14987,8733
20,15398,8484
20,15812,9307
20,16223,9186
20,16635,8250
20,17048,8680
20,17460,8014
20,17872,8534
20,18283,8597
20,18697,9342
20,19108,9413
20,19520,8117
20,19933,7784
20,20345,8441
20,20757,8303
20,21170,8385
20,21582,7714
20,21993,7987
20,22407,7587
20,22818,8060
20,23230,8924
20,23643,7276
20,24055,7332
20,24467,8189
20,24880,6960
20,25292,7067
20,25703,7966
20,26117,8332
20,26528,8759
20,26940,8175
20,27352,8607
20,27765,8539
20,28177,8919
20,28588,7710
20,29002,7766
20,29413,8811
20,29825,8662
20,30238,10614
20,30650,10649
20,31062,11265
20,31475,13030
20,31887,12592
20,32298,13967
20,32712,13254
20,33123,14799
20,33535,14844
20,33948,13848
20,34360,14350
20,34772,14241
20,35185,14219
20,35597,12652
20,36008,10596
20,36420,11112
20,36833,11249
20,37245,9980
20,37657,10418
20,38070,10132
20,38482,11316
20,38893,9396
20,39307,10202
20,39718,10079
20,40130,9901
20,40543,9303
20,40955,9576
20,41367,8625
20,41780,7509
20,42192,9378
20,42603,8505
20,43017,6539
20,43428,8305
20,43840,7015
20,44253,6925
20,44665,7666
20,45077,6111
20,45488,6586
20,45902,7505
20,46313,9941
20,46725,11630
20,47138,18265
20,47550,26050
20,47962,39754
20,48375,62558
20,48787,100684
20,49198,146131
20,49612,210616
20,50023,295834
20,50435,398861
20,50848,505880
20,51260,628773
20,51672,741207
20,52085,840140
20,52497,909745
20,52908,955798
20,53322,973577
20,53733,969919
20,54145,920091
20,54557,854992
20,54970,789655
20,55382,687639
20,55793,600784
20,56207,521012
20,56618,444477
20,57030,379995
20,57443,320743
20,57855,276098
20,58267,239128
20,58680,200009
20,59092,177335
20,59503,153437
20,59917,134717
20,60328,120222
20,60740,109694
20,61153,97645
20,61565,87596
20,61977,79422
20,62390,70303
20,62802,66248
20,63213,62187
20,63627,54944
20,64038,53242
20,64450,50952
20,64862,43742
20,65275,41528
20,65687,40220
20,66098,36771
20,66512,35089
20,66923,33060
20,67335,32221
20,67748,30250
20,68160,30377
20,68572,28887
20,68985,27889
20,69397,26168
20,69808,26744
20,70222,25721
20,70633,26296
20,71045,25116
20,71458,26702
20,71870,25130
20,72282,21814
20,72695,21871
20,73107,20255
20,73518,19407
20,73930,21147
20,74343,18759
20,74755,19040
20,75167,17297
20,75580,16155
20,75992,14808
20,76403,13883
20,76817,14439
20,77228,14011
20,77640,13785
20,78053,13130
20,78465,12721
20,78877,11442
20,79290,10412
20,79702,11851
20,80113,11171
20,80527,10956
20,80938,10251
20,81350,10252
20,81763,11556
20,82175,11134
20,82587,10180
20,82998,9847
20,83412,11545
20,83823,9570
20,84235,9069
20,84648,9614
20,85060,8800
20,85472,10549
20,85885,8576
20,86297,7463
20,86708,8652
20,87122,8432
20,87533,9886
20,87945,6796
20,88358,8888
20,88770,7437
20,89182,6548
20,89595,7652
20,90007,7761
20,90418,7654
20,90832,6679
20,91243,7473
20,91655,7441
20,92067,7066
20,92480,7133
20,92892,7342
20,93303,5973
20,93717,6539
20,94128,7197
20,94540,6072
20,94953,7193
20,95365,7623
20,95777,6611
20,96190,6975
20,96602,5996
20,97013,5598
20,97427,5873
20,97838,6146
20,98250,6026
20,98663,6854
20,99075,4816
20,99487,5139
20,99900,5280
21,00312,6028
21,00723,6959
21,01135,5946
21,01548,5326
21,01960,6302
21,02372,5833
21,02785,5553
21,03197,5669
21,03608,5893
21,04022,6491
21,04433,7482
21,04845,9867
21,05258,13200
21,05670,21561
21,06082,34096
21,06495,56101
21,06907,87711
21,07318,139947
21,07732,210308
21,08143,291972
21,08555,404706
21,08968,542215
21,09380,676764
21,09792,807513
21,10203,942822
21,10617,1035124
21,11028,1113897
21,11440,1137925
21,11853,1109166
21,12265,1074180
21,12677,1000964
21,13090,900256
21,13502,793655
21,13913,686666
21,14327,597211
21,14738,501774
21,15150,430773
21,15563,363387
21,15975,313185
21,16387,263061
21,16800,223553
21,17212,195508
21,17623,171680
21,18037,149199
21,18448,133407
21,18860,115949
21,19272,106447
21,19685,96134
21,20097,87552
21,20508,79022
21,20922,71070
21,21333,65548
21,21745,60962
21,22158,58969
21,22570,56015
21,22982,48916
21,23395,46560
21,23807,41771
21,24218,39924
21,24632,39477
21,25043,35822
21,25455,33134
21,25868,32219
21,26280,29586
21,26692,26960
21,27105,26987
21,27517,24994
21,27928,24701
21,28340,23546
21,28753,22853
21,29165,20747
21,29577,20936
21,29990,19020
21,30402,18922
21,30813,17438
21,31227,19127
21,31638,16870
21,32050,16942
21,32463,14447
21,32875,15362
21,33287,15247
21,33700,13675
21,34112,14387
21,34523,13859
21,34937,12611
21,35348,12042
21,35760,12788
21,36173,12113
21,36585,12169
21,36997,12068
21,37408,10279
21,37822,9570
21,38233,10164
21,38645,10822
21,39058,9877
21,39470,9931
21,39882,9635
21,40295,9600
21,40707,8866
21,41118,9765
21,41532,8327
21,41943,8248
21,42355,9166
21,42768,8282
21,43180,8900
21,43592,8910
21,44005,8303
21,44417,8990
21,44828,7633
21,45242,7708
21,45653,6881
21,46065,8052
21,46477,6861
21,46890,7158
21,47302,7480
21,47713,6620
21,48127,6884
21,48538,7897
21,48950,7634
21,49363,6886
21,49775,6674
21,50187,6310
21,50600,7122
21,51012,8249
21,51423,7209
21,51837,6233
21,52248,7358
21,52660,6872
21,53073,6532
21,53485,7257
21,53897,7908
21,54310,7292
21,54722,7301
21,55133,8198
21,55545,8064
21,55958,7735
21,56370,8130
21,56782,7475
21,57195,6596
21,57607,6867
21,58018,6823
21,58432,7668
21,58843,7320
21,59255,5960
21,59668,6550
21,60080,6454
21,60492,5731
21,60905,5895
21,61317,5740
21,61728,5234
21,62142,6361
21,62553,5563
21,62965,6377
21,63378,6045
21,63790,6068
21,64202,5649
21,64613,5067
21,65027,4754
21,65438,5877
21,65850,5802
21,66263,5832
21,66675,5854
21,67087,5120
21,67500,4758
21,67912,5391
21,68323,4844
21,68737,5201
21,69148,4665
21,69560,4664
21,69973,5525
21,70385,5607
21,70797,6075
21,71210,5641
21,71622,5406
21,72033,6189
21,72447,5196
21,72858,5363
21,73270,4998
21,73682,6208
21,74095,5528
21,74507,4967
21,74918,5159
21,75332,5037
21,75743,4847
21,76155,5726
21,76568,5648
21,76980,4874
21,77392,5546
21,77805,4757
21,78217,5557
21,78628,4791
21,79042,5557
21,79453,5410
21,79865,6100
21,80278,6404
21,80690,5941
21,81102,7071
21,81515,6741
21,81927,8038
21,82338,12778
21,82750,18576
21,83163,28497
21,83575,44843
21,83987,72661
21,84400,110579
21,84812,170425
21,85223,248229
21,85637,336638
21,86048,452181
21,86460,578159
21,86873,712517
21,87285,834416
21,87697,934118
21,88110,1012407
21,88522,1049039
21,88933,1069983
21,89347,1035003
21,89758,980743
21,90170,898872
21,90583,806003
21,90995,715540
21,91407,620059
21,91818,537937
21,92232,466462
21,92643,392169
21,93055,346132
21,93468,295430
21,93880,252701
21,94292,221406
21,94705,198202
21,95117,170702
21,95528,157033
21,95942,136065
21,96353,127802
21,96765,114743
21,97178,104281
21,97590,96566
21,98002,85301
21,98415,79667
21,98827,74261
21,99238,65461
21,99652,60524
22,00063,57666
22,00475,51868
22,00887,49425
22,01300,47263
22,01712,42985
22,02123,40438
22,02537,37853
22,02948,34995
22,03360,33641
22,03773,31338
22,04185,32115
22,04597,26112
22,05010,27354
22,05422,25909
22,05833,24189
22,06247,23553
22,06658,22478
22,07070,22467
22,07483,20222
22,07895,20372
22,08307,20773
22,08720,16704
22,09132,17341
22,09543,17128
22,09955,15601
22,10368,16675
22,10780,15775
22,11192,14180
22,11605,13687
22,12017,14772
22,12428,13456
22,12842,12931
22,13253,11116
22,13665,11949
22,14078,12843
22,14490,12467
22,14902,12121
22,15315,10718
22,15727,12166
22,16138,10441
22,16552,10388
22,16963,10058
22,17375,10574
22,17788,10009
22,18200,10361
22,18612,9849
22,19023,9514
22,19437,9280
22,19848,8926
22,20260,8711
22,20673,7779
22,21085,8861
22,21497,9136
22,21910,8255
22,22322,8538
22,22733,8819
22,23147,7415
22,23558,8801
22,23970,8271
22,24383,7583
22,24795,7375
22,25207,8331
22,25620,9253
22,26032,7880
22,26443,7644
22,26857,9126
22,27268,8146
22,27680,8200
22,28092,10437
22,28505,8515
22,28917,8109
22,29328,7511
22,29742,8356
22,30153,8167
22,30565,7416
22,30978,8115
22,31390,7708
22,31802,6767
22,32215,6477
22,32627,7603
22,33038,6400
22,33452,7234
22,33863,6121
22,34275,7943
22,34688,5974
22,35100,7491
22,35512,6929
22,35925,5842
22,36337,7466
22,36748,8582
22,37162,9365
22,37573,14829
22,37985,22816
22,38397,37065
22,38810,61449
22,39222,103958
22,39633,163595
22,40047,258938
22,40458,379526
22,40870,543485
22,41283,758984
22,41695,1016706
22,42107,1300572
22,42520,1575055
22,42932,1855319
22,43343,2117525
22,43757,2325926
22,44168,2477506
22,44580,2510228
22,44993,2473442
22,45405,2356048
22,45817,2153996
22,46230,1936059
22,46642,1698776
22,47053,1479522
22,47465,1248706
22,47878,1059569
22,48290,892424
22,48702,745479
22,49115,638021
22,49527,545076
22,49938,469759
22,50352,413625
22,50763,361695
22,51175,317720
22,51588,284293
22,52000,246338
22,52412,224385
22,52825,203135
22,53237,184502
22,53648,169804
22,54062,153861
22,54473,137323
22,54885,133117
22,55298,123453
22,55710,111045
22,56122,101372
22,56533,95519
22,56947,94153
22,57358,83535
22,57770,77485
22,58183,74852
22,58595,68154
22,59007,65075
22,59420,61225
22,59832,59166
22,60243,53337
22,60657,53118
22,61068,50191
22,61480,46624
22,61893,45806
22,62305,40721
22,62717,40226
22,63130,39674
22,63542,36725
22,63953,36769
22,64367,34773
22,64778,34377
22,65190,30836
22,65602,32885
22,66015,29481
22,66427,27359
22,66838,27920
22,67252,24472
22,67663,25229
22,68075,24598
22,68488,24125
22,68900,22082
22,69312,23350
22,69725,21076
22,70137,21218
22,70548,20558
22,70962,19073
22,71373,19970
22,71785,17126
22,72198,17946
22,72610,18300
22,73022,18120
22,73435,16218
22,73847,16308
22,74258,15468
22,74670,16656
22,75083,14059
22,75495,14922
22,75907,14399
22,76320,13798
22,76732,14065
22,77143,13586
22,77557,13155
22,77968,12466
22,78380,12520
22,78793,13118
22,79205,14086
22,79617,13574
22,80030,15884
22,80442,16902
22,80853,24955
22,81267,35876
22,81678,50740
22,82090,75353
22,82503,114862
22,82915,169391
22,83327,247573
22,83738,340953
22,84152,455171
22,84563,594156
22,84975,725266
22,85388,862032
22,85800,989675
22,86212,1072990
22,86625,1136265
22,87037,1157030
22,87448,1139700
22,87862,1092330
22,88273,1026530
22,88685,926836
22,89098,819714
22,89510,715121
22,89922,617569
22,90335,531101
22,90747,451854
22,91158,385500
22,91572,331846
22,91983,287464
22,92395,245806
22,92807,216050
22,93220,188843
22,93632,170207
22,94043,147723
22,94457,132877
22,94868,117003
22,95280,111029
22,95693,99934
22,96105,90273
22,96517,83471
22,96930,78966
22,97342,73218
22,97753,66787
22,98167,60409
22,98578,58810
22,98990,57323
22,99403,54626
22,99815,49667
23,00227,46792
23,00640,45057
23,01052,44396
23,01463,45547
23,01875,52555
23,02288,62693
23,02700,79868
23,03112,113640
23,03525,166603
23,03937,239830
23,04348,348984
23,04762,498555
23,05173,667453
23,05585,878528
23,05998,1124972
23,06410,1386209
23,06822,1661338
23,07235,1899806
23,07647,2123853
23,08058,2285326
23,08472,2336830
23,08883,2324472
23,09295,2249089
23,09708,2109895
23,10120,1927247
23,10532,1706973
23,10943,1490692
23,11357,1297834
23,11768,1110637
23,12180,943286
23,12593,798675
23,13005,682766
23,13417,581529
23,13830,508010
23,14242,436255
23,14653,385996
23,15067,337051
23,15478,299104
23,15890,266816
23,16303,242807
23,16715,213784
23,17127,196500
23,17540,183487
23,17952,165710
23,18363,154707
23,18777,142158
23,19188,132404
23,19600,120430
23,20012,111778
23,20425,107435
23,20837,99700
23,21248,94685
23,21662,88958
23,22073,84272
23,22485,78848
23,22898,74067
23,23310,66365
23,23722,62945
23,24135,61518
23,24547,58847
23,24958,56342
23,25372,54469
23,25783,48466
23,26195,46567
23,26608,46373
23,27020,42040
23,27432,41157
23,27845,40395
23,28257,39257
23,28668,37389
23,29080,35934
23,29493,34950
23,29905,31636
23,30317,30991
23,30730,31327
23,31142,29507
23,31553,29107
23,31967,28830
23,32378,26607
23,32790,26522
23,33203,26814
23,33615,24615
23,34027,22984
23,34440,22268
23,34852,22465
23,35263,21654
23,35677,20903
23,36088,20213
23,36500,20050
23,36913,18985
23,37325,19821
23,37737,17837
23,38148,19047
23,38562,16945
23,38973,16806
23,39385,16506
23,39798,16366
23,40210,14938
23,40622,15843
23,41035,15484
23,41447,14866
23,41858,15893
23,42272,13937
23,42683,13836
23,43095,16002
23,43508,12738
23,43920,16190
23,44332,16246
23,44745,14684
23,45157,14893
23,45568,13635
23,45982,12788
23,46393,13701
23,46805,13285
23,47217,12455
23,47630,11982
23,48042,10850
23,48453,12184
23,48867,11345
23,49278,11534
23,49690,10866
23,50103,10826
23,50515,10559
23,50927,11355
23,51340,11293
23,51752,11986
23,52163,10964
23,52577,11134
23,52988,11621
23,53400,11802
23,53813,13913
23,54225,15132
23,54637,20189
23,55050,26315
23,55462,38963
23,55873,57783
23,56285,87813
23,56698,135807
23,57110,194881
23,57522,273257
23,57935,382668
23,58347,495987
23,58758,617378
23,59172,746631
23,59583,860957
23,59995,957138
23,60408,1022240
23,60820,1046796
23,61232,1043325
23,61645,1001170
23,62057,938050
23,62468,849462
23,62882,753603
23,63293,673507
23,63705,583325
23,64118,512792
23,64530,446213
23,64942,406051
23,65353,388719
23,65767,382445
23,66178,412725
23,66590,473111
23,67003,559787
23,67415,701168
23,67827,895601
23,68240,1117428
23,68652,1385430
23,69063,1658028
23,69477,1933700
23,69888,2234775
23,70300,2449698
23,70713,2600201
23,71125,2621138
23,71537,2564059
23,71950,2429766
23,72362,2242369
23,72773,2011757
23,73187,1769997
23,73598,1536407
23,74010,1312480
23,74422,1113552
23,74835,952854
23,75247,803111
23,75658,691403
23,76072,594446
23,76483,518048
23,76895,454739
23,77308,400545
23,77720,349895
23,78132,314361
23,78545,286280
23,78957,259636
23,79368,235936
23,79782,215161
23,80193,195122
23,80605,180396
23,81018,168518
23,81430,156912
23,81842,143829
23,82255,136375
23,82667,123201
23,83078,119014
23,83490,111446
23,83903,107615
23,84315,96520
23,84727,91711
23,85140,89334
23,85552,85340
23,85963,80529
23,86377,78010
23,86788,74160
23,87200,70731
23,87613,65565
23,88025,62038
23,88437,59910
23,88850,54936
23,89262,54237
23,89673,51137
23,90087,50087
23,90498,44884
23,90910,45560
23,91323,42964
23,91735,43149
23,92147,40488
23,92560,37401
23,92972,36196
23,93383,35172
23,93795,33943
23,94208,35400
23,94620,34967
23,95032,33170
23,95445,30463
23,95857,30030
23,96268,30891
23,96682,29759
23,97093,29426
23,97505,28792
23,97918,26934
23,98330,25590
23,98742,26108
23,99155,25124
23,99567,23895
23,99978,24338
24,00392,23546
24,00803,22562
24,01215,21762
24,01628,22015
24,02040,22174
24,02452,22419
24,02863,24595
24,03277,26930
24,03688,30897
24,04100,38550
24,04513,55900
24,04925,80247
24,05337,117043
24,05750,169534
24,06162,236701
24,06573,330494
24,06987,428355
24,07398,546581
24,07810,668223
24,08223,792144
24,08635,895648
24,09047,961888
24,09460,998058
24,09872,1007266
24,10283,994669
24,10697,935206
24,11108,870108
24,11520,781776
24,11932,691710
24,12345,610836
24,12757,536366
24,13168,459328
24,13582,393498
24,13993,343774
24,14405,297537
24,14818,252756
24,15230,222965
24,15642,191250
24,16055,173416
24,16467,151155
24,16878,137707
24,17292,123205
24,17703,110089
24,18115,99750
24,18528,91879
24,18940,85432
24,19352,78603
24,19765,72539
24,20177,66870
24,20588,60886
24,21000,59438
24,21413,57694
24,21825,51671
24,22237,50352
24,22650,48184
24,23062,44323
24,23473,41377
24,23887,39287
24,24298,39045
24,24710,37236
24,25123,35972
24,25535,32031
24,25947,31237
24,26360,30259
24,26772,29211
24,27183,25758
24,27597,27544
24,28008,24554
24,28420,25961
24,28833,25618
24,29245,22223
24,29657,24213
24,30068,24403
24,30482,23489
24,30893,22283
24,31305,20887
24,31718,21935
24,32130,21896
24,32542,20969
24,32955,19156
24,33367,19638
24,33778,18863
24,34192,17895
24,34603,16971
24,35015,16177
24,35428,16515
24,35840,16367
24,36252,15790
24,36665,16753
24,37077,16019
24,37488,14973
24,37902,13624
24,38313,14209
24,38725,15289
24,39137,14102
24,39550,14238
24,39962,13454
24,40373,14602
24,40787,14388
24,41198,12714
24,41610,13508
24,42023,12475
24,42435,11725
24,42847,12452
24,43260,13790
24,43672,10559
24,44083,12122
24,44497,11737
24,44908,10625
24,45320,11074
24,45733,12536
24,46145,10748
24,46557,10372
24,46970,11119
24,47382,10570
24,47793,10998
24,48205,9701
24,48618,10466
24,49030,10265
24,49442,10019
24,49855,10451
24,50267,9013
24,50678,9461
24,51092,9909
24,51503,10154
24,51915,9711
24,52328,10656
24,52740,10147
24,53152,10001
24,53565,8806
24,53977,8798
24,54388,9873
24,54802,9967
24,55213,9934
24,55625,8376
24,56038,9306
24,56450,8012
24,56862,8722
24,57273,9802
24,57687,10486
24,58098,7977
24,58510,9888
24,58923,8155
24,59335,9260
24,59747,9208
24,60160,8746
24,60572,8543
24,60983,8691
24,61397,8258
24,61808,10334
24,62220,8171
24,62633,7905
24,63045,9450
24,63457,9133
24,63870,8627
24,64282,8579
24,64693,8469
24,65107,8144
24,65518,7576
24,65930,8019
24,66342,7394
24,66755,8982
24,67167,7606
24,67578,9004
24,67992,8753
24,68403,8069
24,68815,8891
24,69228,8452
24,69640,8822
24,70052,8226
24,70465,7471
24,70877,9301
24,71288,6779
24,71702,7271
24,72113,7675
24,72525,8693
24,72938,7965
24,73350,9517
24,73762,10925
24,74175,13016
24,74587,18378
24,74998,25047
24,75410,37986
24,75823,59758
24,76235,86860
24,76647,129299
24,77060,189438
24,77472,264794
24,77883,355478
24,78297,452548
24,78708,561140
24,79120,657324
24,79533,745866
24,79945,818369
24,80357,862832
24,80770,880167
24,81182,859844
24,81593,836152
24,82007,779891
24,82418,710222
24,82830,639018
24,83243,557301
24,83655,480618
24,84067,418043
24,84478,370279
24,84892,321489
24,85303,280764
24,85715,248625
24,86128,220851
24,86540,203350
24,86952,195500
24,87365,197296
24,87777,214480
24,88188,248999
24,88602,309248
24,89013,398224
24,89425,532983
24,89838,704508
24,90250,914375
24,90662,1164425
24,91075,1458415
24,91487,1751514
24,91898,2054164
24,92312,2377540
24,92723,2633154
24,93135,2820456
24,93547,2906975
24,93960,2866887
24,94372,2721868
24,94783,2514513
24,95197,2263675
24,95608,2004792
24,96020,1734448
24,96433,1491422
24,96845,1255585
24,97257,1072847
24,97670,897969
24,98082,780381
24,98493,676231
24,98907,592765
24,99318,516052
24,99730,456027
25,00143,405429
25,00555,369415
25,00967,331060
25,01380,296434
25,01792,270403
25,02203,251409
25,02615,229357
25,03028,216105
25,03440,190082
25,03852,182240
25,04265,165595
25,04677,160165
25,05088,147554
25,05502,137635
25,05913,129942
25,06325,121926
25,06738,115915
25,07150,106903
25,07562,100394
25,07975,97490
25,08387,91035
25,08798,85568
25,09212,82295
25,09623,78757
25,10035,73424
25,10448,70567
25,10860,68087
25,11272,63863
25,11683,62976
25,12097,57348
25,12508,58389
25,12920,56099
25,13333,52897
25,13745,53972
25,14157,48896
25,14570,45398
25,14982,46984
25,15393,43165
25,15807,44970
25,16218,40709
25,16630,39923
25,17043,38997
25,17455,37113
25,17867,35057
25,18280,36023
25,18692,34853
25,19103,34277
25,19517,35906
25,19928,35453
25,20340,38021
25,20752,44254
25,21165,56160
25,21577,74108
25,21988,103219
25,22402,141779
25,22813,193105
25,23225,270903
25,23638,350698
25,24050,442541
25,24462,543164
25,24875,646205
25,25287,726249
25,25698,809170
25,26112,863183
25,26523,877217
25,26935,857387
25,27348,842629
25,27760,787076
25,28172,725940
25,28585,658568
25,28997,587568
25,29408,514600
25,29820,442492
25,30233,384810
25,30645,333771
25,31057,290030
25,31470,252570
25,31882,219123
25,32293,192799
25,32707,172808
25,33118,153187
25,33530,139719
25,33943,126646
25,34355,113739
25,34767,104709
25,35180,93645
25,35592,85571
25,36003,80580
25,36417,74844
25,36828,71227
25,37240,63798
25,37653,61718
25,38065,58335
25,38477,55634
25,38888,53944
25,39302,49110
25,39713,45907
25,40125,44872
25,40538,40731
25,40950,39150
25,41362,39372
25,41775,36274
25,42187,34946
25,42598,33354
25,43012,32845
25,43423,33062
25,43835,30065
25,44248,32387
25,44660,29903
25,45072,27599
25,45485,26568
25,45897,27961
25,46308,31067
25,46722,32879
25,47133,38576
25,47545,50423
25,47957,70401
25,48370,99628
25,48782,145844
25,49193,203834
25,49607,290021
25,50018,400567
25,50430,515215
25,50843,668977
25,51255,826186
25,51667,973220
25,52080,1096182
25,52492,1208303
25,52903,1263957
25,53317,1270005
25,53728,1245515
25,54140,1192715
25,54553,1106014
25,54965,1002393
25,55377,891050
25,55790,779435
25,56202,677854
25,56613,586755
25,57027,514032
25,57438,437991
25,57850,379696
25,58262,332612
25,58675,289703
25,59087,258054
25,59498,230410
25,59912,203416
25,60323,184453
25,60735,168075
25,61148,156225
25,61560,140696
25,61972,131363
25,62385,121410
25,62797,110330
25,63208,102123
25,63622,96421
25,64033,88970
25,64445,83975
25,64858,81633
25,65270,72346
25,65682,71195
25,66095,66646
25,66507,62186
25,66918,62795
25,67330,58397
25,67743,54664
25,68155,49015
25,68567,48800
25,68980,48160
25,69392,44677
25,69803,42764
25,70217,40102
25,70628,40836
25,71040,38197
25,71453,36893
25,71865,35454
25,72277,34139
25,72690,33646
25,73102,32177
25,73513,31668
25,73927,28550
25,74338,27608
25,74750,27640
25,75163,27271
25,75575,25048
25,75987,25741
25,76398,25371
25,76812,23817
25,77223,20445
25,77635,22354
25,78048,22991
25,78460,22921
25,78872,19601
25,79285,19925
25,79697,20669
25,80108,20237
25,80522,20481
25,80933,20778
25,81345,19142
25,81758,20378
25,82170,17116
25,82582,16927
25,82995,18448
25,83407,17850
25,83818,16716
25,84232,17007
25,84643,16322
25,85055,16947
25,85467,16951
25,85880,17353
25,86292,17466
25,86703,17109
25,87117,16426
25,87528,14560
25,87940,14865
25,88353,16252
25,88765,15631
25,89177,14769
25,89590,14611
25,90002,16349
25,90413,15121
25,90827,14710
25,91238,14894
25,91650,15547
25,92063,14377
25,92475,13708
25,92887,13228
25,93300,13984
25,93712,14385
25,94123,14379
25,94535,15107
25,94948,13518
25,95360,13842
25,95772,14602
25,96185,12771
25,96597,13869
25,97008,13293
25,97422,13554
25,97833,13519
25,98245,13299
25,98658,13175
25,99070,12821
25,99482,13141
25,99895,13488
26,00307,13255
26,00718,11403
26,01132,13669
26,01543,12178
26,01955,13516
26,02368,13790
26,02780,16090
26,03192,17060
26,03603,22154
26,04017,29176
26,04428,42052
26,04840,65368
26,05253,91934
26,05665,147975
26,06077,217115
26,06490,309638
26,06902,432666
26,07313,580244
26,07727,744385
26,08138,923722
26,08550,1082594
26,08963,1237240
26,09375,1350452
26,09787,1419130
26,10200,1428136
26,10612,1400024
26,11023,1314253
26,11437,1205750
26,11848,1087050
26,12260,954761
26,12672,844534
26,13085,724599
26,13497,619993
26,13908,538274
26,14322,463938
26,14733,403867
26,15145,357034
26,15558,318274
26,15970,281427
26,16382,251177
26,16795,226064
26,17207,203766
26,17618,183495
26,18032,166998
26,18443,156660
26,18855,143580
26,19268,133118
26,19680,122056
26,20092,115907
26,20505,106051
26,20917,101572
26,21328,94665
26,21740,90070
26,22153,83775
26,22565,77968
26,22977,74968
26,23390,71114
26,23802,69233
26,24213,66800
26,24627,62263
26,25038,59548
26,25450,60364
26,25863,53943
26,26275,51805
26,26687,52214
26,27100,47666
26,27512,48741
26,27923,42297
26,28337,41833
26,28748,40339
26,29160,37661
26,29573,36214
26,29985,35289
26,30397,34483
26,30808,33733
26,31222,33328
26,31633,31370
26,32045,31660
26,32458,29980
26,32870,29013
26,33282,30191
26,33695,26819
26,34107,27566
26,34518,25143
26,34932,25535
26,35343,25523
26,35755,26679
26,36168,25847
26,36580,23492
26,36992,24390
26,37405,24014
26,37817,25420
26,38228,22099
26,38642,22769
26,39053,22030
26,39465,20420
26,39877,22704
26,40290,22148
26,40702,20331
26,41113,21343
26,41527,20093
26,41938,20412
26,42350,23128
26,42763,24340
26,43175,28915
26,43587,35299
26,44000,52232
26,44412,74709
26,44823,105023
26,45237,155861
26,45648,225128
26,46060,314710
26,46473,421980
26,46885,552106
26,47297,681675
26,47710,815417
26,48122,938565
26,48533,1027400
26,48945,1084081
26,49358,1110543
26,49770,1103236
26,50182,1046221
26,50595,980815
26,51007,883169
26,51418,805942
26,51832,709403
26,52243,620403
26,52655,537646
26,53068,464103
26,53480,403134
26,53892,345853
26,54305,306030
26,54717,273700
26,55128,238683
26,55542,211834
26,55953,188948
26,56365,168982
26,56778,154751
26,57190,138227
26,57602,126950
26,58013,116281
26,58427,111577
26,58838,102586
26,59250,96284
26,59663,86192
26,60075,82014
26,60487,77783
26,60900,72902
26,61312,66783
26,61723,62916
26,62137,61849
26,62548,57413
26,62960,54890
26,63373,51697
26,63785,50613
26,64197,48430
26,64610,46935
26,65022,43816
26,65433,42528
26,65847,40868
26,66258,40739
26,66670,37783
26,67082,36427
26,67495,34180
26,67907,33874
26,68318,33055
26,68732,31754
26,69143,33163
26,69555,29269
26,69968,28272
26,70380,28271
26,70792,27568
26,71205,27143
26,71617,24933
26,72028,26006
26,72442,23997
26,72853,26385
26,73265,22717
26,73678,22261
26,74090,24076
26,74502,23168
26,74915,23008
26,75327,22557
26,75738,20972
26,76150,21147
26,76563,21676
26,76975,21423
26,77387,20219
26,77800,19842
26,78212,20497
26,78623,19499
26,79037,19480
26,79448,19036
26,79860,19439
26,80273,17546
26,80685,17839
26,81097,16569
26,81510,17634
26,81922,17138
26,82333,17895
26,82747,15474
26,83158,16059
26,83570,18106
26,83983,15594
26,84395,18003
26,84807,16690
26,85218,15881
26,85632,16163
26,86043,15719
26,86455,15013
26,86868,17091
26,87280,14999
26,87692,15407
26,88105,14485
26,88517,15513
26,88928,15426
26,89342,14164
26,89753,15320
26,90165,16406
26,90578,14362
26,90990,14831
26,91402,14355
26,91815,13585
26,92227,14283
26,92638,14145
26,93052,14320
26,93463,12544
26,93875,13297
26,94287,15371
26,94700,15685
26,95112,14347
26,95523,14093
26,95937,14778
26,96348,16848
26,96760,16288
26,97173,15457
26,97585,16292
26,97997,17104
26,98410,16298
26,98822,15560
26,99233,16008
26,99647,15852
27,00058,15230
27,00470,14333
27,00883,15306
27,01295,14307
27,01707,14207
27,02120,15546
27,02532,14073
27,02943,13320
27,03355,14444
27,03768,12669
27,04180,13819
27,04592,12466
27,05005,13173
27,05417,13244
27,05828,13059
27,06242,11755
27,06653,12265
27,07065,13414
27,07478,11913
27,07890,13294
27,08302,13041
27,08715,13336
27,09127,16653
27,09538,19643
27,09952,24551
27,10363,34293
27,10775,47929
27,11188,72369
27,11600,113755
27,12012,163418
27,12425,230888
27,12837,314258
27,13248,419631
27,13660,537524
27,14073,646310
27,14485,748728
27,14897,847334
27,15310,914066
27,15722,965972
27,16133,967531
27,16547,962820
27,16958,923692
27,17370,874084
27,17783,809729
27,18195,763888
27,18607,730145
27,19020,713595
27,19432,737742
27,19843,791162
27,20257,892275
27,20668,1019635
27,21080,1199197
27,21493,1431664
27,21905,1684300
27,22317,1966240
27,22728,2244256
27,23142,2554904
27,23553,2804020
27,23965,2989724
27,24378,3083775
27,24790,3097313
27,25202,2971070
27,25615,2765172
27,26027,2516640
27,26438,2248041
27,26852,1945858
27,27263,1686581
27,27675,1455665
27,28088,1252015
27,28500,1072112
27,28912,934175
27,29325,827814
27,29737,722539
27,30148,644893
27,30562,573890
27,30973,515248
27,31385,474062
27,31797,433559
27,32210,384511
27,32622,361491
27,33033,330976
27,33447,305085
27,33858,288212
27,34270,267130
27,34683,246459
27,35095,231944
27,35507,219188
27,35920,202575
27,36332,193476
27,36743,180725
27,37157,169587
27,37568,164844
27,37980,154071
27,38393,149822
27,38805,141717
27,39217,134056
27,39630,129792
27,40042,120599
27,40453,117923
27,40865,111273
27,41278,108070
27,41690,101232
27,42102,95902
27,42515,97355
27,42927,92822
27,43338,88236
27,43752,82989
27,44163,77923
27,44575,76945
27,44988,76151
27,45400,75305
27,45812,71535
27,46225,70322
27,46637,67452
27,47048,64995
27,47462,66050
27,47873,61714
27,48285,60029
27,48698,59662
27,49110,56548
27,49522,60043
27,49933,56276
27,50347,55455
27,50758,52782
27,51170,52661
27,51583,54121
27,51995,54132
27,52407,55984
27,52820,65493
27,53232,75400
27,53643,93593
27,54057,122304
27,54468,165885
27,54880,223300
27,55293,300275
27,55705,394490
27,56117,505695
27,56530,627253
27,56942,731235
27,57353,849541
27,57767,938344
27,58178,1005708
27,58590,1037807
27,59002,1053610
27,59415,1040079
27,59827,1006820
27,60238,964844
27,60652,919797
27,61063,888894
27,61475,885566
27,61888,891669
27,62300,917066
27,62712,951573
27,63125,1001094
27,63537,1045857
27,63948,1089002
27,64362,1121958
27,64773,1133646
27,65185,1118183
27,65598,1067879
27,66010,1015858
27,66422,934297
27,66835,858089
27,67247,773545
27,67658,680363
27,68070,606082
27,68483,527985
27,68895,474439
27,69307,414961
27,69720,374337
27,70132,329591
27,70543,294454
27,70957,267212
27,71368,234802
27,71780,220136
27,72193,196418
27,72605,182212
27,73017,165984
27,73430,156303
27,73842,152292
27,74253,143747
27,74667,143220
27,75078,148825
27,75490,163045
27,75903,191618
27,76315,230760
27,76727,286283
27,77138,376363
27,77552,473660
27,77963,605880
27,78375,756643
27,78788,916777
27,79200,1069229
27,79612,1220822
27,80025,1321542
27,80437,1369340
27,80848,1404101
27,81262,1387951
27,81673,1326196
27,82085,1247207
27,82498,1128980
27,82910,1010753
27,83322,898286
27,83735,798745
27,84147,695300
27,84558,609910
27,84972,537907
27,85383,470401
27,85795,422489
27,86207,377688
27,86620,340215
27,87032,306476
27,87443,282349
27,87857,257256
27,88268,236483
27,88680,216579
27,89093,201768
27,89505,187960
27,89917,176019
27,90330,167065
27,90742,154504
27,91153,150281
27,91567,140368
27,91978,130274
27,92390,127750
27,92803,119654
27,93215,113287
27,93627,107432
27,94040,102329
27,94452,99276
27,94863,95027
27,95275,89331
27,95688,86580
27,96100,84008
27,96512,77534
27,96925,76051
27,97337,73351
27,97748,70344
27,98162,68521
27,98573,66560
27,98985,61637
27,99398,59795
27,99810,59829
28,00222,59985
28,00635,56354
28,01047,54425
28,01458,53047
28,01872,53614
28,02283,48663
28,02695,48454
28,03108,48172
28,03520,47741
28,03932,45526
28,04343,44476
28,04757,43819
28,05168,42675
28,05580,41996
28,05993,41345
28,06405,40176
28,06817,41956
28,07230,41136
28,07642,39852
28,08053,41442
28,08467,39815
28,08878,39629
28,09290,38429
28,09703,39689
28,10115,39200
28,10527,37577
28,10940,38807
28,11352,34250
28,11763,34799
28,12177,34923
28,12588,32122
28,13000,31948
28,13412,32995
28,13825,30753
28,14237,31116
28,14648,29657
28,15062,32229
28,15473,28016
28,15885,27184
28,16298,27477
28,16710,29030
28,17122,26372
28,17535,28855
28,17947,27193
28,18358,25594
28,18772,26297
28,19183,27113
28,19595,24538
28,20008,26274
28,20420,25312
28,20832,25168
28,21245,23944
28,21657,25181
28,22068,23205
28,22480,26247
28,22893,25003
28,23305,24649
28,23717,25102
28,24130,25027
28,24542,26253
28,24953,28366
28,25367,32444
28,25778,36966
28,26190,47208
28,26603,62012
28,27015,82707
28,27427,117387
28,27840,168741
28,28252,244812
28,28663,337258
28,29077,462699
28,29488,609920
28,29900,778461
28,30313,961143
28,30725,1130317
28,31137,1287097
28,31548,1395405
28,31962,1455221
28,32373,1465896
28,32785,1421259
28,33198,1351340
28,33610,1247826
28,34022,1130188
28,34435,1002259
28,34847,878575
28,35258,771763
28,35672,673676
28,36083,593355
28,36495,531531
28,36908,464582
28,37320,416334
28,37732,380489
28,38145,332160
28,38557,304432
28,38968,283272
28,39382,256190
28,39793,234928
28,40205,214499
28,40617,203135
28,41030,188028
28,41442,177952
28,41853,163818
28,42267,156580
28,42678,150404
28,43090,141482
28,43503,131308
28,43915,124663
28,44327,120596
28,44740,111137
28,45152,108159
28,45563,103422
28,45977,100524
28,46388,93719
28,46800,91771
28,47213,90158
28,47625,83771
28,48037,81289
28,48450,77207
28,48862,76812
28,49273,73378
28,49685,70667
28,50098,69280
28,50510,66703
28,50922,63206
28,51335,61659
28,51747,59341
28,52158,57450
28,52572,57740
28,52983,55554
28,53395,56327
28,53808,53687
28,54220,54619
28,54632,51943
28,55045,48142
28,55457,47006
28,55868,48083
28,56282,46913
28,56693,44880
28,57105,44208
28,57518,45770
28,57930,42264
28,58342,41906
28,58753,41858
28,59167,42322
28,59578,40519
28,59990,38679
28,60403,38823
28,60815,37294
28,61227,36990
28,61640,35885
28,62052,34789
28,62463,35422
28,62877,35206
28,63288,34979
28,63700,34266
28,64113,35244
28,64525,39466
28,64937,41189
28,65350,49238
28,65762,61610
28,66173,79885
28,66587,110569
28,66998,152540
28,67410,214989
28,67822,300970
28,68235,405137
28,68647,526166
28,69058,659796
28,69472,804120
28,69883,931278
28,70295,1057212
28,70708,1147120
28,71120,1208271
28,71532,1231395
28,71945,1223826
28,72357,1210132
28,72768,1178508
28,73182,1157163
28,73593,1145635
28,74005,1134161
28,74418,1152482
28,74830,1163849
28,75242,1172278
28,75655,1198826
28,76067,1208130
28,76478,1181228
28,76892,1150361
28,77303,1094836
28,77715,1030844
28,78127,940465
28,78540,864728
28,78952,783237
28,79363,704565
28,79777,623573
28,80188,557397
28,80600,496561
28,81013,435943
28,81425,396849
28,81837,353039
28,82250,320714
28,82662,286244
28,83073,263387
28,83487,244510
28,83898,220394
28,84310,206612
28,84723,188738
28,85135,177087
28,85547,166886
28,85960,154611
28,86372,143650
28,86783,138782
28,87195,131186
28,87608,124913
28,88020,116084
28,88432,108423
28,88845,104913
28,89257,100731
28,89668,97314
28,90082,89537
28,90493,85121
28,90905,84549
28,91318,80665
28,91730,77161
28,92142,74799
28,92555,75413
28,92967,68763
28,93378,66258
28,93792,65840
28,94203,61659
28,94615,60979
28,95028,58509
28,95440,57148
28,95852,55013
28,96263,52773
28,96677,51733
28,97088,50808
28,97500,50387
28,97913,49727
28,98325,48579
28,98737,46561
28,99150,47616
28,99562,43249
28,99973,44404
29,00387,43418
29,00798,42463
29,01210,42016
29,01623,40122
29,02035,40309
29,02447,39045
29,02860,39253
29,03272,40837
29,03683,38089
29,04097,36326
29,04508,34938
29,04920,36610
29,05332,36777
29,05745,35375
29,06157,35501
29,06568,35057
29,06982,33658
29,07393,34499
29,07805,34564
29,08218,36261
29,08630,34311
29,09042,32861
29,09455,32990
29,09867,32350
29,10278,31938
29,10692,32525
29,11103,31192
29,11515,32309
29,11928,32368
29,12340,33513
29,12752,29820
29,13165,29786
29,13577,30053
29,13988,30047
29,14400,28989
29,14813,29931
29,15225,28915
29,15637,29186
29,16050,29433
29,16462,29873
29,16873,29505
29,17287,30139
29,17698,27313
29,18110,29015
29,18523,26707
29,18935,27615
29,19347,26944
29,19760,27754
29,20172,27412
29,20583,27086
29,20997,27363
29,21408,27520
29,21820,26854
29,22233,27392
29,22645,26190
29,23057,25369
29,23468,25029
29,23882,26430
29,24293,26198
29,24705,25753
29,25118,26926
29,25530,26677
29,25942,26645
29,26355,24085
29,26767,27055
29,27178,26942
29,27592,26574
29,28003,26577
29,28415,26276
29,28828,27845
29,29240,26411
29,29652,27056
29,30065,26580
29,30477,27677
29,30888,31629
29,31302,34551
29,31713,43086
29,32125,57805
29,32537,76240
29,32950,103270
29,33362,152742
29,33773,213498
29,34187,302773
29,34598,415943
29,35010,568635
29,35423,758611
29,35835,978337
29,36247,1236793
29,36660,1539918
29,37072,1830254
29,37483,2147357
29,37897,2426396
29,38308,2650934
29,38720,2832721
29,39133,2927579
29,39545,2883494
29,39957,2745191
29,40370,2524802
29,40782,2279740
29,41193,2016861
29,41605,1757912
29,42018,1521927
29,42430,1330155
29,42842,1155698
29,43255,1013010
29,43667,903914
29,44078,790863
29,44492,716777
29,44903,648296
29,45315,583431
29,45728,525013
29,46140,484207
29,46552,451025
29,46965,417346
29,47377,385406
29,47788,359398
29,48202,332881
29,48613,314394
29,49025,297233
29,49438,278724
29,49850,261742
29,50262,247671
29,50673,233603
29,51087,225650
29,51498,209314
29,51910,199000
29,52323,190081
29,52735,185327
29,53147,178691
29,53560,170490
29,53972,161176
29,54383,149562
29,54797,145628
29,55208,145056
29,55620,136306
29,56033,131903
29,56445,130043
29,56857,124748
29,57270,121975
29,57682,118316
29,58093,115817
29,58507,110830
29,58918,109144
29,59330,104494
29,59742,100707
29,60155,98993
29,60567,95499
29,60978,90607
29,61392,89814
29,61803,86819
29,62215,88156
29,62628,85499
29,63040,80683
29,63452,78903
29,63865,78877
29,64277,74414
29,64688,76822
29,65102,74234
29,65513,73060
29,65925,69352
29,66338,66833
29,66750,65481
29,67162,67073
29,67575,66935
29,67987,66220
29,68398,61922
29,68810,61590
29,69223,58584
29,69635,61438
29,70047,56637
29,70460,57706
29,70872,56869
29,71283,56639
29,71697,53990
29,72108,55194
29,72520,53865
29,72933,51443
29,73345,50414
29,73757,49775
29,74170,51139
29,74582,49352
29,74993,48331
29,75407,47690
29,75818,50316
29,76230,48934
29,76643,46685
29,77055,46640
29,77467,46791
29,77878,42493
29,78292,46905
29,78703,43133
29,79115,43077
29,79528,44505
29,79940,41278
29,80352,41621
29,80765,42330
29,81177,42572
29,81588,39539
29,82002,42392
29,82413,41610
29,82825,39608
29,83238,39503
29,83650,39350
29,84062,39248
29,84475,38508
29,84887,39933
29,85298,40176
29,85712,43823
29,86123,48864
29,86535,56348
29,86947,69373
29,87360,91166
29,87772,119384
29,88183,160101
29,88597,222837
29,89008,304692
29,89420,410395
29,89833,536549
29,90245,683282
29,90657,845749
29,91070,1005271
29,91482,1153177
29,91893,1257125
29,92307,1322053
29,92718,1352328
29,93130,1327667
29,93543,1280330
29,93955,1200727
29,94367,1104450
29,94780,990752
29,95192,880355
29,95603,789593
29,96015,702207
29,96428,623281
29,96840,550399
29,97252,499021
29,97665,450666
29,98077,408424
29,98488,368344
29,98902,335347
29,99313,316356
29,99725,288326
30,00138,270350
30,00550,251043
30,00962,233474
30,01375,217665
30,01787,200959
30,02198,196071
30,02612,181039
30,03023,174877
30,03435,166064
30,03848,160457
30,04260,151539
30,04672,142766
30,05083,135635
30,05497,132140
30,05908,127676
30,06320,120018
30,06733,119125
30,07145,112433
30,07557,107572
30,07970,103763
30,08382,99241
30,08793,95948
30,09207,94273
30,09618,88574
30,10030,88829
30,10443,85542
30,10855,86088
30,11267,81196
30,11680,81904
30,12092,77635
30,12503,76451
30,12917,74420
30,13328,71758
30,13740,70951
30,14152,69975
30,14565,67385
30,14977,67435
30,15388,63425
30,15802,64433
30,16213,61024
30,16625,57185
30,17038,57685
30,17450,58414
30,17862,56327
30,18275,57656
30,18687,58447
30,19098,61574
30,19512,63583
30,19923,66912
30,20335,68678
30,20748,75312
30,21160,77447
30,21572,83231
30,21985,89261
30,22397,97251
30,22808,100421
30,23220,102049
30,23633,101418
30,24045,105655
30,24457,100656
30,24870,100534
30,25282,94852
30,25693,93746
30,26107,89206
30,26518,83688
30,26930,77091
30,27343,73545
30,27755,70269
30,28167,65504
30,28580,63640
30,28992,58300
30,29403,56060
30,29817,55960
30,30228,52135
30,30640,53126
30,31053,49683
30,31465,47446
30,31877,46425
30,32288,44596
30,32702,42867
30,33113,46190
30,33525,41478
30,33938,43052
30,34350,41914
30,34762,44703
30,35175,41394
30,35587,40761
30,35998,38546
30,36412,38216
30,36823,40714
30,37235,37977
30,37648,37057
30,38060,37953
30,38472,39316
30,38885,37287
30,39297,37548
30,39708,34314
30,40122,36569
30,40533,38034
30,40945,35992
30,41358,37290
30,41770,35424
30,42182,35563
30,42593,33421
30,43007,34733
30,43418,33114
30,43830,34372
30,44243,32703
30,44655,34177
30,45067,33854
30,45480,35591
30,45892,32890
30,46303,33894
30,46717,34552
30,47128,31481
30,47540,33215
30,47953,31644
30,48365,31793
30,48777,31801
30,49190,30307
30,49602,32059
30,50013,31070
30,50427,31417
30,50838,32215
30,51250,31362
30,51662,31383
30,52075,32705
30,52487,32463
30,52898,30547
30,53312,32021
30,53723,33621
30,54135,30945
30,54548,32445
30,54960,31053
30,55372,30131
30,55785,30390
30,56197,30591
30,56608,30403
30,57022,31139
30,57433,28596
30,57845,31038
30,58258,30980
30,58670,28975
30,59082,30535
30,59495,28599
30,59907,30115
30,60318,30792
30,60730,29495
30,61143,30633
30,61555,28635
30,61967,28959
30,62380,28048
30,62792,30471
30,63203,29679
30,63617,29472
30,64028,25916
30,64440,28170
30,64853,28153
30,65265,29883
30,65677,29781
30,66090,29098
30,66502,27868
30,66913,29092
30,67327,29816
30,67738,30294
30,68150,30041
30,68563,29523
30,68975,28563
30,69387,28731
30,69798,27255
30,70212,28038
30,70623,27548
30,71035,28182
30,71448,29485
30,71860,27795
30,72272,28940
30,72685,27515
30,73097,28678
30,73508,29669
30,73922,27255
30,74333,28684
30,74745,27586
30,75158,28526
30,75570,28779
30,75982,29113
30,76395,29677
30,76807,30042
30,77218,29762
30,77632,28697
30,78043,30081
30,78455,31329
30,78867,30050
30,79280,29343
30,79692,31844
30,80103,30286
30,80517,30154
30,80928,30137
30,81340,28287
30,81753,28520
30,82165,30286
30,82577,29478
30,82990,30352
30,83402,27160
30,83813,29888
30,84227,29087
30,84638,30268
30,85050,30881
30,85463,29545
30,85875,28667
30,86287,28444
30,86700,30259
30,87112,29977
30,87523,30369
30,87935,30952
30,88348,29567
30,88760,30095
30,89172,27738
30,89585,28374
30,89997,28035
30,90408,28998
30,90822,30193
30,91233,28775
30,91645,27045
30,92058,28353
30,92470,28362
30,92882,28281
30,93295,28704
30,93707,28287
30,94118,28068
30,94532,27756
30,94943,29277
30,95355,28952
30,95768,28901
30,96180,28807
30,96592,30394
30,97003,29480
30,97417,29665
30,97828,28673
30,98240,28239
30,98653,26992
30,99065,29357
30,99477,27853
30,99890,29748
31,00302,28900
31,00713,29942
31,01127,28972
31,01538,27449
31,01950,28670
31,02363,29048
31,02775,30340
31,03187,29173
31,03600,29554
31,04012,28251
31,04423,27977
31,04837,27299
31,05248,29342
31,05660,27687
31,06072,29356
31,06485,28950
31,06897,28361
31,07308,28039
31,07722,27923
31,08133,27947
31,08545,29323
31,08958,27751
31,09370,29469
31,09782,28644
31,10195,30089
31,10607,28856
31,11018,27525
31,11432,29863
31,11843,29426
31,12255,29951
31,12668,28074
31,13080,27998
31,13492,27376
31,13905,30005
31,14317,29060
31,14728,30453
31,15140,28888
31,15553,29739
31,15965,29225
31,16377,30173
31,16790,30741
31,17202,29206
31,17613,29306
31,18027,27395
31,18438,30912
31,18850,29665
31,19263,30954
31,19675,29103
31,20087,28362
31,20500,26661
31,20912,26825
31,21323,28497
31,21737,28883
31,22148,26988
31,22560,27139
31,22973,28045
31,23385,29515
31,23797,30862
31,24208,30290
31,24622,28313
31,25033,30406
31,25445,29692
31,25858,31032
31,26270,27981
31,26682,29917
31,27095,30398
31,27507,29656
31,27918,29713
31,28332,29812
31,28743,30589
31,29155,28191
31,29568,30228
31,29980,31784
31,30392,28051
31,30805,30142
31,31217,29990
31,31628,32698
31,32042,36099
31,32453,40475
31,32865,46882
31,33277,57652
31,33690,74256
31,34102,99267
31,34513,134827
31,34927,185094
31,35338,244748
31,35750,310652
31,36163,390030
31,36575,472994
31,36987,562142
31,37400,638362
31,37812,699466
31,38223,733625
31,38637,744429
31,39048,729394
31,39460,710703
31,39873,686804
31,40285,634485
31,40697,572400
31,41110,518230
31,41522,466221
31,41933,420580
31,42345,375657
31,42758,339030
31,43170,296577
31,43582,269410
31,43995,236563
31,44407,219676
31,44818,198695
31,45232,184420
31,45643,166204
31,46055,152028
31,46468,140719
31,46880,138397
31,47292,128936
31,47705,120812
31,48117,111900
31,48528,107572
31,48942,102625
31,49353,100411
31,49765,91797
31,50178,88373
31,50590,87471
31,51002,83896
31,51413,78744
31,51827,76114
31,52238,73174
31,52650,73613
31,53063,68244
31,53475,65730
31,53887,64014
31,54300,63091
31,54712,62260
31,55123,59614
31,55537,60494
31,55948,56777
31,56360,58857
31,56773,58461
31,57185,54480
31,57597,51780
31,58010,52091
31,58422,50402
31,58833,52926
31,59247,51920
31,59658,51490
31,60070,51093
31,60482,47177
31,60895,47684
31,61307,49261
31,61718,48682
31,62132,47466
31,62543,47631
31,62955,47556
31,63368,46766
31,63780,43857
31,64192,45610
31,64605,46362
31,65017,42252
31,65428,44245
31,65842,42431
31,66253,45192
31,66665,45448
31,67078,42582
31,67490,42481
31,67902,43560
31,68315,41772
31,68727,45975
31,69138,46232
31,69550,39409
31,69963,42874
31,70375,43246
31,70787,41318
31,71200,42773
31,71612,42243
31,72023,40776
31,72437,40438
31,72848,41693
31,73260,39562
31,73673,39300
31,74085,39286
31,74497,39841
31,74910,41071
31,75322,37814
31,75733,40783
31,76147,38571
31,76558,40720
31,76970,39237
31,77383,40185
31,77795,38099
31,78207,39472
31,78618,38484
31,79032,38466
31,79443,38329
31,79855,38185
31,80268,38102
31,80680,39541
31,81092,40619
31,81505,38935
31,81917,37827
31,82328,38797
31,82742,39106
31,83153,37806
31,83565,37478
31,83978,37207
31,84390,34023
31,84802,38122
31,85215,39103
31,85627,41048
31,86038,39524
31,86452,37566
31,86863,37727
31,87275,37869
31,87687,39388
31,88100,37642
31,88512,39898
31,88923,38293
31,89337,40194
31,89748,40001
31,90160,37458
31,90573,40006
31,90985,38250
31,91397,37399
31,91810,38157
31,92222,39175
31,92633,40363
31,93047,38783
31,93458,36935
31,93870,37387
31,94283,39746
31,94695,38507
31,95107,39139
31,95520,37841
31,95932,38642
31,96343,39525
31,96757,37617
31,97168,41458
31,97580,37527
31,97992,36576
31,98405,38233
31,98817,38879
31,99228,37377
