D:\MassHunter\GCMS\1\data\Amal\Constant flow\130C\130C_1ml-min_9C-min_1.D Mon Jul 29 13:17:48 2024
Start of data points
5,59138	36102
5,59583	34229
5,60027	33349
5,60472	33381
5,60915	35084
5,61360	33370
5,61803	33213
5,62248	33452
5,62692	33025
5,63137	31932
5,63580	31340
5,64025	33309
5,64468	33135
5,64913	32096
5,65357	32619
5,65802	32303
5,66247	33852
5,66690	31129
5,67135	30796
5,67578	32417
5,68023	32275
5,68467	32570
5,68912	31548
5,69355	32139
5,69800	30007
5,70243	32098
5,70688	35700
5,71132	45948
5,71577	68788
5,72020	108160
5,72465	175520
5,72908	257108
5,73353	345449
5,73797	414011
5,74242	460040
5,74685	475150
5,75130	478488
5,75573	463521
5,76018	445012
5,76462	427455
5,76907	398660
5,77350	378870
5,77795	354405
5,78238	334472
5,78683	316598
5,79128	299425
5,79572	280094
5,80017	262434
5,80460	241457
5,80905	234959
5,81348	214784
5,81793	198218
5,82237	190284
5,82682	177848
5,83125	165099
5,83570	154186
5,84013	142917
5,84458	136474
5,84902	124094
5,85347	121624
5,85790	112193
5,86235	102579
5,86678	99300
5,87123	89406
5,87567	86245
5,88012	78207
5,88455	74005
5,88900	66812
5,89343	61789
5,89788	56175
5,90232	53367
5,90677	49965
5,91122	47619
5,91565	44306
5,92010	42045
5,92453	39027
5,92898	37304
5,93342	38419
5,93787	34066
5,94230	33837
5,94675	32948
5,95118	33618
5,95563	31483
5,96007	31675
5,96452	30960
5,96895	29593
5,97340	28531
5,97783	28329
5,98228	28650
5,98672	29358
5,99117	26703
5,99560	27629
6,00005	27205
6,00448	27722
6,00893	26887
6,01337	26010
6,01782	27049
6,02225	26767
6,02670	26447
6,03115	25404
6,03558	24440
6,04003	25067
6,04447	26441
6,04892	26527
6,05335	25632
6,05780	26224
6,06223	26825
6,06668	24200
6,07112	26506
6,07557	25231
6,08000	26016
6,08445	25932
6,08888	24559
6,09333	25626
6,09777	26367
6,10222	25367
6,10665	24884
6,11110	26613
6,11553	24997
6,11998	25097
6,12442	24973
6,12887	23531
6,13330	24683
6,13775	24543
6,14218	24793
6,14663	25556
6,15108	24742
6,15552	24795
6,15997	22953
6,16440	24014
6,16885	24051
6,17328	24441
6,17773	30505
6,18217	42904
6,18662	64722
6,19105	101543
6,19550	150183
6,19993	203530
6,20438	257032
6,20882	293068
6,21327	321267
6,21770	324819
6,22215	316578
6,22658	312555
6,23103	295986
6,23547	279364
6,23992	260313
6,24435	240901
6,24880	223033
6,25323	212658
6,25768	195405
6,26212	181632
6,26657	168521
6,27102	158592
6,27545	144500
6,27990	131907
6,28433	123912
6,28878	114050
6,29322	109045
6,29767	97682
6,30210	89809
6,30655	84278
6,31098	77025
6,31543	68880
6,31987	65564
6,32432	59634
6,32875	53600
6,33320	49707
6,33763	43516
6,34208	38907
6,34652	37819
6,35097	36306
6,35540	32890
6,35985	31897
6,36428	29540
6,36873	28617
6,37317	26950
6,37762	26704
6,38205	25271
6,38650	24419
6,39095	23002
6,39538	22494
6,39983	22228
6,40427	23061
6,40872	21117
6,41315	22086
6,41760	21933
6,42203	21446
6,42648	20534
6,43092	19480
6,43537	19450
6,43980	20221
6,44425	20226
6,44868	19608
6,45313	19448
6,45757	18983
6,46202	18481
6,46645	20203
6,47090	19741
6,47533	20047
6,47978	18323
6,48422	19082
6,48867	20026
6,49310	17737
6,49755	19211
6,50198	19721
6,50643	20833
6,51087	20750
6,51532	19671
6,51977	19292
6,52420	20050
6,52865	19674
6,53308	18329
6,53753	20205
6,54197	19944
6,54642	18909
6,55085	19085
6,55530	19590
6,55973	17631
6,56418	18755
6,56862	18734
6,57307	18144
6,57750	17814
6,58195	17641
6,58638	18582
6,59083	17961
6,59527	17553
6,59972	18411
6,60415	17761
6,60860	17241
6,61303	17600
6,61748	18454
6,62192	18003
6,62637	17507
6,63080	17258
6,63525	17519
6,63970	18229
6,64413	17246
6,64858	17330
6,65302	17246
6,65747	17806
6,66190	17198
6,66635	18725
6,67078	19859
6,67523	17553
6,67967	17898
6,68412	18553
6,68855	17416
6,69300	17486
6,69743	18208
6,70188	17748
6,70632	17568
6,71077	19992
6,71520	23752
6,71965	38678
6,72408	67738
6,72853	124058
6,73297	215784
6,73742	338582
6,74185	477591
6,74630	606103
6,75073	715617
6,75518	766541
6,75963	790502
6,76407	790467
6,76852	753938
6,77295	702254
6,77740	666296
6,78183	612033
6,78628	556577
6,79072	507595
6,79517	462592
6,79960	418658
6,80405	376228
6,80848	334839
6,81293	299755
6,81737	268833
6,82182	238761
6,82625	216594
6,83070	190972
6,83513	166064
6,83958	148092
6,84402	131736
6,84847	112742
6,85290	95463
6,85735	82079
6,86178	71903
6,86623	62541
6,87067	54912
6,87512	46402
6,87957	43403
6,88400	40258
6,88845	34638
6,89288	31589
6,89733	28266
6,90177	27746
6,90622	24303
6,91065	23938
6,91510	23247
6,91953	22246
6,92398	21379
6,92842	20558
6,93287	18998
6,93730	18553
6,94175	19450
6,94618	17817
6,95063	18690
6,95507	17021
6,95952	18344
6,96395	18070
6,96840	16982
6,97283	16658
6,97728	16560
6,98172	17264
6,98617	15625
6,99060	16658
6,99505	16212
6,99950	15595
7,00393	15431
7,00838	16144
7,01282	15532
7,01727	15702
7,02170	15618
7,02615	15423
7,03058	15952
7,03503	15377
7,03947	15057
7,04392	15115
7,04835	16738
7,05280	14615
7,05723	14594
7,06168	15502
7,06612	15443
7,07057	15121
7,07500	14819
7,07945	15224
7,08388	14938
7,08833	15686
7,09277	15422
7,09722	15165
7,10165	14860
7,10610	14771
7,11053	14739
7,11498	15108
7,11943	15715
7,12387	14384
7,12832	14868
7,13275	15554
7,13720	14761
7,14163	14462
7,14608	14863
7,15052	14275
7,15497	13768
7,15940	14910
7,16385	13902
7,16828	14273
7,17273	13644
7,17717	14261
7,18162	13894
7,18605	13728
7,19050	15075
7,19493	14050
7,19938	14220
7,20382	13521
7,20827	14209
7,21270	12759
7,21715	14280
7,22158	14565
7,22603	13481
7,23047	14231
7,23492	13866
7,23935	15161
7,24380	13583
7,24825	13362
7,25268	13933
7,25713	13071
7,26157	14827
7,26602	12460
7,27045	14386
7,27490	13387
7,27933	13786
7,28378	13729
7,28822	13153
7,29267	13203
7,29710	13458
7,30155	13872
7,30598	14394
7,31043	13212
7,31487	16411
7,31932	21084
7,32375	31781
7,32820	55426
7,33263	94200
7,33708	154457
7,34152	233202
7,34597	316937
7,35040	395660
7,35485	459049
7,35928	491780
7,36373	493910
7,36818	487724
7,37262	466543
7,37707	435716
7,38150	383698
7,38595	338758
7,39038	306685
7,39483	270334
7,39927	239148
7,40372	212397
7,40815	183061
7,41260	159491
7,41703	135090
7,42148	116339
7,42592	98971
7,43037	79764
7,43480	70289
7,43925	59100
7,44368	48618
7,44813	41574
7,45257	38239
7,45702	33579
7,46145	29431
7,46590	26540
7,47033	23663
7,47478	22052
7,47922	21819
7,48367	19809
7,48812	18326
7,49255	19033
7,49700	17833
7,50143	16418
7,50588	16066
7,51032	15960
7,51477	16476
7,51920	14148
7,52365	15331
7,52808	14413
7,53253	15396
7,53697	13993
7,54142	13587
7,54585	13599
7,55030	13896
7,55473	13838
7,55918	13127
7,56362	13905
7,56807	12908
7,57250	12885
7,57695	12633
7,58138	12715
7,58583	12350
7,59027	11763
7,59472	12723
7,59915	11419
7,60360	13480
7,60805	12056
7,61248	13009
7,61693	12015
7,62137	11915
7,62582	11766
7,63025	11119
7,63470	12908
7,63913	12014
7,64358	11697
7,64802	12749
7,65247	13471
7,65690	13082
7,66135	13122
7,66578	13964
7,67023	13510
7,67467	14319
7,67912	13989
7,68355	14327
7,68800	13592
7,69243	13517
7,69688	13051
7,70132	12221
7,70577	13014
7,71020	13784
7,71465	12323
7,71908	12815
7,72353	12355
7,72798	12064
7,73242	11761
7,73687	11487
7,74130	11916
7,74575	11711
7,75018	12047
7,75463	11693
7,75907	11400
7,76352	11219
7,76795	11571
7,77240	10207
7,77683	11263
7,78128	10561
7,78572	11864
7,79017	11201
7,79460	10692
7,79905	12588
7,80348	10823
7,80793	12120
7,81237	11783
7,81682	11871
7,82125	11140
7,82570	11206
7,83013	12246
7,83458	11815
7,83902	11021
7,84347	10387
7,84792	11233
7,85235	10681
7,85680	11217
7,86123	9991
7,86568	11943
7,87012	10564
7,87457	11311
7,87900	10972
7,88345	12043
7,88788	10639
7,89233	11369
7,89677	11710
7,90122	11856
7,90565	11533
7,91010	12217
7,91453	12219
7,91898	12632
7,92342	13465
7,92787	12671
7,93230	11927
7,93675	12853
7,94118	12618
7,94563	13782
7,95007	12526
7,95452	13968
7,95895	15060
7,96340	19988
7,96783	33450
7,97228	60229
7,97673	120313
7,98117	219975
7,98562	369924
7,99005	559392
7,99450	764778
7,99893	954246
8,00338	1102788
8,00782	1191701
8,01227	1208510
8,01670	1169793
8,02115	1071041
8,02558	971758
8,03003	851608
8,03447	727899
8,03892	610666
8,04335	519952
8,04780	433217
8,05223	356478
8,05668	290248
8,06112	231270
8,06557	182360
8,07000	141485
8,07445	110784
8,07888	89693
8,08333	72607
8,08777	59670
8,09222	52587
8,09667	42405
8,10110	37545
8,10555	32101
8,10998	30901
8,11443	26423
8,11887	25115
8,12332	22913
8,12775	22335
8,13220	19217
8,13663	19273
8,14108	17485
8,14552	16805
8,14997	16320
8,15440	15843
8,15885	16350
8,16328	14899
8,16773	14823
8,17217	16469
8,17662	15778
8,18105	16361
8,18550	17569
8,18993	15790
8,19438	16804
8,19882	16933
8,20327	16951
8,20770	16175
8,21215	16348
8,21660	15503
8,22103	15908
8,22548	14627
8,22992	13539
8,23437	13873
8,23880	14198
8,24325	13817
8,24768	12451
8,25213	12386
8,25657	12856
8,26102	12318
8,26545	11920
8,26990	13066
8,27433	11826
8,27878	11034
8,28322	12020
8,28767	10932
8,29210	11137
8,29655	11066
8,30098	10908
8,30543	11599
8,30987	11505
8,31432	11547
8,31875	11126
8,32320	12364
8,32763	13362
8,33208	13519
8,33653	12951
8,34097	13940
8,34542	14734
8,34985	15257
8,35430	15223
8,35873	15183
8,36318	14511
8,36762	14865
8,37207	14562
8,37650	14326
8,38095	14026
8,38538	12368
8,38983	13414
8,39427	11412
8,39872	13477
8,40315	12900
8,40760	10981
8,41203	12836
8,41648	10997
8,42092	11804
8,42537	11210
8,42980	10445
8,43425	10582
8,43868	10717
8,44313	10599
8,44757	10464
8,45202	11361
8,45647	10256
8,46090	10354
8,46535	11238
8,46978	13888
8,47423	22164
8,47867	35157
8,48312	66543
8,48755	114299
8,49200	189058
8,49643	284449
8,50088	376676
8,50532	480302
8,50977	552634
8,51420	586277
8,51865	593504
8,52308	567363
8,52753	512150
8,53197	460501
8,53642	393769
8,54085	326776
8,54530	271808
8,54973	218812
8,55418	178039
8,55862	142487
8,56307	109636
8,56750	86744
8,57195	70134
8,57640	55167
8,58083	46571
8,58528	37856
8,58972	32479
8,59417	26775
8,59860	25272
8,60305	20704
8,60748	19050
8,61193	18659
8,61637	16308
8,62082	16154
8,62525	14436
8,62970	15090
8,63413	14639
8,63858	16589
8,64302	23383
8,64747	39892
8,65190	69596
8,65635	124067
8,66078	206136
8,66523	312208
8,66967	436600
8,67412	548585
8,67855	635096
8,68300	684592
8,68743	698178
8,69188	656954
8,69632	600417
8,70077	527411
8,70522	444673
8,70965	361027
8,71410	290110
8,71853	226619
8,72298	175653
8,72742	141064
8,73187	104461
8,73630	80649
8,74075	65938
8,74518	53912
8,74963	41926
8,75407	35581
8,75852	30470
8,76295	27525
8,76740	23934
8,77183	22312
8,77628	19863
8,78072	18225
8,78517	16087
8,78960	16414
8,79405	15696
8,79848	14781
8,80293	14953
8,80737	13949
8,81182	13579
8,81625	13051
8,82070	13061
8,82515	11523
8,82958	12053
8,83403	11049
8,83847	10893
8,84292	10647
8,84735	11457
8,85180	10612
8,85623	11310
8,86068	10966
8,86512	12459
8,86957	11705
8,87400	10955
8,87845	9868
8,88288	9518
8,88733	9245
8,89177	9996
8,89622	9863
8,90065	10609
8,90510	10176
8,90953	10036
8,91398	9668
8,91842	9784
8,92287	9730
8,92730	10470
8,93175	10339
8,93618	9371
8,94063	9679
8,94508	9498
8,94952	9001
8,95397	10529
8,95840	11103
8,96285	10124
8,96728	10677
8,97173	9528
8,97617	9562
8,98062	9570
8,98505	9249
8,98950	9460
8,99393	8740
8,99838	9354
9,00282	8851
9,00727	8964
9,01170	10583
9,01615	9127
9,02058	9652
9,02503	9481
9,02947	8918
9,03392	10047
9,03835	9152
9,04280	9214
9,04723	9716
9,05168	9339
9,05612	10656
9,06057	8731
9,06502	9511
9,06945	9273
9,07390	9068
9,07833	8591
9,08278	8682
9,08722	9155
9,09167	9315
9,09610	9418
9,10055	9087
9,10498	8960
9,10943	9512
9,11387	9797
9,11832	9319
9,12275	9816
9,12720	8371
9,13163	9717
9,13608	9603
9,14052	8908
9,14497	9116
9,14940	9859
9,15385	10329
9,15828	10676
9,16273	17082
9,16717	26138
9,17162	47359
9,17605	86859
9,18050	156913
9,18495	250047
9,18938	364007
9,19383	494696
9,19827	608077
9,20272	673242
9,20715	697276
9,21160	684726
9,21603	621213
9,22048	537994
9,22492	447257
9,22937	359678
9,23380	279067
9,23825	219976
9,24268	162378
9,24713	121839
9,25157	96833
9,25602	77261
9,26045	59015
9,26490	47292
9,26933	40733
9,27378	31196
9,27822	26968
9,28267	23439
9,28710	21531
9,29155	20907
9,29598	17560
9,30043	16261
9,30488	15114
9,30932	13605
9,31377	13904
9,31820	14062
9,32265	17133
9,32708	23984
9,33153	42168
9,33597	84094
9,34042	176778
9,34485	325245
9,34930	562321
9,35373	878278
9,35818	1253068
9,36262	1662244
9,36707	2034996
9,37150	2317044
9,37595	2457307
9,38038	2393793
9,38483	2144489
9,38927	1806604
9,39372	1447414
9,39815	1105186
9,40260	806180
9,40703	583548
9,41148	420507
9,41592	306942
9,42037	233986
9,42480	174509
9,42925	136434
9,43370	112208
9,43813	89591
9,44258	75431
9,44702	64867
9,45147	54284
9,45590	49631
9,46035	44368
9,46478	40813
9,46923	36207
9,47367	34062
9,47812	32009
9,48255	28485
9,48700	27095
9,49143	24582
9,49588	24032
9,50032	22161
9,50477	21402
9,50920	20830
9,51365	19722
9,51808	18947
9,52253	20786
9,52697	20806
9,53142	18647
9,53585	19869
9,54030	17634
9,54473	17562
9,54918	16600
9,55363	14677
9,55807	13470
9,56252	13565
9,56695	14086
9,57140	13551
9,57583	13893
9,58028	13203
9,58472	13369
9,58917	11348
9,59360	11858
9,59805	12139
9,60248	10817
9,60693	10709
9,61137	11580
9,61582	10789
9,62025	11448
9,62470	11296
9,62913	9880
9,63358	11026
9,63802	10596
9,64247	10487
9,64690	11013
9,65135	11086
9,65578	11105
9,66023	11105
9,66467	10563
9,66912	10290
9,67357	10192
9,67800	10290
9,68245	10383
9,68688	10274
9,69133	10290
9,69577	9129
9,70022	10243
9,70465	10173
9,70910	9921
9,71353	9791
9,71798	9911
9,72242	9826
9,72687	10422
9,73130	10136
9,73575	10660
9,74018	10679
9,74463	10361
9,74907	11790
9,75352	11212
9,75795	11702
9,76240	13373
9,76683	20179
9,77128	33620
9,77572	60468
9,78017	109201
9,78460	189379
9,78905	301091
9,79350	441845
9,79793	583613
9,80238	687807
9,80682	759917
9,81127	761071
9,81570	715470
9,82015	626740
9,82458	526702
9,82903	416052
9,83347	321041
9,83792	236074
9,84235	175523
9,84680	130793
9,85123	97439
9,85568	74647
9,86012	59230
9,86457	48735
9,86900	40661
9,87345	36415
9,87788	32772
9,88233	29221
9,88677	25603
9,89122	26257
9,89565	24499
9,90010	22687
9,90453	22991
9,90898	21161
9,91343	19455
9,91787	17636
9,92232	15740
9,92675	16429
9,93120	14189
9,93563	13813
9,94008	13827
9,94452	13408
9,94897	13460
9,95340	12419
9,95785	11865
9,96228	11952
9,96673	11924
9,97117	11087
9,97562	11319
9,98005	11844
9,98450	11246
9,98893	10975
9,99338	12012
9,99782	13787
10,00227	13706
10,00670	15856
10,01115	16139
10,01558	21283
10,02003	25508
10,02447	42576
10,02892	75468
10,03337	135926
10,03780	234094
10,04225	362064
10,04668	518019
10,05113	682212
10,05557	810998
10,06002	875300
10,06445	872089
10,06890	803527
10,07333	672938
10,07778	534202
10,08222	409682
10,08667	299617
10,09110	219278
10,09555	159867
10,09998	114438
10,10443	88307
10,10887	66837
10,11332	54455
10,11775	46052
10,12220	37187
10,12663	32716
10,13108	28950
10,13552	25578
10,13997	24623
10,14440	21541
10,14885	20158
10,15328	17962
10,15773	17789
10,16218	17747
10,16662	15146
10,17107	16640
10,17550	14552
10,17995	14225
10,18438	14454
10,18883	13505
10,19327	12934
10,19772	11971
10,20215	12300
10,20660	11778
10,21103	11674
10,21548	11484
10,21992	10343
10,22437	11776
10,22880	11517
10,23325	11450
10,23768	10883
10,24213	11275
10,24657	10635
10,25102	10139
10,25545	10944
10,25990	9909
10,26433	10551
10,26878	9936
10,27322	9777
10,27767	10391
10,28212	9559
10,28655	10573
10,29100	9967
10,29543	10402
10,29988	10683
10,30432	9883
10,30877	10512
10,31320	10114
10,31765	9217
10,32208	9647
10,32653	9677
10,33097	8702
10,33542	8373
10,33985	9614
10,34430	9435
10,34873	8635
10,35318	9674
10,35762	9661
10,36207	10279
10,36650	8626
10,37095	9889
10,37538	10150
10,37983	9633
10,38427	9484
10,38872	10893
10,39315	9003
10,39760	9163
10,40205	9339
10,40648	9794
10,41093	9821
10,41537	9557
10,41982	9235
10,42425	9242
10,42870	8693
10,43313	10447
10,43758	9429
10,44202	10311
10,44647	10959
10,45090	13944
10,45535	20000
10,45978	34444
10,46423	64086
10,46867	121187
10,47312	212012
10,47755	342065
10,48200	502515
10,48643	659788
10,49088	783980
10,49532	854290
10,49977	845722
10,50420	769274
10,50865	663718
10,51308	519043
10,51753	404262
10,52198	293618
10,52642	215133
10,53087	153487
10,53530	118108
10,53975	89872
10,54418	69412
10,54863	54792
10,55307	48200
10,55752	38556
10,56195	34195
10,56640	31285
10,57083	26590
10,57528	26981
10,57972	24827
10,58417	23071
10,58860	19823
10,59305	18549
10,59748	17491
10,60193	17649
10,60637	16508
10,61082	14706
10,61525	14815
10,61970	15288
10,62413	13635
10,62858	13896
10,63302	12072
10,63747	11099
10,64192	11756
10,64635	11234
10,65080	11429
10,65523	12099
10,65968	11468
10,66412	10198
10,66857	11379
10,67300	10299
10,67745	9287
10,68188	10642
10,68633	10648
10,69077	10740
10,69522	12881
10,69965	19456
10,70410	33193
10,70853	67896
10,71298	142658
10,71742	264334
10,72187	460842
10,72630	734543
10,73075	1060865
10,73518	1407965
10,73963	1739573
10,74407	1932864
10,74852	1924855
10,75295	1770052
10,75740	1489931
10,76185	1164450
10,76628	855610
10,77073	609152
10,77517	432126
10,77962	305493
10,78405	222692
10,78850	169557
10,79293	135266
10,79738	110520
10,80182	96664
10,80627	80676
10,81070	75677
10,81515	66962
10,81958	56969
10,82403	51485
10,82847	48487
10,83292	44167
10,83735	37642
10,84180	36873
10,84623	32894
10,85068	28055
10,85512	26882
10,85957	25495
10,86400	23479
10,86845	21582
10,87288	20392
10,87733	19013
10,88177	19669
10,88622	17657
10,89067	16571
10,89510	17395
10,89955	16932
10,90398	16779
10,90843	14237
10,91287	15789
10,91732	15174
10,92175	15078
10,92620	15565
10,93063	13013
10,93508	13503
10,93952	14375
10,94397	15093
10,94840	23065
10,95285	37600
10,95728	71128
10,96173	131088
10,96617	231140
10,97062	361441
10,97505	534773
10,97950	702337
10,98393	835590
10,98838	904324
10,99282	896112
10,99727	808971
11,00170	676972
11,00615	530550
11,01060	393552
11,01503	290253
11,01948	211709
11,02392	155829
11,02837	116405
11,03280	90421
11,03725	72124
11,04168	59784
11,04613	49542
11,05057	43595
11,05502	36013
11,05945	32494
11,06390	29446
11,06833	28256
11,07278	31346
11,07722	40716
11,08167	64649
11,08610	119995
11,09055	223882
11,09498	388333
11,09943	637846
11,10387	948190
11,10832	1297499
11,11275	1609678
11,11720	1804701
11,12163	1827169
11,12608	1697164
11,13053	1419763
11,13497	1125186
11,13942	830133
11,14385	594172
11,14830	424064
11,15273	305178
11,15718	225517
11,16162	171728
11,16607	136336
11,17050	110285
11,17495	93987
11,17938	78617
11,18383	67128
11,18827	60586
11,19272	54009
11,19715	47930
11,20160	44449
11,20603	38574
11,21048	36451
11,21492	33977
11,21937	30473
11,22380	29710
11,22825	28866
11,23268	27442
11,23713	24374
11,24157	22788
11,24602	26024
11,25047	21075
11,25490	21079
11,25935	19505
11,26378	19337
11,26823	19043
11,27267	19385
11,27712	15860
11,28155	16911
11,28600	16871
11,29043	17398
11,29488	15029
11,29932	14082
11,30377	14579
11,30820	14335
11,31265	14819
11,31708	13809
11,32153	13881
11,32597	13282
11,33042	13735
11,33485	15364
11,33930	16551
11,34373	20085
11,34818	34393
11,35262	62496
11,35707	118564
11,36150	211518
11,36595	340466
11,37040	503240
11,37483	656270
11,37928	787472
11,38372	853335
11,38817	824735
11,39260	742104
11,39705	600947
11,40148	465252
11,40593	339143
11,41037	241799
11,41482	185539
11,41925	135663
11,42370	100633
11,42813	82756
11,43258	65086
11,43702	54058
11,44147	45463
11,44590	40001
11,45035	33196
11,45478	30257
11,45923	28465
11,46367	26572
11,46812	24241
11,47255	22972
11,47700	21357
11,48143	20461
11,48588	20078
11,49033	18585
11,49477	17646
11,49922	17409
11,50365	18195
11,50810	15477
11,51253	15837
11,51698	15347
11,52142	14212
11,52587	16213
11,53030	15192
11,53475	15929
11,53918	15152
11,54363	16199
11,54807	16020
11,55252	16255
11,55695	15039
11,56140	16745
11,56583	15560
11,57028	15761
11,57472	15902
11,57917	15079
11,58360	15035
11,58805	14977
11,59248	16093
11,59693	15423
11,60137	15839
11,60582	14260
11,61025	14134
11,61470	12300
11,61915	13459
11,62358	13626
11,62803	12650
11,63247	14267
11,63692	19544
11,64135	31175
11,64580	54549
11,65023	104680
11,65468	183902
11,65912	304104
11,66357	454920
11,66800	613720
11,67245	741992
11,67688	801061
11,68133	793773
11,68577	718007
11,69022	601985
11,69465	467673
11,69910	353451
11,70353	258781
11,70798	187716
11,71242	138354
11,71687	105354
11,72130	80395
11,72575	66623
11,73018	55484
11,73463	47004
11,73908	39146
11,74352	34811
11,74797	32653
11,75240	29964
11,75685	26389
11,76128	25997
11,76573	25221
11,77017	24385
11,77462	21691
11,77905	20396
11,78350	19614
11,78793	19516
11,79238	18747
11,79682	16996
11,80127	16443
11,80570	18401
11,81015	16351
11,81458	15179
11,81903	15106
11,82347	14714
11,82792	14917
11,83235	15216
11,83680	14729
11,84123	14824
11,84568	14324
11,85012	13550
11,85457	14441
11,85902	15340
11,86345	13772
11,86790	13302
11,87233	12636
11,87678	12807
11,88122	13729
11,88567	12808
11,89010	13005
11,89455	11536
11,89898	13395
11,90343	11847
11,90787	12085
11,91232	12023
11,91675	13083
11,92120	12006
11,92563	12870
11,93008	11249
11,93452	13083
11,93897	13558
11,94340	12723
11,94785	12081
11,95228	14299
11,95673	13824
11,96117	14161
11,96562	13876
11,97005	13309
11,97450	13169
11,97895	11605
11,98338	12294
11,98783	13674
11,99227	12299
11,99672	11321
12,00115	11289
12,00560	12873
12,01003	11730
12,01448	12604
12,01892	18982
12,02337	28085
12,02780	57216
12,03225	112683
12,03668	225345
12,04113	399531
12,04557	669652
12,05002	1029522
12,05445	1472462
12,05890	1959172
12,06333	2415826
12,06778	2694505
12,07222	2734483
12,07667	2521482
12,08110	2104891
12,08555	1652729
12,08998	1243191
12,09443	916240
12,09888	662755
12,10332	479517
12,10777	354882
12,11220	268820
12,11665	205220
12,12108	170761
12,12553	137069
12,12997	118796
12,13442	100813
12,13885	88441
12,14330	78196
12,14773	71041
12,15218	62878
12,15662	55947
12,16107	52504
12,16550	46986
12,16995	46243
12,17438	41223
12,17883	40521
12,18327	37056
12,18772	37254
12,19215	32156
12,19660	31565
12,20103	32341
12,20548	29685
12,20992	29195
12,21437	28053
12,21882	25687
12,22325	25247
12,22770	24103
12,23213	23918
12,23658	22925
12,24102	23247
12,24547	21744
12,24990	20924
12,25435	21092
12,25878	21302
12,26323	20621
12,26767	22191
12,27212	21583
12,27655	22875
12,28100	28392
12,28543	40068
12,28988	64153
12,29432	104869
12,29877	180001
12,30320	284813
12,30765	414818
12,31208	549071
12,31653	666242
12,32097	717496
12,32542	715706
12,32985	650501
12,33430	552868
12,33873	438283
12,34318	328479
12,34763	242950
12,35207	178040
12,35652	127015
12,36095	101063
12,36540	80852
12,36983	67007
12,37428	61413
12,37872	58705
12,38317	67849
12,38760	96286
12,39205	144048
12,39648	237258
12,40093	376536
12,40537	535212
12,40982	715708
12,41425	861084
12,41870	951175
12,42313	941613
12,42758	857874
12,43202	721298
12,43647	560752
12,44090	414100
12,44535	306830
12,44978	228312
12,45423	169246
12,45867	131195
12,46312	105864
12,46757	88367
12,47200	72067
12,47645	64862
12,48088	57382
12,48533	52758
12,48977	46511
12,49422	41184
12,49865	39852
12,50310	36347
12,50753	34430
12,51198	30661
12,51642	32452
12,52087	29028
12,52530	28232
12,52975	27738
12,53418	25685
12,53863	26916
12,54307	26872
12,54752	23109
12,55195	23795
12,55640	22755
12,56083	22889
12,56528	22130
12,56972	21049
12,57417	21118
12,57860	20490
12,58305	19798
12,58750	20684
12,59193	19546
12,59638	19647
12,60082	18961
12,60527	17588
12,60970	17818
12,61415	19264
12,61858	17683
12,62303	18835
12,62747	17679
12,63192	17141
12,63635	16792
12,64080	16799
12,64523	18302
12,64968	18920
12,65412	23851
12,65857	36456
12,66300	59764
12,66745	108000
12,67188	190413
12,67633	320143
12,68077	488084
12,68522	680298
12,68965	878843
12,69410	1009332
12,69853	1058537
12,70298	992601
12,70743	843469
12,71187	657260
12,71632	487077
12,72075	355821
12,72520	259786
12,72963	192901
12,73408	149365
12,73852	116895
12,74297	98310
12,74740	81300
12,75185	71745
12,75628	61410
12,76073	57401
12,76517	51186
12,76962	46441
12,77405	43192
12,77850	38617
12,78293	37383
12,78738	33807
12,79182	33338
12,79627	32050
12,80070	31486
12,80515	30265
12,80958	30023
12,81403	29652
12,81847	28581
12,82292	28240
12,82737	24918
12,83180	28200
12,83625	26032
12,84068	24611
12,84513	24850
12,84957	22539
12,85402	22401
12,85845	22905
12,86290	22976
12,86733	21597
12,87178	23207
12,87622	22099
12,88067	20829
12,88510	19602
12,88955	20312
12,89398	18912
12,89843	20073
12,90287	20614
12,90732	18539
12,91175	18625
12,91620	22886
12,92063	29184
12,92508	46978
12,92952	84383
12,93397	148833
12,93840	248195
12,94285	395799
12,94730	559520
12,95173	715268
12,95618	815912
12,96062	844585
12,96507	797182
12,96950	683248
12,97395	531726
12,97838	418692
12,98283	304187
12,98727	223737
12,99172	166324
12,99615	128038
13,00060	100356
13,00503	80830
13,00948	68931
13,01392	61378
13,01837	53727
13,02280	48173
13,02725	43777
13,03168	39758
13,03613	38881
13,04057	33104
13,04502	32200
13,04945	29061
13,05390	30653
13,05833	29538
13,06278	27740
13,06722	26279
13,07167	24784
13,07612	24914
13,08055	24409
13,08500	24243
13,08943	24534
13,09388	22389
13,09832	22059
13,10277	21249
13,10720	21413
13,11165	18701
13,11608	20762
13,12053	20804
13,12497	20189
13,12942	19995
13,13385	19178
13,13830	20119
13,14273	20081
13,14718	19525
13,15162	18307
13,15607	18236
13,16050	19088
13,16495	18830
13,16938	18583
13,17383	19042
13,17827	17048
13,18272	17486
13,18715	18093
13,19160	18074
13,19605	18353
13,20048	17737
13,20493	17458
13,20937	18077
13,21382	19570
13,21825	18244
13,22270	18918
13,22713	19049
13,23158	17747
13,23602	16914
13,24047	18852
13,24490	17864
13,24935	19055
13,25378	18499
13,25823	20602
13,26267	19149
13,26712	24733
13,27155	33452
13,27600	51647
13,28043	85061
13,28488	155703
13,28932	267911
13,29377	440267
13,29820	685924
13,30265	998547
13,30708	1350231
13,31153	1734631
13,31598	2072695
13,32042	2292313
13,32487	2328191
13,32930	2221921
13,33375	1970992
13,33818	1707150
13,34263	1445802
13,34707	1230020
13,35152	995201
13,35595	791365
13,36040	621809
13,36483	482400
13,36928	367824
13,37372	285688
13,37817	224622
13,38260	186949
13,38705	155514
13,39148	136324
13,39593	118939
13,40037	104833
13,40482	97758
13,40925	83989
13,41370	78814
13,41813	71284
13,42258	69079
13,42702	64415
13,43147	62219
13,43592	57748
13,44035	54510
13,44480	50813
13,44923	48331
13,45368	45030
13,45812	46900
13,46257	45470
13,46700	41992
13,47145	41783
13,47588	39687
13,48033	40058
13,48477	37356
13,48922	36600
13,49365	37812
13,49810	36802
13,50253	35396
13,50698	33365
13,51142	34722
13,51587	34260
13,52030	36465
13,52475	36006
13,52918	38601
13,53363	46679
13,53807	56880
13,54252	81619
13,54695	126677
13,55140	203950
13,55585	326091
13,56028	458541
13,56473	592109
13,56917	705296
13,57362	759176
13,57805	740508
13,58250	670521
13,58693	547583
13,59138	445621
13,59582	346843
13,60027	296965
13,60470	278601
13,60915	322115
13,61358	395320
13,61803	497884
13,62247	626087
13,62692	756362
13,63135	874085
13,63580	980138
13,64023	1067365
13,64468	1126143
13,64912	1180247
13,65357	1184583
13,65800	1167638
13,66245	1063177
13,66688	921075
13,67133	749301
13,67578	596108
13,68022	452655
13,68467	347605
13,68910	273592
13,69355	219532
13,69798	181911
13,70243	154529
13,70687	133198
13,71132	118003
13,71575	110538
13,72020	99904
13,72463	89362
13,72908	83579
13,73352	77268
13,73797	72068
13,74240	66202
13,74685	60114
13,75128	56728
13,75573	53287
13,76017	50852
13,76462	47717
13,76905	48311
13,77350	44245
13,77793	43689
13,78238	42193
13,78682	41011
13,79127	38870
13,79570	35087
13,80015	37121
13,80460	33955
13,80903	35614
13,81348	34406
13,81792	33827
13,82237	33377
13,82680	30405
13,83125	31066
13,83568	30080
13,84013	29891
13,84457	28698
13,84902	29812
13,85345	29147
13,85790	28038
13,86233	26924
13,86678	27342
13,87122	27995
13,87567	33393
13,88010	41083
13,88455	56170
13,88898	90329
13,89343	150387
13,89787	244379
13,90232	376285
13,90675	539398
13,91120	699478
13,91563	852675
13,92008	937544
13,92453	952308
13,92897	878655
13,93342	741603
13,93785	592608
13,94230	452557
13,94673	342662
13,95118	267915
13,95562	213566
13,96007	170104
13,96450	141306
13,96895	120414
13,97338	108723
13,97783	96613
13,98227	85589
13,98672	76908
13,99115	68666
13,99560	63250
14,00003	61775
14,00448	58679
14,00892	52981
14,01337	52936
14,01780	48470
14,02225	46248
14,02668	44434
14,03113	45172
14,03557	42387
14,04002	42344
14,04447	40214
14,04890	40123
14,05335	38661
14,05778	38852
14,06223	38889
14,06667	35811
14,07112	33784
14,07555	34088
14,08000	31811
14,08443	31430
14,08888	31056
14,09332	31475
14,09777	30132
14,10220	29578
14,10665	30340
14,11108	28747
14,11553	29961
14,11997	29866
14,12442	29049
14,12885	29530
14,13330	30573
14,13773	29597
14,14218	28154
14,14662	29598
14,15107	31813
14,15550	38914
14,15995	55836
14,16440	90178
14,16883	144828
14,17328	235413
14,17772	354378
14,18217	488630
14,18660	629981
14,19105	723714
14,19548	782833
14,19993	764222
14,20437	690901
14,20882	575027
14,21325	465458
14,21770	364028
14,22213	284654
14,22658	223533
14,23102	175224
14,23547	141047
14,23990	121937
14,24435	101933
14,24878	94409
14,25323	86664
14,25767	94158
14,26212	110376
14,26655	139602
14,27100	197966
14,27543	274410
14,27988	363231
14,28433	462102
14,28877	532992
14,29322	587657
14,29765	587714
14,30210	562608
14,30653	495460
14,31098	415074
14,31542	335615
14,31987	272718
14,32430	212993
14,32875	169292
14,33318	135654
14,33763	115871
14,34207	97754
14,34652	83988
14,35095	74883
14,35540	66954
14,35983	61557
14,36428	57126
14,36872	53627
14,37317	48816
14,37760	45438
14,38205	43479
14,38648	42076
14,39093	42783
14,39537	38430
14,39982	38411
14,40427	36538
14,40870	35492
14,41315	36571
14,41758	35786
14,42203	34831
14,42647	33242
14,43092	31454
14,43535	33145
14,43980	30715
14,44423	30573
14,44868	30058
14,45312	30508
14,45757	30060
14,46200	30197
14,46645	28500
14,47088	27704
14,47533	27938
14,47977	28581
14,48422	28564
14,48865	29244
14,49310	28933
14,49753	30676
14,50198	34567
14,50642	44062
14,51087	67137
14,51530	103678
14,51975	160850
14,52418	253719
14,52863	381655
14,53308	548014
14,53752	751912
14,54197	993977
14,54640	1249897
14,55085	1478344
14,55528	1653767
14,55973	1693145
14,56417	1593183
14,56862	1382331
14,57305	1121725
14,57750	864388
14,58193	665696
14,58638	509594
14,59082	401039
14,59527	324085
14,59970	269110
14,60415	229962
14,60858	196279
14,61303	170801
14,61747	153677
14,62192	137827
14,62635	128243
14,63080	116491
14,63523	107768
14,63968	99553
14,64412	90206
14,64857	85878
14,65302	77200
14,65745	73270
14,66190	72417
14,66633	70194
14,67078	66110
14,67522	62594
14,67967	58390
14,68410	59195
14,68855	54368
14,69298	55018
14,69743	51703
14,70187	49101
14,70632	48436
14,71075	48758
14,71520	46205
14,71963	43592
14,72408	43139
14,72852	43127
14,73297	42231
14,73740	42256
14,74185	39096
14,74628	38723
14,75073	40004
14,75517	38913
14,75962	36358
14,76405	36746
14,76850	36150
14,77295	35472
14,77738	36684
14,78183	35596
14,78627	34387
14,79072	35694
14,79515	35287
14,79960	33259
14,80403	31803
14,80848	31733
14,81292	31812
14,81737	32164
14,82180	32766
14,82625	32227
14,83068	33002
14,83513	31436
14,83957	30056
14,84402	30874
14,84845	32342
14,85290	31136
14,85733	30688
14,86178	33353
14,86622	35275
14,87067	39759
14,87510	51835
14,87955	72267
14,88398	112253
14,88843	169295
14,89288	244562
14,89732	347668
14,90177	465381
14,90620	582365
14,91065	688516
14,91508	743656
14,91953	760770
14,92397	726023
14,92842	642661
14,93285	554783
14,93730	458395
14,94173	374681
14,94618	302386
14,95062	242591
14,95507	202695
14,95950	171770
14,96395	147768
14,96838	128119
14,97283	111298
14,97727	99009
14,98172	91045
14,98615	83436
14,99060	78736
14,99503	73634
14,99948	69804
15,00392	65003
15,00837	59286
15,01282	57302
15,01725	57650
15,02170	52742
15,02613	52391
15,03058	49912
15,03502	48947
15,03947	46143
15,04390	44345
15,04835	46261
15,05278	41916
15,05723	40373
15,06167	40122
15,06612	41232
15,07055	36831
15,07500	37487
15,07943	36868
15,08388	36356
15,08832	35769
15,09277	32084
15,09720	32191
15,10165	34604
15,10608	33678
15,11053	32732
15,11497	34768
15,11942	31237
15,12385	34076
15,12830	34531
15,13275	34292
15,13718	32975
15,14163	35218
15,14607	33878
15,15052	30520
15,15495	30952
15,15940	32180
15,16383	31524
15,16828	30534
15,17272	29261
15,17717	26747
15,18160	29935
15,18605	29271
15,19048	29841
15,19493	29635
15,19937	29935
15,20382	28153
15,20825	28176
15,21270	28396
15,21713	27358
15,22158	28014
15,22602	28290
15,23047	27228
15,23490	27969
15,23935	30704
15,24378	30006
15,24823	30691
15,25267	29216
15,25712	29377
15,26157	28847
15,26600	28736
15,27045	27407
15,27488	27735
15,27933	26730
15,28377	25552
15,28822	25939
15,29265	25826
15,29710	25123
15,30153	24394
15,30598	26557
15,31042	25107
15,31487	24411
15,31930	25749
15,32375	24960
15,32818	24380
15,33263	23738
15,33707	24470
15,34152	23909
15,34595	23394
15,35040	23358
15,35483	25635
15,35928	24630
15,36372	24460
15,36817	24956
15,37260	23741
15,37705	24706
15,38150	25439
15,38593	25684
15,39038	26262
15,39482	26494
15,39927	27867
15,40370	25759
15,40815	24578
15,41258	25231
15,41703	25245
15,42147	24882
15,42592	24110
15,43035	24852
15,43480	25067
15,43923	25268
15,44368	25411
15,44812	25354
15,45257	24080
15,45700	24613
15,46145	25043
15,46588	24716
15,47033	25478
15,47477	24695
15,47922	23794
15,48365	25190
15,48810	25645
15,49253	24756
15,49698	24285
15,50143	25110
15,50587	26508
15,51032	23140
15,51475	25808
15,51920	27357
15,52363	24039
15,52808	24130
15,53252	23821
15,53697	24901
15,54140	24239
15,54585	24525
15,55028	24051
15,55473	23520
15,55917	23954
15,56362	24150
15,56805	25004
15,57250	23744
15,57693	25119
15,58138	24645
15,58582	24065
15,59027	23790
15,59470	24241
15,59915	25882
15,60358	24041
15,60803	25004
15,61247	23288
15,61692	24954
15,62137	25902
15,62580	24929
15,63025	23759
15,63468	24065
15,63913	23701
15,64357	23307
15,64802	24194
15,65245	23644
15,65690	24806
15,66133	23897
15,66578	22791
15,67022	24941
15,67467	24097
15,67910	24610
15,68355	24163
15,68798	23690
15,69243	24912
15,69687	24715
15,70132	24593
15,70575	24827
15,71020	24209
15,71463	23683
15,71908	24618
15,72352	22779
15,72797	23186
15,73240	25172
15,73685	21934
15,74130	23791
15,74573	23456
15,75018	23430
15,75462	22695
15,75907	23356
15,76350	20698
15,76795	22563
15,77238	22694
15,77683	22164
15,78127	23759
15,78572	24967
15,79015	23260
15,79460	23508
15,79903	23221
15,80348	23347
15,80792	23104
15,81237	23593
15,81680	25438
15,82125	26050
15,82568	24333
15,83013	23810
15,83457	25316
15,83902	24229
15,84345	23473
15,84790	23394
15,85233	22808
15,85678	24164
15,86123	21656
15,86567	22273
15,87012	23876
15,87455	23222
15,87900	23514
15,88343	21974
15,88788	23183
15,89232	23460
15,89677	22918
15,90120	23319
15,90565	23594
15,91008	21964
15,91453	22431
15,91897	23601
15,92342	24214
15,92785	25830
15,93230	23805
15,93673	24984
15,94118	23378
15,94562	24415
15,95007	25640
15,95450	24617
15,95895	22415
15,96338	25283
15,96783	24685
15,97227	29930
15,97672	32571
15,98115	42574
15,98560	58375
15,99005	80061
15,99448	114104
15,99893	155832
16,00337	207163
16,00782	263325
16,01225	321655
16,01670	367367
16,02113	406299
16,02558	413771
16,03002	402327
16,03447	373002
16,03890	339597
16,04335	299350
16,04778	255140
16,05223	217436
16,05667	180763
16,06112	151733
16,06555	129195
16,07000	117387
16,07443	96981
16,07888	86995
16,08332	77519
16,08777	72058
16,09220	65307
16,09665	59923
16,10108	55364
16,10553	51394
16,10998	49386
16,11442	47050
16,11887	45753
16,12330	43959
16,12775	42406
16,13218	39946
16,13663	39422
16,14107	39078
16,14552	36270
16,14995	33999
16,15440	35057
16,15883	37391
16,16328	36532
16,16772	34461
16,17217	32344
16,17660	32145
16,18105	32269
16,18548	31406
16,18993	30184
16,19437	31325
16,19882	29216
16,20325	29768
16,20770	28888
16,21213	29995
16,21658	28374
16,22102	28098
16,22547	28432
16,22992	28520
16,23435	29527
16,23880	28005
16,24323	26714
16,24768	27459
16,25212	27863
16,25657	27898
16,26100	28087
16,26545	27981
16,26988	27749
16,27433	28097
16,27877	27809
16,28322	27118
16,28765	27488
16,29210	28898
16,29653	28594
16,30098	25684
16,30542	26637
16,30987	26958
16,31430	26361
16,31875	26151
16,32318	25529
16,32763	25664
16,33207	23592
16,33652	25491
16,34095	25437
16,34540	25532
16,34985	25064
16,35428	24690
16,35873	25238
16,36317	24967
16,36762	23759
16,37205	25157
16,37650	24445
16,38093	24451
16,38538	25547
16,38982	25792
16,39427	27145
16,39870	24281
16,40315	25086
16,40758	25182
16,41203	24159
16,41647	25214
16,42092	24809
16,42535	25303
16,42980	24130
16,43423	24946
16,43868	25346
16,44312	24927
16,44757	25282
16,45200	24080
16,45645	25622
16,46088	24623
16,46533	26480
16,46978	25790
16,47422	25419
16,47867	23942
16,48310	23317
16,48755	25398
16,49198	25595
16,49643	23341
16,50087	25326
16,50532	24850
16,50975	25481
16,51420	23116
16,51863	24975
16,52308	24388
16,52752	24298
16,53197	23103
16,53640	25038
16,54085	25888
16,54528	23324
16,54973	26184
16,55417	26737
16,55862	26109
16,56305	24951
16,56750	26124
16,57193	24714
16,57638	24225
16,58082	24928
16,58527	25792
16,58972	23642
16,59415	24085
16,59860	25471
16,60303	23234
16,60748	26100
16,61192	23284
16,61637	24912
16,62080	24295
16,62525	23946
16,62968	24745
16,63413	26186
16,63857	26196
16,64302	25309
16,64745	23617
16,65190	25249
16,65633	23540
16,66078	25810
16,66522	26318
16,66967	24480
16,67410	25511
16,67855	25707
16,68298	24657
16,68743	25345
16,69187	24872
16,69632	24409
16,70075	24778
16,70520	24467
16,70963	25404
16,71408	26151
16,71853	23833
16,72297	26021
16,72742	23703
16,73185	25207
16,73630	25157
16,74073	24561
16,74518	23961
16,74962	25040
16,75407	24657
16,75850	24655
16,76295	25867
16,76738	24888
16,77183	26559
16,77627	24756
16,78072	24958
16,78515	24546
16,78960	24143
16,79403	23694
16,79848	24455
16,80292	24596
16,80737	23067
16,81180	26277
16,81625	24614
16,82068	25508
16,82513	25763
16,82957	26615
16,83402	24933
16,83847	28086
16,84290	26987
16,84735	26606
16,85178	27337
16,85623	26548
16,86067	24553
16,86512	25742
16,86955	25494
16,87400	25089
16,87843	25006
16,88288	26639
16,88732	25351
16,89177	25097
16,89620	26377
16,90065	25800
16,90508	25226
16,90953	24324
16,91397	25753
16,91842	23567
16,92285	25409
16,92730	26917
16,93173	25118
16,93618	25301
16,94062	23530
16,94507	23413
16,94950	26253
16,95395	24901
16,95840	24272
16,96283	24679
16,96728	25000
16,97172	24286
16,97617	23899
16,98060	24400
16,98505	25763
16,98948	23329
16,99393	23429
16,99837	24712
17,00282	24406
17,00725	22946
17,01170	24305
17,01613	26231
17,02058	24790
17,02502	25161
17,02947	24100
17,03390	25191
17,03835	24251
17,04278	24969
17,04723	24732
17,05167	26209
17,05612	23746
17,06055	25213
17,06500	25384
17,06943	25530
17,07388	22481
17,07833	24616
17,08277	24881
17,08722	24716
17,09165	26815
17,09610	24174
17,10053	25561
17,10498	24290
17,10942	24437
17,11387	24012
17,11830	25881
17,12275	25224
17,12718	24084
17,13163	26502
17,13607	24479
17,14052	26783
17,14495	23515
17,14940	24509
17,15383	24580
17,15828	25227
17,16272	26912
17,16717	26024
17,17160	25443
17,17605	26127
17,18048	24124
17,18493	26032
17,18937	23768
17,19382	26767
17,19827	23939
17,20270	26766
17,20715	25281
17,21158	26930
17,21603	23098
17,22047	22539
17,22492	24922
17,22935	24291
17,23380	25024
17,23823	25134
17,24268	23612
17,24712	24608
17,25157	23580
17,25600	24990
17,26045	25556
17,26488	23438
17,26933	23872
17,27377	23517
17,27822	26678
17,28265	27766
17,28710	25411
17,29153	26536
17,29598	24224
17,30042	25146
17,30487	25742
17,30930	25113
17,31375	23794
17,31820	25054
17,32263	25254
17,32708	22923
17,33152	24424
17,33597	24039
17,34040	24844
17,34485	22477
17,34928	23712
17,35373	23436
17,35817	26656
17,36262	23807
17,36705	24335
17,37150	23516
17,37593	23180
17,38038	24746
17,38482	23308
17,38927	23579
17,39370	22392
17,39815	22410
17,40258	23514
17,40703	22114
17,41147	24377
17,41592	23149
17,42035	24286
17,42480	23497
17,42923	24871
17,43368	25416
17,43812	24746
17,44257	24485
17,44702	26148
17,45145	23860
17,45590	24250
17,46033	25156
17,46478	24738
17,46922	25327
17,47367	24167
17,47810	27354
17,48255	26282
17,48698	23898
17,49143	26266
17,49587	25258
17,50032	24928
17,50475	23910
17,50920	23105
17,51363	24446
17,51808	23570
17,52252	22602
17,52697	24403
17,53140	26463
17,53585	25335
17,54028	25344
17,54473	23968
17,54917	26091
17,55362	24236
17,55805	23868
17,56250	25705
17,56695	25510
17,57138	24206
17,57583	23837
17,58027	24245
17,58472	25126
17,58915	24695
17,59360	23040
17,59803	22693
17,60248	24544
17,60692	21778
17,61137	24256
17,61580	24177
17,62025	23605
17,62468	23169
17,62913	24316
17,63357	23630
17,63802	23992
17,64245	23224
17,64690	22787
17,65133	23057
17,65578	23948
17,66022	24117
17,66467	25785
17,66910	23174
17,67355	23121
17,67798	23761
17,68243	24513
17,68688	24981
17,69132	23421
17,69577	23410
17,70020	23721
17,70465	21901
17,70908	22964
17,71353	23283
17,71797	24259
17,72242	25368
17,72685	22754
17,73130	21575
17,73573	23374
17,74018	23018
17,74462	22661
17,74907	23617
17,75350	24610
17,75795	23399
17,76238	23444
17,76683	23761
17,77127	24420
17,77572	24005
17,78015	25222
17,78460	23558
17,78903	22292
17,79348	23383
17,79792	24580
17,80237	22282
17,80682	25773
17,81125	24154
17,81570	23926
17,82013	23882
17,82458	23568
17,82902	23486
17,83347	23605
17,83790	24378
17,84235	23405
17,84678	22725
17,85123	23592
17,85567	24224
17,86012	22972
17,86455	25433
17,86900	24113
17,87343	24114
17,87788	22432
17,88232	23133
17,88677	22214
17,89120	24577
17,89565	23867
17,90008	26938
17,90453	23283
17,90897	24519
17,91342	22759
17,91785	23530
17,92230	23161
17,92675	23421
17,93118	24283
17,93563	24765
17,94007	22786
17,94452	24148
17,94895	23550
17,95340	23415
17,95783	23718
17,96228	24333
17,96672	24196
17,97117	23280
17,97560	23606
17,98005	23513
17,98448	23682
17,98893	24267
17,99337	24467
17,99782	25616
18,00225	21918
18,00670	22229
18,01113	25458
18,01558	22939
18,02002	23064
18,02447	23713
18,02890	22421
18,03335	23130
18,03778	23056
18,04223	25171
18,04668	24366
18,05112	22631
18,05557	24189
18,06000	24339
18,06445	23468
18,06888	23563
18,07333	23113
18,07777	22705
18,08222	23843
18,08665	24628
18,09110	24414
18,09553	24789
18,09998	23362
18,10442	25467
18,10887	26202
18,11330	27429
18,11775	23543
18,12218	24579
18,12663	24256
18,13107	25612
18,13552	23932
18,13995	24735
18,14440	22994
18,14883	24027
18,15328	24449
18,15772	23475
18,16217	23226
18,16660	25225
18,17105	22425
18,17550	24233
18,17993	25527
18,18438	24581
18,18882	24106
18,19327	21829
18,19770	22580
18,20215	23452
18,20658	22719
18,21103	23425
18,21547	24718
18,21992	25605
18,22435	23658
18,22880	22947
18,23323	24310
18,23768	24531
18,24212	23466
18,24657	24485
18,25100	25530
18,25545	22331
18,25988	22676
18,26433	23883
18,26877	23323
18,27322	23719
18,27765	21228
