D:\MassHunter\GCMS\1\data\Amal\Constant flow\110C\110C_1ml-min_10C-min_2.D Tue Sep 03 19:01:55 2024
Start of data points
5,34105,134543
5,34518,137043
5,34930,131188
5,35342,129397
5,35755,127597
5,36167,128079
5,36578,124862
5,36992,125772
5,37403,122096
5,37815,120028
5,38228,123686
5,38640,122428
5,39052,119090
5,39465,118435
5,39877,115077
5,40288,116698
5,40700,113992
5,41113,114102
5,41525,111600
5,41937,112189
5,42350,111610
5,42762,108528
5,43173,108286
5,43587,109052
5,43998,110359
5,44410,110549
5,44823,114701
5,45235,110586
5,45647,110987
5,46060,112141
5,46472,109623
5,46883,107919
5,47297,113166
5,47708,109249
5,48120,110837
5,48533,109660
5,48945,109488
5,49357,112278
5,49768,111316
5,50182,110568
5,50593,110471
5,51005,112046
5,51418,114013
5,51830,111040
5,52242,112145
5,52655,112615
5,53067,107842
5,53478,109905
5,53892,109258
5,54303,108135
5,54715,109805
5,55128,109308
5,55540,107321
5,55952,106876
5,56365,104836
5,56777,106666
5,57188,99183
5,57602,101533
5,58013,101036
5,58425,102287
5,58837,98608
5,59250,101048
5,59662,99428
5,60073,109041
5,60487,127202
5,60898,172810
5,61310,260374
5,61723,386801
5,62135,559449
5,62547,757581
5,62960,933632
5,63372,1065579
5,63783,1136516
5,64197,1179330
5,64608,1165882
5,65020,1135292
5,65433,1080735
5,65845,1024649
5,66257,970116
5,66670,913114
5,67082,864686
5,67493,814676
5,67905,765287
5,68318,729231
5,68730,682463
5,69142,641116
5,69555,612232
5,69967,582119
5,70378,541103
5,70792,517204
5,71203,488632
5,71615,467421
5,72028,441492
5,72440,414105
5,72852,394474
5,73265,366644
5,73677,347909
5,74088,325299
5,74502,305529
5,74913,287669
5,75325,267209
5,75738,247077
5,76150,230806
5,76562,213823
5,76973,192627
5,77387,183651
5,77798,174518
5,78210,160566
5,78623,149487
5,79035,140746
5,79447,136710
5,79860,125816
5,80272,119540
5,80683,114231
5,81097,107282
5,81508,102049
5,81920,96942
5,82333,93786
5,82745,87685
5,83157,88849
5,83570,85560
5,83982,82659
5,84393,82059
5,84807,78435
5,85218,77124
5,85630,75022
5,86042,73759
5,86455,74235
5,86867,70191
5,87278,69775
5,87692,72321
5,88103,69015
5,88515,67935
5,88928,66991
5,89340,64970
5,89752,66500
5,90165,67430
5,90577,63180
5,90988,63459
5,91402,63423
5,91813,64880
5,92225,62815
5,92638,63633
5,93050,60373
5,93462,61349
5,93875,59165
5,94287,59913
5,94698,60316
5,95110,58702
5,95523,59396
5,95935,59930
5,96347,56865
5,96760,60658
5,97172,57819
5,97583,57149
5,97997,58074
5,98408,54909
5,98820,57692
5,99233,57202
5,99645,56340
6,00057,56642
6,00470,58710
6,00882,56407
6,01293,55147
6,01707,57099
6,02118,56325
6,02530,57107
6,02943,54342
6,03355,54839
6,03767,55539
6,04178,54350
6,04592,54546
6,05003,53911
6,05415,53388
6,05828,53195
6,06240,52898
6,06652,54073
6,07065,53696
6,07477,52555
6,07888,54243
6,08302,53378
6,08713,52194
6,09125,51345
6,09538,52918
6,09950,52424
6,10362,53447
6,10775,54528
6,11187,53067
6,11598,53846
6,12012,54340
6,12423,54225
6,12835,55750
6,13247,54409
6,13660,55485
6,14072,52984
6,14483,53512
6,14897,54559
6,15308,50696
6,15720,51744
6,16133,51283
6,16545,50148
6,16957,50200
6,17370,50773
6,17782,51687
6,18193,50492
6,18607,48088
6,19018,50001
6,19430,49184
6,19843,46868
6,20255,47234
6,20667,47464
6,21080,48948
6,21492,48281
6,21903,49485
6,22315,47942
6,22728,44815
6,23140,44976
6,23552,45399
6,23965,47388
6,24377,44501
6,24788,42713
6,25202,43454
6,25613,45443
6,26025,43273
6,26438,46263
6,26850,44710
6,27262,42718
6,27675,43539
6,28087,43097
6,28498,43398
6,28912,41066
6,29323,43551
6,29735,44041
6,30148,44352
6,30560,42449
6,30972,43816
6,31383,44856
6,31797,45309
6,32208,44824
6,32620,44949
6,33033,44498
6,33445,46449
6,33857,44057
6,34270,45089
6,34682,43049
6,35093,43383
6,35507,43090
6,35918,42521
6,36330,40281
6,36743,42486
6,37155,40810
6,37567,41857
6,37980,41175
6,38392,38223
6,38803,39381
6,39217,38943
6,39628,38362
6,40040,39028
6,40452,38507
6,40865,38700
6,41277,36700
6,41688,39119
6,42102,36844
6,42513,38306
6,42925,37401
6,43338,37650
6,43750,38021
6,44162,36780
6,44575,37217
6,44987,37420
6,45398,37768
6,45812,37447
6,46223,35325
6,46635,35545
6,47048,35982
6,47460,35769
6,47872,35407
6,48285,35417
6,48697,35354
6,49108,36137
6,49520,35250
6,49933,34684
6,50345,34061
6,50757,34923
6,51170,34550
6,51582,34329
6,51993,34174
6,52407,34344
6,52818,33836
6,53230,33709
6,53643,36804
6,54055,34756
6,54467,33823
6,54880,34031
6,55292,33798
6,55703,35011
6,56117,34081
6,56528,34793
6,56940,34979
6,57353,33664
6,57765,32823
6,58177,34231
6,58588,33000
6,59002,34009
6,59413,33748
6,59825,33330
6,60238,35625
6,60650,34398
6,61062,33619
6,61475,32893
6,61887,32355
6,62298,33820
6,62712,34451
6,63123,34819
6,63535,35790
6,63948,39220
6,64360,49934
6,64772,77527
6,65185,134770
6,65597,234568
6,66008,396882
6,66422,611906
6,66833,878740
6,67245,1156992
6,67657,1387877
6,68070,1578866
6,68482,1686452
6,68893,1707488
6,69307,1670393
6,69718,1588272
6,70130,1488118
6,70543,1377101
6,70955,1264981
6,71367,1158728
6,71780,1068789
6,72192,979024
6,72603,898371
6,73017,820358
6,73428,740836
6,73840,667234
6,74253,602942
6,74665,536035
6,75077,476678
6,75490,416218
6,75902,370052
6,76313,322204
6,76725,280383
6,77138,246189
6,77550,213338
6,77962,188171
6,78375,165873
6,78787,145161
6,79198,132355
6,79612,115221
6,80023,106857
6,80435,92939
6,80848,86247
6,81260,77749
6,81672,71755
6,82085,66277
6,82497,63168
6,82908,58411
6,83322,55910
6,83733,53615
6,84145,50130
6,84558,48126
6,84970,44700
6,85382,45125
6,85795,41169
6,86207,43509
6,86618,42100
6,87030,40181
6,87443,40206
6,87855,38928
6,88267,36821
6,88680,37294
6,89092,38629
6,89503,36458
6,89917,34906
6,90328,33991
6,90740,34519
6,91153,32722
6,91565,30628
6,91977,34088
6,92390,30705
6,92802,32042
6,93213,34090
6,93627,33034
6,94038,33378
6,94450,33526
6,94863,31171
6,95275,31199
6,95687,33565
6,96098,31094
6,96512,32910
6,96923,32302
6,97335,31025
6,97748,29914
6,98160,30705
6,98572,29601
6,98985,29045
6,99397,30316
6,99808,30288
7,00222,31450
7,00633,29693
7,01045,29702
7,01458,29300
7,01870,30390
7,02282,28391
7,02695,29348
7,03107,30438
7,03518,30436
7,03932,30951
7,04343,30148
7,04755,29773
7,05167,30269
7,05580,30767
7,05992,30451
7,06403,29530
7,06817,28484
7,07228,29642
7,07640,28881
7,08053,28035
7,08465,27559
7,08877,27989
7,09290,28155
7,09702,25390
7,10113,26971
7,10527,26640
7,10938,27147
7,11350,25923
7,11763,26584
7,12175,25700
7,12587,25557
7,13000,25539
7,13412,26280
7,13823,25063
7,14235,26406
7,14648,25784
7,15060,25252
7,15472,24531
7,15885,24936
7,16297,24780
7,16708,25932
7,17122,25937
7,17533,24217
7,17945,25566
7,18358,25979
7,18770,24848
7,19182,26231
7,19595,26197
7,20007,26338
7,20418,26128
7,20832,27107
7,21243,26138
7,21655,25110
7,22068,24455
7,22480,26075
7,22892,24529
7,23303,23023
7,23717,23191
7,24128,23946
7,24540,23770
7,24953,24256
7,25365,23328
7,25777,24260
7,26190,24461
7,26602,24722
7,27013,25825
7,27427,32303
7,27838,40470
7,28250,63823
7,28663,105992
7,29075,184416
7,29487,300549
7,29900,453440
7,30312,612372
7,30723,778925
7,31137,911085
7,31548,1007406
7,31960,1033062
7,32372,1017635
7,32785,970287
7,33197,913075
7,33608,840208
7,34022,759399
7,34433,683639
7,34845,608123
7,35258,534300
7,35670,468961
7,36082,408992
7,36495,357690
7,36907,304737
7,37318,254718
7,37732,225638
7,38143,188396
7,38555,162443
7,38968,140927
7,39380,119916
7,39792,101983
7,40205,89215
7,40617,80890
7,41028,71089
7,41440,64459
7,41853,58112
7,42265,54163
7,42677,50077
7,43090,48072
7,43502,43161
7,43913,39788
7,44327,38282
7,44738,37322
7,45150,38148
7,45563,34264
7,45975,32574
7,46387,31239
7,46800,31449
7,47212,30164
7,47623,29374
7,48037,28878
7,48448,28148
7,48860,26799
7,49273,26876
7,49685,27450
7,50097,27336
7,50508,25165
7,50922,25771
7,51333,25473
7,51745,26077
7,52158,24703
7,52570,27624
7,52982,26389
7,53395,26780
7,53807,26452
7,54218,29239
7,54632,29239
7,55043,30614
7,55455,30914
7,55868,32896
7,56280,31436
7,56692,31243
7,57105,28495
7,57517,28791
7,57928,28936
7,58342,27874
7,58753,25309
7,59165,24945
7,59577,26382
7,59990,24498
7,60402,23921
7,60813,24394
7,61227,22835
7,61638,24303
7,62050,21997
7,62463,22423
7,62875,22390
7,63287,23416
7,63700,21661
7,64112,20086
7,64523,20437
7,64937,20084
7,65348,21101
7,65760,20525
7,66173,19472
7,66585,19964
7,66997,20364
7,67410,19979
7,67822,17714
7,68233,19384
7,68645,20250
7,69058,19726
7,69470,20673
7,69882,18272
7,70295,20331
7,70707,19699
7,71118,19402
7,71532,19089
7,71943,19741
7,72355,19744
7,72768,20767
7,73180,19098
7,73592,20686
7,74005,20131
7,74417,19116
7,74828,18631
7,75242,18456
7,75653,18947
7,76065,19513
7,76478,18858
7,76890,18535
7,77302,18812
7,77713,19478
7,78127,19150
7,78538,19220
7,78950,18988
7,79363,17902
7,79775,19572
7,80187,18692
7,80600,18140
7,81012,17528
7,81423,18808
7,81837,18835
7,82248,17902
7,82660,18329
7,83073,18642
7,83485,18924
7,83897,18382
7,84310,18715
7,84722,17648
7,85133,17652
7,85547,17799
7,85958,18723
7,86370,17803
7,86782,18709
7,87195,19531
7,87607,17983
7,88018,19048
7,88432,19191
7,88843,20208
7,89255,18178
7,89668,17846
7,90080,19627
7,90492,18108
7,90905,17837
7,91317,17919
7,91728,17441
7,92142,17723
7,92553,17217
7,92965,18066
7,93378,18036
7,93790,17665
7,94202,17580
7,94615,21044
7,95027,28026
7,95438,44340
7,95850,81603
7,96263,164434
7,96675,305881
7,97087,533834
7,97500,865375
7,97912,1249212
7,98323,1682970
7,98737,2050495
7,99148,2340034
7,99560,2507006
7,99973,2507520
8,00385,2382293
8,00797,2195818
8,01210,1939450
8,01622,1699304
8,02033,1452488
8,02447,1230015
8,02858,1011879
8,03270,832733
8,03683,673889
8,04095,553862
8,04507,443738
8,04918,359528
8,05332,295026
8,05743,242975
8,06155,200784
8,06568,168462
8,06980,136684
8,07392,120168
8,07805,107079
8,08217,93435
8,08628,82796
8,09042,73585
8,09453,67692
8,09865,60568
8,10278,55425
8,10690,53796
8,11102,49663
8,11515,45483
8,11927,45198
8,12338,41996
8,12752,38740
8,13163,38316
8,13575,36434
8,13987,34747
8,14400,34523
8,14812,33117
8,15223,30693
8,15637,30254
8,16048,30060
8,16460,30363
8,16873,27687
8,17285,27212
8,17697,27752
8,18110,26078
8,18522,25858
8,18933,25617
8,19347,24991
8,19758,23743
8,20170,23920
8,20583,23301
8,20995,22913
8,21407,22265
8,21820,24466
8,22232,20802
8,22643,21568
8,23055,22102
8,23468,21416
8,23880,19961
8,24292,20687
8,24705,20164
8,25117,19035
8,25528,19668
8,25942,19856
8,26353,19315
8,26765,19373
8,27178,20407
8,27590,19804
8,28002,18960
8,28415,19208
8,28827,18431
8,29238,18094
8,29652,18397
8,30063,18113
8,30475,19559
8,30888,18829
8,31300,18600
8,31712,17955
8,32123,17970
8,32537,17642
8,32948,18232
8,33360,19177
8,33773,17299
8,34185,17163
8,34597,17773
8,35010,17092
8,35422,18039
8,35833,17771
8,36247,17366
8,36658,16138
8,37070,16097
8,37483,16639
8,37895,16804
8,38307,17278
8,38720,15875
8,39132,16429
8,39543,16495
8,39957,17213
8,40368,15972
8,40780,14966
8,41193,16938
8,41605,15165
8,42017,16280
8,42428,17285
8,42842,17828
8,43253,18124
8,43665,16815
8,44078,16393
8,44490,17099
8,44902,16481
8,45315,16569
8,45727,15739
8,46138,16493
8,46552,16174
8,46963,16440
8,47375,16497
8,47788,15509
8,48200,16948
8,48612,16844
8,49025,16244
8,49437,15648
8,49848,15650
8,50262,16440
8,50673,16755
8,51085,14792
8,51497,15689
8,51910,16380
8,52322,16586
8,52733,16295
8,53147,15555
8,53558,15629
8,53970,16495
8,54383,16105
8,54795,16880
8,55207,18134
8,55620,18245
8,56032,20730
8,56443,22360
8,56857,21552
8,57268,21424
8,57680,21856
8,58093,23448
8,58505,21576
8,58917,22267
8,59330,21540
8,59742,21461
8,60153,19664
8,60565,18771
8,60978,19199
8,61390,18953
8,61802,16471
8,62215,16625
8,62627,15494
8,63038,18233
8,63452,16227
8,63863,14810
8,64275,15268
8,64688,16945
8,65100,19023
8,65512,24552
8,65925,43926
8,66337,82648
8,66748,160721
8,67162,283248
8,67573,465752
8,67985,699852
8,68398,963463
8,68810,1193143
8,69222,1358599
8,69633,1450751
8,70047,1427170
8,70458,1345942
8,70870,1210153
8,71283,1026763
8,71695,858619
8,72107,688554
8,72520,547629
8,72932,428494
8,73343,336835
8,73757,264003
8,74168,208531
8,74580,166526
8,74993,134158
8,75405,110076
8,75817,92018
8,76230,81711
8,76642,69706
8,77053,60207
8,77467,57361
8,77878,48733
8,78290,45747
8,78702,42238
8,79115,38566
8,79527,36912
8,79938,32807
8,80352,31949
8,80763,32203
8,81175,28782
8,81588,28548
8,82000,27873
8,82412,25350
8,82825,24955
8,83237,22555
8,83648,23293
8,84062,22693
8,84473,20493
8,84885,22753
8,85298,19566
8,85710,21534
8,86122,18815
8,86535,19476
8,86947,18677
8,87358,19131
8,87770,19196
8,88183,18360
8,88595,18500
8,89007,18651
8,89420,18610
8,89832,16366
8,90243,16693
8,90657,16937
8,91068,16800
8,91480,16594
8,91893,16758
8,92305,15637
8,92717,14917
8,93130,17015
8,93542,16127
8,93953,14615
8,94367,13190
8,94778,15304
8,95190,14446
8,95603,14741
8,96015,14487
8,96427,14005
8,96838,14590
8,97252,12791
8,97663,13520
8,98075,15341
8,98488,13966
8,98900,13689
8,99312,14242
8,99725,13869
9,00137,13998
9,00548,14121
9,00962,14039
9,01373,14194
9,01785,14436
9,02198,14200
9,02610,14747
9,03022,16480
9,03435,17002
9,03847,19085
9,04258,20266
9,04672,21309
9,05083,21383
9,05495,19029
9,05907,20002
9,06320,18453
9,06732,18650
9,07143,17347
9,07557,15599
9,07968,16044
9,08380,15040
9,08793,13518
9,09205,14288
9,09617,13783
9,10030,12952
9,10442,13664
9,10853,12644
9,11267,13110
9,11678,12600
9,12090,13527
9,12503,13882
9,12915,14264
9,13327,14342
9,13740,13019
9,14152,13064
9,14563,12968
9,14975,14071
9,15388,12112
9,15800,13315
9,16212,12185
9,16625,13691
9,17037,13443
9,17448,13670
9,17862,12449
9,18273,12427
9,18685,12353
9,19098,13225
9,19510,11533
9,19922,12449
9,20335,13395
9,20747,12756
9,21158,12693
9,21572,13273
9,21983,13544
9,22395,15384
9,22808,16238
9,23220,16099
9,23632,18141
9,24043,20815
9,24457,20535
9,24868,22582
9,25280,22147
9,25693,22389
9,26105,19552
9,26517,21074
9,26930,20798
9,27342,17916
9,27753,18599
9,28167,15128
9,28578,15977
9,28990,14721
9,29403,14038
9,29815,13654
9,30227,12925
9,30640,12880
9,31052,12413
9,31463,12775
9,31877,12647
9,32288,13254
9,32700,12591
9,33112,12960
9,33525,12247
9,33937,12809
9,34348,12803
9,34762,12912
9,35173,12214
9,35585,15966
9,35998,24251
9,36410,43192
9,36822,89481
9,37235,190386
9,37647,383127
9,38058,702017
9,38472,1149981
9,38883,1698854
9,39295,2285213
9,39708,2803467
9,40120,3150065
9,40532,3287284
9,40945,3169100
9,41357,2862489
9,41768,2433954
9,42180,1936646
9,42593,1509296
9,43005,1134128
9,43417,855138
9,43830,640198
9,44242,490119
9,44653,372349
9,45067,293707
9,45478,237653
9,45890,197620
9,46303,163815
9,46715,142761
9,47127,121323
9,47540,109038
9,47952,89751
9,48363,83992
9,48777,74946
9,49188,68948
9,49600,64413
9,50013,59232
9,50425,59278
9,50837,58262
9,51248,54667
9,51662,53285
9,52073,52019
9,52485,49916
9,52898,46345
9,53310,45438
9,53722,40980
9,54135,37683
9,54547,38300
9,54958,33506
9,55372,33900
9,55783,31296
9,56195,28604
9,56608,27494
9,57020,27969
9,57432,26093
9,57845,24327
9,58257,25192
9,58668,23166
9,59082,21748
9,59493,19485
9,59905,20333
9,60317,20589
9,60730,18394
9,61142,18747
9,61553,17880
9,61967,19832
9,62378,18421
9,62790,17975
9,63203,17654
9,63615,17634
9,64027,17737
9,64440,17503
9,64852,17304
9,65263,17441
9,65677,17941
9,66088,19571
9,66500,21824
9,66913,20425
9,67325,22394
9,67737,23211
9,68150,22330
9,68562,23290
9,68973,21147
9,69385,21232
9,69798,19800
9,70210,19135
9,70622,18925
9,71035,18756
9,71447,16578
9,71858,16726
9,72272,15941
9,72683,17123
9,73095,18182
9,73508,17353
9,73920,17978
9,74332,18408
9,74745,19671
9,75157,18711
9,75568,18205
9,75982,18370
9,76393,17884
9,76805,17441
9,77218,16502
9,77630,16076
9,78042,14206
9,78453,14697
9,78867,15638
9,79278,14619
9,79690,12819
9,80103,13652
9,80515,14609
9,80927,13606
9,81340,13981
9,81752,13385
9,82163,13075
9,82577,13300
9,82988,14474
9,83400,12970
9,83813,12316
9,84225,12542
9,84637,12891
9,85050,12954
9,85462,12856
9,85873,12676
9,86287,13120
9,86698,13125
9,87110,14506
9,87522,16938
9,87935,23960
9,88347,45061
9,88758,87010
9,89172,169885
9,89583,311536
9,89995,519897
9,90408,784687
9,90820,1057441
9,91232,1325406
9,91645,1497534
9,92057,1573166
9,92468,1531976
9,92882,1384994
9,93293,1174702
9,93705,953966
9,94118,741556
9,94530,572115
9,94942,428907
9,95355,336335
9,95767,263629
9,96178,207937
9,96590,163690
9,97003,136035
9,97415,111903
9,97827,96073
9,98240,81755
9,98652,71059
9,99063,63319
9,99477,57875
9,99888,50712
10,00300,46554
10,00713,39883
10,01125,39781
10,01537,34636
10,01950,32434
10,02362,31859
10,02773,27472
10,03187,26877
10,03598,25102
10,04010,25545
10,04423,24395
10,04835,25141
10,05247,23530
10,05658,25313
10,06072,26555
10,06483,34859
10,06895,61735
10,07308,119926
10,07720,227299
10,08132,399524
10,08545,665068
10,08957,982758
10,09368,1315553
10,09782,1594243
10,10193,1750530
10,10605,1762613
10,11018,1659339
10,11430,1427532
10,11842,1154349
10,12255,900812
10,12667,689214
10,13078,509486
10,13492,385378
10,13903,294777
10,14315,224863
10,14728,179155
10,15140,146369
10,15552,119219
10,15963,101712
10,16377,87210
10,16788,74460
10,17200,67572
10,17613,59311
10,18025,53407
10,18437,48126
10,18850,45450
10,19262,43005
10,19673,37194
10,20087,35239
10,20498,34417
10,20910,31639
10,21323,29870
10,21735,28611
10,22147,27678
10,22560,25095
10,22972,24146
10,23383,24444
10,23797,23273
10,24208,22720
10,24620,22007
10,25032,20061
10,25445,19714
10,25857,20779
10,26268,20573
10,26682,18440
10,27093,19660
10,27505,17591
10,27918,18667
10,28330,18102
10,28742,16413
10,29155,16404
10,29567,16689
10,29978,16351
10,30392,16406
10,30803,15510
10,31215,14262
10,31628,15441
10,32040,14111
10,32452,14515
10,32865,13292
10,33277,14347
10,33688,14404
10,34100,14069
10,34513,14456
10,34925,14318
10,35337,13740
10,35750,14058
10,36162,13812
10,36573,13905
10,36987,13556
10,37398,13316
10,37810,12645
10,38223,13667
10,38635,11565
10,39047,12791
10,39460,12868
10,39872,13818
10,40283,12572
10,40697,11113
10,41108,12886
10,41520,12544
10,41933,12918
10,42345,12587
10,42757,13116
10,43168,12426
10,43582,13778
10,43993,12516
10,44405,12549
10,44818,11771
10,45230,13203
10,45642,12941
10,46055,13244
10,46467,13234
10,46878,12360
10,47292,13372
10,47703,12678
10,48115,13674
10,48528,12549
10,48940,12256
10,49352,12103
10,49765,12832
10,50177,12302
10,50588,12167
10,51002,13523
10,51413,11636
10,51825,11183
10,52237,10701
10,52650,11215
10,53062,12287
10,53473,12512
10,53887,12188
10,54298,11566
10,54710,12268
10,55123,13196
10,55535,12817
10,55947,11572
10,56360,11341
10,56772,13622
10,57183,15507
10,57597,23341
10,58008,37482
10,58420,75223
10,58833,142958
10,59245,268140
10,59657,474433
10,60070,743027
10,60482,1053903
10,60893,1359282
10,61305,1595643
10,61718,1670187
10,62130,1656697
10,62542,1473017
10,62955,1253188
10,63367,1008883
10,63778,765546
10,64192,580289
10,64603,436203
10,65015,332488
10,65428,253359
10,65840,197132
10,66252,157046
10,66665,131572
10,67077,103692
10,67488,88821
10,67902,80225
10,68313,69399
10,68725,60843
10,69138,54154
10,69550,51082
10,69962,46650
10,70373,41638
10,70787,37001
10,71198,35665
10,71610,33797
10,72023,30347
10,72435,29088
10,72847,28440
10,73260,28592
10,73672,27903
10,74083,29257
10,74497,34190
10,74908,45091
10,75320,88613
10,75733,177919
10,76145,372931
10,76557,729458
10,76970,1315638
10,77382,2143096
10,77793,3140783
10,78207,4167349
10,78618,5014670
10,79030,5590243
10,79442,5665550
10,79855,5272248
10,80267,4512709
10,80678,3573964
10,81092,2720379
10,81503,1997182
10,81915,1443479
10,82328,1066681
10,82740,802293
10,83152,617864
10,83565,486165
10,83977,394497
10,84388,325479
10,84802,268163
10,85213,231333
10,85625,203280
10,86038,176507
10,86450,155028
10,86862,137037
10,87275,127417
10,87687,110187
10,88098,101421
10,88510,94195
10,88923,86748
10,89335,80656
10,89747,70527
10,90160,67524
10,90572,64212
10,90983,59709
10,91397,59069
10,91808,54127
10,92220,52031
10,92633,48916
10,93045,46515
10,93457,44066
10,93870,42883
10,94282,39695
10,94693,36645
10,95107,38162
10,95518,33144
10,95930,35667
10,96343,34176
10,96755,31342
10,97167,32405
10,97578,30498
10,97992,29060
10,98403,27142
10,98815,27775
10,99228,27194
10,99640,24858
11,00052,24864
11,00465,23755
11,00877,25529
11,01288,22428
11,01702,22427
11,02113,22261
11,02525,19874
11,02938,21445
11,03350,19978
11,03762,23442
11,04175,20811
11,04587,20479
11,04998,20897
11,05412,22888
11,05823,21625
11,06235,21541
11,06647,21190
11,07060,20533
11,07472,20877
11,07883,18903
11,08297,18328
11,08708,18123
11,09120,17327
11,09533,18197
11,09945,16602
11,10357,16705
11,10770,16348
11,11182,15821
11,11593,16666
11,12007,16366
11,12418,17163
11,12830,17917
11,13243,18744
11,13655,18884
11,14067,18937
11,14480,17459
11,14892,18381
11,15303,18784
11,15715,19282
11,16128,18868
11,16540,25425
11,16952,39432
11,17365,70241
11,17777,132929
11,18188,253376
11,18602,449114
11,19013,719034
11,19425,1036412
11,19838,1372141
11,20250,1622921
11,20662,1748661
11,21075,1721015
11,21487,1580407
11,21898,1330270
11,22312,1061818
11,22723,807781
11,23135,611302
11,23548,464121
11,23960,347589
11,24372,269386
11,24783,214636
11,25197,167271
11,25608,137306
11,26020,120032
11,26433,102142
11,26845,89042
11,27257,80370
11,27670,72715
11,28082,67108
11,28493,63383
11,28907,58118
11,29318,56579
11,29730,55562
11,30143,50728
11,30555,47826
11,30967,44325
11,31380,40749
11,31792,38436
11,32203,34481
11,32617,33000
11,33028,30820
11,33440,28281
11,33852,27132
11,34265,27877
11,34677,27804
11,35088,28108
11,35502,29974
11,35913,32871
11,36325,32492
11,36738,34384
11,37150,34369
11,37562,34578
11,37975,32744
11,38387,31266
11,38798,28803
11,39212,26597
11,39623,25240
11,40035,23256
11,40448,21916
11,40860,22433
11,41272,24031
11,41685,35656
11,42097,54808
11,42508,106913
11,42920,218989
11,43333,405402
11,43745,686334
11,44157,1038242
11,44570,1421286
11,44982,1755085
11,45393,1966479
11,45807,1972775
11,46218,1841952
11,46630,1592536
11,47043,1272367
11,47455,985915
11,47867,739653
11,48280,540441
11,48692,409330
11,49103,313126
11,49517,243675
11,49928,194222
11,50340,161266
11,50753,136536
11,51165,115947
11,51577,100146
11,51988,87228
11,52402,77643
11,52813,72655
11,53225,65047
11,53638,60690
11,54050,53913
11,54462,51884
11,54875,46380
11,55287,42014
11,55698,42960
11,56112,38302
11,56523,37575
11,56935,33692
11,57348,33125
11,57760,32797
11,58172,30105
11,58585,29393
11,58997,28740
11,59408,27882
11,59822,25850
11,60233,24900
11,60645,23896
11,61057,25085
11,61470,23907
11,61882,23551
11,62293,20682
11,62707,21131
11,63118,20500
11,63530,21384
11,63943,20119
11,64355,19914
11,64767,20672
11,65180,20646
11,65592,19997
11,66003,20168
11,66417,19141
11,66828,19470
11,67240,20288
11,67653,18345
11,68065,17942
11,68477,15586
11,68890,17671
11,69302,18813
11,69713,16625
11,70125,15234
11,70538,15656
11,70950,16418
11,71362,15710
11,71775,16901
11,72187,15379
11,72598,17431
11,73012,15394
11,73423,15492
11,73835,15319
11,74248,14161
11,74660,15493
11,75072,15586
11,75485,13984
11,75897,16003
11,76308,15512
11,76722,15086
11,77133,14029
11,77545,14622
11,77958,13601
11,78370,14750
11,78782,16104
11,79195,13902
11,79607,15610
11,80018,14832
11,80430,15949
11,80843,16293
11,81255,14921
11,81667,17089
11,82080,19881
11,82492,29611
11,82903,47567
11,83317,92617
11,83728,182370
11,84140,340330
11,84553,587909
11,84965,915959
11,85377,1278218
11,85790,1627623
11,86202,1842975
11,86613,1894501
11,87027,1784287
11,87438,1562126
11,87850,1285181
11,88263,1010837
11,88675,764043
11,89087,575585
11,89498,435258
11,89912,339524
11,90323,263023
11,90735,208969
11,91148,171479
11,91560,142018
11,91972,122465
11,92385,104752
11,92797,92097
11,93208,81060
11,93622,73639
11,94033,66423
11,94445,60313
11,94858,55434
11,95270,51620
11,95682,50272
11,96095,44845
11,96507,41118
11,96918,39991
11,97332,37232
11,97743,35754
11,98155,33436
11,98567,32166
11,98980,30701
11,99392,30742
11,99803,29169
12,00217,31574
12,00628,27824
12,01040,25928
12,01453,26680
12,01865,26525
12,02277,25156
12,02690,24847
12,03102,23889
12,03513,23449
12,03927,22917
12,04338,22710
12,04750,21436
12,05163,21267
12,05575,23493
12,05987,29898
12,06400,47816
12,06812,95835
12,07223,198225
12,07635,400167
12,08048,735482
12,08460,1268472
12,08872,1964343
12,09285,2713542
12,09697,3539672
12,10108,4088511
12,10522,4304703
12,10933,4166704
12,11345,3677378
12,11758,3011988
12,12170,2346700
12,12582,1761749
12,12995,1322499
12,13407,979508
12,13818,749067
12,14232,583760
12,14643,478699
12,15055,386744
12,15468,331516
12,15880,278115
12,16292,240427
12,16703,208357
12,17117,184773
12,17528,163358
12,17940,141691
12,18353,129448
12,18765,117091
12,19177,103166
12,19590,96112
12,20002,88157
12,20413,82173
12,20827,77306
12,21238,73719
12,21650,67443
12,22063,62992
12,22475,60863
12,22887,57928
12,23300,55898
12,23712,51975
12,24123,51769
12,24537,49493
12,24948,47583
12,25360,45148
12,25772,44121
12,26185,42704
12,26597,41025
12,27008,40083
12,27422,38622
12,27833,37396
12,28245,37881
12,28658,40755
12,29070,48992
12,29482,74612
12,29895,125876
12,30307,230595
12,30718,410586
12,31132,686314
12,31543,1046861
12,31955,1432492
12,32368,1789779
12,32780,2002130
12,33192,2045525
12,33605,1906267
12,34017,1644632
12,34428,1356234
12,34840,1058557
12,35253,808238
12,35665,617872
12,36077,472929
12,36490,372678
12,36902,295666
12,37313,239045
12,37727,199997
12,38138,169205
12,38550,148692
12,38963,129242
12,39375,113322
12,39787,100156
12,40200,93653
12,40612,97661
12,41023,107716
12,41437,145507
12,41848,243889
12,42260,440164
12,42673,793651
12,43085,1331003
12,43497,2006601
12,43908,2811426
12,44322,3494951
12,44733,3982337
12,45145,4112483
12,45558,3891973
12,45970,3404320
12,46382,2758260
12,46795,2164014
12,47207,1637420
12,47618,1228668
12,48032,927551
12,48443,707467
12,48855,560185
12,49268,449164
12,49680,368918
12,50092,310554
12,50505,262650
12,50917,228416
12,51328,205300
12,51742,173888
12,52153,160667
12,52565,142566
12,52977,134006
12,53390,122663
12,53802,112627
12,54213,103730
12,54627,99064
12,55038,90517
12,55450,84894
12,55863,80015
12,56275,74356
12,56687,72154
12,57100,68001
12,57512,62593
12,57923,61960
12,58337,59128
12,58748,56351
12,59160,51714
12,59573,51757
12,59985,50826
12,60397,47843
12,60810,47234
12,61222,48436
12,61633,43014
12,62045,42170
12,62458,41894
12,62870,40733
12,63282,38628
12,63695,37153
12,64107,37043
12,64518,38102
12,64932,35843
12,65343,40001
12,65755,47296
12,66168,73538
12,66580,118712
12,66992,225585
12,67405,403791
12,67817,676536
12,68228,1012814
12,68642,1403496
12,69053,1794480
12,69465,2125721
12,69878,2401369
12,70290,2645038
12,70702,2981304
12,71113,3415751
12,71527,3988636
12,71938,4485035
12,72350,4791684
12,72763,4762820
12,73175,4295906
12,73587,3634135
12,74000,2859120
12,74412,2178406
12,74823,1629867
12,75237,1233432
12,75648,953641
12,76060,748796
12,76473,597558
12,76885,505864
12,77297,424488
12,77710,361033
12,78122,308751
12,78533,274998
12,78947,241446
12,79358,215957
12,79770,194248
12,80182,179355
12,80595,161745
12,81007,150465
12,81418,138369
12,81832,128296
12,82243,120804
12,82655,110573
12,83068,105028
12,83480,103313
12,83892,97425
12,84305,92303
12,84717,87990
12,85128,85089
12,85542,82681
12,85953,76426
12,86365,76097
12,86778,70679
12,87190,68816
12,87602,68771
12,88015,67704
12,88427,63554
12,88838,61075
12,89250,58875
12,89663,59471
12,90075,56032
12,90487,53684
12,90900,51781
12,91312,48885
12,91723,51148
12,92137,46656
12,92548,49174
12,92960,59817
12,93373,80491
12,93785,130330
12,94197,226862
12,94610,397595
12,95022,650216
12,95433,967045
12,95847,1302366
12,96258,1566646
12,96670,1743353
12,97083,1775124
12,97495,1650358
12,97907,1440844
12,98318,1181245
12,98732,935268
12,99143,714598
12,99555,556170
12,99968,425194
13,00380,336485
13,00792,274909
13,01205,223625
13,01617,187395
13,02028,159321
13,02442,139549
13,02853,126176
13,03265,109231
13,03678,102074
13,04090,95810
13,04502,89780
13,04915,82502
13,05327,77952
13,05738,75301
13,06152,68376
13,06563,66030
13,06975,65711
13,07387,58000
13,07800,56846
13,08212,55014
13,08623,53479
13,09037,48109
13,09448,46776
13,09860,49658
13,10273,45429
13,10685,44058
13,11097,43524
13,11510,40269
13,11922,39880
13,12333,38527
13,12747,39019
13,13158,37136
13,13570,37289
13,13983,36633
13,14395,34067
13,14807,35527
13,15220,35595
13,15632,32003
13,16043,34285
13,16455,34228
13,16868,33345
13,17280,31416
13,17692,34009
13,18105,31598
13,18517,31602
13,18928,31712
13,19342,31562
13,19753,31411
13,20165,30983
13,20578,31439
13,20990,31364
13,21402,31377
13,21815,31416
13,22227,32953
13,22638,30138
13,23052,31582
13,23463,29698
13,23875,28850
13,24288,29429
13,24700,29366
13,25112,30577
13,25523,28767
13,25937,28834
13,26348,27821
13,26760,26355
13,27173,28714
13,27585,28047
13,27997,31450
13,28410,46207
13,28822,73258
13,29233,140305
13,29647,290813
13,30058,574309
13,30470,1050013
13,30883,1776726
13,31295,2749903
13,31707,3863841
13,32120,4953446
13,32532,5803040
13,32943,6127876
13,33357,5958735
13,33768,5344325
13,34180,4479402
13,34592,3610547
13,35005,2810710
13,35417,2173855
13,35828,1665436
13,36242,1290668
13,36653,1016912
13,37065,816797
13,37478,670392
13,37890,556566
13,38302,472957
13,38715,411813
13,39127,358503
13,39538,313560
13,39952,277423
13,40363,251887
13,40775,226969
13,41188,206540
13,41600,192052
13,42012,175643
13,42425,164534
13,42837,154566
13,43248,145500
13,43662,132368
13,44073,127682
13,44485,119125
13,44897,113522
13,45310,105787
13,45722,102130
13,46133,95499
13,46547,94347
13,46958,90136
13,47370,81646
13,47783,84512
13,48195,80309
13,48607,77999
13,49020,75148
13,49432,73444
13,49843,71642
13,50257,69563
13,50668,66230
13,51080,66788
13,51493,65674
13,51905,65514
13,52317,76508
13,52730,91817
13,53142,131250
13,53553,210983
13,53965,350805
13,54378,561725
13,54790,835512
13,55202,1130765
13,55615,1403974
13,56027,1578007
13,56438,1610383
13,56852,1503083
13,57263,1332542
13,57675,1101511
13,58088,879397
13,58500,676774
13,58912,529658
13,59325,412270
13,59737,331028
13,60148,274001
13,60562,227684
13,60973,200798
13,61385,198743
13,61798,221938
13,62210,294532
13,62622,442662
13,63033,684210
13,63447,1033351
13,63858,1443108
13,64270,1831072
13,64683,2122195
13,65095,2210228
13,65507,2119844
13,65920,1896406
13,66332,1595476
13,66743,1288326
13,67157,1008616
13,67568,795499
13,67980,633738
13,68393,510774
13,68805,412683
13,69217,344041
13,69630,293460
13,70042,261189
13,70453,232646
13,70867,205440
13,71278,187428
13,71690,164043
13,72102,150650
13,72515,142136
13,72927,129086
13,73338,124052
13,73752,116002
13,74163,106581
13,74575,103048
13,74988,97210
13,75400,89354
13,75812,91382
13,76225,83153
13,76637,81949
13,77048,80770
13,77462,75302
13,77873,73639
13,78285,68281
13,78698,68185
13,79110,69124
13,79522,64898
13,79935,62971
13,80347,63196
13,80758,63137
13,81170,60619
13,81583,61036
13,81995,57161
13,82407,54841
13,82820,55452
13,83232,53460
13,83643,52912
13,84057,51133
13,84468,50603
13,84880,53011
13,85293,51147
13,85705,55354
13,86117,62191
13,86530,84493
13,86942,126173
13,87353,221025
13,87767,384849
13,88178,655572
13,88590,1055676
13,89003,1545608
13,89415,1999932
13,89827,2304546
13,90238,2429625
13,90652,2312865
13,91063,2014118
13,91475,1671105
13,91888,1313137
13,92300,1038554
13,92712,829016
13,93125,652967
13,93537,535847
13,93948,444397
13,94362,370121
13,94773,322018
13,95185,283214
13,95598,255146
13,96010,225539
13,96422,202391
13,96835,185285
13,97247,169015
13,97658,160800
13,98072,145479
13,98483,138497
13,98895,127021
13,99307,122018
13,99720,116158
14,00132,111701
14,00543,107356
14,00957,103644
14,01368,100814
14,01780,97947
14,02193,94643
14,02605,88320
14,03017,86617
14,03430,86415
14,03842,79749
14,04253,80405
14,04667,75580
14,05078,72675
14,05490,72415
14,05903,70563
14,06315,69629
14,06727,67687
14,07140,66734
14,07552,66233
14,07963,65330
14,08375,62195
14,08788,61911
14,09200,62116
14,09612,60982
14,10025,64539
14,10437,67416
14,10848,86495
14,11262,129256
14,11673,214038
14,12085,363948
14,12498,606066
14,12910,925778
14,13322,1291644
14,13735,1616013
14,14147,1848550
14,14558,1908625
14,14972,1819984
14,15383,1603746
14,15795,1337014
14,16208,1085449
14,16620,858741
14,17032,681694
14,17443,538485
14,17857,436245
14,18268,354831
14,18680,302317
14,19093,260291
14,19505,226552
14,19917,199568
14,20330,182675
14,20742,164555
14,21153,151708
14,21567,138385
14,21978,132939
14,22390,117442
14,22803,111869
14,23215,109325
14,23627,98406
14,24040,96193
14,24452,90621
14,24863,89387
14,25277,83363
14,25688,82193
14,26100,79895
14,26512,75005
14,26925,78582
14,27337,74174
14,27748,73802
14,28162,71985
14,28573,68464
14,28985,65719
14,29398,66725
14,29810,62647
14,30222,63354
14,30635,62459
14,31047,62773
14,31458,61394
14,31872,61711
14,32283,61873
14,32695,59282
14,33108,57435
14,33520,55691
14,33932,57662
14,34345,58065
14,34757,54337
14,35168,56519
14,35580,55769
14,35993,54209
14,36405,53894
14,36817,57184
14,37230,54571
14,37642,54712
14,38053,54236
14,38467,52923
14,38878,53635
14,39290,51977
14,39703,53565
14,40115,51623
14,40527,49975
14,40940,52390
14,41352,48813
14,41763,48894
14,42177,49164
14,42588,58003
14,43000,71145
14,43413,100560
14,43825,157814
14,44237,276119
14,44648,501612
14,45062,878257
14,45473,1430167
14,45885,2172110
14,46298,3003234
14,46710,3831965
14,47122,4513110
14,47535,4918526
14,47947,4985479
14,48358,4721653
14,48772,4324853
14,49183,3949209
14,49595,3602807
14,50008,3309255
14,50420,3025350
14,50832,2706833
14,51245,2351910
14,51657,2004023
14,52068,1660269
14,52482,1379843
14,52893,1121960
14,53305,932887
14,53717,781248
14,54130,667310
14,54542,574199
14,54953,503523
14,55367,448684
14,55778,401676
14,56190,368650
14,56603,332083
14,57015,302975
14,57427,282007
14,57840,266215
14,58252,246212
14,58663,233188
14,59077,221789
14,59488,202871
14,59900,194819
14,60313,188161
14,60725,172817
14,61137,167140
14,61550,161870
14,61962,155632
14,62373,147153
14,62785,144742
14,63198,137995
14,63610,130509
14,64022,127382
14,64435,124815
14,64847,118885
14,65258,120429
14,65672,113347
14,66083,113648
14,66495,109636
14,66908,111192
14,67320,106024
14,67732,111507
14,68145,118887
14,68557,131814
14,68968,167487
14,69382,234348
14,69793,350826
14,70205,529819
14,70618,770183
14,71030,1061773
14,71442,1336382
14,71853,1558356
14,72267,1664872
14,72678,1639099
14,73090,1525087
14,73503,1333782
14,73915,1142736
14,74327,967048
14,74740,831821
14,75152,786545
14,75563,829914
14,75977,964666
14,76388,1202567
14,76800,1523936
14,77213,1924610
14,77625,2319618
14,78037,2693594
14,78450,2982224
14,78862,3193547
14,79273,3227458
14,79687,3113758
14,80098,2865343
14,80510,2521509
14,80922,2136691
14,81335,1775526
14,81747,1475741
14,82158,1223471
14,82572,999768
14,82983,849670
14,83395,728946
14,83808,621756
14,84220,542668
14,84632,489615
14,85045,442875
14,85457,402532
14,85868,368041
14,86282,334744
14,86693,307656
14,87105,283983
14,87518,264882
14,87930,245990
14,88342,231550
14,88755,215636
14,89167,207166
14,89578,193907
14,89990,186574
14,90403,177148
14,90815,168558
14,91227,163242
14,91640,155392
14,92052,149400
14,92463,139053
14,92877,137737
14,93288,135313
14,93700,127597
14,94113,124500
14,94525,119667
14,94937,120593
14,95350,118645
14,95762,112411
14,96173,111406
14,96587,108453
14,96998,104797
14,97410,101244
14,97823,100480
14,98235,98787
14,98647,98393
14,99058,99179
14,99472,98222
14,99883,109878
15,00295,129275
15,00708,174719
15,01120,253106
15,01532,397696
15,01945,612246
15,02357,900636
15,02768,1260903
15,03182,1622542
15,03593,1931919
15,04005,2108805
15,04418,2129713
15,04830,1986332
15,05242,1775159
15,05655,1521487
15,06067,1279606
15,06478,1057277
15,06892,892604
15,07303,750080
15,07715,646837
15,08128,559662
15,08540,490030
15,08952,439317
15,09363,393733
15,09777,355375
15,10188,328942
15,10600,299817
15,11013,276816
15,11425,255701
15,11837,243402
15,12250,225889
15,12662,215729
15,13073,201901
15,13487,192018
15,13898,185507
15,14310,177951
15,14723,172050
15,15135,161495
15,15547,158642
15,15960,157566
15,16372,152486
15,16783,151835
15,17197,145142
15,17608,145658
15,18020,137327
15,18432,133211
15,18845,127174
15,19257,124484
15,19668,122661
15,20082,113826
15,20493,114789
15,20905,109406
15,21318,103360
15,21730,102143
15,22142,102929
15,22555,102989
15,22967,98675
15,23378,96943
15,23792,96692
15,24203,95551
15,24615,90911
15,25028,92784
15,25440,90147
15,25852,90457
15,26265,97703
15,26677,115185
15,27088,143728
15,27500,206203
15,27913,299854
15,28325,459199
15,28737,685551
15,29150,970876
15,29562,1265264
15,29973,1511203
15,30387,1679310
15,30798,1719308
15,31210,1680058
15,31623,1534770
15,32035,1351932
15,32447,1156441
15,32860,977338
15,33272,825348
15,33683,693294
15,34097,590864
15,34508,507146
15,34920,445094
15,35333,391742
15,35745,347554
15,36157,320462
15,36568,296202
15,36982,289955
15,37393,288757
15,37805,323279
15,38218,389478
15,38630,499227
15,39042,648522
15,39455,826534
15,39867,1023097
15,40278,1193008
15,40692,1306100
15,41103,1359016
15,41515,1319017
15,41928,1220379
15,42340,1098032
15,42752,947404
15,43165,807580
15,43577,684347
15,43988,571275
15,44402,486465
15,44813,419319
15,45225,364880
15,45637,319582
15,46050,283945
15,46462,258189
15,46873,229297
15,47287,211273
15,47698,196108
15,48110,186248
15,48523,173078
15,48935,158398
15,49347,152630
15,49760,148314
15,50172,140745
15,50583,131369
15,50997,128644
15,51408,124676
15,51820,119541
15,52233,114101
15,52645,114030
15,53057,107538
15,53470,105716
15,53882,101028
15,54293,101123
15,54705,101196
15,55118,96456
15,55530,96553
15,55942,94826
15,56355,98014
15,56767,92959
15,57178,93209
15,57592,91635
15,58003,93821
15,58415,96859
15,58828,108916
15,59240,137558
15,59652,177801
15,60065,268107
15,60477,405381
15,60888,620744
15,61302,951757
15,61713,1381030
15,62125,1920945
15,62538,2531968
15,62950,3113442
15,63362,3589688
15,63773,3841186
15,64187,3872349
15,64598,3646504
15,65010,3275576
15,65423,2812831
15,65835,2374391
15,66247,1984888
15,66660,1667088
15,67072,1412376
15,67483,1196510
15,67897,1043205
15,68308,908413
15,68720,804697
15,69133,726884
15,69545,650110
15,69957,589845
15,70370,538344
15,70782,493267
15,71193,458266
15,71607,422935
15,72018,392740
15,72430,371381
15,72842,348550
15,73255,323296
15,73667,311410
15,74078,296112
15,74492,282628
15,74903,269724
15,75315,259273
15,75728,246807
15,76140,231833
15,76552,225128
15,76965,218601
15,77377,208110
15,77788,201107
15,78202,197380
15,78613,186814
15,79025,181754
15,79438,181812
15,79850,172509
15,80262,164839
15,80675,159784
15,81087,158131
15,81498,152560
15,81910,150328
15,82323,147836
15,82735,145276
15,83147,139512
15,83560,136746
15,83972,132546
15,84383,129415
15,84797,130285
15,85208,123397
15,85620,124724
15,86033,117249
15,86445,122750
15,86857,113707
15,87270,117822
15,87682,114818
15,88093,113562
15,88507,111406
15,88918,110897
15,89330,108507
15,89743,104817
15,90155,104952
15,90567,103329
15,90978,103917
15,91392,99445
15,91803,100669
15,92215,97886
15,92628,98169
15,93040,99923
15,93452,102652
15,93865,114684
15,94277,133440
15,94688,165286
15,95102,223015
15,95513,309583
15,95925,436289
15,96338,615225
15,96750,842142
15,97162,1092312
15,97575,1342511
15,97987,1551466
15,98398,1686053
15,98812,1727536
15,99223,1663857
15,99635,1556504
16,00047,1400254
16,00460,1237857
16,00872,1069951
16,01283,927094
16,01697,810595
16,02108,711255
16,02520,631647
16,02933,565748
16,03345,506370
16,03757,451349
16,04170,417096
16,04582,379972
16,04993,349051
16,05407,326571
16,05818,308709
16,06230,281379
16,06643,263843
16,07055,255878
16,07467,239862
16,07880,230502
16,08292,222246
16,08703,204838
16,09115,199085
16,09528,193565
16,09940,183971
16,10352,178391
16,10765,174143
16,11177,165205
16,11588,160389
16,12002,156524
16,12413,155708
16,12825,149139
16,13238,143742
16,13650,140805
16,14062,139234
16,14475,132620
16,14887,134067
16,15298,130077
16,15712,128286
16,16123,124175
16,16535,122430
16,16948,119477
16,17360,116140
16,17772,115458
16,18183,112276
16,18597,111484
16,19008,108820
16,19420,107060
16,19833,105704
16,20245,101338
16,20657,100145
16,21070,104121
16,21482,97900
16,21893,96772
16,22307,95685
16,22718,95089
16,23130,92541
16,23543,94896
16,23955,93159
16,24367,92381
16,24780,92169
16,25192,89823
16,25603,89436
16,26017,89749
16,26428,88217
16,26840,87660
16,27252,82498
16,27665,83696
16,28077,84501
16,28488,82905
16,28902,82138
16,29313,80913
16,29725,79579
16,30138,79508
16,30550,79279
16,30962,78401
16,31375,81827
16,31787,76962
16,32198,80174
16,32612,80068
16,33023,74071
16,33435,75610
16,33848,74082
16,34260,76556
16,34672,73840
16,35085,73810
16,35497,74316
16,35908,72958
16,36320,71999
16,36733,70858
16,37145,70909
16,37557,74027
16,37970,70422
16,38382,71478
16,38793,68081
16,39207,68178
16,39618,71074
16,40030,66654
16,40443,68609
16,40855,70903
16,41267,67644
16,41680,68977
16,42092,70017
16,42503,71301
16,42917,68956
16,43328,72351
16,43740,74398
16,44153,75472
16,44565,84906
16,44977,94338
16,45388,100674
16,45802,115079
16,46213,120685
16,46625,127441
16,47038,135147
16,47450,137096
16,47862,137107
16,48275,134583
16,48687,129620
16,49098,120305
16,49512,115963
16,49923,108131
16,50335,104223
16,50748,95057
16,51160,87927
16,51572,84632
16,51985,81102
16,52397,75443
16,52808,77437
16,53222,74414
16,53633,73811
16,54045,69658
16,54457,69994
16,54870,69128
16,55282,69278
16,55693,68515
16,56107,64756
16,56518,63746
16,56930,67313
16,57343,63537
16,57755,64313
16,58167,63132
16,58580,60091
16,58992,63545
16,59403,63183
16,59817,62813
16,60228,61665
16,60640,64004
16,61053,58271
16,61465,61377
16,61877,62572
16,62290,63155
16,62702,59281
16,63113,63222
16,63527,60112
16,63938,61264
16,64350,60421
16,64762,61592
16,65175,60887
16,65587,60807
16,65998,61119
16,66412,61876
16,66823,57564
16,67235,59879
16,67648,61020
16,68060,59662
16,68472,57628
16,68885,56447
16,69297,56517
16,69708,58781
16,70122,60308
16,70533,57685
16,70945,59718
16,71358,55336
16,71770,57100
16,72182,57662
16,72595,55045
16,73007,56279
16,73418,57412
16,73830,55711
16,74243,57071
16,74655,58873
16,75067,55299
16,75480,58233
16,75892,57372
16,76303,55999
16,76717,55821
16,77128,56114
16,77540,56075
16,77953,58640
16,78365,56542
16,78777,55585
16,79190,55100
16,79602,56198
16,80013,56207
16,80427,56283
16,80838,56951
16,81250,54687
16,81663,53797
16,82075,54006
16,82487,55610
16,82898,54323
16,83312,54472
16,83723,56088
16,84135,57520
16,84548,54754
16,84960,54536
16,85372,53149
16,85785,54103
16,86197,54928
16,86608,57356
16,87022,55466
16,87433,52661
16,87845,55099
16,88258,52683
16,88670,53329
16,89082,55886
16,89495,54645
16,89907,55214
16,90318,54172
16,90732,54080
16,91143,53710
16,91555,51841
16,91967,54653
16,92380,55444
16,92792,54097
16,93203,55868
16,93617,56301
16,94028,54426
16,94440,53616
16,94853,53114
16,95265,55119
16,95677,54461
16,96090,54367
16,96502,52152
16,96913,53313
16,97327,52784
16,97738,54701
16,98150,55771
16,98563,58574
16,98975,53277
16,99387,53828
16,99800,52215
17,00212,54819
17,00623,55925
17,01035,60596
17,01448,68551
17,01860,85518
17,02272,102145
17,02685,138387
17,03097,180591
17,03508,254446
17,03922,330696
17,04333,431543
17,04745,539455
17,05158,642392
17,05570,735365
17,05982,801843
17,06395,827337
17,06807,830740
17,07218,810490
17,07632,759212
17,08043,695485
17,08455,638689
17,08868,568136
17,09280,515134
17,09692,452539
17,10103,403937
17,10517,362183
17,10928,324482
17,11340,290882
17,11753,263617
17,12165,242411
17,12577,225597
17,12990,206408
17,13402,191373
17,13813,178156
17,14227,168113
17,14638,157388
17,15050,147181
17,15463,143915
17,15875,132970
17,16287,125132
17,16700,128071
17,17112,122199
17,17523,113281
17,17937,110519
17,18348,109570
17,18760,102355
17,19172,102359
17,19585,97678
17,19997,94783
17,20408,95874
17,20822,88556
17,21233,90325
17,21645,89882
17,22058,89839
17,22470,86096
17,22882,83373
17,23295,79933
17,23707,79746
17,24118,79411
17,24532,79943
17,24943,76004
17,25355,75271
17,25768,74112
17,26180,76763
17,26592,72447
17,27005,74062
17,27417,71377
17,27828,70585
17,28240,72914
17,28653,68657
17,29065,70120
17,29477,69493
17,29890,69564
17,30302,67033
17,30713,67152
17,31127,67951
17,31538,68664
17,31950,64282
17,32363,63576
17,32775,66245
17,33187,62788
17,33600,64636
17,34012,66520
17,34423,64078
17,34837,63833
17,35248,64093
17,35660,62592
17,36073,66705
17,36485,64219
17,36897,63364
17,37308,62147
17,37722,62308
17,38133,62317
17,38545,59440
17,38958,58786
17,39370,61090
17,39782,59832
17,40195,62416
17,40607,59845
17,41018,56117
17,41432,58814
17,41843,58377
17,42255,58449
17,42668,57021
17,43080,56949
17,43492,58347
17,43905,60749
17,44317,58931
17,44728,56316
17,45142,56863
17,45553,58627
17,45965,56822
17,46377,57655
17,46790,53355
17,47202,55291
17,47613,56474
17,48027,58721
17,48438,57669
17,48850,56887
17,49263,57398
17,49675,55907
17,50087,55747
17,50500,53793
17,50912,53597
17,51323,56039
17,51737,54693
17,52148,53801
17,52560,56665
17,52973,55356
17,53385,55017
17,53797,54685
17,54210,55565
17,54622,51572
17,55033,58172
17,55445,55818
17,55858,55071
17,56270,56184
17,56682,55080
17,57095,53188
17,57507,52978
17,57918,54933
17,58332,55564
17,58743,56542
17,59155,54580
17,59568,54524
17,59980,55100
17,60392,54449
17,60805,54276
17,61217,54205
17,61628,53011
