D:\MassHunter\GCMS\1\data\Amal\Constant flow\130C\130C_1ml-min_7C-min_3.D Mon Sep 16 13:38:26 2024
Start of data points
4,94092,2019333
4,94503,1915233
4,94917,1804532
4,95328,1704547
4,95740,1630497
4,96153,1537193
4,96565,1467705
4,96977,1395102
4,97390,1354296
4,97802,1246946
4,98213,1192329
4,98627,1130679
4,99038,1074623
4,99450,1012854
4,99863,975838
5,00275,923406
5,00687,879149
5,01098,837166
5,01512,814847
5,01923,765703
5,02335,726469
5,02748,695304
5,03160,669032
5,03572,631864
5,03985,606025
5,04397,580193
5,04808,548886
5,05222,529425
5,05633,506990
5,06045,488900
5,06458,464615
5,06870,455841
5,07282,441503
5,07695,416522
5,08107,406064
5,08518,388127
5,08932,371059
5,09343,357610
5,09755,350962
5,10167,346438
5,10580,326937
5,10992,318128
5,11403,307509
5,11817,320707
5,12228,340201
5,12640,392129
5,13053,478232
5,13465,597845
5,13877,727041
5,14290,834043
5,14702,914845
5,15113,954425
5,15527,955202
5,15938,931830
5,16350,907035
5,16763,888227
5,17175,851307
5,17587,811743
5,18000,779547
5,18412,743235
5,18823,715683
5,19235,684423
5,19648,663316
5,20060,630068
5,20472,603092
5,20885,576294
5,21297,551694
5,21708,532818
5,22122,508068
5,22533,493729
5,22945,474203
5,23358,449300
5,23770,433971
5,24182,411738
5,24595,398034
5,25007,380239
5,25418,365798
5,25832,351909
5,26243,342747
5,26655,326295
5,27068,315231
5,27480,302296
5,27892,287611
5,28303,283726
5,28717,271320
5,29128,263405
5,29540,256221
5,29953,247192
5,30365,235156
5,30777,230996
5,31190,215780
5,31602,215327
5,32013,210094
5,32427,203314
5,32838,193413
5,33250,185840
5,33663,178200
5,34075,172401
5,34487,163622
5,34900,153990
5,35312,157809
5,35723,145706
5,36137,139641
5,36548,136568
5,36960,132820
5,37372,127212
5,37785,124661
5,38197,120603
5,38608,117243
5,39022,116373
5,39433,111533
5,39845,109018
5,40258,106650
5,40670,106420
5,41082,101699
5,41495,100702
5,41907,97918
5,42318,99753
5,42732,96961
5,43143,95115
5,43555,96029
5,43968,93305
5,44380,90715
5,44792,89887
5,45205,89626
5,45617,89690
5,46028,87318
5,46440,89572
5,46853,87845
5,47265,87998
5,47677,85779
5,48090,87199
5,48502,87948
5,48913,84690
5,49327,84728
5,49738,85038
5,50150,84521
5,50563,81198
5,50975,84057
5,51387,83622
5,51800,80483
5,52212,83948
5,52623,82724
5,53037,81534
5,53448,78525
5,53860,79480
5,54273,78419
5,54685,79524
5,55097,80184
5,55508,76914
5,55922,78455
5,56333,78504
5,56745,75370
5,57158,76590
5,57570,77145
5,57982,77628
5,58395,75132
5,58807,73930
5,59218,76815
5,59632,71989
5,60043,73480
5,60455,73417
5,60868,74481
5,61280,71919
5,61692,72193
5,62105,71652
5,62517,71592
5,62928,68542
5,63342,71611
5,63753,70335
5,64165,65377
5,64577,69464
5,64990,69185
5,65402,69333
5,65813,69418
5,66227,69809
5,66638,68832
5,67050,71422
5,67463,69799
5,67875,70336
5,68287,67277
5,68700,69625
5,69112,66893
5,69523,67632
5,69937,67643
5,70348,68049
5,70760,65774
5,71173,65106
5,71585,65495
5,71997,66770
5,72410,69331
5,72822,67257
5,73233,67456
5,73645,67752
5,74058,70269
5,74470,67975
5,74882,69917
5,75295,65791
5,75707,66235
5,76118,66972
5,76532,68619
5,76943,66002
5,77355,65062
5,77768,66886
5,78180,64813
5,78592,66332
5,79005,63822
5,79417,63685
5,79828,63210
5,80242,63872
5,80653,63067
5,81065,60338
5,81478,61221
5,81890,61767
5,82302,61024
5,82715,60853
5,83127,60255
5,83538,61973
5,83950,60991
5,84363,59785
5,84775,60772
5,85187,60977
5,85600,60215
5,86012,57968
5,86423,58120
5,86837,58976
5,87248,58579
5,87660,58653
5,88073,57488
5,88485,60135
5,88897,58846
5,89310,58025
5,89722,57582
5,90133,57875
5,90547,57601
5,90958,57089
5,91370,57401
5,91783,59262
5,92195,56338
5,92607,56189
5,93018,62596
5,93432,73100
5,93843,94359
5,94255,136868
5,94668,205963
5,95080,316862
5,95492,458950
5,95905,610986
5,96317,766186
5,96728,889861
5,97142,987544
5,97553,1039803
5,97965,1063409
5,98378,1055889
5,98790,1031155
5,99202,987388
5,99615,954547
6,00027,893943
6,00438,861785
6,00852,816906
6,01263,774184
6,01675,744004
6,02087,694220
6,02500,663986
6,02912,619427
6,03323,593424
6,03737,555357
6,04148,525952
6,04560,495122
6,04973,462390
6,05385,437547
6,05797,424019
6,06210,390528
6,06622,373496
6,07033,348093
6,07447,330014
6,07858,315490
6,08270,296373
6,08683,282392
6,09095,263855
6,09507,252919
6,09920,238262
6,10332,225018
6,10743,212682
6,11155,198752
6,11568,185110
6,11980,173636
6,12392,166235
6,12805,150218
6,13217,143401
6,13628,135493
6,14042,125204
6,14453,117120
6,14865,111225
6,15278,103421
6,15690,99638
6,16102,92511
6,16515,90186
6,16927,85802
6,17338,81473
6,17752,77986
6,18163,75697
6,18575,73003
6,18988,71528
6,19400,66854
6,19812,66149
6,20223,64811
6,20637,61804
6,21048,61251
6,21460,59808
6,21873,59482
6,22285,58019
6,22697,58044
6,23110,56441
6,23522,55186
6,23933,56041
6,24347,54701
6,24758,54964
6,25170,54958
6,25583,52313
6,25995,50530
6,26407,50929
6,26820,51749
6,27232,50967
6,27643,48973
6,28057,50264
6,28468,46624
6,28880,46902
6,29292,47944
6,29705,46672
6,30117,46713
6,30528,47657
6,30942,47873
6,31353,47478
6,31765,46955
6,32178,47626
6,32590,47680
6,33002,46167
6,33415,46743
6,33827,45482
6,34238,47205
6,34652,45064
6,35063,44748
6,35475,45637
6,35888,44130
6,36300,43083
6,36712,45501
6,37125,43894
6,37537,43709
6,37948,42833
6,38360,42868
6,38773,44924
6,39185,42898
6,39597,45092
6,40010,41793
6,40422,42900
6,40833,43082
6,41247,43269
6,41658,43870
6,42070,41297
6,42483,40856
6,42895,42559
6,43307,41549
6,43720,40618
6,44132,39169
6,44543,40093
6,44957,40749
6,45368,40696
6,45780,41496
6,46193,39634
6,46605,40183
6,47017,41136
6,47428,40897
6,47842,40989
6,48253,39168
6,48665,42686
6,49078,41268
6,49490,48275
6,49902,60067
6,50315,81665
6,50727,118186
6,51138,169101
6,51552,241825
6,51963,326515
6,52375,413278
6,52788,489778
6,53200,544911
6,53612,584303
6,54025,612361
6,54437,608175
6,54848,602204
6,55262,579655
6,55673,558839
6,56085,536826
6,56497,499917
6,56910,473105
6,57322,448316
6,57733,420887
6,58147,397771
6,58558,376159
6,58970,352111
6,59383,327007
6,59795,309076
6,60207,288053
6,60620,271817
6,61032,252352
6,61443,234455
6,61857,227705
6,62268,212906
6,62680,192427
6,63093,184019
6,63505,173453
6,63917,159175
6,64330,153400
6,64742,140349
6,65153,131048
6,65565,124287
6,65978,113297
6,66390,106494
6,66802,96630
6,67215,91821
6,67627,85434
6,68038,80531
6,68452,74831
6,68863,72342
6,69275,65970
6,69688,62571
6,70100,59587
6,70512,57347
6,70925,56761
6,71337,54066
6,71748,52065
6,72162,51192
6,72573,48080
6,72985,45935
6,73398,47004
6,73810,45591
6,74222,44292
6,74633,44499
6,75047,44471
6,75458,43961
6,75870,41331
6,76283,43420
6,76695,44444
6,77107,40989
6,77520,41695
6,77932,41900
6,78343,39895
6,78757,40642
6,79168,41329
6,79580,38794
6,79993,40507
6,80405,38636
6,80817,38474
6,81230,39715
6,81642,39020
6,82053,39414
6,82467,36757
6,82878,37118
6,83290,37262
6,83702,37239
6,84115,37904
6,84527,36820
6,84938,37646
6,85352,37279
6,85763,36915
6,86175,37610
6,86588,36622
6,87000,35413
6,87412,37552
6,87825,36004
6,88237,36621
6,88648,35260
6,89062,34569
6,89473,35410
6,89885,34117
6,90298,35807
6,90710,33578
6,91122,33506
6,91535,32341
6,91947,32762
6,92358,32303
6,92770,32308
6,93183,32504
6,93595,32678
6,94007,33461
6,94420,31254
6,94832,33304
6,95243,31925
6,95657,31561
6,96068,31284
6,96480,32077
6,96893,30327
6,97305,31699
6,97717,32634
6,98130,30299
6,98542,31043
6,98953,31136
6,99367,30566
6,99778,30542
7,00190,29208
7,00603,30334
7,01015,30183
7,01427,28406
7,01838,28311
7,02252,29337
7,02663,30851
7,03075,30332
7,03488,30203
7,03900,30223
7,04312,29128
7,04725,29433
7,05137,28560
7,05548,30303
7,05962,29065
7,06373,28776
7,06785,29282
7,07198,29701
7,07610,29865
7,08022,30249
7,08435,29988
7,08847,30401
7,09258,30006
7,09672,28740
7,10083,30354
7,10495,28576
7,10907,30783
7,11320,30301
7,11732,28553
7,12143,28922
7,12557,29544
7,12968,28541
7,13380,30276
7,13793,30048
7,14205,32528
7,14617,33742
7,15030,41904
7,15442,57405
7,15853,87239
7,16267,148425
7,16678,238745
7,17090,373918
7,17503,539424
7,17915,719692
7,18327,905010
7,18740,1086624
7,19152,1240055
7,19563,1323289
7,19975,1376498
7,20388,1387224
7,20800,1361308
7,21212,1310427
7,21625,1240022
7,22037,1167042
7,22448,1096017
7,22862,1021868
7,23273,945328
7,23685,875405
7,24098,805378
7,24510,732621
7,24922,681320
7,25335,629944
7,25747,565693
7,26158,521768
7,26572,480121
7,26983,437619
7,27395,401273
7,27808,365018
7,28220,332968
7,28632,297416
7,29043,272031
7,29457,246547
7,29868,221392
7,30280,197491
7,30693,176849
7,31105,158855
7,31517,144912
7,31930,132602
7,32342,117252
7,32753,108338
7,33167,98582
7,33578,89978
7,33990,83524
7,34403,75061
7,34815,72444
7,35227,66302
7,35640,63786
7,36052,59389
7,36463,56911
7,36877,51987
7,37288,52841
7,37700,50315
7,38112,46971
7,38525,44956
7,38937,43905
7,39348,43391
7,39762,41262
7,40173,42416
7,40585,39873
7,40998,38601
7,41410,36135
7,41822,36017
7,42235,36567
7,42647,34660
7,43058,34869
7,43472,33007
7,43883,33620
7,44295,32973
7,44708,33748
7,45120,32107
7,45532,32084
7,45945,30776
7,46357,30992
7,46768,31976
7,47182,29333
7,47593,30557
7,48005,29800
7,48417,31411
7,48830,29387
7,49242,28921
7,49653,28521
7,50067,28906
7,50478,29028
7,50890,27465
7,51303,28212
7,51715,28762
7,52127,28461
7,52540,28613
7,52952,27033
7,53363,28442
7,53777,25897
7,54188,28145
7,54600,26908
7,55013,27849
7,55425,25108
7,55837,26499
7,56250,27681
7,56662,27078
7,57073,25055
7,57485,25670
7,57898,25986
7,58310,25439
7,58722,25955
7,59135,26481
7,59547,25433
7,59958,26262
7,60372,24930
7,60783,24603
7,61195,24028
7,61608,24093
7,62020,24792
7,62432,25420
7,62845,25381
7,63257,23524
7,63668,24124
7,64082,23784
7,64493,25374
7,64905,23965
7,65318,24120
7,65730,22726
7,66142,24741
7,66553,24374
7,66967,24397
7,67378,24404
7,67790,23031
7,68203,24038
7,68615,24373
7,69027,24646
7,69440,24631
7,69852,24965
7,70263,23923
7,70677,24220
7,71088,24352
7,71500,22792
7,71913,25521
7,72325,23892
7,72737,24581
7,73150,25181
7,73562,23525
7,73973,22612
7,74387,23542
7,74798,23939
7,75210,24119
7,75622,23001
7,76035,23469
7,76447,23477
7,76858,22687
7,77272,23863
7,77683,23064
7,78095,23638
7,78508,22384
7,78920,23728
7,79332,22158
7,79745,23026
7,80157,23250
7,80568,22736
7,80982,24709
7,81393,22792
7,81805,20868
7,82218,21248
7,82630,21749
7,83042,22101
7,83455,23340
7,83867,22496
7,84278,22261
7,84690,23849
7,85103,24809
7,85515,24475
7,85927,24967
7,86340,26252
7,86752,26885
7,87163,26757
7,87577,28680
7,87988,29173
7,88400,28835
7,88813,31923
7,89225,36159
7,89637,43894
7,90050,57313
7,90462,88619
7,90873,131826
7,91287,201192
7,91698,283722
7,92110,389393
7,92523,489871
7,92935,598620
7,93347,698598
7,93758,767578
7,94172,797646
7,94583,814154
7,94995,790531
7,95408,769538
7,95820,725725
7,96232,685460
7,96645,631544
7,97057,570474
7,97468,522641
7,97882,474332
7,98293,429939
7,98705,383013
7,99118,353313
7,99530,313304
7,99942,278887
8,00355,252321
8,00767,224150
8,01178,201531
8,01592,178539
8,02003,155181
8,02415,140939
8,02827,122387
8,03240,107236
8,03652,98986
8,04063,85472
8,04477,78237
8,04888,71848
8,05300,67088
8,05713,58904
8,06125,55673
8,06537,53451
8,06950,50235
8,07362,44582
8,07773,42348
8,08187,41647
8,08598,39642
8,09010,37128
8,09423,36105
8,09835,34363
8,10247,34565
8,10660,32312
8,11072,31712
8,11483,31971
8,11895,29521
8,12308,29657
8,12720,28179
8,13132,27980
8,13545,27265
8,13957,26958
8,14368,27955
8,14782,25785
8,15193,26641
8,15605,26616
8,16018,25003
8,16430,25679
8,16842,24174
8,17255,24581
8,17667,24220
8,18078,23431
8,18492,23019
8,18903,22490
8,19315,23829
8,19728,22335
8,20140,22453
8,20552,23032
8,20963,21371
8,21377,23119
8,21788,22479
8,22200,22762
8,22613,22292
8,23025,24919
8,23437,23300
8,23850,22091
8,24262,22299
8,24673,21399
8,25087,22179
8,25498,20210
8,25910,21268
8,26323,20747
8,26735,19929
8,27147,23340
8,27560,21666
8,27972,21456
8,28383,19288
8,28797,21870
8,29208,20093
8,29620,21048
8,30032,22530
8,30445,21011
8,30857,21441
8,31268,21707
8,31682,23120
8,32093,22197
8,32505,24464
8,32918,23799
8,33330,23352
8,33742,25000
8,34155,23423
8,34567,22707
8,34978,23388
8,35392,23414
8,35803,21224
8,36215,21790
8,36628,21458
8,37040,22886
8,37452,21983
8,37865,19765
8,38277,20597
8,38688,20227
8,39100,20044
8,39513,19382
8,39925,19617
8,40337,19960
8,40750,18924
8,41162,19005
8,41573,19049
8,41987,18748
8,42398,19986
8,42810,18340
8,43223,18316
8,43635,17414
8,44047,20049
8,44460,17903
8,44872,19469
8,45283,19313
8,45697,17927
8,46108,18122
8,46520,18984
8,46933,17663
8,47345,17213
8,47757,18823
8,48168,18387
8,48582,17810
8,48993,17073
8,49405,17921
8,49818,17888
8,50230,19006
8,50642,18636
8,51055,17924
8,51467,18038
8,51878,17297
8,52292,16543
8,52703,18214
8,53115,17746
8,53528,17165
8,53940,17705
8,54352,17435
8,54765,16959
8,55177,18799
8,55588,17506
8,56002,17524
8,56413,16823
8,56825,18089
8,57237,18753
8,57650,18802
8,58062,19578
8,58473,19841
8,58887,22576
8,59298,21698
8,59710,21196
8,60123,21566
8,60535,23081
8,60947,22243
8,61360,21793
8,61772,21603
8,62183,22331
8,62597,20080
8,63008,22071
8,63420,21461
8,63833,20582
8,64245,20125
8,64657,21529
8,65070,20075
8,65482,18934
8,65893,19323
8,66305,18928
8,66718,18862
8,67130,18054
8,67542,18749
8,67955,17044
8,68367,19146
8,68778,18700
8,69192,22205
8,69603,25691
8,70015,34734
8,70428,55819
8,70840,95187
8,71252,162321
8,71665,273689
8,72077,421690
8,72488,631885
8,72902,868733
8,73313,1131931
8,73725,1373765
8,74138,1599547
8,74550,1764401
8,74962,1862577
8,75373,1863279
8,75787,1820620
8,76198,1745527
8,76610,1623471
8,77023,1492432
8,77435,1334218
8,77847,1191720
8,78260,1061319
8,78672,922652
8,79083,810524
8,79497,700615
8,79908,599242
8,80320,519776
8,80733,445093
8,81145,382251
8,81557,324667
8,81970,282407
8,82382,238621
8,82793,207846
8,83207,182194
8,83618,161946
8,84030,137581
8,84442,124173
8,84855,111970
8,85267,99249
8,85678,92856
8,86092,82168
8,86503,75704
8,86915,70639
8,87328,65499
8,87740,61007
8,88152,57416
8,88565,55931
8,88977,52519
8,89388,50481
8,89802,50445
8,90213,46857
8,90625,48073
8,91038,46680
8,91450,43797
8,91862,45515
8,92275,44321
8,92687,43214
8,93098,40422
8,93510,40543
8,93923,37887
8,94335,36452
8,94747,35099
8,95160,36036
8,95572,34708
8,95983,33634
8,96397,30810
8,96808,29703
8,97220,30499
8,97633,30234
8,98045,29582
8,98457,27503
8,98870,25820
8,99282,26843
8,99693,24210
9,00107,24354
9,00518,25295
9,00930,22753
9,01343,23234
9,01755,24376
9,02167,23118
9,02580,21526
9,02992,22686
9,03403,23527
9,03815,22678
9,04228,22128
9,04640,21408
9,05052,22139
9,05465,22420
9,05877,20514
9,06288,20433
9,06702,21516
9,07113,19296
9,07525,21240
9,07938,21542
9,08350,22097
9,08762,23910
9,09175,22727
9,09587,24188
9,09998,23616
9,10412,25437
9,10823,25313
9,11235,25930
9,11648,23926
9,12060,25558
9,12472,23719
9,12883,22978
9,13297,23784
9,13708,24768
9,14120,23810
9,14533,24221
9,14945,23635
9,15357,22083
9,15770,23020
9,16182,24348
9,16593,23089
9,17007,23456
9,17418,22462
9,17830,21971
9,18243,21903
9,18655,20806
9,19067,19856
9,19480,22374
9,19892,20166
9,20303,18938
9,20717,19862
9,21128,19228
9,21540,18261
9,21952,17578
9,22365,17345
9,22777,18212
9,23188,17546
9,23602,17238
9,24013,18138
9,24425,17758
9,24838,16162
9,25250,17177
9,25662,17606
9,26075,18251
9,26487,17020
9,26898,17258
9,27312,15971
9,27723,17557
9,28135,16546
9,28548,16906
9,28960,15214
9,29372,16443
9,29785,15924
9,30197,16925
9,30608,17003
9,31020,17057
9,31433,17487
9,31845,18860
9,32257,20807
9,32670,25405
9,33082,38461
9,33493,59993
9,33907,90605
9,34318,144103
9,34730,217167
9,35143,313068
9,35555,427855
9,35967,552136
9,36380,672784
9,36792,779864
9,37203,858859
9,37617,902303
9,38028,908696
9,38440,891797
9,38853,847616
9,39265,792000
9,39677,724881
9,40088,639802
9,40502,571678
9,40913,493915
9,41325,431047
9,41738,367777
9,42150,314128
9,42562,275386
9,42975,237633
9,43387,200369
9,43798,174866
9,44212,148469
9,44623,130365
9,45035,109706
9,45448,98912
9,45860,87232
9,46272,76018
9,46685,71336
9,47097,66019
9,47508,59704
9,47922,56119
9,48333,49327
9,48745,46319
9,49157,41100
9,49570,42060
9,49982,37021
9,50393,36337
9,50807,33578
9,51218,33887
9,51630,31204
9,52043,31030
9,52455,30349
9,52867,28715
9,53280,27496
9,53692,27766
9,54103,27156
9,54517,28993
9,54928,34125
9,55340,46500
9,55753,65199
9,56165,104709
9,56577,162854
9,56990,246426
9,57402,356241
9,57813,486400
9,58225,628743
9,58638,773773
9,59050,895670
9,59462,990946
9,59875,1049093
9,60287,1072127
9,60698,1038299
9,61112,978269
9,61523,893396
9,61935,801161
9,62348,702288
9,62760,608313
9,63172,520701
9,63585,450592
9,63997,379639
9,64408,324961
9,64822,271101
9,65233,233464
9,65645,190755
9,66058,164592
9,66470,139194
9,66882,122272
9,67293,108111
9,67707,92669
9,68118,86437
9,68530,74951
9,68943,66474
9,69355,62843
9,69767,57964
9,70180,51586
9,70592,48600
9,71003,45298
9,71417,45207
9,71828,41611
9,72240,37537
9,72653,36962
9,73065,36148
9,73477,36007
9,73890,33277
9,74302,32218
9,74713,32933
9,75127,30791
9,75538,29682
9,75950,27290
9,76362,26932
9,76775,24715
9,77187,25404
9,77598,25352
9,78012,23902
9,78423,25273
9,78835,24511
9,79248,22118
9,79660,21917
9,80072,22375
9,80485,21848
9,80897,22011
9,81308,20845
9,81722,20745
9,82133,20435
9,82545,20818
9,82958,22324
9,83370,19956
9,83782,18857
9,84195,19277
9,84607,18390
9,85018,18058
9,85430,18996
9,85843,18194
9,86255,19084
9,86667,18474
9,87080,16994
9,87492,18222
9,87903,16736
9,88317,16902
9,88728,18087
9,89140,17051
9,89553,16328
9,89965,15397
9,90377,17334
9,90790,18017
9,91202,17026
9,91613,15636
9,92027,14473
9,92438,17202
9,92850,15533
9,93263,16939
9,93675,15299
9,94087,16019
9,94498,16300
9,94912,17044
9,95323,15887
9,95735,15164
9,96148,15887
9,96560,16334
9,96972,15739
9,97385,13761
9,97797,13672
9,98208,14777
9,98622,14259
9,99033,15899
9,99445,16097
9,99858,14690
10,00270,15509
10,00682,15205
10,01095,14924
10,01507,15213
10,01918,15892
10,02332,15080
10,02743,14869
10,03155,15729
10,03567,14614
10,03980,14035
10,04392,15799
10,04803,14134
10,05217,14749
10,05628,14824
10,06040,15490
10,06453,13590
10,06865,15780
10,07277,14058
10,07690,15241
10,08102,13950
10,08513,14065
10,08927,14818
10,09338,14346
10,09750,13893
10,10163,14976
10,10575,14913
10,10987,13760
10,11400,14157
10,11812,13849
10,12223,13997
10,12635,13329
10,13048,14473
10,13460,13877
10,13872,15454
10,14285,15677
10,14697,13801
10,15108,15377
10,15522,14590
10,15933,14338
10,16345,14390
10,16758,13650
10,17170,14805
10,17582,13509
10,17995,13976
10,18407,15987
10,18818,16059
10,19232,15772
10,19643,19731
10,20055,26944
10,20468,39117
10,20880,59736
10,21292,97284
10,21703,159310
10,22117,245839
10,22528,352460
10,22940,495312
10,23353,631972
10,23765,767908
10,24177,885335
10,24590,966256
10,25002,1012720
10,25413,1022059
10,25827,966048
10,26238,914057
10,26650,829431
10,27063,740415
10,27475,633406
10,27887,547469
10,28300,465373
10,28712,390287
10,29123,321136
10,29537,272394
10,29948,225446
10,30360,193229
10,30772,159777
10,31185,138666
10,31597,123170
10,32008,105814
10,32422,94003
10,32833,80619
10,33245,72334
10,33658,67399
10,34070,61824
10,34482,57567
10,34895,51501
10,35307,47603
10,35718,45975
10,36132,44087
10,36543,39553
10,36955,38357
10,37368,36116
10,37780,35299
10,38192,34331
10,38605,32172
10,39017,30755
10,39428,30964
10,39840,28466
10,40253,28335
10,40665,28347
10,41077,29502
10,41490,31182
10,41902,41091
10,42313,62123
10,42727,105743
10,43138,186649
10,43550,316636
10,43963,516047
10,44375,819864
10,44787,1193317
10,45200,1656546
10,45612,2132079
10,46023,2651891
10,46437,3106583
10,46848,3413584
10,47260,3598150
10,47673,3624109
10,48085,3508106
10,48497,3264915
10,48908,2914234
10,49322,2523998
10,49733,2130399
10,50145,1778001
10,50558,1459981
10,50970,1208393
10,51382,973609
10,51795,801301
10,52207,672775
10,52618,558476
10,53032,463146
10,53443,390077
10,53855,337047
10,54268,291315
10,54680,252921
10,55092,223489
10,55505,199820
10,55917,180326
10,56328,164179
10,56742,145620
10,57153,135122
10,57565,123434
10,57977,116153
10,58390,108078
10,58802,102191
10,59213,91866
10,59627,88944
10,60038,81595
10,60450,78696
10,60863,71843
10,61275,70019
10,61687,67360
10,62100,62882
10,62512,60268
10,62923,57559
10,63337,54627
10,63748,53882
10,64160,52334
10,64573,48483
10,64985,47973
10,65397,45248
10,65810,45557
10,66222,41667
10,66633,40267
10,67045,41030
10,67458,36450
10,67870,36895
10,68282,37105
10,68695,35253
10,69107,34745
10,69518,33325
10,69932,32840
10,70343,30840
10,70755,31702
10,71168,30430
10,71580,29609
10,71992,29184
10,72405,30101
10,72817,29057
10,73228,25666
10,73642,27223
10,74053,26628
10,74465,24789
10,74878,25620
10,75290,24851
10,75702,25470
10,76115,22864
10,76527,25750
10,76938,23624
10,77350,24172
10,77763,23129
10,78175,22088
10,78587,21204
10,79000,20817
10,79412,21777
10,79823,21995
10,80237,22140
10,80648,21878
10,81060,21913
10,81473,20755
10,81885,21887
10,82297,21292
10,82710,21277
10,83122,20320
10,83533,21160
10,83947,21133
10,84358,20544
10,84770,20029
10,85183,20816
10,85595,19348
10,86007,19265
10,86418,18664
10,86832,19690
10,87243,19003
10,87655,18962
10,88068,17904
10,88480,18936
10,88892,18824
10,89305,18064
10,89717,17318
10,90128,16130
10,90542,17395
10,90953,19336
10,91365,17752
10,91778,18247
10,92190,20081
10,92602,20503
10,93015,17826
10,93427,19018
10,93838,18604
10,94252,18345
10,94663,18194
10,95075,17840
10,95487,19418
10,95900,19464
10,96312,22033
10,96723,30714
10,97137,43051
10,97548,70247
10,97960,113525
10,98373,177248
10,98785,274349
10,99197,401639
10,99610,553511
11,00022,702126
11,00433,867277
11,00847,994277
11,01258,1078964
11,01670,1106156
11,02083,1099609
11,02495,1052050
11,02907,950953
11,03320,854114
11,03732,735766
11,04143,629821
11,04555,524448
11,04968,435003
11,05380,361064
11,05792,298124
11,06205,246194
11,06617,208125
11,07028,179788
11,07442,149504
11,07853,131697
11,08265,114224
11,08678,99305
11,09090,90362
11,09502,81482
11,09915,74793
11,10327,69519
11,10738,63855
11,11152,61212
11,11563,57588
11,11975,56051
11,12388,54719
11,12800,52427
11,13212,48187
11,13623,49426
11,14037,46336
11,14448,43836
11,14860,41072
11,15273,40437
11,15685,39503
11,16097,39548
11,16510,38521
11,16922,39402
11,17333,37721
11,17747,37994
11,18158,39296
11,18570,39230
11,18983,37164
11,19395,35896
11,19807,36416
11,20220,33775
11,20632,34207
11,21043,31235
11,21457,30175
11,21868,27230
11,22280,27551
11,22692,27921
11,23105,24543
11,23517,24329
11,23928,23548
11,24342,21765
11,24753,22990
11,25165,21635
11,25578,21853
11,25990,22610
11,26402,20011
11,26815,21136
11,27227,19642
11,27638,20901
11,28052,20843
11,28463,20328
11,28875,19694
11,29288,22541
11,29700,25721
11,30112,33859
11,30525,53264
11,30937,88784
11,31348,143560
11,31760,229349
11,32173,348017
11,32585,509596
11,32997,691471
11,33410,878105
11,33822,1050056
11,34233,1189354
11,34647,1277396
11,35058,1314198
11,35470,1262757
11,35883,1192388
11,36295,1059347
11,36707,934848
11,37120,787390
11,37532,662008
11,37943,532006
11,38357,439005
11,38768,363205
11,39180,295759
11,39593,251089
11,40005,207162
11,40417,176708
11,40828,150562
11,41242,131015
11,41653,117286
11,42065,105925
11,42478,91417
11,42890,82264
11,43302,76419
11,43715,70702
11,44127,64916
11,44538,59140
11,44952,55738
11,45363,50906
11,45775,49364
11,46188,46990
11,46600,44003
11,47012,41941
11,47425,41078
11,47837,38949
11,48248,37727
11,48662,35462
11,49073,34169
11,49485,33259
11,49897,31280
11,50310,29360
11,50722,28770
11,51133,28743
11,51547,28290
11,51958,26835
11,52370,27120
11,52783,26195
11,53195,23700
11,53607,24342
11,54020,23600
11,54432,23398
11,54843,22901
11,55257,22213
11,55668,23633
11,56080,21911
11,56493,22630
11,56905,21416
11,57317,20441
11,57730,19950
11,58142,21996
11,58553,21831
11,58965,20778
11,59378,20198
11,59790,19139
11,60202,21180
11,60615,20646
11,61027,19920
11,61438,18644
11,61852,17750
11,62263,18451
11,62675,18885
11,63088,18253
11,63500,18637
11,63912,17357
11,64325,18481
11,64737,17897
11,65148,16816
11,65562,17470
11,65973,18051
11,66385,16701
11,66798,15210
11,67210,15681
11,67622,17534
11,68033,16436
11,68447,16805
11,68858,16352
11,69270,15416
11,69683,16183
11,70095,16868
11,70507,16096
11,70920,15610
11,71332,16586
11,71743,15617
11,72157,14813
11,72568,15985
11,72980,15355
11,73393,15341
11,73805,15651
11,74217,15776
11,74630,16049
11,75042,15378
11,75453,15610
11,75867,15336
11,76278,15042
11,76690,14597
11,77102,15775
11,77515,15487
11,77927,14997
11,78338,15142
11,78752,14337
11,79163,14518
11,79575,14474
11,79988,14133
11,80400,14505
11,80812,15115
11,81225,15044
11,81637,15291
11,82048,14779
11,82462,14277
11,82873,15399
11,83285,15680
11,83698,17176
11,84110,22013
11,84522,30348
11,84935,43795
11,85347,69998
11,85758,116525
11,86170,189538
11,86583,299122
11,86995,433704
11,87407,598219
11,87820,778903
11,88232,952881
11,88643,1095014
11,89057,1191267
11,89468,1239361
11,89880,1212397
11,90293,1144434
11,90705,1050084
11,91117,918301
11,91530,789069
11,91942,664172
11,92353,543140
11,92767,451238
11,93178,369096
11,93590,307722
11,94003,254834
11,94415,214144
11,94827,181885
11,95238,154998
11,95652,136770
11,96063,121041
11,96475,103616
11,96888,93897
11,97300,85030
11,97712,76351
11,98125,69918
11,98537,64546
11,98948,60100
11,99362,55287
11,99773,52586
12,00185,49892
12,00598,48930
12,01010,43525
12,01422,41387
12,01835,40230
12,02247,37304
12,02658,35490
12,03072,34977
12,03483,34159
12,03895,33288
12,04307,30100
12,04720,29478
12,05132,26738
12,05543,27367
12,05957,27840
12,06368,27111
12,06780,26471
12,07193,25813
12,07605,24990
12,08017,23954
12,08430,24043
12,08842,23573
12,09253,21375
12,09667,22769
12,10078,23532
12,10490,22791
12,10903,21759
12,11315,21580
12,11727,20339
12,12140,20799
12,12552,20175
12,12963,21063
12,13375,20676
12,13788,19348
12,14200,19441
12,14612,19107
12,15025,19029
12,15437,21047
12,15848,20146
12,16262,24685
12,16673,30226
12,17085,44375
12,17498,69932
12,17910,114899
12,18322,203660
12,18735,339202
12,19147,538999
12,19558,818547
12,19972,1170638
12,20383,1561500
12,20795,1980306
12,21208,2367145
12,21620,2696605
12,22032,2903939
12,22443,2984488
12,22857,2881989
12,23268,2671617
12,23680,2385632
12,24093,2020221
12,24505,1696909
12,24917,1377241
12,25330,1119373
12,25742,905750
12,26153,736751
12,26567,605485
12,26978,505231
12,27390,423145
12,27803,357468
12,28215,303577
12,28627,271639
12,29040,236195
12,29452,207343
12,29863,191529
12,30277,171185
12,30688,153488
12,31100,140632
12,31512,127605
12,31925,114851
12,32337,109829
12,32748,101932
12,33162,96270
12,33573,87676
12,33985,84354
12,34398,78808
12,34810,72307
12,35222,69904
12,35635,68888
12,36047,66703
12,36458,62168
12,36872,59976
12,37283,57777
12,37695,54608
12,38108,53118
12,38520,49870
12,38932,48684
12,39345,42772
12,39757,45221
12,40168,41114
12,40582,40437
12,40993,38011
12,41405,38987
12,41817,37757
12,42230,37238
12,42642,35458
12,43053,35045
12,43467,32956
12,43878,33043
12,44290,30946
12,44703,31567
12,45115,29006
12,45527,31340
12,45940,29408
12,46352,27727
12,46763,29248
12,47177,28052
12,47588,30838
12,48000,38353
12,48413,47159
12,48825,73155
12,49237,117748
12,49650,186607
12,50062,291644
12,50473,433475
12,50885,605675
12,51298,804069
12,51710,999374
12,52122,1170961
12,52535,1309703
12,52947,1369376
12,53358,1382255
12,53772,1310611
12,54183,1203406
12,54595,1049999
12,55008,893230
12,55420,751406
12,55832,631226
12,56245,523148
12,56657,430064
12,57068,356486
12,57482,296121
12,57893,254022
12,58305,218247
12,58718,187679
12,59130,163792
12,59542,142078
12,59953,126394
12,60367,112058
12,60778,105075
12,61190,95697
12,61603,85277
12,62015,78724
12,62427,80173
12,62840,75281
12,63252,72724
12,63663,77876
12,64077,91361
12,64488,118221
12,64900,176085
12,65313,275658
12,65725,431517
12,66137,644838
12,66550,943373
12,66962,1280268
12,67373,1682711
12,67787,2063775
12,68198,2425757
12,68610,2671062
12,69022,2797223
12,69435,2772867
12,69847,2636233
12,70258,2377078
12,70672,2077127
12,71083,1765950
12,71495,1475031
12,71908,1212076
12,72320,979380
12,72732,803959
12,73145,662009
12,73557,550142
12,73968,464280
12,74382,396830
12,74793,338845
12,75205,294593
12,75618,260168
12,76030,231528
12,76442,209402
12,76855,187944
12,77267,172652
12,77678,156776
12,78090,143460
12,78503,132193
12,78915,123213
12,79327,112033
12,79740,107295
12,80152,100460
12,80563,96837
12,80977,89939
12,81388,85132
12,81800,78532
12,82213,81115
12,82625,73649
12,83037,67794
12,83450,65210
12,83862,62376
12,84273,60525
12,84687,58318
12,85098,54843
12,85510,54072
12,85923,51269
12,86335,49274
12,86747,47957
12,87158,45895
12,87572,46021
12,87983,45516
12,88395,42596
12,88808,42307
12,89220,40595
12,89632,38133
12,90045,38031
12,90457,36919
12,90868,36671
12,91282,33991
12,91693,34882
12,92105,32760
12,92518,31994
12,92930,31728
12,93342,31059
12,93755,32081
12,94167,29821
12,94578,29052
12,94992,29565
12,95403,28988
12,95815,28360
12,96227,27816
12,96640,27984
12,97052,27883
12,97463,28578
12,97877,28003
12,98288,30493
12,98700,34226
12,99113,45433
12,99525,66650
12,99937,99225
13,00350,161462
13,00762,247151
13,01173,382549
13,01587,536012
13,01998,719391
13,02410,916366
13,02823,1094156
13,03235,1250826
13,03647,1367995
13,04060,1455525
13,04472,1551010
13,04883,1654218
13,05295,1808486
13,05708,2046559
13,06120,2347391
13,06532,2658595
13,06945,2978117
13,07357,3223957
13,07768,3313521
13,08182,3318545
13,08593,3123756
13,09005,2792869
13,09418,2426175
13,09830,2051959
13,10242,1714287
13,10655,1378658
13,11067,1133542
13,11478,938398
13,11892,773702
13,12303,651062
13,12715,545948
13,13128,468316
13,13540,403823
13,13952,357859
13,14363,316350
13,14777,282377
13,15188,251752
13,15600,230849
13,16013,207012
13,16425,190304
13,16837,175803
13,17250,161045
13,17662,154463
13,18073,142622
13,18487,132740
13,18898,125578
13,19310,115334
13,19723,113259
13,20135,103526
13,20547,101225
13,20960,94410
13,21372,95316
13,21783,90498
13,22197,83713
13,22608,80655
13,23020,76914
13,23432,74839
13,23845,68792
13,24257,68479
13,24668,66408
13,25082,65385
13,25493,60797
13,25905,60323
13,26318,57260
13,26730,55133
13,27142,52781
13,27555,55039
13,27967,51101
13,28378,50515
13,28792,47058
13,29203,48676
13,29615,46676
13,30028,45937
13,30440,46672
13,30852,44227
13,31265,45292
13,31677,42031
13,32088,40110
13,32500,38572
13,32913,38003
13,33325,37285
13,33737,37533
13,34150,37128
13,34562,39055
13,34973,42915
13,35387,50482
13,35798,69893
13,36210,100217
13,36623,152928
13,37035,234772
13,37447,338551
13,37860,474375
13,38272,646738
13,38683,818221
13,39097,974572
13,39508,1101073
13,39920,1171407
13,40333,1183775
13,40745,1159039
13,41157,1075034
13,41568,959651
13,41982,838946
13,42393,700148
13,42805,595880
13,43218,490699
13,43630,405928
13,44042,343618
13,44455,284861
13,44867,239600
13,45278,206968
13,45692,178965
13,46103,153926
13,46515,135241
13,46928,124362
13,47340,111345
13,47752,103362
13,48165,97172
13,48577,88023
13,48988,81187
13,49402,77107
13,49813,73238
13,50225,69121
13,50637,63720
13,51050,65017
13,51462,59359
13,51873,57092
13,52287,58157
13,52698,53376
13,53110,49844
13,53523,50298
13,53935,47619
13,54347,47502
13,54760,44694
13,55172,44758
13,55583,44296
13,55997,40604
13,56408,40739
13,56820,39558
13,57233,38024
13,57645,37642
13,58057,37005
13,58470,36882
13,58882,35015
13,59293,33172
13,59705,34365
13,60118,32277
13,60530,31238
13,60942,32556
13,61355,28613
13,61767,30744
13,62178,32030
13,62592,28723
13,63003,30161
13,63415,28829
13,63828,25635
13,64240,27223
13,64652,27193
13,65065,26753
13,65477,27607
13,65888,25365
13,66302,25913
13,66713,27603
13,67125,25585
13,67538,25374
13,67950,25525
13,68362,24513
13,68773,24437
13,69187,24041
13,69598,24559
13,70010,24189
13,70423,21123
13,70835,21919
13,71247,22533
13,71660,22400
13,72072,21250
13,72483,23461
13,72897,24024
13,73308,21339
13,73720,21632
13,74133,20259
13,74545,20406
13,74957,19770
13,75370,22569
13,75782,21945
13,76193,22808
13,76607,22039
13,77018,22163
13,77430,20381
13,77842,21402
13,78255,19895
13,78667,19953
13,79078,20633
13,79492,20408
13,79903,19778
13,80315,19957
13,80728,19361
13,81140,19550
13,81552,20779
13,81965,19962
13,82377,20380
13,82788,20731
13,83202,20262
13,83613,20620
13,84025,19366
13,84438,21063
13,84850,25014
13,85262,26011
13,85675,34831
13,86087,49684
13,86498,80375
13,86910,147282
13,87323,250906
13,87735,418680
13,88147,673650
13,88560,1016545
13,88972,1465005
13,89383,2005702
13,89797,2568844
13,90208,3105364
13,90620,3644296
13,91033,4084058
13,91445,4311587
13,91857,4339641
13,92270,4196744
13,92682,3817206
13,93093,3341557
13,93507,2815397
13,93918,2347925
13,94330,1922209
13,94743,1563275
13,95155,1278027
13,95567,1047231
13,95980,877940
13,96392,737902
13,96803,628466
13,97215,542744
13,97628,474717
13,98040,415001
13,98452,369614
13,98865,337312
13,99277,303907
13,99688,275533
14,00102,248817
14,00513,223942
14,00925,210779
14,01338,191282
14,01750,182914
14,02162,171922
14,02575,155003
14,02987,143222
14,03398,139809
14,03812,132116
14,04223,120716
14,04635,116671
14,05048,109399
14,05460,104960
14,05872,100137
14,06283,95330
14,06697,89584
14,07108,89912
14,07520,85409
14,07933,81434
14,08345,78747
14,08757,77566
14,09170,78099
14,09582,75765
14,09993,81375
14,10407,81605
14,10818,83153
14,11230,83235
14,11643,84134
14,12055,82208
14,12467,80678
14,12880,78221
14,13292,75930
14,13703,70677
14,14117,68364
14,14528,61609
14,14940,61526
14,15352,60904
14,15765,56985
14,16177,54446
14,16588,57100
14,17002,56430
14,17413,64218
14,17825,77349
14,18238,106170
14,18650,151944
14,19062,219308
14,19475,310358
14,19887,431059
14,20298,570838
14,20712,732474
14,21123,865999
14,21535,971710
14,21948,1037022
14,22360,1047828
14,22772,1016140
14,23185,946181
14,23597,846523
14,24008,723953
14,24420,618699
14,24833,521980
14,25245,439489
14,25657,369959
14,26070,307070
14,26482,258632
14,26893,220929
14,27307,192062
14,27718,166436
14,28130,151795
14,28543,133481
14,28955,120721
14,29367,110311
14,29780,104272
14,30192,96217
14,30603,94335
14,31017,90622
14,31428,96310
14,31840,112151
14,32253,148392
14,32665,206064
14,33077,295657
14,33488,426822
14,33902,602226
14,34313,802244
14,34725,1033245
14,35138,1254282
14,35550,1443004
14,35962,1549593
14,36375,1577970
14,36787,1532498
14,37198,1424374
14,37612,1264030
14,38023,1108389
14,38435,939464
14,38848,784505
14,39260,658582
14,39672,547903
14,40085,454586
14,40497,384577
14,40908,332313
14,41322,290776
14,41733,254797
14,42145,222039
14,42557,199219
14,42970,180354
14,43382,162212
14,43793,151131
14,44207,142242
14,44618,132268
14,45030,117041
14,45443,115107
14,45855,107313
14,46267,98063
14,46680,94682
14,47092,88207
14,47503,83003
14,47917,79884
14,48328,76385
14,48740,70263
14,49153,70612
14,49565,68744
14,49977,62308
14,50390,61479
14,50802,61140
14,51213,57599
14,51625,56374
14,52038,54513
14,52450,53207
14,52862,51645
14,53275,53192
14,53687,50155
14,54098,48116
14,54512,47377
14,54923,46801
14,55335,45624
14,55748,44139
14,56160,43230
14,56572,42646
14,56985,41640
14,57397,39591
14,57808,40647
14,58222,36740
14,58633,39990
14,59045,36934
14,59458,36593
14,59870,35436
14,60282,36623
14,60693,36145
14,61107,36024
14,61518,33051
14,61930,34102
14,62343,34601
14,62755,34390
14,63167,33196
14,63580,31188
14,63992,34189
14,64403,34210
14,64817,31347
14,65228,33302
14,65640,32921
14,66053,33791
14,66465,30971
14,66877,32911
14,67290,34734
14,67702,39472
14,68113,52508
14,68527,73128
14,68938,116744
14,69350,182726
14,69762,291131
14,70175,442297
14,70587,650588
14,70998,898566
14,71412,1174258
14,71823,1434926
14,72235,1651552
14,72648,1767580
14,73060,1780690
14,73472,1728020
14,73885,1579457
14,74297,1385201
14,74708,1190711
14,75122,989412
14,75533,821457
14,75945,688806
14,76358,564513
14,76770,480200
14,77182,408268
14,77595,358513
14,78007,312597
14,78418,277706
14,78830,246640
14,79243,227563
14,79655,200800
14,80067,183888
14,80480,167093
14,80892,157453
14,81303,147318
14,81717,140236
14,82128,131933
14,82540,121872
14,82953,115615
14,83365,109884
14,83777,106947
14,84190,100462
14,84602,97959
14,85013,94507
14,85427,92511
14,85838,90892
14,86250,86245
14,86663,86536
14,87075,86255
14,87487,83083
14,87898,81592
14,88312,81767
14,88723,78362
14,89135,75280
14,89548,72678
14,89960,71733
14,90372,72160
14,90785,69450
14,91197,65166
14,91608,67618
14,92022,65428
14,92433,62617
14,92845,61146
14,93258,62021
14,93670,62635
14,94082,60465
14,94495,61601
14,94907,56001
14,95318,60866
14,95732,57718
14,96143,56383
14,96555,59721
14,96967,55373
14,97380,55120
14,97792,55698
14,98203,54057
14,98617,53053
14,99028,54706
14,99440,55805
14,99853,64550
15,00265,73379
15,00677,94116
15,01090,133544
15,01502,201369
15,01913,300565
15,02327,436970
15,02738,609966
15,03150,793650
15,03563,983710
15,03975,1159156
15,04387,1283075
15,04800,1349608
15,05212,1342365
15,05623,1280762
15,06035,1160961
15,06448,1025981
15,06860,876615
15,07272,743879
15,07685,630614
15,08097,527386
15,08508,446656
15,08922,381059
15,09333,330131
15,09745,286453
15,10158,249710
15,10570,221382
15,10982,199301
15,11395,179914
15,11807,164479
15,12218,153305
15,12632,141400
15,13043,129417
15,13455,124889
15,13868,116487
15,14280,110662
15,14692,104681
15,15103,97645
15,15517,93810
15,15928,90906
15,16340,85832
15,16753,83951
15,17165,79217
15,17577,73471
15,17990,75528
15,18402,71966
15,18813,70691
15,19227,68714
15,19638,67808
15,20050,66804
15,20463,64061
15,20875,58740
15,21287,60840
15,21700,59334
15,22112,58359
15,22523,58994
15,22937,56295
15,23348,55854
15,23760,54552
15,24172,53861
15,24585,52109
15,24997,50448
15,25408,48687
15,25822,46435
15,26233,51547
15,26645,49274
15,27058,48367
15,27470,46038
15,27882,43635
15,28295,45930
15,28707,43781
15,29118,46108
15,29532,45080
15,29943,44114
15,30355,40476
15,30768,42458
15,31180,40163
15,31592,43780
15,32005,41359
15,32417,39029
15,32828,39890
15,33240,38871
15,33653,37959
15,34065,39008
15,34477,37472
15,34890,38687
15,35302,38820
15,35713,38892
15,36127,36802
15,36538,39407
15,36950,39068
15,37363,38738
15,37775,38411
15,38187,39376
15,38600,36995
15,39012,36964
15,39423,35944
15,39837,36668
15,40248,36787
15,40660,36138
15,41073,36649
15,41485,36008
15,41897,37471
15,42308,34098
15,42722,36633
15,43133,34470
15,43545,33294
15,43958,35861
15,44370,35633
15,44782,34726
15,45195,35465
15,45607,34636
15,46018,35994
15,46432,37388
15,46843,48146
15,47255,60460
15,47668,85037
15,48080,135032
15,48492,224180
15,48905,363474
15,49317,578149
15,49728,896840
15,50142,1326884
15,50553,1857970
15,50965,2501544
15,51378,3170806
15,51790,3808376
15,52202,4394410
15,52613,4747262
15,53027,4873753
15,53438,4746903
15,53850,4405850
15,54263,3895480
15,54675,3361632
15,55087,2815447
15,55500,2346621
15,55912,1919018
15,56323,1597233
15,56737,1334888
15,57148,1124184
15,57560,957999
15,57973,825238
15,58385,714310
15,58797,619020
15,59210,563480
15,59622,496453
15,60033,448459
15,60447,407231
15,60858,364521
15,61270,342219
15,61682,319150
15,62095,295666
15,62507,269560
15,62918,255458
15,63332,243070
15,63743,226269
15,64155,215227
15,64568,198182
15,64980,192668
15,65392,179144
15,65805,171462
15,66217,165928
15,66628,156688
15,67042,148828
15,67453,142787
15,67865,138934
15,68278,129453
15,68690,126254
15,69102,120817
15,69515,117875
15,69927,114601
15,70338,110084
15,70750,106704
15,71163,105178
15,71575,101638
15,71987,99887
15,72400,96378
15,72812,90414
15,73223,93824
15,73637,90834
15,74048,86473
15,74460,82740
15,74873,82404
15,75285,80836
15,75697,78517
15,76110,76977
15,76522,77120
15,76933,76721
15,77347,77361
15,77758,83340
15,78170,85847
15,78583,101182
15,78995,123236
15,79407,170427
15,79818,240165
15,80232,335161
15,80643,465902
15,81055,617081
15,81468,788620
15,81880,956378
15,82292,1109175
15,82705,1218917
15,83117,1246520
15,83528,1208252
15,83942,1126835
15,84353,1038501
15,84765,920457
15,85178,817483
15,85590,753077
15,86002,713687
15,86415,714407
15,86827,757161
15,87238,836895
15,87652,944554
15,88063,1063656
15,88475,1150335
15,88887,1223835
15,89300,1240385
15,89712,1225857
15,90123,1177669
15,90537,1112845
15,90948,1055499
15,91360,996637
15,91773,983288
15,92185,1031968
15,92597,1124831
15,93010,1284868
15,93422,1451973
15,93833,1638059
15,94247,1785501
15,94658,1886440
15,95070,1871910
15,95483,1837475
15,95895,1713392
15,96307,1530855
15,96720,1362601
15,97132,1172012
15,97543,996245
15,97955,853054
15,98368,725743
15,98780,624503
15,99192,541801
15,99605,475609
16,00017,423135
16,00428,371783
16,00842,337543
16,01253,309905
16,01665,284979
16,02078,260786
16,02490,246491
16,02902,227671
16,03315,213358
16,03727,201443
16,04138,188118
16,04552,178554
16,04963,169628
16,05375,159989
16,05788,149225
16,06200,146117
16,06612,138987
16,07023,131759
16,07437,129005
16,07848,122067
16,08260,118423
16,08673,117066
16,09085,111687
16,09497,105804
16,09910,100628
16,10322,100219
16,10733,95447
16,11147,94887
16,11558,93266
16,11970,89269
16,12383,88705
16,12795,83644
16,13207,81984
16,13620,81190
16,14032,82923
16,14443,78360
16,14857,75958
16,15268,74403
16,15680,75006
16,16092,73152
16,16505,67752
16,16917,70865
16,17328,69040
16,17742,66525
16,18153,67594
16,18565,65188
16,18978,65448
16,19390,64025
16,19802,62567
16,20215,63142
16,20627,62664
16,21038,62889
16,21452,57934
16,21863,61045
16,22275,62809
16,22688,61721
16,23100,65432
16,23512,73147
16,23925,86688
16,24337,114793
16,24748,160925
16,25160,232528
16,25573,351718
16,25985,520308
16,26397,733604
16,26810,992271
16,27222,1260979
16,27633,1536381
16,28047,1742304
16,28458,1872249
16,28870,1873010
16,29283,1797098
16,29695,1640205
16,30107,1448710
16,30520,1240608
16,30932,1061288
16,31343,901813
16,31757,764608
16,32168,658339
16,32580,556796
16,32993,489626
16,33405,435861
16,33817,386728
16,34228,340413
16,34642,312854
16,35053,282591
16,35465,262792
16,35878,238988
16,36290,217091
16,36702,206965
16,37115,194529
16,37527,180878
16,37938,172956
16,38352,166814
16,38763,156861
16,39175,143212
16,39588,142355
16,40000,138510
16,40412,133567
16,40825,129818
16,41237,127373
16,41648,120433
16,42062,115656
16,42473,114747
16,42885,108289
16,43297,106330
16,43710,104416
16,44122,101869
16,44533,96665
16,44947,94623
16,45358,94128
16,45770,88688
16,46183,91705
16,46595,87304
16,47007,86728
16,47420,83362
16,47832,82207
16,48243,80952
16,48657,81402
16,49068,79477
16,49480,75389
16,49893,77678
16,50305,76319
16,50717,73709
16,51130,72211
16,51542,71384
16,51953,71334
16,52365,71988
16,52778,67639
16,53190,68481
16,53602,67492
16,54015,68317
16,54427,68623
16,54838,72734
16,55252,83030
16,55663,95811
16,56075,124813
16,56488,169797
16,56900,249485
16,57312,369604
16,57725,522998
16,58137,715245
16,58548,947105
16,58962,1151745
16,59373,1333545
16,59785,1433797
16,60198,1475787
16,60610,1447302
16,61022,1347908
16,61433,1205474
16,61847,1072517
16,62258,930954
16,62670,781741
16,63083,675942
16,63495,577590
16,63907,502691
16,64320,443336
16,64732,405071
16,65143,388245
16,65557,381186
16,65968,421333
16,66380,473153
16,66793,546478
16,67205,653506
16,67617,782233
16,68030,902637
16,68442,993961
16,68853,1049612
16,69267,1074013
16,69678,1067752
16,70090,1011652
16,70502,921345
16,70915,824624
16,71327,738836
16,71738,635798
16,72152,553793
16,72563,475507
16,72975,414572
16,73388,362624
16,73800,319177
16,74212,284568
16,74625,253494
16,75037,232534
16,75448,209795
16,75862,191939
16,76273,181472
16,76685,169683
16,77098,159104
16,77510,143654
16,77922,142479
16,78335,136483
16,78747,129643
16,79158,120908
16,79570,116316
16,79983,114513
16,80395,104736
16,80807,108426
16,81220,101055
16,81632,98112
16,82043,95005
16,82457,94274
16,82868,91965
16,83280,88915
16,83693,88726
16,84105,86275
16,84517,83080
16,84930,83278
16,85342,80269
16,85753,80566
16,86167,79472
16,86578,77902
16,86990,75488
16,87403,75781
16,87815,72742
16,88227,74272
16,88638,74930
16,89052,71485
16,89463,70151
16,89875,71871
16,90288,70762
16,90700,71035
16,91112,68365
16,91525,68829
16,91937,66745
16,92348,64137
16,92762,65889
16,93173,65692
16,93585,63795
16,93998,63484
16,94410,60727
16,94822,61215
16,95235,58669
16,95647,61758
16,96058,59338
16,96472,59878
16,96883,58350
16,97295,60678
16,97707,68123
16,98120,71259
16,98532,85725
16,98943,116379
16,99357,156105
16,99768,232947
17,00180,341519
17,00593,518002
17,01005,739825
17,01417,1049357
17,01830,1428380
17,02242,1881868
17,02653,2348695
17,03067,2806863
17,03478,3228921
17,03890,3550423
17,04303,3710470
17,04715,3652838
17,05127,3407558
17,05540,3017418
17,05952,2608548
17,06363,2181293
17,06775,1815052
17,07188,1526010
17,07600,1273959
17,08012,1103230
17,08425,939901
17,08837,810250
17,09248,719950
17,09662,647695
17,10073,575493
17,10485,521908
17,10898,475328
17,11310,438431
17,11722,403349
17,12135,372294
17,12547,345237
17,12958,321302
17,13372,309452
17,13783,283068
17,14195,273942
17,14608,255502
17,15020,241297
17,15432,228523
17,15845,221126
17,16257,210372
17,16668,200715
17,17080,194139
17,17493,183959
17,17905,177879
17,18317,173782
17,18730,167874
17,19142,164062
17,19553,156169
17,19967,154014
17,20378,147832
17,20790,145522
17,21203,138476
17,21615,138010
17,22027,134015
17,22440,132470
17,22852,130159
17,23263,123046
17,23677,121339
17,24088,118119
17,24500,117115
17,24913,114381
17,25325,111486
17,25737,108175
17,26148,108685
17,26562,106961
17,26973,101691
17,27385,104085
17,27798,101190
17,28210,102051
17,28622,99505
17,29035,97148
17,29447,96662
17,29858,92246
17,30272,93514
17,30683,90618
17,31095,88823
17,31508,88834
17,31920,87463
17,32332,87097
17,32745,86525
17,33157,83472
17,33568,84743
17,33982,84388
17,34393,83387
17,34805,84540
17,35217,83383
17,35630,81380
17,36042,78417
17,36453,75757
17,36867,78746
17,37278,77258
17,37690,79663
17,38103,79322
17,38515,77543
17,38927,84455
17,39340,91229
17,39752,110227
17,40163,147349
17,40577,185508
17,40988,261197
17,41400,361899
17,41813,505735
17,42225,689766
17,42637,903605
17,43050,1137762
17,43462,1353202
17,43873,1537494
17,44285,1645015
17,44698,1677836
17,45110,1633819
17,45522,1531589
17,45935,1377373
17,46347,1228619
17,46758,1071553
17,47172,935037
17,47583,800890
17,47995,696296
17,48408,603633
17,48820,532028
17,49232,475280
17,49645,428177
17,50057,385963
17,50468,353299
17,50882,326313
17,51293,297992
17,51705,277028
17,52118,257224
17,52530,243520
17,52942,228752
17,53353,217008
17,53767,204301
17,54178,193070
17,54590,190263
17,55003,178823
17,55415,172174
17,55827,164296
17,56240,157334
17,56652,152024
17,57063,145758
17,57477,143112
17,57888,135753
17,58300,134472
17,58713,128616
17,59125,127360
17,59537,122217
17,59950,118760
17,60362,115920
17,60773,111711
17,61187,110856
17,61598,107082
17,62010,107111
17,62422,103221
17,62835,105212
17,63247,101442
17,63658,100065
17,64072,97960
17,64483,99294
17,64895,93755
17,65308,92403
17,65720,94932
17,66132,89458
17,66545,88040
17,66957,90034
17,67368,88640
17,67782,89280
17,68193,85274
17,68605,83699
17,69018,86418
17,69430,85657
17,69842,80878
17,70255,83543
17,70667,77427
17,71078,77762
17,71490,77424
17,71903,78034
17,72315,78409
17,72727,80142
17,73140,78626
17,73552,78419
17,73963,76441
17,74377,77720
17,74788,79585
17,75200,77106
17,75613,76170
17,76025,76177
17,76437,81074
17,76850,78406
17,77262,78115
17,77673,79985
17,78087,76456
17,78498,76439
17,78910,76435
17,79323,72084
17,79735,75361
17,80147,72957
17,80558,72436
17,80972,69705
17,81383,71755
17,81795,72210
17,82208,72894
17,82620,76866
17,83032,79068
17,83445,85745
17,83857,89570
17,84268,97526
17,84682,105451
17,85093,114536
17,85505,118020
17,85918,122600
17,86330,124639
17,86742,126694
17,87155,123110
17,87567,120519
17,87978,113195
17,88392,109061
17,88803,104481
17,89215,98399
17,89627,89783
17,90040,86363
17,90452,85374
17,90863,81614
17,91277,77316
17,91688,75680
17,92100,70843
17,92513,71643
17,92925,69153
17,93337,66635
17,93750,66155
17,94162,67511
17,94573,65951
17,94987,66522
17,95398,62688
17,95810,65431
17,96223,59372
17,96635,64065
17,97047,62420
17,97460,61707
17,97872,60305
17,98283,61155
17,98695,59661
17,99108,60541
17,99520,59604
17,99932,59894
18,00345,61797
18,00757,61766
18,01168,61043
18,01582,59315
18,01993,62200
18,02405,57334
18,02818,60094
18,03230,57581
18,03642,58835
18,04055,56644
18,04467,62153
18,04878,59749
18,05292,59088
18,05703,59416
18,06115,56808
18,06528,56413
18,06940,58042
18,07352,57868
18,07763,58473
18,08177,56628
18,08588,56778
18,09000,54495
18,09413,53814
18,09825,53984
18,10237,55297
18,10650,55667
18,11062,56299
18,11473,57287
18,11887,56766
18,12298,56724
18,12710,55840
18,13123,54810
18,13535,56139
18,13947,55617
18,14360,57061
18,14772,55754
18,15183,57346
18,15597,55646
18,16008,52980
18,16420,54903
18,16832,52745
18,17245,54168
18,17657,56189
18,18068,57267
18,18482,55597
18,18893,55470
18,19305,56773
18,19718,53858
18,20130,56237
18,20542,52841
18,20955,52673
18,21367,52199
18,21778,53015
18,22192,53738
18,22603,52869
18,23015,50958
18,23428,53378
18,23840,50907
18,24252,52393
18,24665,52055
18,25077,51813
18,25488,54753
18,25900,53025
18,26313,51652
18,26725,52902
18,27137,53594
18,27550,53021
18,27962,53137
18,28373,50785
18,28787,54887
18,29198,53976
18,29610,52282
18,30023,53394
18,30435,51441
18,30847,56281
18,31260,56282
18,31672,53422
18,32083,52102
18,32497,51798
18,32908,53926
18,33320,53614
18,33733,52972
18,34145,54974
18,34557,52282
18,34968,52217
18,35382,54088
18,35793,53573
18,36205,53574
18,36618,51382
18,37030,52207
18,37442,53027
18,37855,51756
18,38267,54810
18,38678,50415
18,39092,51060
18,39503,51185
18,39915,52655
18,40328,52158
18,40740,50550
18,41152,49972
18,41565,52646
18,41977,52070
18,42388,50111
18,42802,51788
18,43213,51498
18,43625,49452
18,44037,53690
18,44450,51140
18,44862,49392
18,45273,49102
18,45687,48395
18,46098,49021
18,46510,50168
18,46923,50583
18,47335,48502
18,47747,51913
18,48160,49739
18,48572,50382
18,48983,51507
18,49397,48361
18,49808,51192
18,50220,51247
18,50633,49891
18,51045,51010
18,51457,49262
18,51870,49122
18,52282,50237
18,52693,50350
18,53105,51917
18,53518,52348
18,53930,51633
18,54342,49002
18,54755,50468
18,55167,53186
18,55578,52311
18,55992,53042
18,56403,52315
18,56815,50938
18,57228,52221
18,57640,53472
18,58052,54736
18,58465,57247
18,58877,64351
18,59288,76042
18,59702,92071
18,60113,119603
18,60525,156998
18,60938,201534
18,61350,265645
18,61762,337198
18,62173,422089
18,62587,504443
18,62998,581578
18,63410,647145
18,63823,693651
18,64235,711474
18,64647,712229
18,65060,696773
18,65472,658169
18,65883,608799
18,66297,558116
18,66708,510075
18,67120,455226
18,67533,408547
18,67945,361954
18,68357,324596
18,68770,294623
18,69182,262528
18,69593,239661
18,70007,219194
18,70418,205734
18,70830,190043
18,71242,174592
18,71655,165076
18,72067,157103
18,72478,141197
18,72892,138407
18,73303,128929
18,73715,127462
18,74128,120343
18,74540,113177
18,74952,110922
18,75365,105603
18,75777,106218
18,76188,104198
18,76602,99891
18,77013,94675
18,77425,93184
18,77838,86632
18,78250,85790
18,78662,84057
18,79075,80743
18,79487,86468
18,79898,83168
18,80312,76059
18,80723,79748
18,81135,76741
18,81547,77194
18,81960,76632
18,82372,73289
18,82783,72445
18,83197,71084
18,83608,74034
18,84020,72152
18,84433,67494
18,84845,68369
18,85257,69835
18,85670,66478
18,86082,64609
18,86493,63143
18,86907,66063
18,87318,64389
18,87730,66990
18,88143,64771
18,88555,65562
18,88967,63429
18,89380,63186
18,89792,61558
18,90203,63796
18,90615,60725
18,91028,58644
18,91440,60413
18,91852,59439
18,92265,57939
18,92677,57865
18,93088,59608
18,93502,61679
18,93913,59607
18,94325,58331
18,94738,57986
18,95150,58113
18,95562,59661
18,95975,58709
18,96387,56726
18,96798,57800
18,97212,58026
18,97623,57996
18,98035,57280
18,98448,54042
18,98860,57973
18,99272,56634
18,99683,56124
19,00097,56045
19,00508,57237
19,00920,54993
19,01333,55185
19,01745,58114
19,02157,55944
19,02570,55952
19,02982,54971
19,03393,55299
19,03807,55069
19,04218,54239
19,04630,53237
19,05043,55380
19,05455,51388
19,05867,56009
19,06280,54634
19,06692,55340
19,07103,54666
19,07517,54461
19,07928,55318
19,08340,59134
19,08752,57723
19,09165,52889
19,09577,57173
19,09988,53057
19,10402,55207
19,10813,53958
19,11225,52834
19,11638,54722
19,12050,54700
19,12462,56183
19,12875,52093
19,13287,50989
19,13698,54823
19,14112,51077
19,14523,51658
19,14935,52744
19,15348,56348
19,15760,52088
19,16172,50838
19,16585,51708
19,16997,51787
19,17408,52389
19,17820,50509
19,18233,53576
19,18645,52579
19,19057,49773
19,19470,52217
19,19882,50278
19,20293,52519
19,20707,50498
19,21118,51190
19,21530,52057
19,21943,52684
19,22355,52461
19,22767,50605
19,23180,51615
19,23592,52662
19,24003,50839
19,24417,51873
19,24828,50810
19,25240,52351
19,25653,52956
19,26065,50576
19,26477,50801
19,26888,48967
19,27302,51689
19,27713,49632
19,28125,51045
19,28538,51669
19,28950,52003
19,29362,50276
19,29775,51209
19,30187,50540
19,30598,53977
19,31012,51822
19,31423,50150
19,31835,55398
19,32248,51075
19,32660,53210
19,33072,50968
19,33485,52877
19,33897,53938
19,34308,52433
19,34722,52105
19,35133,51992
19,35545,54230
19,35957,51552
19,36370,52069
19,36782,53473
19,37193,52911
19,37607,52550
19,38018,51808
19,38430,53596
19,38843,52277
19,39255,54363
19,39667,54202
19,40080,50985
19,40492,53250
19,40903,54624
19,41317,51685
19,41728,51134
19,42140,53997
19,42553,50942
19,42965,51242
19,43377,52433
19,43790,51213
19,44202,50427
19,44613,52281
19,45025,51862
19,45438,48541
19,45850,49517
19,46262,49014
19,46675,49091
19,47087,49620
19,47498,51716
19,47912,51255
19,48323,51734
19,48735,50857
19,49148,49019
19,49560,51840
19,49972,49786
19,50385,50007
19,50797,49277
19,51208,51234
19,51622,50546
19,52033,51169
