D:\MassHunter\GCMS\1\data\Amal\Constant flow\60C\60C_1ml-min_10C-min_1.D Wed Aug 07 14:49:48 2024
Start of data points
6,59087,13874
6,59498,14736
6,59910,13617
6,60323,14862
6,60735,15235
6,61147,15750
6,61560,16514
6,61972,17108
6,62383,18104
6,62797,18643
6,63208,18817
6,63620,21070
6,64033,20405
6,64445,21076
6,64857,22559
6,65270,22611
6,65682,20626
6,66093,20391
6,66507,20212
6,66918,19137
6,67330,19172
6,67742,18584
6,68155,18020
6,68567,16872
6,68978,17904
6,69392,16397
6,69803,15526
6,70215,15029
6,70628,14922
6,71040,16266
6,71452,14940
6,71865,13528
6,72277,14621
6,72688,14459
6,73102,12961
6,73513,12403
6,73925,14047
6,74338,12926
6,74750,12085
6,75162,12449
6,75575,12572
6,75987,12022
6,76398,11720
6,76810,12173
6,77223,11961
6,77635,10725
6,78047,11146
6,78460,10141
6,78872,11033
6,79283,10863
6,79697,10390
6,80108,11346
6,80520,10964
6,80933,9850
6,81345,10407
6,81757,10895
6,82170,10990
6,82582,10270
6,82993,9958
6,83407,10535
6,83818,9984
6,84230,10182
6,84643,8898
6,85055,9940
6,85467,10084
6,85878,9727
6,86292,9657
6,86703,10309
6,87115,8792
6,87528,10091
6,87940,9816
6,88352,10039
6,88765,10308
6,89177,10453
6,89588,9315
6,90002,10162
6,90413,10386
6,90825,9701
6,91238,9997
6,91650,10894
6,92062,9979
6,92475,9354
6,92887,9467
6,93298,9961
6,93712,8901
6,94123,8867
6,94535,9117
6,94947,9350
6,95360,8154
6,95772,8548
6,96183,8790
6,96597,9461
6,97008,8591
6,97420,8731
6,97833,9874
6,98245,9763
6,98657,10454
6,99070,9195
6,99482,9589
6,99893,10645
7,00307,9031
7,00718,9842
7,01130,9727
7,01543,9926
7,01955,9080
7,02367,8853
7,02780,9073
7,03192,8055
7,03603,9248
7,04015,9098
7,04428,9335
7,04840,9000
7,05252,9401
7,05665,9527
7,06077,12303
7,06488,17667
7,06902,24394
7,07313,39029
7,07725,62494
7,08138,92247
7,08550,135293
7,08962,189219
7,09375,258166
7,09787,330603
7,10198,396240
7,10612,462384
7,11023,514121
7,11435,554026
7,11848,555125
7,12260,563827
7,12672,556074
7,13083,534232
7,13497,504251
7,13908,467220
7,14320,437571
7,14733,398193
7,15145,361057
7,15557,325290
7,15970,297107
7,16382,265762
7,16793,238057
7,17207,208043
7,17618,188157
7,18030,166270
7,18443,149558
7,18855,123888
7,19267,112611
7,19680,99163
7,20092,85177
7,20503,75524
7,20917,65160
7,21328,58474
7,21740,50399
7,22152,45164
7,22565,40349
7,22977,36703
7,23388,32541
7,23802,28688
7,24213,27317
7,24625,25554
7,25038,22336
7,25450,19852
7,25862,20552
7,26275,17708
7,26687,17377
7,27098,15821
7,27512,14076
7,27923,13446
7,28335,14667
7,28748,12799
7,29160,13008
7,29572,12145
7,29985,11703
7,30397,11712
7,30808,11885
7,31220,10859
7,31633,10350
7,32045,10240
7,32457,9417
7,32870,9757
7,33282,10568
7,33693,8646
7,34107,9214
7,34518,9590
7,34930,9275
7,35343,9098
7,35755,8756
7,36167,8895
7,36580,9021
7,36992,8149
7,37403,9074
7,37817,7941
7,38228,8036
7,38640,8385
7,39053,7686
7,39465,8110
7,39877,8496
7,40288,8395
7,40702,7471
7,41113,7633
7,41525,7787
7,41938,7273
7,42350,7792
7,42762,6901
7,43175,7725
7,43587,8194
7,43998,8735
7,44412,8929
7,44823,10132
7,45235,10185
7,45648,9853
7,46060,11384
7,46472,12423
7,46885,11995
7,47297,10924
7,47708,10382
7,48122,9986
7,48533,9280
7,48945,9030
7,49357,8686
7,49770,7489
7,50182,7061
7,50593,7135
7,51007,7182
7,51418,6903
7,51830,6364
7,52243,7457
7,52655,7212
7,53067,5886
7,53480,6771
7,53892,6193
7,54303,6455
7,54717,6065
7,55128,6051
7,55540,7283
7,55953,6219
7,56365,7421
7,56777,6307
7,57190,5890
7,57602,6761
7,58013,6398
7,58425,6271
7,58838,6332
7,59250,6150
7,59662,5711
7,60075,5838
7,60487,6384
7,60898,6453
7,61312,5814
7,61723,5720
7,62135,5670
7,62548,5602
7,62960,6441
7,63372,6000
7,63785,6075
7,64197,6042
7,64608,6140
7,65022,5650
7,65433,6350
7,65845,5637
7,66258,6338
7,66670,5594
7,67082,6629
7,67495,6180
7,67907,5571
7,68318,5849
7,68730,5908
7,69143,6078
7,69555,6261
7,69967,5956
7,70380,6385
7,70792,6090
7,71203,5514
7,71617,5581
7,72028,5875
7,72440,5296
7,72853,5663
7,73265,5638
7,73677,5288
7,74090,5982
7,74502,5320
7,74913,6162
7,75327,5234
7,75738,6394
7,76150,5821
7,76563,5445
7,76975,6247
7,77387,5763
7,77798,5542
7,78212,5292
7,78623,5376
7,79035,5746
7,79448,5450
7,79860,5557
7,80272,5483
7,80685,6563
7,81097,5368
7,81508,5889
7,81922,5117
7,82333,5193
7,82745,4668
7,83158,5460
7,83570,5474
7,83982,5245
7,84395,5164
7,84807,5908
7,85218,5511
7,85632,5203
7,86043,4789
7,86455,4751
7,86867,5444
7,87280,4881
7,87692,4575
7,88103,5269
7,88517,5068
7,88928,5203
7,89340,6437
7,89753,4881
7,90165,5149
7,90577,5646
7,90990,5207
7,91402,4961
7,91813,4741
7,92227,5795
7,92638,5697
7,93050,5391
7,93463,5436
7,93875,5046
7,94287,4841
7,94700,5759
7,95112,5404
7,95523,4983
7,95935,5826
7,96348,5813
7,96760,6211
7,97172,5697
7,97585,5328
7,97997,5360
7,98408,5612
7,98822,5342
7,99233,4913
7,99645,5746
8,00058,5452
8,00470,4770
8,00882,5125
8,01295,5180
8,01707,4730
8,02118,4865
8,02532,4809
8,02943,5010
8,03355,5007
8,03768,4132
8,04180,4966
8,04592,4850
8,05003,4455
8,05417,5295
8,05828,4923
8,06240,4234
8,06653,4691
8,07065,4594
8,07477,4868
8,07890,5052
8,08302,4736
8,08713,4478
8,09127,4677
8,09538,5012
8,09950,5105
8,10363,5330
8,10775,5367
8,11187,4790
8,11600,3989
8,12012,4388
8,12423,4925
8,12837,4652
8,13248,4857
8,13660,3874
8,14072,4700
8,14485,4822
8,14897,4317
8,15308,4405
8,15722,4855
8,16133,4743
8,16545,4580
8,16958,4797
8,17370,5038
8,17782,4476
8,18195,4024
8,18607,4976
8,19018,4315
8,19432,4667
8,19843,4095
8,20255,4368
8,20668,4705
8,21080,4839
8,21492,4531
8,21905,4910
8,22317,4495
8,22728,4210
8,23140,4292
8,23553,3718
8,23965,4963
8,24377,3763
8,24790,4480
8,25202,4360
8,25613,4716
8,26027,4163
8,26438,4432
8,26850,4617
8,27263,4329
8,27675,4200
8,28087,4569
8,28500,4795
8,28912,4875
8,29323,5366
8,29737,4535
8,30148,4955
8,30560,4674
8,30973,4592
8,31385,4039
8,31797,4441
8,32208,4344
8,32622,4116
8,33033,4002
8,33445,4008
8,33858,4411
8,34270,4375
8,34682,5268
8,35095,4070
8,35507,4300
8,35918,3645
8,36332,4259
8,36743,3758
8,37155,4577
8,37568,4197
8,37980,4260
8,38392,4517
8,38805,4596
8,39217,4150
8,39628,4137
8,40042,4299
8,40453,4501
8,40865,3576
8,41277,4437
8,41690,4254
8,42102,4261
8,42513,4055
8,42927,3965
8,43338,4634
8,43750,4449
8,44163,4224
8,44575,5024
8,44987,4792
8,45400,5308
8,45812,5449
8,46223,5169
8,46637,6131
8,47048,6103
8,47460,6403
8,47873,5955
8,48285,5598
8,48697,4940
8,49110,4854
8,49522,5196
8,49933,4212
8,50345,5008
8,50758,4326
8,51170,4123
8,51582,4664
8,51995,4114
8,52407,4169
8,52818,4041
8,53232,4343
8,53643,4357
8,54055,3632
8,54468,4255
8,54880,3978
8,55292,3884
8,55705,4158
8,56117,4084
8,56528,3955
8,56942,3803
8,57353,3781
8,57765,4186
8,58178,3665
8,58590,3971
8,59002,3972
8,59413,4485
8,59827,4070
8,60238,4452
8,60650,3872
8,61063,3768
8,61475,3969
8,61887,3745
8,62300,4208
8,62712,3847
8,63123,3512
8,63537,3918
8,63948,3617
8,64360,4036
8,64773,3639
8,65185,3858
8,65597,3646
8,66010,3622
8,66422,3789
8,66833,4518
8,67247,4655
8,67658,4538
8,68070,3890
8,68482,3659
8,68895,3650
8,69307,3376
8,69718,4032
8,70132,4011
8,70543,3847
8,70955,3898
8,71368,3563
8,71780,4148
8,72192,3845
8,72605,3329
8,73017,2946
8,73428,3698
8,73842,3768
8,74253,3458
8,74665,3597
8,75078,3659
8,75490,3575
8,75902,3925
8,76315,4097
8,76727,3130
8,77138,3678
8,77550,4043
8,77963,3312
8,78375,3488
8,78787,3768
8,79200,3467
8,79612,3364
8,80023,3305
8,80437,3945
8,80848,3522
8,81260,3500
8,81673,3520
8,82085,4046
8,82497,3594
8,82910,3861
8,83322,3651
8,83733,3887
8,84147,3462
8,84558,3432
8,84970,3595
8,85383,3065
8,85795,3415
8,86207,3595
8,86618,3582
8,87032,4575
8,87443,5556
8,87855,7965
8,88268,13549
8,88680,21808
8,89092,36905
8,89505,53368
8,89917,83446
8,90328,113505
8,90742,143388
8,91153,169169
8,91565,195240
8,91978,206137
8,92390,212661
8,92802,203055
8,93215,190661
8,93627,168843
8,94038,144548
8,94452,119771
8,94863,99051
8,95275,83079
8,95687,65164
8,96100,52540
8,96512,41272
8,96923,32260
8,97337,27414
8,97748,22883
8,98160,19458
8,98573,16805
8,98985,13936
8,99397,12079
8,99810,10778
9,00222,9934
9,00633,9958
9,01047,9035
9,01458,8654
9,01870,7053
9,02283,7072
9,02695,6887
9,03107,6733
9,03520,6444
9,03932,5866
9,04343,5377
9,04755,5711
9,05168,4740
9,05580,5490
9,05992,5231
9,06405,4798
9,06817,4014
9,07228,4546
9,07642,4078
9,08053,4547
9,08465,3732
9,08878,3751
9,09290,5236
9,09702,4351
9,10115,3439
9,10527,4234
9,10938,3237
9,11352,3649
9,11763,3641
9,12175,3386
9,12588,3793
9,13000,3283
9,13412,3831
9,13823,3645
9,14237,3313
9,14648,3189
9,15060,3998
9,15473,3701
9,15885,4005
9,16297,3424
9,16710,3498
9,17122,3794
9,17533,3832
9,17947,3694
9,18358,3502
9,18770,3398
9,19183,3243
9,19595,3560
9,20007,3655
9,20420,3061
9,20832,3167
9,21243,3544
9,21657,3314
9,22068,3477
9,22480,3179
9,22892,3299
9,23305,2868
9,23717,3025
9,24128,3475
9,24542,3451
9,24953,3349
9,25365,3731
9,25778,3028
9,26190,3285
9,26602,3186
9,27015,3320
9,27427,2903
9,27838,3568
9,28252,2930
9,28663,3268
9,29075,2729
9,29488,2619
9,29900,3377
9,30312,2538
9,30725,3126
9,31137,3250
9,31548,3031
9,31962,2940
9,32373,2994
9,32785,3390
9,33197,3329
9,33610,3094
9,34022,3490
9,34433,2998
9,34847,2992
9,35258,2565
9,35670,2784
9,36083,3157
9,36495,2971
9,36907,3439
9,37320,3415
9,37732,3279
9,38143,3297
9,38557,2987
9,38968,3806
9,39380,4165
9,39793,5522
9,40205,6124
9,40617,6689
9,41030,8862
9,41442,8319
9,41853,7608
9,42265,6687
9,42678,5371
9,43090,5352
9,43502,4547
9,43915,3418
9,44327,3513
9,44738,3418
9,45152,3050
9,45563,2852
9,45975,2693
9,46388,3258
9,46800,2942
9,47212,3396
9,47625,2625
9,48037,3448
9,48448,2222
9,48862,2660
9,49273,2906
9,49685,3129
9,50098,2975
9,50510,3471
9,50922,2584
9,51333,3563
9,51747,2898
9,52158,3042
9,52570,2739
9,52983,3162
9,53395,2890
9,53807,2715
9,54220,2730
9,54632,2992
9,55043,3294
9,55457,2742
9,55868,3191
9,56280,3226
9,56693,3363
9,57105,3112
9,57517,2865
9,57930,2908
9,58342,3657
9,58753,3043
9,59167,3090
9,59578,3519
9,59990,2925
9,60402,2722
9,60815,2961
9,61227,2676
9,61638,2964
9,62052,3040
9,62463,3125
9,62875,2835
9,63288,3064
9,63700,2749
9,64112,3255
9,64525,3052
9,64937,2960
9,65348,2652
9,65762,2781
9,66173,2370
9,66585,2530
9,66998,2613
9,67410,3805
9,67822,3138
9,68235,2548
9,68647,2877
9,69058,2715
9,69470,2551
9,69883,3461
9,70295,2713
9,70707,2931
9,71120,2842
9,71532,3070
9,71943,2717
9,72357,2282
9,72768,2814
9,73180,2862
9,73593,2622
9,74005,2630
9,74417,2657
9,74830,3140
9,75242,2954
9,75653,2846
9,76067,2693
9,76478,2447
9,76890,2713
9,77303,2967
9,77715,2330
9,78127,2411
9,78538,2553
9,78952,2263
9,79363,2443
9,79775,2803
9,80188,2820
9,80600,2567
9,81012,3234
9,81425,2912
9,81837,2718
9,82248,3057
9,82662,3153
9,83073,3815
9,83485,3421
9,83898,3617
9,84310,3251
9,84722,3110
9,85135,2874
9,85547,2845
9,85958,2703
9,86372,3032
9,86783,3194
9,87195,2787
9,87607,2967
9,88020,3300
9,88432,3377
9,88843,3483
9,89257,3602
9,89668,3737
9,90080,4235
9,90493,3352
9,90905,3384
9,91317,2916
9,91730,3203
9,92142,3321
9,92553,2640
9,92967,3010
9,93378,2963
9,93790,2442
9,94203,2423
9,94615,3732
9,95027,3328
9,95440,3413
9,95852,3574
9,96263,3986
9,96675,4149
9,97088,5976
9,97500,5658
9,97912,6684
9,98325,6832
9,98737,7010
9,99148,6572
9,99562,5848
9,99973,6153
10,00385,5234
10,00798,4597
10,01210,4068
10,01622,4303
10,02035,3575
10,02447,3158
10,02858,3137
10,03272,3372
10,03683,3219
10,04095,3128
10,04508,2871
10,04920,2589
10,05332,2473
10,05743,2830
10,06157,2664
10,06568,2860
10,06980,3063
10,07393,2784
10,07805,3173
10,08217,2784
10,08630,2929
10,09042,2574
10,09453,2384
10,09867,2549
10,10278,2682
10,10690,2372
10,11103,1940
10,11515,2396
10,11927,3749
10,12340,3228
10,12752,3365
10,13163,3115
10,13577,3869
10,13988,3756
10,14400,3237
10,14812,2560
10,15225,3380
10,15637,3080
10,16048,2742
10,16462,2594
10,16873,3016
10,17285,2901
10,17698,2598
10,18110,2364
10,18522,2565
10,18935,2226
10,19347,2342
10,19758,2296
10,20172,2563
10,20583,2182
10,20995,2973
10,21408,2455
10,21820,3121
10,22232,1984
10,22645,2585
10,23057,2878
10,23468,2430
10,23880,2888
10,24293,2544
10,24705,2769
10,25117,2795
10,25530,2973
10,25942,2400
10,26353,2790
10,26767,2408
10,27178,2432
10,27590,2302
10,28003,2774
10,28415,2571
10,28827,2271
10,29240,2482
10,29652,2334
10,30063,3015
10,30477,2331
10,30888,2562
10,31300,2111
10,31713,2800
10,32125,2225
10,32537,2735
10,32948,3095
10,33362,2570
10,33773,2642
10,34185,2524
10,34598,2948
10,35010,3105
10,35422,2583
10,35835,2402
10,36247,2429
10,36658,2449
10,37072,2220
10,37483,2401
10,37895,2227
10,38308,2048
10,38720,2566
10,39132,2223
10,39545,2175
10,39957,2043
10,40368,2429
10,40782,2323
10,41193,2499
10,41605,2341
10,42017,2333
10,42430,2286
10,42842,2168
10,43253,2388
10,43667,2655
10,44078,2167
10,44490,2918
10,44903,2248
10,45315,2393
10,45727,2505
10,46140,2799
10,46552,3138
10,46963,3344
10,47377,3229
10,47788,3518
10,48200,3840
10,48613,3337
10,49025,3494
10,49437,3082
10,49850,3765
10,50262,3421
10,50673,3608
10,51085,3291
10,51498,3436
10,51910,2528
10,52322,3659
10,52735,2544
10,53147,3069
10,53558,2913
10,53972,2613
10,54383,2089
10,54795,1933
10,55208,2135
10,55620,2292
10,56032,2158
10,56445,2164
10,56857,2449
10,57268,2255
10,57682,2651
10,58093,2694
10,58505,2654
10,58918,2815
10,59330,2629
10,59742,2963
10,60153,2204
10,60567,2737
10,60978,2201
10,61390,2759
10,61803,2201
10,62215,2293
10,62627,2371
10,63040,2356
10,63452,2404
10,63863,2268
10,64277,2387
10,64688,2534
10,65100,2115
10,65513,2181
10,65925,1939
10,66337,2589
10,66750,2482
10,67162,1736
10,67573,2001
10,67987,2477
10,68398,2384
10,68810,2014
10,69222,2094
10,69635,2625
10,70047,2577
10,70458,2332
10,70872,2177
10,71283,2374
10,71695,2878
10,72108,2503
10,72520,2699
10,72932,2274
10,73345,2655
10,73757,2566
10,74168,2740
10,74582,3197
10,74993,3029
10,75405,3095
10,75818,3546
10,76230,4140
10,76642,3763
10,77055,4007
10,77467,3133
10,77878,3521
10,78290,3844
10,78703,3138
10,79115,3459
10,79527,3596
10,79940,5838
10,80352,9794
10,80763,18508
10,81177,39766
10,81588,76796
10,82000,147217
10,82413,253924
10,82825,383935
10,83237,551774
10,83650,730456
10,84062,899771
10,84473,1007806
10,84887,1062212
10,85298,1030303
10,85710,940466
10,86123,809245
10,86535,658343
10,86947,521392
10,87360,397230
10,87772,299240
10,88183,228505
10,88595,177590
10,89008,134135
10,89420,106264
10,89832,86272
10,90245,69507
10,90657,57854
10,91068,47285
10,91482,43024
10,91893,35275
10,92305,31321
10,92718,26890
10,93130,23635
10,93542,22491
10,93955,19340
10,94367,18100
10,94778,17742
10,95192,14867
10,95603,14026
10,96015,12457
10,96428,12128
10,96840,11631
10,97252,9863
10,97663,10118
10,98077,9451
10,98488,8370
10,98900,8140
10,99313,6997
10,99725,7711
11,00137,7404
11,00550,6632
11,00962,5977
11,01373,6468
11,01787,5403
11,02198,6049
11,02610,4909
11,03023,4432
11,03435,5244
11,03847,4848
11,04260,4721
11,04672,4413
11,05083,4906
11,05497,4874
11,05908,3885
11,06320,4415
11,06732,3966
11,07145,3683
11,07557,4777
11,07968,4487
11,08382,3921
11,08793,4308
11,09205,4769
11,09618,4563
11,10030,4295
11,10442,4895
11,10855,4341
11,11267,4540
11,11678,3556
11,12092,3758
11,12503,3375
11,12915,3501
11,13328,3168
11,13740,3045
11,14152,2912
11,14565,3282
11,14977,3305
11,15388,3554
11,15800,2790
11,16213,2924
11,16625,2880
11,17037,2736
11,17450,2745
11,17862,3125
11,18273,2702
11,18687,2849
11,19098,2335
11,19510,2947
11,19923,2136
11,20335,3508
11,20747,2574
11,21160,2890
11,21572,2417
11,21983,2971
11,22397,2957
11,22808,2917
11,23220,2718
11,23633,2699
11,24045,2793
11,24457,3424
11,24868,2775
11,25282,3390
11,25693,2641
11,26105,2919
11,26518,3460
11,26930,2809
11,27342,2678
11,27755,3169
11,28167,4604
11,28578,4233
11,28992,6833
11,29403,6695
11,29815,6941
11,30228,7049
11,30640,5728
11,31052,4239
11,31465,4065
11,31877,3217
11,32288,3219
11,32702,2965
11,33113,2960
11,33525,2696
11,33937,2392
11,34350,2339
11,34762,2315
11,35173,2550
11,35587,3099
11,35998,2003
11,36410,2367
11,36823,2396
11,37235,2287
11,37647,2299
11,38060,2909
11,38472,2513
11,38883,2095
11,39297,1787
11,39708,2014
11,40120,2153
11,40533,1917
11,40945,2027
11,41357,2244
11,41770,1678
11,42182,1919
11,42593,1817
11,43005,2256
11,43418,1915
11,43830,2119
11,44242,2738
11,44655,2240
11,45067,3021
11,45478,2955
11,45892,2867
11,46303,2627
11,46715,2759
11,47128,2315
11,47540,2478
11,47952,2159
11,48365,2441
11,48777,2463
11,49188,2050
11,49602,2614
11,50013,2544
11,50425,2436
11,50838,2976
11,51250,2454
11,51662,2313
11,52073,2008
11,52487,2812
11,52898,2862
11,53310,2761
11,53723,2650
11,54135,2871
11,54547,2557
11,54960,2189
11,55372,3206
11,55783,2095
11,56197,1769
11,56608,2411
11,57020,2854
11,57433,2797
11,57845,2264
11,58257,2637
11,58670,2368
11,59082,2557
11,59493,1886
11,59907,1839
11,60318,2113
11,60730,1908
11,61142,2050
11,61555,2042
11,61967,1960
11,62378,1558
11,62792,1533
11,63203,1715
11,63615,1846
11,64028,2135
11,64440,1688
11,64852,2431
11,65265,2181
11,65677,2389
11,66088,2229
11,66502,2017
11,66913,2494
11,67325,2396
11,67738,1749
11,68150,1956
11,68562,2025
11,68975,2212
11,69387,1964
11,69798,1754
11,70210,2039
11,70623,1968
11,71035,1935
11,71447,2219
11,71860,2308
11,72272,3965
11,72683,6587
11,73097,17024
11,73508,35796
11,73920,72107
11,74333,130774
11,74745,217496
11,75157,324615
11,75570,440308
11,75982,544700
11,76393,627066
11,76807,660619
11,77218,641521
11,77630,591705
11,78043,500747
11,78455,410995
11,78867,322967
11,79278,249525
11,79692,188934
11,80103,142389
11,80515,109024
11,80928,82491
11,81340,65740
11,81752,52596
11,82165,42576
11,82577,35961
11,82988,30773
11,83402,25257
11,83813,21634
11,84225,20499
11,84638,18395
11,85050,14471
11,85462,14268
11,85875,13093
11,86287,12440
11,86698,10303
11,87112,9656
11,87523,8647
11,87935,8196
11,88347,7869
11,88760,7638
11,89172,6967
11,89583,5695
11,89997,5582
11,90408,5219
11,90820,5323
11,91233,5315
11,91645,4748
11,92057,5727
11,92470,4560
11,92882,4756
11,93293,4546
11,93707,4177
11,94118,3929
11,94530,3332
11,94943,3916
11,95355,3968
11,95767,3592
11,96180,3141
11,96592,3165
11,97003,3738
11,97415,3115
11,97828,2565
11,98240,2500
11,98652,3102
11,99065,2503
11,99477,2650
11,99888,2079
12,00302,3127
12,00713,2113
12,01125,2407
12,01538,2264
12,01950,2300
12,02362,2371
12,02775,2865
12,03187,2393
12,03598,2748
12,04012,2438
12,04423,1868
12,04835,2149
12,05248,2322
12,05660,2504
12,06072,2317
12,06483,2415
12,06897,2083
12,07308,2347
12,07720,2674
12,08133,2230
12,08545,2905
12,08957,2411
12,09370,3562
12,09782,3320
12,10193,3433
12,10607,4592
12,11018,4543
12,11430,4652
12,11843,3720
12,12255,3773
12,12667,3571
12,13080,2900
12,13492,3076
12,13903,2215
12,14317,2293
12,14728,2250
12,15140,2793
12,15552,1885
12,15965,2017
12,16377,1737
12,16788,1857
12,17202,1648
12,17613,1807
12,18025,2297
12,18438,1664
12,18850,2232
12,19262,2457
12,19675,1737
12,20087,2124
12,20498,2011
12,20912,1785
12,21323,1729
12,21735,1626
12,22148,1817
12,22560,1572
12,22972,1859
12,23385,1617
12,23797,1982
12,24208,1742
12,24620,1507
12,25033,1682
12,25445,1213
12,25857,1724
12,26270,1413
12,26682,1523
12,27093,2468
12,27507,1419
12,27918,2080
12,28330,2239
12,28743,1809
12,29155,2367
12,29567,1690
12,29980,2181
12,30392,2102
12,30803,1965
12,31217,1304
12,31628,2441
12,32040,1881
12,32453,1589
12,32865,1803
12,33277,1218
12,33688,1549
12,34102,1587
12,34513,1734
12,34925,1761
12,35338,1369
12,35750,2044
12,36162,1321
12,36575,1907
12,36987,1457
12,37398,1503
12,37812,1489
12,38223,1911
12,38635,2185
12,39048,1512
12,39460,1800
12,39872,1915
12,40285,1627
12,40697,1578
12,41108,1362
12,41522,1192
12,41933,1513
12,42345,1649
12,42757,1738
12,43170,1817
12,43582,2378
12,43993,1613
12,44407,1965
12,44818,1921
12,45230,2069
12,45643,1727
12,46055,2234
12,46467,1816
12,46880,2794
12,47292,2486
12,47703,2025
12,48117,1921
12,48528,2369
12,48940,2232
12,49353,1937
12,49765,1555
12,50177,2082
12,50590,2991
12,51002,3043
12,51413,3024
12,51827,2799
12,52238,2548
12,52650,2829
12,53062,3019
12,53475,2633
12,53887,2445
12,54298,2304
12,54712,2446
12,55123,2264
12,55535,1349
12,55948,2307
12,56360,1770
12,56772,1839
12,57185,2549
12,57597,1921
12,58008,1514
12,58422,1328
12,58833,1809
12,59245,2691
12,59658,2624
12,60070,4085
12,60482,9490
12,60895,24587
12,61307,55390
12,61718,115608
12,62130,226485
12,62543,396171
12,62955,619905
12,63367,882323
12,63780,1158758
12,64192,1390109
12,64603,1531125
12,65017,1529910
12,65428,1443250
12,65840,1260096
12,66253,1027516
12,66665,796810
12,67077,587397
12,67490,436094
12,67902,312172
12,68313,231559
12,68727,172104
12,69138,135383
12,69550,102404
12,69963,84150
12,70375,69340
12,70787,53874
12,71198,46724
12,71612,40714
12,72023,35092
12,72435,29077
12,72848,27102
12,73260,23312
12,73672,21049
12,74085,19029
12,74497,18509
12,74908,15636
12,75322,14800
12,75733,13223
12,76145,12358
12,76558,11795
12,76970,10317
12,77382,10066
12,77795,9041
12,78207,9295
12,78618,8555
12,79032,7553
12,79443,6187
12,79855,7294
12,80267,6829
12,80680,6575
12,81092,7050
12,81503,6328
12,81917,6335
12,82328,5806
12,82740,6262
12,83153,5207
12,83565,5501
12,83977,5111
12,84390,3998
12,84802,4576
12,85213,3719
12,85627,3981
12,86038,4014
12,86450,4329
12,86863,4476
12,87275,2804
12,87687,3479
12,88100,3136
12,88512,3175
12,88923,2804
12,89335,2781
12,89748,2340
12,90160,2776
12,90572,3013
12,90985,3110
12,91397,2622
12,91808,3273
12,92222,3176
12,92633,2363
12,93045,2986
12,93458,2057
12,93870,3093
12,94282,2168
12,94695,2884
12,95107,2248
12,95518,2264
12,95932,2558
12,96343,2684
12,96755,2198
12,97168,1282
12,97580,2320
12,97992,2987
12,98403,2504
12,98817,2870
12,99228,3429
12,99640,3858
13,00053,6013
13,00465,5928
13,00877,6037
13,01290,5113
13,01702,3685
13,02113,2854
13,02527,2498
13,02938,2232
13,03350,2673
13,03763,2663
13,04175,2752
13,04587,2221
13,05000,2209
13,05412,2520
13,05823,2931
13,06237,3692
13,06648,3445
13,07060,3221
13,07472,4209
13,07885,4469
13,08297,4157
13,08708,3698
13,09122,3234
13,09533,3408
13,09945,3994
13,10358,4843
13,10770,5828
13,11182,6977
13,11595,9448
13,12007,10029
13,12418,13073
13,12832,13780
13,13243,15755
13,13655,14568
13,14068,14094
13,14480,12330
13,14892,11205
13,15305,10071
13,15717,7405
13,16128,6562
13,16540,5424
13,16953,5074
13,17365,3547
13,17777,3530
13,18190,3304
13,18602,2750
13,19013,2464
13,19427,2977
13,19838,2068
13,20250,1877
13,20663,2659
13,21075,2070
13,21487,2444
13,21900,1766
13,22312,1714
13,22723,2180
13,23137,1657
13,23548,1913
13,23960,1946
13,24373,1770
13,24785,1299
13,25197,2060
13,25608,1522
13,26022,1673
13,26433,1580
13,26845,1998
13,27258,1027
13,27670,1508
13,28082,1739
13,28495,1960
13,28907,1240
13,29318,1333
13,29732,1314
13,30143,1704
13,30555,1728
13,30968,1829
13,31380,1683
13,31792,1315
13,32205,1337
13,32617,1888
13,33028,2399
13,33442,1566
13,33853,1555
13,34265,1611
13,34677,1754
13,35090,1742
13,35502,1976
13,35913,1750
13,36327,1885
13,36738,1722
13,37150,1960
13,37563,1666
13,37975,1325
13,38387,1684
13,38800,1680
13,39212,1303
13,39623,1342
13,40037,1872
13,40448,1792
13,40860,1205
13,41273,1389
13,41685,1504
13,42097,1647
13,42510,1523
13,42922,1282
13,43333,1866
13,43745,3099
13,44158,5517
13,44570,14404
13,44982,32349
13,45395,71028
13,45807,136907
13,46218,241630
13,46632,382107
13,47043,544065
13,47455,688494
13,47868,809644
13,48280,866332
13,48692,842716
13,49105,746099
13,49517,630777
13,49928,496022
13,50342,379276
13,50753,274729
13,51165,198238
13,51578,143051
13,51990,107810
13,52402,82073
13,52813,61750
13,53227,47383
13,53638,39569
13,54050,32747
13,54463,26622
13,54875,23578
13,55287,21255
13,55700,17293
13,56112,15404
13,56523,12909
13,56937,12725
13,57348,10030
13,57760,9684
13,58173,8256
13,58585,7679
13,58997,6223
13,59410,6623
13,59822,7003
13,60233,5206
13,60647,5120
13,61058,3837
13,61470,4428
13,61882,4619
13,62295,3772
13,62707,4406
13,63118,3954
13,63532,3637
13,63943,3411
13,64355,3951
13,64768,3356
13,65180,3059
13,65592,2885
13,66005,2430
13,66417,2382
13,66828,2474
13,67242,2631
13,67653,2849
13,68065,3404
13,68478,3592
13,68890,3099
13,69302,3070
13,69715,3803
13,70127,4269
13,70538,4053
13,70950,3527
13,71363,4611
13,71775,3907
13,72187,4128
13,72600,4277
13,73012,4328
13,73423,4172
13,73837,3869
13,74248,4099
13,74660,3760
13,75073,3924
13,75485,3281
13,75897,4183
13,76310,3998
13,76722,3573
13,77133,4098
13,77547,3206
13,77958,2774
13,78370,2727
13,78783,2818
13,79195,2733
13,79607,2651
13,80018,2704
13,80432,2245
13,80843,2661
13,81255,1946
13,81668,2678
13,82080,2027
13,82492,2406
13,82905,1995
13,83317,2256
13,83728,2069
13,84142,2615
13,84553,2327
13,84965,2283
13,85378,2568
13,85790,2115
13,86202,2617
13,86615,2951
13,87027,3713
13,87438,4205
13,87852,4546
13,88263,4747
13,88675,5279
13,89087,4564
13,89500,4957
13,89912,3884
13,90323,2881
13,90737,3095
13,91148,2490
13,91560,2888
13,91973,2428
13,92385,2577
13,92797,1935
13,93210,1859
13,93622,1987
13,94033,2020
13,94447,1690
13,94858,1177
13,95270,1899
13,95683,2056
13,96095,1051
13,96507,1895
13,96920,1571
13,97332,1941
13,97743,2867
13,98155,3446
13,98568,3504
13,98980,4609
13,99392,4394
13,99805,4351
14,00217,5379
14,00628,4745
14,01042,4153
14,01453,3008
14,01865,2488
14,02278,2792
14,02690,2698
14,03102,2591
14,03515,2319
14,03927,2082
14,04338,2160
14,04752,2159
14,05163,1676
14,05575,2186
14,05988,1109
14,06400,1493
14,06812,1630
14,07225,1216
14,07637,1703
14,08048,1611
14,08460,1390
14,08873,1672
14,09285,1971
14,09697,2057
14,10110,2095
14,10522,2605
14,10933,2925
14,11347,1893
14,11758,1679
14,12170,2199
14,12583,1122
14,12995,2037
14,13407,1828
14,13820,2106
14,14232,1847
14,14643,1061
14,15057,2016
14,15468,1306
14,15880,1266
14,16293,1018
14,16705,1473
14,17117,956
14,17528,1226
14,17942,1595
14,18353,1653
14,18765,1528
14,19178,1794
14,19590,1836
14,20002,2271
14,20415,2231
14,20827,2627
14,21238,2579
14,21652,1856
14,22063,1950
14,22475,1487
14,22888,2023
14,23300,4050
14,23712,7841
14,24125,20080
14,24537,50474
14,24948,111031
14,25362,229324
14,25773,419018
14,26185,683615
14,26597,996724
14,27010,1344645
14,27422,1665948
14,27833,1851863
14,28247,1894240
14,28658,1775320
14,29070,1542459
14,29483,1226155
14,29895,928024
14,30307,667020
14,30720,478742
14,31132,341578
14,31543,250837
14,31957,182804
14,32368,139363
14,32780,108239
14,33193,85959
14,33605,68769
14,34017,59467
14,34430,45698
14,34842,42904
14,35253,34895
14,35665,31698
14,36078,27182
14,36490,24602
14,36902,22041
14,37315,20393
14,37727,17760
14,38138,17414
14,38552,14894
14,38963,13556
14,39375,13594
14,39788,12099
14,40200,11965
14,40612,10902
14,41025,10017
14,41437,10019
14,41848,10471
14,42262,10382
14,42673,11305
14,43085,12117
14,43498,13264
14,43910,14172
14,44322,14321
14,44733,14475
14,45147,13862
14,45558,11621
14,45970,11513
14,46383,9295
14,46795,8990
14,47207,6312
14,47620,6696
14,48032,6196
14,48443,5523
14,48857,4373
14,49268,3719
14,49680,3909
14,50093,3817
14,50505,3555
14,50917,2684
14,51330,3289
14,51742,2270
14,52153,3693
14,52567,3534
14,52978,3857
14,53390,4930
14,53802,6750
14,54215,7029
14,54627,6433
14,55038,5332
14,55452,3532
14,55863,3822
14,56275,2663
14,56688,2731
14,57100,3027
14,57512,2623
14,57925,2669
14,58337,1546
14,58748,2421
14,59162,2361
14,59573,2302
14,59985,3521
14,60398,2501
14,60810,1915
14,61222,2755
14,61635,2228
14,62047,2031
14,62458,2254
14,62870,2599
14,63283,2687
14,63695,2954
14,64107,2424
14,64520,2550
14,64932,3704
14,65343,4172
14,65757,5534
14,66168,5584
14,66580,3716
14,66993,3058
14,67405,2923
14,67817,2571
14,68230,2854
14,68642,2639
14,69053,2065
14,69467,2000
14,69878,1478
14,70290,1527
14,70703,1266
14,71115,1297
14,71527,1807
14,71938,1313
14,72352,1322
14,72763,1588
14,73175,1210
14,73588,1611
14,74000,1797
14,74412,1095
14,74825,1743
14,75237,1974
14,75648,1407
14,76062,856
14,76473,1457
14,76885,1453
14,77298,1411
14,77710,2013
14,78122,3424
14,78535,9976
14,78947,25815
14,79358,53964
14,79772,111960
14,80183,202536
14,80595,328597
14,81007,486719
14,81420,644229
14,81832,779437
14,82243,856911
14,82657,868950
14,83068,806769
14,83480,687448
14,83893,547783
14,84305,428714
14,84717,320594
14,85130,231814
14,85542,166880
14,85953,121355
14,86367,90203
14,86778,67285
14,87190,53367
14,87603,44617
14,88015,35970
14,88427,29177
14,88840,26082
14,89252,21327
14,89663,19303
14,90075,17243
14,90488,14607
14,90900,14103
14,91312,11962
14,91725,11330
14,92137,8911
14,92548,8966
14,92962,8311
14,93373,7041
14,93785,7242
14,94198,6556
14,94610,5663
14,95022,5141
14,95435,5526
14,95847,4935
14,96258,3941
14,96672,3468
14,97083,3876
14,97495,3493
14,97908,2545
14,98320,3152
14,98732,3557
14,99143,5511
14,99557,9563
14,99968,20574
15,00380,43318
15,00793,90132
15,01205,171740
15,01617,286091
15,02030,453142
15,02442,641489
15,02853,815748
15,03267,956669
15,03678,997391
15,04090,943159
15,04503,823718
15,04915,667588
15,05327,511101
15,05740,372501
15,06152,261964
15,06563,186013
15,06977,136629
15,07388,102178
15,07800,76866
15,08212,59573
15,08625,47544
15,09037,36683
15,09448,33100
15,09862,26961
15,10273,23326
15,10685,20215
15,11098,18954
15,11510,16135
15,11922,14121
15,12335,12806
15,12747,11226
15,13158,10942
15,13572,7895
15,13983,8618
15,14395,8007
15,14808,8609
15,15220,7565
15,15632,7275
15,16045,6270
15,16457,5809
15,16868,4896
15,17280,4683
15,17693,4547
15,18105,5049
15,18517,4246
15,18930,5046
15,19342,4713
15,19753,3025
15,20167,4209
15,20578,4670
15,20990,4003
15,21403,2852
15,21815,3690
15,22227,3984
15,22640,3377
15,23052,3589
15,23463,3090
15,23877,3089
15,24288,2964
15,24700,2551
15,25113,2702
15,25525,2375
15,25937,3154
15,26348,1990
15,26762,2272
15,27173,2378
15,27585,2173
15,27998,2220
15,28410,2635
15,28822,2855
15,29235,2941
15,29647,2376
15,30058,2560
15,30472,1635
15,30883,2500
15,31295,2249
15,31708,2385
15,32120,2533
15,32532,1920
15,32945,2291
15,33357,1756
15,33768,2903
15,34182,2374
15,34593,2040
15,35005,1549
15,35417,2371
15,35830,2429
15,36242,1710
15,36653,1960
15,37067,2239
15,37478,2310
15,37890,2485
15,38303,2013
15,38715,2727
15,39127,2812
15,39540,3019
15,39952,3763
15,40363,3007
15,40777,3674
15,41188,3224
15,41600,3045
15,42013,2650
15,42425,3245
15,42837,2882
15,43250,2012
15,43662,2199
15,44073,2073
15,44485,1907
15,44898,2204
15,45310,1945
15,45722,2069
15,46135,2128
15,46547,1858
15,46958,2313
15,47372,2514
15,47783,1968
15,48195,1874
15,48608,2540
15,49020,1846
15,49432,2075
15,49845,1946
15,50257,2004
15,50668,2479
15,51082,1631
15,51493,2789
15,51905,2380
15,52318,4300
15,52730,9360
15,53142,24624
15,53553,52781
15,53967,106171
15,54378,199478
15,54790,326248
15,55203,497519
15,55615,666830
15,56027,814460
15,56440,903081
15,56852,926392
15,57263,870222
15,57677,741732
15,58088,597329
15,58500,454328
15,58913,334038
15,59325,241573
15,59737,172331
15,60150,127769
15,60562,94918
15,60973,71412
15,61387,54298
15,61798,43960
15,62210,36051
15,62622,30876
15,63035,27370
15,63447,22187
15,63858,19379
15,64272,16782
15,64683,16528
15,65095,12385
15,65508,11695
15,65920,10757
15,66332,9650
15,66745,9888
15,67157,8291
15,67568,7230
15,67982,7448
15,68393,7972
15,68805,8793
15,69218,7712
15,69630,7085
15,70042,6662
15,70455,5649
15,70867,5811
15,71278,8154
15,71692,13785
15,72103,26789
15,72515,58732
15,72927,123962
15,73340,257871
15,73752,475583
15,74163,799721
15,74577,1224714
15,74988,1728420
15,75400,2262492
15,75813,2733505
15,76225,3059171
15,76637,3095749
15,77050,2864586
15,77462,2417404
15,77873,1900986
15,78287,1369093
15,78698,961922
15,79110,669467
15,79523,466889
15,79935,339715
15,80347,251575
15,80760,193664
15,81172,151743
15,81583,122192
15,81995,100532
15,82408,85420
15,82820,72610
15,83232,62400
15,83645,54303
15,84057,47782
15,84468,43443
15,84882,37824
15,85293,35868
15,85705,32936
15,86118,31745
15,86530,27670
15,86942,26209
15,87355,24300
15,87767,21440
15,88178,21256
15,88592,18894
15,89003,18676
15,89415,16929
15,89828,15251
15,90240,14885
15,90652,13114
15,91063,11997
15,91477,11619
15,91888,11369
15,92300,10386
15,92713,9691
15,93125,10210
15,93537,9137
15,93950,9347
15,94362,8603
15,94773,8761
15,95187,8217
15,95598,6912
15,96010,8125
15,96423,6725
15,96835,7923
15,97247,9265
15,97660,9859
15,98072,11814
15,98483,9750
15,98897,8740
15,99308,8687
15,99720,6657
16,00132,5505
16,00545,5499
16,00957,6039
16,01368,4974
16,01782,5950
16,02193,5678
16,02605,6433
16,03018,5891
16,03430,5512
16,03842,6284
16,04255,5944
16,04667,5025
16,05078,4218
16,05492,5391
16,05903,3640
16,06315,3693
16,06728,4126
16,07140,3264
16,07552,2893
16,07965,3329
16,08377,3190
16,08788,2626
16,09200,3540
16,09613,3442
16,10025,4766
16,10437,3350
16,10850,5153
16,11262,4066
16,11673,5605
16,12087,5131
16,12498,4974
16,12910,3656
16,13323,5171
16,13735,5051
16,14147,8411
16,14560,16120
16,14972,36075
16,15383,79868
16,15797,153875
16,16208,268387
16,16620,429681
16,17033,604380
16,17445,776973
16,17857,899914
16,18268,945466
16,18682,915677
16,19093,817197
16,19505,682871
16,19918,539820
16,20330,396076
16,20742,288005
16,21155,203952
16,21567,148748
16,21978,112826
16,22392,84793
16,22803,64160
16,23215,52957
16,23628,43420
16,24040,36048
16,24452,33357
16,24865,29346
16,25277,25850
16,25688,24039
16,26102,25096
16,26513,24243
16,26925,25491
16,27337,25412
16,27750,26915
16,28162,27131
16,28573,26810
16,28987,29330
16,29398,27910
16,29810,26585
16,30223,24240
16,30635,21552
16,31047,20326
16,31460,16523
16,31872,12721
16,32283,11331
16,32697,10532
16,33108,9968
16,33520,7773
16,33933,7838
16,34345,7512
16,34757,6343
16,35170,7558
16,35582,5763
16,35993,5564
16,36405,5617
16,36818,3740
16,37230,5214
16,37642,4244
16,38055,4708
16,38467,3222
16,38878,4943
16,39292,4308
16,39703,4976
16,40115,6291
16,40528,7422
16,40940,16626
16,41352,37497
16,41765,76739
16,42177,151038
16,42588,268821
16,43002,443660
16,43413,645819
16,43825,859140
16,44238,1017385
16,44650,1072570
16,45062,1060861
16,45473,950229
16,45887,780189
16,46298,601953
16,46710,430650
16,47123,314741
16,47535,225886
16,47947,161899
16,48360,118403
16,48772,92237
16,49183,70624
16,49597,56280
16,50008,45315
16,50420,40760
16,50833,34178
16,51245,30381
16,51657,26842
16,52070,24723
16,52482,21663
16,52893,19984
16,53307,17167
16,53718,15814
16,54130,15454
16,54542,14248
16,54955,12153
16,55367,12976
16,55778,11638
16,56192,9194
16,56603,9040
16,57015,8732
16,57428,8706
16,57840,8017
16,58252,7411
16,58665,7535
16,59077,6996
16,59488,5781
16,59902,7356
16,60313,7419
16,60725,7377
16,61138,6876
16,61550,8468
16,61962,9496
16,62375,8883
16,62787,9440
16,63198,8341
16,63610,7142
16,64023,7048
16,64435,5592
16,64847,5590
16,65260,5238
16,65672,5826
16,66083,5029
16,66497,3978
16,66908,3337
16,67320,3450
16,67733,5081
16,68145,4158
16,68557,4312
16,68970,3965
16,69382,3820
16,69793,3618
16,70207,3932
16,70618,4482
16,71030,4001
16,71443,3331
16,71855,5131
16,72267,5010
16,72678,4489
16,73092,4850
16,73503,4565
16,73915,4468
16,74328,4328
16,74740,5765
16,75152,4869
16,75565,5089
16,75977,3910
16,76388,4212
16,76802,3165
16,77213,2810
16,77625,3835
16,78038,3521
16,78450,3791
16,78862,3895
16,79275,2840
16,79687,3580
16,80098,3190
16,80512,4132
16,80923,3103
16,81335,5126
16,81747,9491
16,82160,17436
16,82572,38829
16,82983,83274
16,83397,157263
16,83808,282704
16,84220,445849
16,84633,658183
16,85045,839819
16,85457,979704
16,85870,1020577
16,86282,996218
16,86693,878435
16,87107,731540
16,87518,564626
16,87930,423249
16,88343,300775
16,88755,219122
16,89167,160007
16,89580,119731
16,89992,90115
16,90403,72545
16,90815,58874
16,91228,49729
16,91640,41531
16,92052,35534
16,92465,30802
16,92877,26029
16,93288,23668
16,93702,20471
16,94113,19532
16,94525,18586
16,94938,16488
16,95350,15143
16,95762,14365
16,96175,12267
16,96587,12252
16,96998,12383
16,97412,10144
16,97823,10220
16,98235,9097
16,98648,9553
16,99060,9492
16,99472,8326
16,99883,8256
17,00297,8773
17,00708,7998
17,01120,7497
17,01533,8589
17,01945,8580
17,02357,7233
17,02770,7323
17,03182,7614
17,03593,6287
17,04007,7502
17,04418,7567
17,04830,6810
17,05243,6425
17,05655,6011
17,06067,6130
17,06480,9083
17,06892,13704
17,07303,26156
17,07717,59854
17,08128,118665
17,08540,229512
17,08952,407055
17,09365,664981
17,09777,1019005
17,10188,1427659
17,10602,1838559
17,11013,2182827
17,11425,2372915
17,11838,2320295
17,12250,2068888
17,12662,1701686
17,13075,1296929
17,13487,939403
17,13898,659963
17,14312,459229
17,14723,334696
17,15135,246306
17,15548,190387
17,15960,150755
17,16372,118416
17,16785,101652
17,17197,84840
17,17608,71462
17,18020,62430
17,18433,53616
17,18845,48790
17,19257,44526
17,19670,38403
17,20082,35821
17,20493,32112
17,20907,30141
17,21318,29534
17,21730,26137
17,22143,25893
17,22555,24303
17,22967,21493
17,23380,20475
17,23792,18590
17,24203,18888
17,24617,16475
17,25028,17332
17,25440,16321
17,25853,15006
17,26265,14547
17,26677,13647
17,27090,12578
17,27502,13432
17,27913,11527
17,28325,10466
17,28738,11458
17,29150,12808
17,29562,15095
17,29975,25854
17,30387,49388
17,30798,95461
17,31212,178055
17,31623,296225
17,32035,462463
17,32448,655045
17,32860,840574
17,33272,1002909
17,33685,1085507
17,34097,1062967
17,34508,969541
17,34922,803908
17,35333,644061
17,35745,480553
17,36158,354008
17,36570,262709
17,36982,195359
17,37393,144862
17,37807,108581
17,38218,85199
17,38630,72108
17,39043,58762
17,39455,50594
17,39867,43060
17,40280,37648
17,40692,34849
17,41103,32567
17,41517,38121
17,41928,56282
17,42340,94794
17,42753,177615
17,43165,311826
17,43577,538495
17,43990,843946
17,44402,1222208
17,44813,1630215
17,45227,1950851
17,45638,2152978
17,46050,2150308
17,46462,1963371
17,46875,1655665
17,47287,1296535
17,47698,969217
17,48112,693167
17,48523,500138
17,48935,363116
17,49348,270681
17,49760,204899
17,50172,163908
17,50585,128248
17,50997,109697
17,51408,87952
17,51822,79276
17,52233,69201
17,52645,59248
17,53058,55315
17,53470,50876
17,53882,42868
17,54295,41972
17,54707,37171
17,55118,34359
17,55530,31782
17,55943,28625
17,56355,27289
17,56767,25915
17,57180,25075
17,57592,23081
17,58003,21992
17,58417,20309
17,58828,19669
17,59240,19141
17,59653,16521
17,60065,17117
17,60477,16340
17,60890,14468
17,61302,15148
17,61713,13554
17,62127,13929
17,62538,12224
17,62950,13684
17,63363,12130
17,63775,11336
17,64187,10024
17,64598,10410
17,65012,10928
17,65423,11461
17,65835,10674
17,66248,12127
17,66660,14982
17,67072,27161
17,67485,50230
17,67897,102144
17,68308,191923
17,68722,329753
17,69133,510367
17,69545,706013
17,69958,878913
17,70370,987767
17,70782,993329
17,71195,919751
17,71607,784383
17,72018,630815
17,72432,483820
17,72843,353713
17,73255,259804
17,73667,191615
17,74080,144437
17,74492,110282
17,74903,90235
17,75317,69994
17,75728,57836
17,76140,49770
17,76553,42046
17,76965,36791
17,77377,33330
17,77790,29551
17,78202,27245
17,78613,24954
17,79027,21972
17,79438,22624
17,79850,20383
17,80263,18031
17,80675,18803
17,81087,15669
17,81500,14484
17,81912,15242
17,82323,14959
17,82735,14307
17,83148,13784
17,83560,13808
17,83972,16527
17,84385,15808
17,84797,14650
17,85208,15276
17,85622,14294
17,86033,14074
17,86445,15700
17,86858,14308
17,87270,12921
17,87682,13112
17,88095,13098
17,88507,13262
17,88918,12528
17,89332,12982
17,89743,10717
17,90155,9815
17,90568,10657
17,90980,10494
17,91392,10529
17,91803,8703
17,92217,9535
17,92628,9376
17,93040,9216
17,93453,11575
17,93865,14271
17,94277,26331
17,94690,53297
17,95102,97843
17,95513,179888
17,95927,307554
17,96338,476577
17,96750,651582
17,97163,813662
17,97575,914644
17,97987,939744
17,98400,887326
17,98812,764051
17,99223,614603
17,99637,476771
18,00048,356844
18,00460,258073
18,00872,188751
18,01285,142711
18,01697,106526
18,02108,88187
18,02522,68179
18,02933,58405
18,03345,51633
18,03758,42508
18,04170,40035
18,04582,33881
18,04995,29858
18,05407,27961
18,05818,29836
18,06232,25267
18,06643,23374
18,07055,24216
18,07468,20367
18,07880,21051
18,08292,17984
18,08705,17829
18,09117,16508
18,09528,16059
18,09940,15635
18,10353,14429
18,10765,13262
18,11177,13237
18,11590,13035
18,12002,12955
18,12413,12115
18,12827,12086
18,13238,11677
18,13650,12285
18,14063,11160
18,14475,11591
18,14887,11920
18,15300,11628
18,15712,12819
18,16123,12696
18,16537,13959
18,16948,13072
18,17360,14712
18,17773,14202
18,18185,14283
18,18597,12697
18,19008,12737
18,19422,12521
18,19833,13348
18,20245,12549
18,20658,10971
18,21070,11930
18,21482,10842
18,21895,11485
18,22307,10317
18,22718,8980
18,23132,9350
18,23543,9638
18,23955,9046
18,24368,10039
18,24780,8052
18,25192,7558
18,25605,9950
18,26017,7730
18,26428,7529
18,26842,7661
18,27253,8242
18,27665,7541
18,28077,7486
18,28490,7718
18,28902,7709
18,29313,9258
18,29727,8936
18,30138,14163
18,30550,23947
18,30963,48162
18,31375,104857
18,31787,214687
18,32200,413891
18,32612,721032
18,33023,1151016
18,33437,1699185
18,33848,2297084
18,34260,2842587
18,34673,3249247
18,35085,3408153
18,35497,3239106
18,35910,2794648
18,36322,2211736
18,36733,1672823
18,37145,1208323
18,37558,853902
18,37970,618099
18,38382,457830
18,38795,349712
18,39207,272295
18,39618,221015
18,40032,182261
18,40443,153617
18,40855,131870
18,41268,114165
18,41680,104273
18,42092,93590
18,42505,83307
18,42917,75157
18,43328,69274
18,43742,65713
18,44153,54898
18,44565,53593
18,44978,49100
18,45390,47152
18,45802,45048
18,46213,41423
18,46627,38932
18,47038,38566
18,47450,37459
18,47863,34644
18,48275,30415
18,48687,31077
18,49100,30749
18,49512,30060
18,49923,25575
18,50337,26763
18,50748,25978
18,51160,23968
18,51573,24260
18,51985,23608
18,52397,25426
18,52810,29866
18,53222,35127
18,53633,43318
18,54047,57685
18,54458,85984
18,54870,136923
18,55282,212504
18,55695,317220
18,56107,458458
18,56518,613770
18,56932,735182
18,57343,819329
18,57755,829403
18,58168,768408
18,58580,662809
18,58992,533140
18,59405,409086
18,59817,313151
18,60228,234956
18,60642,175867
18,61053,134112
18,61465,107503
18,61878,90123
18,62290,77379
18,62702,68892
18,63115,70786
18,63527,85308
18,63938,124047
18,64350,189183
18,64763,312433
18,65175,484084
18,65587,689143
18,66000,903851
18,66412,1062076
18,66823,1157677
18,67237,1153855
18,67648,1040242
18,68060,887903
18,68473,701204
18,68885,536391
18,69297,405698
18,69710,295976
18,70122,226104
18,70533,176960
18,70947,140874
18,71358,118758
18,71770,101488
18,72183,85105
18,72595,74883
18,73007,67740
18,73420,59026
18,73832,55911
18,74243,51428
18,74655,47332
18,75068,44140
18,75480,39715
18,75892,37691
18,76305,35567
18,76717,35534
18,77128,35299
18,77542,31202
18,77953,28606
18,78365,27588
18,78778,26652
18,79190,24516
18,79602,26174
18,80015,23986
18,80427,23886
18,80838,24686
18,81252,21854
18,81663,22991
18,82075,22404
18,82488,23963
18,82900,23745
18,83312,21944
18,83723,22459
18,84137,21888
18,84548,22805
18,84960,21170
18,85373,18854
18,85785,16685
18,86197,18447
18,86610,17723
18,87022,16529
18,87433,16066
18,87847,19039
18,88258,21469
18,88670,31602
18,89083,56477
18,89495,101128
18,89907,187881
18,90320,325749
18,90732,523075
18,91143,752618
18,91557,1006236
18,91968,1201412
18,92380,1295247
18,92792,1290498
18,93205,1170138
18,93617,969254
18,94028,756633
18,94442,558565
18,94853,410165
18,95265,313760
18,95678,238547
18,96090,182855
18,96502,150725
18,96915,127323
18,97327,104694
18,97738,90662
18,98152,80067
18,98563,73502
18,98975,64022
18,99388,60591
18,99800,53361
19,00212,48822
19,00625,47156
19,01037,40929
19,01448,43213
19,01860,39268
19,02273,40133
19,02685,36522
19,03097,36221
19,03510,34892
19,03922,33047
19,04333,32583
19,04747,30350
19,05158,29802
19,05570,29534
19,05983,30131
19,06395,26620
19,06807,26514
19,07220,27341
19,07632,26744
19,08043,24894
19,08457,24940
19,08868,25351
19,09280,22585
19,09693,22290
19,10105,22599
19,10517,20208
19,10928,20274
19,11342,20671
19,11753,20553
19,12165,22252
19,12578,26271
19,12990,41082
19,13402,68122
19,13815,125355
19,14227,213375
19,14638,352878
19,15052,522095
19,15463,703764
19,15875,864472
19,16288,957349
19,16700,974386
19,17112,914089
19,17525,794209
19,17937,652661
19,18348,510593
19,18762,383502
19,19173,292076
19,19585,216125
19,19997,169990
19,20410,135425
19,20822,110523
19,21233,89849
19,21647,77640
19,22058,69300
19,22470,60252
19,22883,56216
19,23295,51077
19,23707,46131
19,24120,43864
19,24532,40365
19,24943,39398
19,25357,35260
19,25768,32841
19,26180,32767
19,26593,34005
19,27005,30144
19,27417,30307
19,27830,28676
19,28242,26979
19,28653,24852
19,29065,25063
19,29478,24537
19,29890,25214
19,30302,22177
19,30715,23460
19,31127,22354
19,31538,20239
19,31952,21532
19,32363,20496
19,32775,20723
19,33188,21367
19,33600,20700
19,34012,17845
19,34425,17463
19,34837,18214
19,35248,17890
19,35662,16997
19,36073,17027
19,36485,18556
19,36898,15654
19,37310,17961
19,37722,16723
19,38133,16846
19,38547,18165
19,38958,16317
19,39370,16575
19,39783,16591
19,40195,18179
19,40607,17407
19,41020,17353
19,41432,18194
19,41843,17015
19,42257,15792
19,42668,16061
19,43080,17159
19,43493,16728
19,43905,17309
19,44317,19014
19,44730,17977
19,45142,22254
19,45553,28455
19,45967,40263
19,46378,69988
19,46790,123277
19,47202,211597
19,47615,352736
19,48027,559905
19,48438,845676
19,48852,1197452
19,49263,1607075
19,49675,2020104
19,50088,2440108
19,50500,2746170
19,50912,2942313
19,51325,2913668
19,51737,2741612
19,52148,2446872
19,52562,2069468
19,52973,1721107
19,53385,1394803
19,53798,1110344
19,54210,883210
19,54622,685290
19,55035,543733
19,55447,427811
19,55858,343195
19,56270,284812
19,56683,240428
19,57095,203633
19,57507,179041
19,57920,156879
19,58332,141774
19,58743,127755
19,59157,116815
19,59568,108578
19,59980,97494
19,60393,95077
19,60805,84813
19,61217,79837
19,61630,76258
19,62042,72225
19,62453,66848
19,62867,61946
19,63278,61394
19,63690,57279
19,64103,55649
19,64515,54576
19,64927,49895
19,65338,49041
19,65752,46203
19,66163,46549
19,66575,42082
19,66988,41315
19,67400,42637
19,67812,42197
19,68225,40579
19,68637,38917
19,69048,39558
19,69462,43032
19,69873,46242
19,70285,46277
19,70698,57197
19,71110,73194
19,71522,105273
19,71935,159784
19,72347,250015
19,72758,361776
19,73172,507950
19,73583,646970
19,73995,757681
19,74407,831136
19,74820,830036
19,75232,763553
19,75643,670513
19,76057,559213
19,76468,461113
19,76880,386529
19,77293,354680
19,77705,362589
19,78117,407238
19,78530,503138
19,78942,641886
19,79353,795896
19,79767,976347
19,80178,1144111
19,80590,1291664
19,81003,1417073
19,81415,1498638
19,81827,1538116
19,82240,1517601
19,82652,1428507
19,83063,1282068
19,83475,1075790
19,83888,880344
19,84300,699979
19,84712,554728
19,85125,438219
19,85537,355517
19,85948,284955
19,86362,247387
19,86773,215015
19,87185,185551
19,87598,165184
19,88010,146780
19,88422,131398
19,88835,121581
19,89247,111681
19,89658,99760
19,90072,90988
19,90483,84439
19,90895,81567
19,91308,72107
19,91720,68519
19,92132,67359
19,92543,60359
19,92957,59730
19,93368,56927
19,93780,54437
19,94193,52147
19,94605,46714
19,95017,48541
19,95430,44286
19,95842,44894
19,96253,40487
19,96667,42873
19,97078,38746
19,97490,39405
19,97903,38863
19,98315,35396
19,98727,34545
19,99140,32161
19,99552,32388
19,99963,29082
20,00377,33394
20,00788,31035
20,01200,28236
20,01612,31273
20,02025,30946
20,02437,33682
20,02848,39611
20,03262,55495
20,03673,82502
20,04085,136894
20,04498,213663
20,04910,332417
20,05322,495029
20,05735,676440
20,06147,888381
20,06558,1061657
20,06972,1186853
20,07383,1236144
20,07795,1174481
20,08208,1039211
20,08620,874265
20,09032,700948
20,09445,558342
20,09857,437425
20,10268,346212
20,10680,286111
20,11093,232393
20,11505,202668
20,11917,171795
20,12330,146501
20,12742,128690
20,13153,120536
20,13567,109945
20,13978,97985
20,14390,88791
20,14803,81727
20,15215,75241
20,15627,71938
20,16040,69275
20,16452,64504
20,16863,61130
20,17277,57728
20,17688,55720
20,18100,54489
20,18513,52848
20,18925,50757
20,19337,48605
20,19748,47900
20,20162,48544
20,20573,45656
20,20985,43598
20,21398,41454
20,21810,40397
20,22222,36588
20,22635,36417
20,23047,35975
20,23458,35334
20,23872,33443
20,24283,34480
20,24695,33469
20,25108,31308
20,25520,32028
20,25932,32671
20,26345,31343
20,26757,32317
20,27168,31325
20,27582,30189
20,27993,32553
20,28405,33872
20,28817,37188
20,29230,44813
20,29642,53640
20,30053,78359
20,30467,119316
20,30878,193876
20,31290,288115
20,31703,424541
20,32115,569837
20,32527,722094
20,32940,827354
20,33352,905607
20,33763,907520
20,34177,855539
20,34588,760302
20,35000,652142
20,35413,536286
20,35825,429387
20,36237,346243
20,36650,281403
20,37062,227820
20,37473,189334
20,37887,157460
20,38298,141088
20,38710,120392
20,39122,111510
20,39535,112975
20,39947,121094
20,40358,146889
20,40772,184571
20,41183,245655
20,41595,319207
20,42008,410698
20,42420,502657
20,42832,563706
20,43245,605945
20,43657,626933
20,44068,599915
20,44482,542245
20,44893,471671
20,45305,390907
20,45718,328090
20,46130,267509
20,46542,214556
20,46955,179109
20,47367,146163
20,47778,124899
20,48190,108724
20,48603,94723
20,49015,81667
20,49427,73941
20,49840,66350
20,50252,63173
20,50663,58038
20,51077,54435
20,51488,51627
20,51900,50450
20,52313,47936
20,52725,46335
20,53137,44108
20,53550,42246
20,53962,42937
20,54373,40108
20,54787,40878
20,55198,40605
20,55610,39944
20,56023,39305
20,56435,39486
20,56847,37055
20,57258,39118
20,57672,35658
20,58083,37501
20,58495,35895
20,58908,32477
20,59320,35416
20,59732,34119
20,60145,34419
20,60557,32582
20,60968,33964
20,61382,35160
20,61793,38841
20,62205,46927
20,62618,61931
20,63030,91123
20,63442,135507
20,63855,207232
20,64267,319611
20,64678,459563
20,65092,642883
20,65503,878759
20,65915,1142202
20,66327,1404390
20,66740,1681689
20,67152,1932656
20,67563,2142814
20,67977,2222160
20,68388,2159303
20,68800,1928595
20,69213,1639724
20,69625,1329753
20,70037,1056189
20,70450,834395
20,70862,673680
20,71273,544031
20,71687,450832
20,72098,375840
20,72510,325352
20,72923,284072
20,73335,252626
20,73747,226323
20,74160,204454
20,74572,184391
20,74983,167761
20,75395,153950
20,75808,144170
20,76220,133748
20,76632,124157
20,77045,117166
20,77457,112130
20,77868,103343
20,78282,97071
20,78693,91987
20,79105,89782
20,79518,84163
20,79930,81196
20,80342,80445
20,80755,73077
20,81167,69947
20,81578,69864
20,81992,66194
20,82403,65418
20,82815,62058
20,83228,59743
20,83640,58257
20,84052,54869
20,84463,55138
20,84877,52137
20,85288,53914
20,85700,51264
20,86113,50773
20,86525,50549
20,86937,47409
20,87350,45966
20,87762,45886
20,88173,44227
20,88587,43550
20,88998,42655
20,89410,42529
20,89823,41136
20,90235,40285
20,90647,38040
20,91060,38257
20,91472,37058
20,91883,39103
20,92297,38782
20,92708,37755
20,93120,37093
20,93532,37004
20,93945,37726
20,94357,36149
20,94768,36387
20,95182,36364
20,95593,35581
20,96005,36801
20,96418,37392
20,96830,40065
20,97242,47793
20,97655,62899
20,98067,84088
20,98478,117392
20,98892,173488
20,99303,256048
20,99715,357456
21,00128,495563
21,00540,637888
21,00952,782717
21,01365,898001
21,01777,981517
21,02188,996069
21,02600,969535
21,03013,893798
21,03425,794443
21,03837,678138
21,04250,569514
21,04662,476456
21,05073,392185
21,05487,332808
21,05898,276673
21,06310,237169
21,06723,209559
21,07135,182980
21,07547,159466
21,07960,143388
21,08372,132298
21,08783,123159
21,09197,109651
21,09608,103968
21,10020,97921
21,10433,90903
21,10845,87326
21,11257,82618
21,11668,76335
21,12082,72192
21,12493,68191
21,12905,65308
21,13318,65274
21,13730,62297
21,14142,60361
21,14555,59739
21,14967,57004
21,15378,54538
21,15792,54818
21,16203,56311
21,16615,52864
21,17028,52289
21,17440,48400
21,17852,47615
21,18265,45253
21,18677,44964
21,19088,42605
21,19502,42795
21,19913,40418
21,20325,40898
21,20737,40573
21,21150,38718
21,21562,35782
21,21973,35517
21,22387,34832
21,22798,34802
21,23210,35651
21,23623,33881
21,24035,32370
21,24447,33743
21,24860,34485
21,25272,33305
21,25683,32645
21,26097,31364
21,26508,30705
21,26920,30719
21,27333,28967
21,27745,29370
21,28157,28596
21,28570,29163
21,28982,28702
21,29393,30678
21,29805,27693
21,30218,26147
21,30630,26262
21,31042,27311
21,31455,27315
21,31867,28793
21,32278,29601
21,32692,28409
21,33103,29257
21,33515,32202
21,33928,32394
21,34340,33967
21,34752,35190
21,35165,36126
21,35577,37426
21,35988,35090
21,36402,34605
21,36813,33350
21,37225,31821
21,37638,29384
21,38050,28591
21,38462,27537
21,38873,28605
21,39287,26105
21,39698,25346
21,40110,25698
21,40523,24176
21,40935,24887
21,41347,26200
21,41760,24689
21,42172,24140
21,42583,24676
21,42997,23126
21,43408,23516
21,43820,24176
21,44233,23040
21,44645,23966
21,45057,24800
21,45470,23574
21,45882,22047
21,46293,22260
21,46707,22380
21,47118,23106
21,47530,23848
21,47942,24194
21,48355,24256
21,48767,23820
21,49178,24229
21,49592,25087
21,50003,24268
21,50415,26357
21,50828,26062
21,51240,26414
21,51652,25636
21,52065,24860
21,52477,23759
21,52888,24688
21,53302,23681
21,53713,23103
21,54125,22950
21,54538,24025
21,54950,24187
21,55362,24703
21,55775,23889
21,56187,24640
21,56598,26633
21,57010,26075
21,57423,26046
21,57835,27607
21,58247,26041
21,58660,25813
21,59072,26873
21,59483,25701
21,59897,26078
21,60308,24770
21,60720,24730
21,61133,23662
21,61545,21766
21,61957,22226
21,62370,21480
21,62782,20117
21,63193,20832
21,63607,20363
21,64018,21922
21,64430,20855
21,64843,20334
21,65255,20836
21,65667,22151
21,66078,22726
21,66492,22479
21,66903,21082
21,67315,22944
21,67728,21367
21,68140,23208
21,68552,23689
21,68965,23391
21,69377,23401
21,69788,21054
21,70202,21333
21,70613,21507
21,71025,20184
21,71438,19799
21,71850,20710
21,72262,19296
21,72675,19336
21,73087,19959
21,73498,19295
21,73912,17851
21,74323,18947
21,74735,19421
21,75147,19515
21,75560,18156
21,75972,19364
21,76383,18078
21,76797,19446
21,77208,19550
21,77620,19470
21,78033,20378
21,78445,21985
21,78857,19591
21,79270,20583
21,79682,21541
21,80093,22431
21,80507,20640
21,80918,20761
21,81330,19314
21,81743,20326
21,82155,18703
21,82567,19458
21,82980,18494
21,83392,19660
21,83803,19952
21,84215,18914
21,84628,18867
21,85040,20036
21,85452,18785
21,85865,19841
21,86277,18048
21,86688,18532
21,87102,17878
21,87513,18749
21,87925,18603
21,88338,19798
21,88750,18474
21,89162,17127
21,89575,18130
21,89987,18582
21,90398,18772
21,90812,17502
21,91223,18789
21,91635,19228
21,92048,20297
21,92460,19065
21,92872,18984
21,93283,19876
21,93697,19380
21,94108,20594
21,94520,19678
21,94933,19445
21,95345,18471
21,95757,19548
21,96170,19234
21,96582,19924
21,96993,18817
21,97407,19575
21,97818,18272
21,98230,19654
21,98643,20676
21,99055,20072
21,99467,19299
21,99880,19185
22,00292,19983
22,00703,19466
22,01117,19118
22,01528,19669
22,01940,21152
22,02353,19994
22,02765,20693
22,03177,18635
22,03588,19578
22,04002,22247
22,04413,22890
22,04825,29749
22,05238,34955
22,05650,48743
22,06062,67597
22,06475,95609
22,06887,130641
22,07298,182037
22,07712,235052
22,08123,294681
22,08535,349620
22,08948,394132
22,09360,423022
22,09772,439656
22,10185,439950
22,10597,412163
22,11008,377474
22,11422,339396
22,11833,300486
22,12245,260147
22,12657,219335
22,13070,191731
22,13482,166436
22,13893,142333
22,14307,124572
22,14718,112929
22,15130,98810
22,15543,86784
22,15955,75328
22,16367,73235
22,16780,69655
22,17192,61666
22,17603,57080
22,18017,56099
22,18428,50858
22,18840,48985
22,19253,48418
22,19665,45735
22,20077,44142
22,20490,40363
22,20902,39972
22,21313,36332
22,21725,36134
22,22138,36667
22,22550,35797
22,22962,34434
22,23375,33194
22,23787,33447
22,24198,34154
22,24612,31467
22,25023,30824
22,25435,30373
22,25848,30290
22,26260,29703
22,26672,30465
22,27085,27916
22,27497,29060
22,27908,29705
22,28322,28628
22,28733,28843
22,29145,28723
22,29558,26004
22,29970,27682
22,30382,24918
22,30793,25756
22,31207,23407
22,31618,24767
22,32030,24211
22,32443,25785
22,32855,25407
22,33267,24538
22,33680,23567
22,34092,24029
22,34503,24944
22,34917,25319
22,35328,23955
22,35740,24668
22,36153,22347
22,36565,25289
22,36977,21491
22,37390,22058
22,37802,22342
22,38213,20449
22,38627,22321
22,39038,20142
22,39450,20735
22,39862,20334
22,40275,19911
22,40687,22098
22,41098,21439
22,41512,18763
22,41923,19474
22,42335,21636
22,42748,19722
22,43160,19649
22,43572,19323
22,43985,18932
22,44397,20291
22,44808,21721
22,45222,18889
22,45633,19190
22,46045,18756
22,46458,18781
22,46870,19259
22,47282,20855
22,47695,19362
22,48107,21008
22,48518,19792
22,48930,19380
22,49343,18680
22,49755,18911
22,50167,19329
22,50580,19396
22,50992,21078
22,51403,21693
22,51817,21589
22,52228,21147
22,52640,21797
22,53053,22063
22,53465,21348
22,53877,21852
22,54290,22417
22,54702,21225
22,55113,21459
22,55527,20997
22,55938,20722
22,56350,21435
22,56763,20057
22,57175,19383
22,57587,20109
22,57998,19483
22,58412,20387
22,58823,18749
22,59235,18089
22,59648,18236
22,60060,20045
22,60472,19777
22,60885,18490
22,61297,19573
22,61708,19576
22,62122,19263
22,62533,20578
22,62945,21309
22,63358,20345
22,63770,19738
22,64182,20256
22,64595,21213
22,65007,19742
22,65418,18945
22,65832,19978
22,66243,18945
22,66655,17937
22,67067,20065
22,67480,19255
22,67892,19063
22,68303,19578
22,68717,18254
22,69128,19035
22,69540,18001
22,69953,19076
22,70365,19037
22,70777,18594
22,71190,22051
22,71602,19215
22,72013,19567
22,72427,20548
22,72838,20838
22,73250,19662
22,73663,18466
22,74075,19244
22,74487,20376
22,74900,21136
22,75312,19887
22,75723,19018
22,76135,20050
22,76548,19532
22,76960,18628
22,77372,20725
22,77785,21801
22,78197,20399
22,78608,20995
22,79022,21207
22,79433,20496
22,79845,22128
22,80258,24172
22,80670,23631
22,81082,24859
22,81495,22591
22,81907,20652
22,82318,21021
22,82732,21469
22,83143,21842
22,83555,21541
22,83968,20171
22,84380,20507
22,84792,19261
22,85203,19116
22,85617,19469
22,86028,20052
22,86440,20533
22,86853,20075
22,87265,20220
22,87677,19067
22,88090,17756
22,88502,19986
22,88913,21243
22,89327,19473
22,89738,21227
22,90150,20500
22,90563,20620
22,90975,20616
22,91387,21304
22,91800,19097
22,92212,19222
22,92623,18506
22,93037,20471
22,93448,19312
22,93860,20704
22,94272,18029
22,94685,19476
22,95097,19336
22,95508,19903
22,95922,18448
22,96333,18185
22,96745,17749
22,97158,19380
22,97570,19410
22,97982,20101
22,98395,19497
22,98807,20362
22,99218,19261
22,99632,18348
23,00043,18707
23,00455,19327
23,00868,19269
23,01280,20051
23,01692,20466
23,02105,17103
23,02517,19421
23,02928,19636
23,03340,19478
23,03753,18220
23,04165,19976
23,04577,19446
23,04990,19690
23,05402,17866
23,05813,19889
23,06227,19957
23,06638,19908
23,07050,22620
23,07463,19288
23,07875,21272
23,08287,20717
23,08700,19312
23,09112,21558
23,09523,21528
23,09937,20638
23,10348,21314
23,10760,19176
23,11173,21348
23,11585,20364
23,11997,20727
23,12408,19237
23,12822,19382
23,13233,19498
23,13645,19087
23,14058,18438
23,14470,20065
23,14882,18155
23,15295,20339
23,15707,18231
23,16118,19726
23,16532,18606
23,16943,19589
23,17355,17929
23,17768,19433
23,18180,17616
23,18592,20833
23,19005,20494
23,19417,20134
23,19828,19670
23,20242,19183
23,20653,21981
23,21065,20427
23,21477,19554
23,21890,19246
