D:\MassHunter\GCMS\1\data\Amal\Constant flow\150C\150C_1ml-min_4C-min_3.D Thu Sep 12 18:06:08 2024
Start of data points
4,99090	407196
4,99503	397869
4,99915	374591
5,00327	355710
5,00740	349507
5,01152	338690
5,01563	328747
5,01977	314127
5,02388	300012
5,02800	288317
5,03213	283592
5,03625	276778
5,04037	268621
5,04448	255889
5,04862	250318
5,05273	246830
5,05685	239869
5,06098	232422
5,06510	224271
5,06922	219294
5,07335	218886
5,07747	210941
5,08158	200969
5,08572	199443
5,08983	198925
5,09395	191641
5,09808	181719
5,10220	183771
5,10632	173540
5,11045	169590
5,11457	168190
5,11868	167182
5,12282	163400
5,12693	157987
5,13105	154870
5,13518	155551
5,13930	150771
5,14342	150168
5,14753	147734
5,15167	144180
5,15578	142732
5,15990	138841
5,16403	138925
5,16815	139775
5,17227	135836
5,17640	132559
5,18052	132995
5,18463	132148
5,18877	123715
5,19288	128499
5,19700	125493
5,20113	127729
5,20525	122530
5,20937	118564
5,21350	123052
5,21762	121279
5,22173	121620
5,22587	118595
5,22998	119547
5,23410	121341
5,23822	116770
5,24235	116539
5,24647	117471
5,25058	115811
5,25472	120092
5,25883	112736
5,26295	112846
5,26708	113124
5,27120	113471
5,27532	110306
5,27945	110848
5,28357	106239
5,28768	106238
5,29182	111401
5,29593	108492
5,30005	104237
5,30418	103547
5,30830	103680
5,31242	106819
5,31655	115108
5,32067	135187
5,32478	181320
5,32890	258661
5,33303	383488
5,33715	538813
5,34127	721505
5,34540	890804
5,34952	1035788
5,35363	1140699
5,35777	1202843
5,36188	1223992
5,36600	1229020
5,37013	1212797
5,37425	1193225
5,37837	1167465
5,38250	1126924
5,38662	1088488
5,39073	1058186
5,39487	1018873
5,39898	994554
5,40310	965112
5,40723	941896
5,41135	906491
5,41547	884601
5,41958	857996
5,42372	827770
5,42783	799195
5,43195	777114
5,43608	747642
5,44020	732089
5,44432	700559
5,44845	680584
5,45257	655063
5,45668	632239
5,46082	609593
5,46493	583216
5,46905	558943
5,47318	531532
5,47730	503909
5,48142	473159
5,48555	447704
5,48967	428253
5,49378	398846
5,49792	372299
5,50203	345940
5,50615	329469
5,51027	308939
5,51440	294452
5,51852	273567
5,52263	254504
5,52677	244859
5,53088	230706
5,53500	218919
5,53913	203080
5,54325	194369
5,54737	181635
5,55150	175615
5,55562	164690
5,55973	156335
5,56387	152066
5,56798	147219
5,57210	141477
5,57623	133423
5,58035	127648
5,58447	126872
5,58860	120251
5,59272	114732
5,59683	112257
5,60095	110949
5,60508	109695
5,60920	103496
5,61332	104864
5,61745	102244
5,62157	100271
5,62568	95303
5,62982	94341
5,63393	94481
5,63805	92814
5,64218	91739
5,64630	87121
5,65042	89099
5,65455	87069
5,65867	89506
5,66278	85555
5,66692	85284
5,67103	82257
5,67515	81896
5,67928	79837
5,68340	80035
5,68752	82896
5,69163	77486
5,69577	77536
5,69988	77833
5,70400	77548
5,70813	77814
5,71225	78075
5,71637	77760
5,72050	78307
5,72462	77638
5,72873	75109
5,73287	78583
5,73698	75595
5,74110	80336
5,74523	81391
5,74935	89181
5,75347	100991
5,75760	128204
5,76172	165522
5,76583	223189
5,76997	299277
5,77408	386380
5,77820	468566
5,78232	547400
5,78645	606799
5,79057	653130
5,79468	678090
5,79882	680055
5,80293	678593
5,80705	666616
5,81118	651815
5,81530	645956
5,81942	627022
5,82355	604324
5,82767	593473
5,83178	574131
5,83592	553725
5,84003	537715
5,84415	520741
5,84828	505520
5,85240	491078
5,85652	478074
5,86065	455945
5,86477	450300
5,86888	430771
5,87300	419033
5,87713	403344
5,88125	391660
5,88537	372933
5,88950	359357
5,89362	336920
5,89773	322602
5,90187	307631
5,90598	295502
5,91010	273208
5,91423	262856
5,91835	241818
5,92247	231798
5,92660	217203
5,93072	205626
5,93483	188120
5,93897	179757
5,94308	170309
5,94720	162559
5,95133	154452
5,95545	144480
5,95957	139239
5,96368	130234
5,96782	125707
5,97193	120650
5,97605	117242
5,98018	109212
5,98430	108177
5,98842	103746
5,99255	98679
5,99667	94212
6,00078	92534
6,00492	89843
6,00903	87674
6,01315	85319
6,01728	83531
6,02140	80588
6,02552	80204
6,02965	78384
6,03377	79801
6,03788	72797
6,04202	74678
6,04613	72663
6,05025	71584
6,05437	69007
6,05850	70645
6,06262	69132
6,06673	69816
6,07087	69863
6,07498	66369
6,07910	67512
6,08323	65695
6,08735	65108
6,09147	65222
6,09560	62982
6,09972	64772
6,10383	66736
6,10797	63402
6,11208	63322
6,11620	60742
6,12033	61926
6,12445	61702
6,12857	61626
6,13270	60814
6,13682	60293
6,14093	60684
6,14505	61547
6,14918	60670
6,15330	60143
6,15742	59061
6,16155	58888
6,16567	61123
6,16978	61923
6,17392	58352
6,17803	57093
6,18215	58056
6,18628	57451
6,19040	56982
6,19452	56391
6,19865	57430
6,20277	57827
6,20688	57492
6,21102	57162
6,21513	57366
6,21925	57886
6,22338	56007
6,22750	55897
6,23162	54153
6,23573	54329
6,23987	55266
6,24398	57649
6,24810	54222
6,25223	54896
6,25635	53198
6,26047	54610
6,26460	52140
6,26872	54154
6,27283	54428
6,27697	52550
6,28108	52834
6,28520	54803
6,28933	56391
6,29345	62473
6,29757	79039
6,30170	110854
6,30582	160386
6,30993	237467
6,31407	348669
6,31818	491258
6,32230	662488
6,32642	825094
6,33055	985060
6,33467	1125852
6,33878	1236853
6,34292	1308915
6,34703	1344585
6,35115	1354923
6,35528	1349522
6,35940	1338144
6,36352	1319070
6,36765	1286541
6,37177	1252730
6,37588	1216686
6,38002	1178587
6,38413	1138457
6,38825	1112143
6,39238	1060924
6,39650	1026229
6,40062	995316
6,40475	964841
6,40887	923200
6,41298	892474
6,41710	844614
6,42123	811088
6,42535	776857
6,42947	739617
6,43360	686451
6,43772	649315
6,44183	610594
6,44597	573333
6,45008	534919
6,45420	494099
6,45833	457016
6,46245	422706
6,46657	391616
6,47070	360787
6,47482	330744
6,47893	307541
6,48307	285996
6,48718	263762
6,49130	242813
6,49543	222194
6,49955	204052
6,50367	191044
6,50778	175107
6,51192	164416
6,51603	153924
6,52015	143725
6,52428	133688
6,52840	123159
6,53252	116071
6,53665	110602
6,54077	105059
6,54488	98267
6,54902	94254
6,55313	86933
6,55725	85298
6,56138	79976
6,56550	78903
6,56962	78105
6,57375	72352
6,57787	68234
6,58198	69768
6,58612	67032
6,59023	61239
6,59435	63929
6,59847	63095
6,60260	62100
6,60672	57723
6,61083	59666
6,61497	57185
6,61908	55985
6,62320	53809
6,62733	55496
6,63145	53169
6,63557	53117
6,63970	51110
6,64382	51910
6,64793	49942
6,65207	51438
6,65618	50723
6,66030	49085
6,66443	49151
6,66855	49667
6,67267	46212
6,67680	49739
6,68092	46978
6,68503	46845
6,68915	45289
6,69328	48122
6,69740	45197
6,70152	44447
6,70565	45383
6,70977	45674
6,71388	44897
6,71802	46517
6,72213	44100
6,72625	44145
6,73038	43814
6,73450	43060
6,73862	44815
6,74275	44493
6,74687	42261
6,75098	41386
6,75512	42477
6,75923	43596
6,76335	42012
6,76748	40029
6,77160	41978
6,77572	42272
6,77985	42132
6,78397	41227
6,78808	42671
6,79220	41678
6,79633	40998
6,80045	40633
6,80457	40321
6,80870	41662
6,81282	38804
6,81693	39462
6,82107	41128
6,82518	40944
6,82930	39681
6,83343	40274
6,83755	38766
6,84167	40455
6,84580	39973
6,84992	39422
6,85403	40432
6,85817	39790
6,86228	39195
6,86640	38239
6,87053	37199
6,87465	40041
6,87877	38446
6,88288	37636
6,88702	37925
6,89113	38288
6,89525	38998
6,89938	35103
6,90350	38228
6,90762	38527
6,91175	39037
6,91587	38545
6,91998	37376
6,92412	37710
6,92823	37489
6,93235	36110
6,93648	38302
6,94060	36694
6,94472	35836
6,94885	37701
6,95297	37562
6,95708	37499
6,96122	35862
6,96533	38327
6,96945	44655
6,97357	51038
6,97770	61955
6,98182	83865
6,98593	119533
6,99007	166042
6,99418	223021
6,99830	299299
7,00243	382172
7,00655	459017
7,01067	540966
7,01480	608827
7,01892	666156
7,02303	694263
7,02717	728522
7,03128	739860
7,03540	746762
7,03953	740703
7,04365	724265
7,04777	717605
7,05190	693685
7,05602	674929
7,06013	652768
7,06425	644548
7,06838	617137
7,07250	600070
7,07662	574334
7,08075	561281
7,08487	533158
7,08898	510365
7,09312	483282
7,09723	458235
7,10135	434781
7,10548	406267
7,10960	380783
7,11372	358689
7,11785	340780
7,12197	305220
7,12608	286512
7,13022	261642
7,13433	244002
7,13845	221120
7,14258	206950
7,14670	187826
7,15082	173460
7,15493	160296
7,15907	148149
7,16318	138278
7,16730	129149
7,17143	121397
7,17555	111953
7,17967	103473
7,18380	96229
7,18792	89215
7,19203	84146
7,19617	79950
7,20028	75826
7,20440	68734
7,20853	69200
7,21265	66118
7,21677	60733
7,22090	60270
7,22502	59140
7,22913	55150
7,23327	54936
7,23738	52049
7,24150	50861
7,24562	49517
7,24975	49148
7,25387	47651
7,25798	46509
7,26212	45833
7,26623	44414
7,27035	44426
7,27448	43953
7,27860	42613
7,28272	42531
7,28685	42316
7,29097	40129
7,29508	41843
7,29922	40777
7,30333	37981
7,30745	38973
7,31158	38880
7,31570	39489
7,31982	37640
7,32395	35467
7,32807	38314
7,33218	35037
7,33630	35995
7,34043	35869
7,34455	34428
7,34867	34356
7,35280	34161
7,35692	33051
7,36103	33922
7,36517	34335
7,36928	34833
7,37340	34207
7,37753	32685
7,38165	34220
7,38577	36650
7,38990	35658
7,39402	37070
7,39813	36379
7,40227	36874
7,40638	33596
7,41050	36662
7,41463	36727
7,41875	35881
7,42287	36513
7,42698	38288
7,43112	33805
7,43523	35621
7,43935	34903
7,44348	34141
7,44760	35779
7,45172	34109
7,45585	33924
7,45997	33075
7,46408	35322
7,46822	32270
7,47233	31443
7,47645	32465
7,48058	33376
7,48470	31702
7,48882	32229
7,49295	33301
7,49707	31646
7,50118	31055
7,50532	31152
7,50943	30213
7,51355	30754
7,51767	30669
7,52180	30336
7,52592	30254
7,53003	30051
7,53417	30906
7,53828	30392
7,54240	30370
7,54653	30081
7,55065	28716
7,55477	29867
7,55890	29606
7,56302	29613
7,56713	30543
7,57127	30322
7,57538	29558
7,57950	29617
7,58363	28524
7,58775	29256
7,59187	29463
7,59600	28729
7,60012	29322
7,60423	28653
7,60835	26943
7,61248	29679
7,61660	28761
7,62072	27790
7,62485	27070
7,62897	28440
7,63308	28480
7,63722	28794
7,64133	28759
7,64545	26471
7,64958	27361
7,65370	27145
7,65782	29574
7,66195	27516
7,66607	28419
7,67018	27957
7,67432	27199
7,67843	29594
7,68255	28602
7,68668	27471
7,69080	29118
7,69492	27753
7,69903	28565
7,70317	28997
7,70728	29951
7,71140	27919
7,71553	28561
7,71965	28535
7,72377	27896
7,72790	28087
7,73202	26899
7,73613	29691
7,74027	27765
7,74438	29129
7,74850	29630
7,75263	29834
7,75675	29105
7,76087	28895
7,76500	29657
7,76912	32372
7,77323	35530
7,77737	36838
7,78148	46292
7,78560	55767
7,78972	82683
7,79385	121753
7,79797	180910
7,80208	261754
7,80622	370948
7,81033	501991
7,81445	656388
7,81858	822068
7,82270	996655
7,82682	1153927
7,83095	1297056
7,83507	1402451
7,83918	1501048
7,84332	1545240
7,84743	1584372
7,85155	1593722
7,85568	1591769
7,85980	1579740
7,86392	1553211
7,86805	1516819
7,87217	1469572
7,87628	1420608
7,88040	1359954
7,88453	1308656
7,88865	1250097
7,89277	1188233
7,89690	1122558
7,90102	1056060
7,90513	980130
7,90927	912748
7,91338	855197
7,91750	780321
7,92163	724364
7,92575	658262
7,92987	599014
7,93400	546820
7,93812	500026
7,94223	448094
7,94637	405450
7,95048	365395
7,95460	322727
7,95873	292086
7,96285	268975
7,96697	245086
7,97108	220563
7,97522	203284
7,97933	180551
7,98345	167701
7,98758	152448
7,99170	143385
7,99582	129657
7,99995	121172
8,00407	109711
8,00818	104463
8,01232	96534
8,01643	89642
8,02055	85012
8,02468	82917
8,02880	74866
8,03292	73764
8,03705	70287
8,04117	66963
8,04528	63887
8,04942	60503
8,05353	59196
8,05765	57662
8,06177	53898
8,06590	53178
8,07002	53251
8,07413	52403
8,07827	50539
8,08238	51052
8,08650	47986
8,09063	48038
8,09475	48669
8,09887	47076
8,10300	48322
8,10712	45613
8,11123	45373
8,11537	45190
8,11948	44565
8,12360	45156
8,12773	44086
8,13185	42016
8,13597	41978
8,14010	42823
8,14422	40290
8,14833	39458
8,15245	41711
8,15658	38792
8,16070	38696
8,16482	36709
8,16895	37009
8,17307	35931
8,17718	35178
8,18132	34504
8,18543	36149
8,18955	35954
8,19368	32557
8,19780	33009
8,20192	32804
8,20605	31663
8,21017	31862
8,21428	31023
8,21842	29824
8,22253	29971
8,22665	28933
8,23078	28893
8,23490	28992
8,23902	27783
8,24313	28509
8,24727	28471
8,25138	28009
8,25550	28641
8,25963	28180
8,26375	29167
8,26787	29371
8,27200	29343
8,27612	29049
8,28023	29254
8,28437	29384
8,28848	30610
8,29260	31953
8,29673	31129
8,30085	32452
8,30497	31872
8,30910	32880
8,31322	32027
8,31733	31889
8,32147	33116
8,32558	32175
8,32970	33056
8,33382	32753
8,33795	32498
8,34207	31568
8,34618	30193
8,35032	31436
8,35443	32426
8,35855	31375
8,36268	31197
8,36680	30970
8,37092	29082
8,37505	29633
8,37917	29762
8,38328	28849
8,38742	28723
8,39153	28199
8,39565	26170
8,39978	26715
8,40390	26694
8,40802	27558
8,41215	26570
8,41627	26739
8,42038	26587
8,42452	26923
8,42863	26779
8,43275	25589
8,43687	25441
8,44100	26539
8,44512	26096
8,44923	26066
8,45337	27267
8,45748	25464
8,46160	29254
8,46573	27573
8,46985	28628
8,47397	29977
8,47810	33466
8,48222	35595
8,48633	41814
8,49047	53748
8,49458	65919
8,49870	90554
8,50283	121842
8,50695	165610
8,51107	214034
8,51520	274595
8,51932	344029
8,52343	423383
8,52755	500037
8,53168	573689
8,53580	638041
8,53992	688424
8,54405	731212
8,54817	763711
8,55228	785438
8,55642	781332
8,56053	788131
8,56465	785713
8,56878	762837
8,57290	742997
8,57702	714861
8,58115	688471
8,58527	667316
8,58938	624757
8,59352	594704
8,59763	563649
8,60175	526836
8,60588	488245
8,61000	453563
8,61412	412805
8,61823	387977
8,62237	352849
8,62648	323802
8,63060	293793
8,63473	269660
8,63885	238897
8,64297	217925
8,64710	197167
8,65122	180671
8,65533	163931
8,65947	145260
8,66358	132649
8,66770	124124
8,67183	115629
8,67595	103157
8,68007	96319
8,68420	89611
8,68832	82213
8,69243	77450
8,69657	70591
8,70068	68349
8,70480	64520
8,70892	59241
8,71305	57193
8,71717	55624
8,72128	55179
8,72542	57683
8,72953	60607
8,73365	71165
8,73778	86992
8,74190	111572
8,74602	145817
8,75015	195714
8,75427	257969
8,75838	324877
8,76252	403862
8,76663	488907
8,77075	580499
8,77488	653936
8,77900	731572
8,78312	790051
8,78725	834157
8,79137	864485
8,79548	868925
8,79960	889191
8,80373	882884
8,80785	869925
8,81197	851320
8,81610	821883
8,82022	791105
8,82433	758893
8,82847	724736
8,83258	685351
8,83670	646499
8,84083	607049
8,84495	564565
8,84907	520845
8,85320	473470
8,85732	432607
8,86143	394130
8,86557	355804
8,86968	320195
8,87380	288563
8,87793	261964
8,88205	233583
8,88617	209666
8,89028	190445
8,89442	172295
8,89853	156770
8,90265	141969
8,90678	129583
8,91090	117598
8,91502	103843
8,91915	100342
8,92327	89986
8,92738	84455
8,93152	80285
8,93563	72686
8,93975	68969
8,94388	66417
8,94800	60594
8,95212	59991
8,95625	54674
8,96037	54312
8,96448	48591
8,96862	49262
8,97273	48620
8,97685	46409
8,98097	43808
8,98510	42666
8,98922	41692
8,99333	39128
8,99747	38207
9,00158	39406
9,00570	36804
9,00983	33858
9,01395	32433
9,01807	32489
9,02220	33049
9,02632	31540
9,03043	30849
9,03457	32444
9,03868	32555
9,04280	30297
9,04693	30403
9,05105	28097
9,05517	29580
9,05930	28246
9,06342	29915
9,06753	27912
9,07165	27820
9,07578	27913
9,07990	28237
9,08402	27777
9,08815	26452
9,09227	26171
9,09638	24852
9,10052	25402
9,10463	25384
9,10875	23970
9,11288	24675
9,11700	25544
9,12112	25396
9,12525	24959
9,12937	23921
9,13348	23358
9,13762	22286
9,14173	24549
9,14585	23668
9,14998	23088
9,15410	23450
9,15822	23169
9,16233	23243
9,16647	21737
9,17058	22922
9,17470	22127
9,17883	22048
9,18295	22671
9,18707	23053
9,19120	20780
9,19532	21883
9,19943	22800
9,20357	22417
9,20768	22638
9,21180	21071
9,21593	21588
9,22005	21168
9,22417	20572
9,22830	20684
9,23242	20431
9,23653	21037
9,24067	21691
9,24478	20826
9,24890	20081
9,25302	19464
9,25715	20027
9,26127	18636
9,26538	20046
9,26952	19618
9,27363	20380
9,27775	19825
9,28188	20038
9,28600	18997
9,29012	19474
9,29425	19959
9,29837	18481
9,30248	18968
9,30662	18203
9,31073	18759
9,31485	18690
9,31898	17306
9,32310	18211
9,32722	18701
9,33135	17605
9,33547	19898
9,33958	19470
9,34370	18325
9,34783	18883
9,35195	19249
9,35607	18882
9,36020	19388
9,36432	17119
9,36843	18299
9,37257	17682
9,37668	18845
9,38080	17695
9,38493	19000
9,38905	18629
9,39317	18988
9,39730	19758
9,40142	18997
9,40553	17955
9,40967	18259
9,41378	18638
9,41790	17286
9,42203	18441
9,42615	18254
9,43027	17466
9,43438	18049
9,43852	18937
9,44263	17123
9,44675	16681
9,45088	19364
9,45500	18757
9,45912	17937
9,46325	18775
9,46737	17446
9,47148	17654
9,47562	17552
9,47973	18415
9,48385	18743
9,48798	18999
9,49210	17831
9,49622	18901
9,50035	16897
9,50447	19993
9,50858	21981
9,51272	21913
9,51683	22319
9,52095	28027
9,52507	36246
9,52920	46469
9,53332	64064
9,53743	91657
9,54157	129439
9,54568	175078
9,54980	235691
9,55393	300358
9,55805	378235
9,56217	462385
9,56630	546558
9,57042	620910
9,57453	687202
9,57867	745895
9,58278	801633
9,58690	827411
9,59103	858614
9,59515	865618
9,59927	856529
9,60340	858361
9,60752	826771
9,61163	801105
9,61575	761615
9,61988	722848
9,62400	679924
9,62812	639305
9,63225	596746
9,63637	546373
9,64048	503488
9,64462	458061
9,64873	414609
9,65285	376058
9,65698	337951
9,66110	305128
9,66522	275414
9,66935	243141
9,67347	223277
9,67758	198419
9,68172	176788
9,68583	160429
9,68995	147798
9,69408	129561
9,69820	120723
9,70232	109022
9,70643	99161
9,71057	93834
9,71468	84320
9,71880	79457
9,72293	74147
9,72705	69817
9,73117	65002
9,73530	62045
9,73942	55765
9,74353	55407
9,74767	54514
9,75178	50778
9,75590	47196
9,76003	45360
9,76415	43365
9,76827	43104
9,77240	43159
9,77652	42255
9,78063	45412
9,78477	52014
9,78888	63527
9,79300	85073
9,79712	116426
9,80125	171492
9,80537	246281
9,80948	352539
9,81362	492261
9,81773	667648
9,82185	869780
9,82598	1099911
9,83010	1358381
9,83422	1629882
9,83835	1892580
9,84247	2150777
9,84658	2379189
9,85072	2575174
9,85483	2720846
9,85895	2843332
9,86308	2921209
9,86720	2944525
9,87132	2942537
9,87545	2878894
9,87957	2767995
9,88368	2644573
9,88780	2510873
9,89193	2338446
9,89605	2179115
9,90017	2000481
9,90430	1821541
9,90842	1650098
9,91253	1484746
9,91667	1330331
9,92078	1193261
9,92490	1055646
9,92903	933397
9,93315	821100
9,93727	736694
9,94140	651341
9,94552	579620
9,94963	515459
9,95377	461391
9,95788	413250
9,96200	368538
9,96613	335734
9,97025	296800
9,97437	274543
9,97850	250505
9,98262	228362
9,98673	211872
9,99085	191261
9,99498	179636
9,99910	161771
10,00322	154920
10,00735	141988
10,01147	136150
10,01558	130252
10,01972	121577
10,02383	113078
10,02795	107784
10,03208	103715
10,03620	98871
10,04032	92400
10,04445	87518
10,04857	83605
10,05268	82093
10,05682	76257
10,06093	74092
10,06505	71344
10,06918	67372
10,07330	62798
10,07742	63659
10,08153	60150
10,08567	59571
10,08978	57904
10,09390	56188
10,09803	56077
10,10215	53461
10,10627	52305
10,11040	49003
10,11452	49910
10,11863	47611
10,12277	46995
10,12688	44565
10,13100	43743
10,13513	42528
10,13925	42324
10,14337	43916
10,14750	40232
10,15162	40544
10,15573	37568
10,15987	38195
10,16398	36444
10,16810	36383
10,17222	34913
10,17635	34924
10,18047	33852
10,18458	34503
10,18872	31824
10,19283	32897
10,19695	32796
10,20108	31655
10,20520	30864
10,20932	29184
10,21345	29406
10,21757	29987
10,22168	28129
10,22582	29480
10,22993	27464
10,23405	26713
10,23818	27372
10,24230	28862
10,24642	26970
10,25055	27371
10,25467	26284
10,25878	26387
10,26290	23739
10,26703	25806
10,27115	24579
10,27527	24419
10,27940	24797
10,28352	25180
10,28763	25892
10,29177	23477
10,29588	24661
10,30000	23599
10,30413	23452
10,30825	24472
10,31237	23483
10,31650	24116
10,32062	22687
10,32473	21382
10,32887	23159
10,33298	22193
10,33710	22974
10,34123	23943
10,34535	24019
10,34947	21140
10,35358	21973
10,35772	21147
10,36183	21635
10,36595	20384
10,37008	19943
10,37420	20203
10,37832	20393
10,38245	20652
10,38657	20374
10,39068	19088
10,39482	20214
10,39893	21218
10,40305	19715
10,40718	20475
10,41130	20528
10,41542	20805
10,41955	19844
10,42367	20893
10,42778	20137
10,43192	20769
10,43603	20033
10,44015	21994
10,44427	19398
10,44840	22139
10,45252	21142
10,45663	19722
10,46077	21730
10,46488	19891
10,46900	20447
10,47313	20329
10,47725	20233
10,48137	20057
10,48550	19824
10,48962	21296
10,49373	22657
10,49787	22845
10,50198	27058
10,50610	32894
10,51023	43296
10,51435	56448
10,51847	79968
10,52260	112612
10,52672	154784
10,53083	202891
10,53495	268075
10,53908	337634
10,54320	422686
10,54732	507036
10,55145	588618
10,55557	676630
10,55968	750976
10,56382	806337
10,56793	855247
10,57205	891747
10,57618	921548
10,58030	917944
10,58442	914177
10,58855	901168
10,59267	863508
10,59678	825565
10,60092	781265
10,60503	728198
10,60915	676842
10,61328	621745
10,61740	562258
10,62152	518173
10,62563	467194
10,62977	415399
10,63388	371500
10,63800	332412
10,64213	297032
10,64625	266161
10,65037	239676
10,65450	206707
10,65862	191146
10,66273	170915
10,66687	152349
10,67098	138013
10,67510	127270
10,67923	116304
10,68335	105497
10,68747	100770
10,69160	91963
10,69572	85446
10,69983	81965
10,70397	75893
10,70808	74071
10,71220	68130
10,71632	64635
10,72045	62815
10,72457	60644
10,72868	60283
10,73282	55647
10,73693	52459
10,74105	53568
10,74518	50215
10,74930	49000
10,75342	48812
10,75755	47300
10,76167	46080
10,76578	47054
10,76992	45934
10,77403	46069
10,77815	44735
10,78228	43372
10,78640	42276
10,79052	42021
10,79465	40195
10,79877	39950
10,80288	40920
10,80700	39083
10,81113	37216
10,81525	37804
10,81937	34073
10,82350	35156
10,82762	33442
10,83173	32626
10,83587	31992
10,83998	32437
10,84410	29658
10,84823	30197
10,85235	28747
10,85647	26557
10,86060	26793
10,86472	24783
10,86883	26502
10,87297	23612
10,87708	25034
10,88120	23844
10,88533	24254
10,88945	23260
10,89357	22390
10,89768	24205
10,90182	23606
10,90593	21443
10,91005	21848
10,91418	23014
10,91830	22485
10,92242	23064
10,92655	22383
10,93067	22133
10,93478	23042
10,93892	23339
10,94303	24337
10,94715	28947
10,95128	34096
10,95540	43414
10,95952	61687
10,96365	88089
10,96777	121784
10,97188	163285
10,97602	225289
10,98013	298024
10,98425	378310
10,98837	464578
10,99250	574294
10,99662	670809
11,00073	763630
11,00487	851838
11,00898	922433
11,01310	979577
11,01723	1023120
11,02135	1042962
11,02547	1055865
11,02960	1045007
11,03372	1008968
11,03783	967912
11,04197	917486
11,04608	861693
11,05020	796162
11,05433	735318
11,05845	667350
11,06257	606642
11,06670	545557
11,07082	485778
11,07493	430403
11,07905	384477
11,08318	342311
11,08730	302693
11,09142	268852
11,09555	238208
11,09967	215047
11,10378	193889
11,10792	170353
11,11203	157847
11,11615	142625
11,12028	132089
11,12440	119505
11,12852	110843
11,13265	99292
11,13677	90923
11,14088	86464
11,14502	80037
11,14913	71502
11,15325	72001
11,15738	66156
11,16150	61622
11,16562	58587
11,16973	56541
11,17387	54072
11,17798	51698
11,18210	48925
11,18623	46243
11,19035	46690
11,19447	44435
11,19860	42575
11,20272	41521
11,20683	40220
11,21097	34873
11,21508	36440
11,21920	35971
11,22333	36780
11,22745	32975
11,23157	34530
11,23570	31865
11,23982	30743
11,24393	28464
11,24807	29006
11,25218	29728
11,25630	28175
11,26042	27267
11,26455	27422
11,26867	26940
11,27278	24521
11,27692	25660
11,28103	25331
11,28515	26407
11,28928	24301
11,29340	23064
11,29752	24116
11,30165	21445
11,30577	23412
11,30988	23241
11,31402	23098
11,31813	21578
11,32225	22107
11,32638	21249
11,33050	21189
11,33462	21327
11,33875	21219
11,34287	21324
11,34698	21265
11,35110	20759
11,35523	19847
11,35935	20762
11,36347	20694
11,36760	18757
11,37172	19575
11,37583	18612
11,37997	20547
11,38408	18018
11,38820	18785
11,39233	18193
11,39645	17392
11,40057	19744
11,40470	18742
11,40882	18375
11,41293	18647
11,41707	16000
11,42118	17555
11,42530	17119
11,42943	16981
11,43355	16739
11,43767	16618
11,44178	17341
11,44592	16198
11,45003	16516
11,45415	16817
11,45828	16167
11,46240	16507
11,46652	16647
11,47065	16172
11,47477	17712
11,47888	16097
11,48302	15347
11,48713	16472
11,49125	16522
11,49538	16363
11,49950	16329
11,50362	15456
11,50775	15819
11,51187	16799
11,51598	16415
11,52012	16359
11,52423	15627
11,52835	15858
11,53247	15523
11,53660	16076
11,54072	15676
11,54483	15287
11,54897	14885
11,55308	14687
11,55720	14117
11,56133	17080
11,56545	14350
11,56957	15265
11,57370	14820
11,57782	15212
11,58193	15140
11,58607	14054
11,59018	14267
11,59430	14365
11,59843	13141
11,60255	14372
11,60667	15183
11,61080	14737
11,61492	15026
11,61903	14140
11,62317	14086
11,62728	14198
11,63140	13756
11,63552	14344
11,63965	15730
11,64377	14267
11,64788	13585
11,65202	13705
11,65613	14724
11,66025	14562
11,66438	13293
11,66850	13929
11,67262	15142
11,67675	13958
11,68087	14062
11,68498	15635
11,68912	15538
11,69323	15323
11,69735	16254
11,70148	19369
11,70560	22802
11,70972	27248
11,71385	35074
11,71797	48316
11,72208	67528
11,72620	95161
11,73033	131882
11,73445	176703
11,73857	242394
11,74270	313318
11,74682	392231
11,75093	483042
11,75507	579984
11,75918	684870
11,76330	769295
11,76743	851375
11,77155	921802
11,77567	977689
11,77980	1003930
11,78392	1026252
11,78803	1033824
11,79217	988196
11,79628	964260
11,80040	906860
11,80453	862862
11,80865	798971
11,81277	730299
11,81688	678748
11,82102	599540
11,82513	539604
11,82925	488037
11,83338	429881
11,83750	378992
11,84162	343295
11,84575	303738
11,84987	269184
11,85398	238581
11,85812	217315
11,86223	191237
11,86635	171078
11,87048	154802
11,87460	140527
11,87872	126403
11,88285	120260
11,88697	110692
11,89108	101242
11,89522	93262
11,89933	86770
11,90345	81481
11,90757	75725
11,91170	72762
11,91582	69723
11,91993	61926
11,92407	57583
11,92818	54741
11,93230	53489
11,93643	52231
11,94055	52098
11,94467	48069
11,94880	43761
11,95292	43439
11,95703	42630
11,96117	40030
11,96528	36320
11,96940	35527
11,97353	37221
11,97765	36428
11,98177	34492
11,98590	30686
11,99002	31731
11,99413	32145
11,99825	31150
12,00238	29347
12,00650	28723
12,01062	27102
12,01475	29253
12,01887	27391
12,02298	26215
12,02712	25322
12,03123	23653
12,03535	22875
12,03948	24965
12,04360	22587
12,04772	23052
12,05185	23000
12,05597	22567
12,06008	23316
12,06422	22443
12,06833	20908
12,07245	21082
12,07658	21517
12,08070	21642
12,08482	21642
12,08893	23086
12,09307	20818
12,09718	23485
12,10130	22722
12,10543	22768
12,10955	23673
12,11367	24902
12,11780	27519
12,12192	27741
12,12603	30556
12,13017	28225
12,13428	30529
12,13840	31279
12,14253	32878
12,14665	33400
12,15077	31397
12,15490	34907
12,15902	34207
12,16313	34096
12,16727	33918
12,17138	34957
12,17550	41479
12,17962	47743
12,18375	60939
12,18787	80203
12,19198	114439
12,19612	161325
12,20023	224753
12,20435	309373
12,20848	421591
12,21260	554123
12,21672	717909
12,22085	912065
12,22497	1109724
12,22908	1335151
12,23322	1548751
12,23733	1757658
12,24145	1927972
12,24558	2099022
12,24970	2229698
12,25382	2318148
12,25795	2378824
12,26207	2361376
12,26618	2311644
12,27030	2211538
12,27443	2115651
12,27855	1968267
12,28267	1798587
12,28680	1621958
12,29092	1467360
12,29503	1303608
12,29917	1152566
12,30328	1005734
12,30740	895241
12,31153	783999
12,31565	689870
12,31977	610153
12,32390	543207
12,32802	477520
12,33213	434376
12,33627	386320
12,34038	346004
12,34450	311180
12,34863	283747
12,35275	252754
12,35687	240368
12,36098	216699
12,36512	199819
12,36923	182571
12,37335	170302
12,37748	163257
12,38160	150864
12,38572	141612
12,38985	132885
12,39397	121932
12,39808	116765
12,40222	108883
12,40633	105800
12,41045	95781
12,41458	90998
12,41870	91589
12,42282	86133
12,42695	80953
12,43107	76614
12,43518	73103
12,43932	70181
12,44343	65254
12,44755	65829
12,45167	60940
12,45580	60460
12,45992	57157
12,46403	53169
12,46817	54062
12,47228	52849
12,47640	51647
12,48053	48881
12,48465	47361
12,48877	44539
12,49290	44871
12,49702	42646
12,50113	42663
12,50527	41956
12,50938	39929
12,51350	39120
12,51763	37731
12,52175	36371
12,52587	34439
12,53000	35325
12,53412	33951
12,53823	33873
12,54235	33680
12,54648	30942
12,55060	32048
12,55472	29294
12,55885	29061
12,56297	28184
12,56708	28703
12,57122	27300
12,57533	27276
12,57945	26681
12,58358	27948
12,58770	26051
12,59182	25754
12,59595	25689
12,60007	24811
12,60418	25139
12,60832	22977
12,61243	24751
12,61655	23835
12,62068	26097
12,62480	24930
12,62892	28930
12,63303	32542
12,63717	38792
12,64128	51211
12,64540	67324
12,64953	91491
12,65365	129114
12,65777	168739
12,66190	228309
12,66602	300961
12,67013	379846
12,67427	476317
12,67838	578913
12,68250	679212
12,68663	778019
12,69075	884032
12,69487	965835
12,69900	1040137
12,70312	1088856
12,70723	1103443
12,71137	1119002
12,71548	1101610
12,71960	1058646
12,72372	1012232
12,72785	950556
12,73197	884097
12,73608	813489
12,74022	740070
12,74433	656067
12,74845	592303
12,75258	525591
12,75670	466709
12,76082	417223
12,76495	372660
12,76907	331253
12,77318	290938
12,77732	258891
12,78143	236247
12,78555	215614
12,78968	194337
12,79380	172768
12,79792	158444
12,80205	142974
12,80617	133624
12,81028	124183
12,81440	117729
12,81853	106760
12,82265	99971
12,82677	93067
12,83090	84153
12,83502	81850
12,83913	78886
12,84327	71528
12,84738	73755
12,85150	69141
12,85563	69545
12,85975	72006
12,86387	80560
12,86800	93868
12,87212	114574
12,87623	150815
12,88037	198655
12,88448	263817
12,88860	353093
12,89273	470298
12,89685	604302
12,90097	775742
12,90508	969633
12,90922	1158904
12,91333	1355428
12,91745	1573922
12,92158	1775931
12,92570	1950349
12,92982	2082205
12,93395	2200089
12,93807	2268868
12,94218	2284542
12,94632	2251248
12,95043	2191198
12,95455	2073339
12,95868	1938572
12,96280	1786053
12,96692	1631639
12,97105	1475836
12,97517	1320564
12,97928	1177271
12,98342	1035606
12,98753	917137
12,99165	811807
12,99577	715546
12,99990	637160
13,00402	563522
13,00813	501577
13,01227	447610
13,01638	406534
13,02050	364531
13,02463	329328
13,02875	305160
13,03287	274649
13,03700	253739
13,04112	229409
13,04523	217430
13,04937	199243
13,05348	187932
13,05760	174305
13,06173	162526
13,06585	152057
13,06997	139237
13,07410	135374
13,07822	128024
13,08233	120481
13,08645	114495
13,09058	109076
13,09470	101734
13,09882	99132
13,10295	91328
13,10707	91457
13,11118	86211
13,11532	81528
13,11943	79088
13,12355	73928
13,12768	72400
13,13180	67700
13,13592	67804
13,14005	64465
13,14417	62788
13,14828	61079
13,15242	57906
13,15653	57765
13,16065	53445
13,16478	53585
13,16890	52023
13,17302	50410
13,17715	49492
13,18127	46973
13,18538	46029
13,18950	43722
13,19363	46076
13,19775	44678
13,20187	39106
13,20600	40926
13,21012	40239
13,21423	36381
13,21837	38426
13,22248	37148
13,22660	36108
13,23073	34351
13,23485	34004
13,23897	33207
13,24310	31937
13,24722	33695
13,25133	29540
13,25547	31681
13,25958	29787
13,26370	29402
13,26783	31004
13,27195	30511
13,27607	29009
13,28018	27402
13,28432	30595
13,28843	27477
13,29255	27202
13,29668	26049
13,30080	29189
13,30492	28331
13,30905	25854
13,31317	26024
13,31728	22637
13,32142	23062
13,32553	25215
13,32965	23142
13,33378	25459
13,33790	24164
13,34202	22504
13,34615	21667
13,35027	22697
13,35438	23972
13,35852	21538
13,36263	21820
13,36675	22106
13,37087	21376
13,37500	21878
13,37912	23006
13,38323	22937
13,38737	23555
13,39148	24881
13,39560	29741
13,39973	36451
13,40385	48235
13,40797	60031
13,41210	83505
13,41622	114340
13,42033	153855
13,42447	211326
13,42858	276564
13,43270	358529
13,43683	443823
13,44095	539675
13,44507	646369
13,44920	742383
13,45332	838122
13,45743	913518
13,46155	1002553
13,46568	1045408
13,46980	1105187
13,47392	1141338
13,47805	1187063
13,48217	1214443
13,48628	1283766
13,49042	1335883
13,49453	1418768
13,49865	1516516
13,50278	1651072
13,50690	1789790
13,51102	1945107
13,51515	2110823
13,51927	2267748
13,52338	2403899
13,52752	2537681
13,53163	2611698
13,53575	2637934
13,53988	2629111
13,54400	2553929
13,54812	2453716
13,55223	2303384
13,55637	2134646
13,56048	1933374
13,56460	1738316
13,56873	1556020
13,57285	1366216
13,57697	1209171
13,58110	1067735
13,58522	943693
13,58933	830697
13,59347	733367
13,59758	663729
13,60170	594513
13,60583	529323
13,60995	471434
13,61407	430707
13,61820	389464
13,62232	366325
13,62643	325090
13,63057	298685
13,63468	277231
13,63880	257361
13,64292	238158
13,64705	224260
13,65117	205581
13,65528	199222
13,65942	178455
13,66353	171898
13,66765	161018
13,67178	155181
13,67590	143354
13,68002	137924
13,68415	133918
13,68827	123925
13,69238	119765
13,69652	115980
13,70063	108225
13,70475	104703
13,70888	98844
13,71300	95602
13,71712	91822
13,72125	87821
13,72537	87178
13,72948	82251
13,73360	79819
13,73773	78916
13,74185	74010
13,74597	73149
13,75010	72600
13,75422	68004
13,75833	64320
13,76247	63632
13,76658	61316
13,77070	60811
13,77483	59086
13,77895	55656
13,78307	54339
13,78720	54819
13,79132	51885
13,79543	53651
13,79957	51026
13,80368	47544
13,80780	47362
13,81193	45956
13,81605	45494
13,82017	43348
13,82428	42848
13,82842	43787
13,83253	41790
13,83665	41042
13,84078	41083
13,84490	37439
13,84902	39702
13,85315	38431
13,85727	36134
13,86138	36468
13,86552	35879
13,86963	34656
13,87375	35174
13,87788	35294
13,88200	35530
13,88612	31845
13,89025	32613
13,89437	31751
13,89848	31088
13,90262	30569
13,90673	29549
13,91085	30967
13,91497	30469
13,91910	30743
13,92322	30943
13,92733	34496
13,93147	37320
13,93558	45179
13,93970	55126
13,94383	69664
13,94795	92758
13,95207	124305
13,95620	167011
13,96032	221041
13,96443	288978
13,96857	354246
13,97268	441789
13,97680	537544
13,98093	629100
13,98505	726576
13,98917	809971
13,99330	874957
13,99742	924812
14,00153	980146
14,00565	995753
14,00978	996768
14,01390	966194
14,01802	923763
14,02215	879433
14,02627	823816
14,03038	747417
14,03452	685307
14,03863	612141
14,04275	551341
14,04688	490238
14,05100	445125
14,05512	392224
14,05925	345876
14,06337	312467
14,06748	281316
14,07162	249224
14,07573	220937
14,07985	204099
14,08398	187091
14,08810	167343
14,09222	155257
14,09633	142321
14,10047	130587
14,10458	118536
14,10870	113702
14,11283	105891
14,11695	95589
14,12107	93836
14,12520	86580
14,12932	80925
14,13343	77939
14,13757	77398
14,14168	71536
14,14580	64654
14,14993	61798
14,15405	63079
14,15817	57525
14,16230	57396
14,16642	54646
14,17053	52969
14,17467	48267
14,17878	48489
14,18290	45245
14,18702	44427
14,19115	44585
14,19527	42771
14,19938	41921
14,20352	40604
14,20763	39311
14,21175	39757
14,21588	36722
14,22000	38666
14,22412	35514
14,22825	34479
14,23237	35306
14,23648	34980
14,24062	33484
14,24473	32252
14,24885	31176
14,25298	31853
14,25710	29470
14,26122	29035
14,26535	27049
14,26947	30240
14,27358	27763
14,27770	28184
14,28183	26550
14,28595	26528
14,29007	23957
14,29420	25878
14,29832	25485
14,30243	24773
14,30657	25192
14,31068	23364
14,31480	22397
14,31893	24136
14,32305	21826
14,32717	21647
14,33130	21794
14,33542	23506
14,33953	22663
14,34367	21204
14,34778	20161
14,35190	20121
14,35603	20602
14,36015	19710
14,36427	19627
14,36838	20708
14,37252	19518
14,37663	20970
14,38075	18510
14,38488	20580
14,38900	18686
14,39312	17808
14,39725	18739
14,40137	17550
14,40548	18743
14,40962	18906
14,41373	17669
14,41785	18105
14,42198	18638
14,42610	17041
14,43022	16803
14,43435	19053
14,43847	15698
14,44258	16676
14,44672	17824
14,45083	17672
14,45495	16219
14,45907	16458
14,46320	16579
14,46732	16992
14,47143	16588
14,47557	15889
14,47968	14933
14,48380	15874
14,48793	15852
14,49205	14551
14,49617	15258
14,50030	15669
14,50442	15588
14,50853	15657
14,51267	15288
14,51678	14566
14,52090	15475
14,52503	13860
14,52915	14752
14,53327	14308
14,53740	14961
14,54152	16187
14,54563	15397
14,54975	15482
14,55388	16396
14,55800	14853
14,56212	15384
14,56625	15051
14,57037	16522
14,57448	14235
14,57862	14433
14,58273	15556
14,58685	14090
14,59098	13720
14,59510	15132
14,59922	14362
14,60335	13302
14,60747	13717
14,61158	13632
14,61572	14530
14,61983	13592
14,62395	13576
14,62808	14687
14,63220	13648
14,63632	14202
14,64043	12204
14,64457	13654
14,64868	14224
14,65280	14095
14,65693	13322
14,66105	13717
14,66517	13124
14,66930	12670
14,67342	13702
14,67753	13222
14,68167	13752
14,68578	14197
14,68990	15200
14,69403	16802
14,69815	19663
14,70227	24115
14,70640	31211
14,71052	41079
14,71463	55489
14,71877	77718
14,72288	107389
14,72700	142885
14,73112	197267
14,73525	246925
14,73937	320086
14,74348	401041
14,74762	485294
14,75173	569593
14,75585	650354
14,75998	730739
14,76410	797189
14,76822	863439
14,77235	928556
14,77647	973680
14,78058	1022101
14,78472	1075453
14,78883	1135223
14,79295	1199610
14,79708	1277865
14,80120	1376829
14,80532	1526727
14,80945	1671234
14,81357	1845356
14,81768	2028291
14,82180	2216787
14,82593	2409769
14,83005	2592950
14,83417	2734362
14,83830	2837854
14,84242	2887352
14,84653	2866492
14,85067	2783096
14,85478	2638751
14,85890	2467188
14,86303	2235939
14,86715	2032988
14,87127	1816908
14,87540	1611946
14,87952	1428603
14,88363	1246656
14,88777	1104348
14,89188	972282
14,89600	870071
14,90013	776987
14,90425	689320
14,90837	621992
14,91250	559885
14,91662	512843
14,92073	466261
14,92485	432918
14,92898	392882
14,93310	364262
14,93722	336201
14,94135	319150
14,94547	295548
14,94958	280074
14,95372	259777
14,95783	249316
14,96195	235055
14,96608	219866
14,97020	208142
14,97432	194245
14,97845	184617
14,98257	177135
14,98668	167564
14,99082	159342
14,99493	152699
14,99905	142305
15,00318	137910
15,00730	128005
15,01142	124215
15,01553	118136
15,01967	112192
15,02378	106976
15,02790	104411
15,03203	102088
15,03615	95562
15,04027	91378
15,04440	87034
15,04852	80130
15,05263	79201
15,05677	75345
15,06088	74298
15,06500	74120
15,06913	68317
15,07325	65811
15,07737	66764
15,08150	63079
15,08562	61644
15,08973	61978
15,09387	60604
15,09798	56830
15,10210	56740
15,10622	55651
15,11035	51193
15,11447	51433
15,11858	51641
15,12272	46949
15,12683	47079
15,13095	44494
15,13508	43610
15,13920	44488
15,14332	41702
15,14745	42472
15,15157	40230
15,15568	40469
15,15982	38716
15,16393	38791
15,16805	37235
15,17218	38304
15,17630	36466
15,18042	36437
15,18455	35449
15,18867	35688
15,19278	38022
15,19690	42007
15,20103	46962
15,20515	54055
15,20927	62564
15,21340	83596
15,21752	110376
15,22163	146572
15,22577	191844
15,22988	244227
15,23400	309892
15,23813	392316
15,24225	469489
15,24637	545888
15,25050	617265
15,25462	707780
15,25873	765236
15,26287	825590
15,26698	850583
15,27110	860964
15,27523	852405
15,27935	843137
15,28347	805109
15,28758	770273
15,29172	717955
15,29583	665622
15,29995	603420
15,30408	541435
15,30820	491068
15,31232	438777
15,31645	394989
15,32057	356544
15,32468	315615
15,32882	284486
15,33293	252820
15,33705	232626
15,34118	207609
15,34530	187239
15,34942	168841
15,35355	154201
15,35767	147538
15,36178	130922
15,36592	122312
15,37003	113289
15,37415	107783
15,37827	97411
15,38240	92180
15,38652	87550
15,39063	83094
15,39477	80306
15,39888	73798
15,40300	69483
15,40713	66567
15,41125	62025
15,41537	61148
15,41950	57962
15,42362	57326
15,42773	55765
15,43187	52583
15,43598	50977
15,44010	49851
15,44423	48375
15,44835	50727
15,45247	50504
15,45660	53592
15,46072	57242
15,46483	70677
15,46895	85532
15,47308	110682
15,47720	141489
15,48132	188077
15,48545	243603
15,48957	318588
15,49368	405030
15,49782	503335
15,50193	617836
15,50605	743481
15,51018	859022
15,51430	969822
15,51842	1073651
15,52255	1138588
15,52667	1191463
15,53078	1220071
15,53492	1223673
15,53903	1197231
15,54315	1139637
15,54728	1073490
15,55140	999702
15,55552	914523
15,55963	826214
15,56377	749876
15,56788	678996
15,57200	598830
15,57613	532441
15,58025	483474
15,58437	430862
15,58850	386316
15,59262	342977
15,59673	312763
15,60087	283398
15,60498	259374
15,60910	228994
15,61323	211302
15,61735	197006
15,62147	180104
15,62560	168226
15,62972	158388
15,63383	150097
15,63797	136409
15,64208	130944
15,64620	125396
15,65032	116828
15,65445	112862
15,65857	101934
15,66268	99575
15,66682	91573
15,67093	87786
15,67505	83155
15,67918	83332
15,68330	75944
15,68742	72720
15,69155	69329
15,69567	71287
15,69978	64784
15,70392	64004
15,70803	60458
15,71215	57790
15,71628	56916
15,72040	53378
15,72452	51735
15,72865	51218
15,73277	48947
15,73688	47612
15,74100	47212
15,74513	45337
15,74925	42703
15,75337	43004
15,75750	42758
15,76162	41666
15,76573	39813
15,76987	40838
15,77398	38041
15,77810	38148
15,78223	36180
15,78635	36766
15,79047	35017
15,79460	33795
15,79872	35102
15,80283	32982
15,80697	33010
15,81108	31500
15,81520	29968
15,81933	30732
15,82345	31580
15,82757	28498
15,83168	27834
15,83582	28608
15,83993	29254
15,84405	27478
15,84818	27614
15,85230	26464
15,85642	25912
15,86055	25845
15,86467	26499
15,86878	25195
15,87292	25237
15,87703	25013
15,88115	24829
15,88528	25107
15,88940	24770
15,89352	25093
15,89765	23188
15,90177	22774
15,90588	22407
15,91002	23194
15,91413	23690
15,91825	21935
15,92237	22677
15,92650	23683
15,93062	21009
15,93473	21636
15,93887	20893
15,94298	21011
15,94710	19632
15,95123	21201
15,95535	19860
15,95947	19589
15,96360	20889
15,96772	18133
15,97183	18732
15,97597	19266
15,98008	20491
15,98420	18571
15,98833	18759
15,99245	18694
15,99657	19538
16,00070	18013
16,00482	20488
16,00893	18322
16,01305	19956
16,01718	18980
16,02130	18976
16,02542	17369
16,02955	17281
16,03367	18208
16,03778	18853
16,04192	17346
16,04603	18470
16,05015	18717
16,05428	19907
16,05840	20177
16,06252	19846
16,06665	21592
16,07077	24436
16,07488	28742
16,07902	37643
16,08313	48390
16,08725	68345
16,09138	91187
16,09550	124983
16,09962	171304
16,10373	237963
16,10787	315041
16,11198	407181
16,11610	521134
16,12023	646703
16,12435	777001
16,12847	913764
16,13260	1035150
16,13672	1145977
16,14083	1232084
16,14497	1296544
16,14908	1327551
16,15320	1316992
16,15733	1303814
16,16145	1233643
16,16557	1154640
16,16970	1072725
16,17382	969931
16,17793	875991
16,18207	782935
16,18618	696164
16,19030	618410
16,19442	556732
16,19855	492063
16,20267	442027
16,20678	388741
16,21092	357579
16,21503	322752
16,21915	291852
16,22328	269316
16,22740	241957
16,23152	225368
16,23565	208065
16,23977	188877
16,24388	180755
16,24802	167599
16,25213	155602
16,25625	141440
16,26038	134456
16,26450	125999
16,26862	119180
16,27275	111700
16,27687	107177
16,28098	98048
16,28510	93447
16,28923	90679
16,29335	84934
16,29747	85685
16,30160	80506
16,30572	76194
16,30983	74789
16,31397	72306
16,31808	67888
16,32220	66224
16,32633	66437
16,33045	64804
16,33457	60290
16,33870	57752
16,34282	57331
16,34693	56809
16,35107	52720
16,35518	52048
16,35930	52297
16,36343	47411
16,36755	47713
16,37167	48874
16,37578	44344
16,37992	44363
16,38403	43793
16,38815	43159
16,39228	41122
16,39640	41092
16,40052	38797
16,40465	37873
16,40877	36643
16,41288	35799
16,41702	36555
16,42113	34432
16,42525	34383
16,42938	35809
16,43350	32079
16,43762	32298
16,44175	31972
16,44587	30961
16,44998	31499
16,45412	31130
16,45823	29555
16,46235	28990
16,46648	30504
16,47060	27801
16,47472	27249
16,47883	27462
16,48297	27124
16,48708	26672
16,49120	26989
16,49533	26019
16,49945	24654
16,50357	24086
16,50770	25065
16,51182	24045
16,51593	23290
16,52007	24521
16,52418	23513
16,52830	23476
16,53243	23567
16,53655	23879
16,54067	26061
16,54480	25277
16,54892	29617
16,55303	33730
16,55717	40141
16,56128	53126
16,56540	66968
16,56952	91518
16,57365	124804
16,57777	169761
16,58188	224972
16,58602	292924
16,59013	373263
16,59425	470126
16,59838	575183
16,60250	673791
16,60662	766832
16,61075	864834
16,61487	936620
16,61898	979416
16,62312	1022719
16,62723	1040539
16,63135	1022430
16,63548	991007
16,63960	943879
16,64372	881259
16,64785	816454
16,65197	761820
16,65608	679263
16,66020	617449
16,66433	554776
16,66845	499718
16,67257	444809
16,67670	400166
16,68082	355578
16,68493	316341
16,68907	293068
16,69318	270651
16,69730	241502
16,70143	216002
16,70555	199097
16,70967	182265
16,71380	169608
16,71792	156395
16,72203	145387
16,72617	133343
16,73028	128076
16,73440	120856
16,73853	113230
16,74265	103269
16,74677	97688
16,75088	93883
16,75502	87691
16,75913	81916
16,76325	80054
16,76738	77081
16,77150	72853
16,77562	72003
16,77975	66992
16,78387	63475
16,78798	60471
16,79212	60652
16,79623	58246
16,80035	54321
16,80448	52551
16,80860	50980
16,81272	48273
16,81685	45800
16,82097	45885
16,82508	46515
16,82922	41965
16,83333	43736
16,83745	41373
16,84157	41596
16,84570	41318
16,84982	39724
16,85393	36952
16,85807	36836
16,86218	36289
16,86630	36364
16,87043	33331
16,87455	36170
16,87867	31508
16,88280	32674
16,88692	31563
16,89103	31928
16,89517	30461
16,89928	30485
16,90340	28763
16,90753	28857
16,91165	27325
16,91577	27543
16,91990	26396
16,92402	26163
16,92813	26404
16,93225	26255
16,93638	24652
16,94050	25287
16,94462	24780
16,94875	26143
16,95287	25767
16,95698	23613
16,96112	24439
16,96523	23920
16,96935	24904
16,97348	23852
16,97760	23755
16,98172	23184
16,98585	23082
16,98997	23688
16,99408	23205
16,99822	21875
17,00233	23454
17,00645	22786
17,01058	22340
17,01470	19897
17,01882	22850
17,02293	22474
17,02707	22041
17,03118	23050
17,03530	21883
17,03943	21930
17,04355	23422
17,04767	22369
17,05180	21905
17,05592	23155
17,06003	20760
17,06417	22749
17,06828	20839
17,07240	21561
17,07653	20418
17,08065	21089
17,08477	20842
17,08890	22116
17,09302	21642
17,09713	19533
17,10127	19264
17,10538	21686
17,10950	22000
17,11362	19691
17,11775	21061
17,12187	19002
17,12598	19170
17,13012	19367
17,13423	18834
17,13835	19162
17,14248	21087
17,14660	19687
17,15072	18574
17,15485	19363
17,15897	19342
17,16308	19584
17,16722	19103
17,17133	18866
17,17545	19772
17,17958	17733
17,18370	19293
17,18782	18208
17,19195	17502
17,19607	18203
17,20018	17523
17,20430	17674
17,20843	18042
17,21255	18719
17,21667	16770
17,22080	19218
17,22492	18737
17,22903	19513
17,23317	18161
17,23728	18647
17,24140	16814
17,24553	18541
17,24965	18461
17,25377	18140
17,25790	19467
17,26202	18485
17,26613	18324
17,27027	19098
17,27438	17755
17,27850	19402
17,28263	19422
17,28675	18827
17,29087	16832
17,29498	18495
17,29912	19152
17,30323	17639
17,30735	18409
17,31148	20894
17,31560	19958
17,31972	22441
17,32385	26926
17,32797	31537
17,33208	39615
17,33622	55085
17,34033	70352
17,34445	99168
17,34858	133887
17,35270	183429
17,35682	240004
17,36095	307283
17,36507	391768
17,36918	480978
17,37332	570190
17,37743	661548
17,38155	758035
17,38567	847361
17,38980	928072
17,39392	993166
17,39803	1049334
17,40217	1098905
17,40628	1170618
17,41040	1224215
17,41453	1274632
17,41865	1354724
17,42277	1452190
17,42690	1556376
17,43102	1681530
17,43513	1846935
17,43927	2021627
17,44338	2222445
17,44750	2397705
17,45163	2585030
17,45575	2753903
17,45987	2886695
17,46400	2947541
17,46812	2936389
17,47223	2898493
17,47635	2761786
17,48048	2603303
17,48460	2389920
17,48872	2161816
17,49285	1951198
17,49697	1751229
17,50108	1546313
17,50522	1376900
17,50933	1224450
17,51345	1086316
17,51758	971020
17,52170	874987
17,52582	791686
17,52995	718181
17,53407	646738
17,53818	589191
17,54232	541347
17,54643	499738
17,55055	458538
17,55468	428390
17,55880	397868
17,56292	375166
17,56703	345067
17,57117	323410
17,57528	305411
17,57940	287179
17,58353	272595
17,58765	254106
17,59177	239696
17,59590	230309
17,60002	217349
17,60413	206155
17,60827	196417
17,61238	183408
17,61650	180515
17,62063	170602
17,62475	165450
17,62887	155823
17,63300	146113
17,63712	145131
17,64123	134717
17,64537	132529
17,64948	127279
17,65360	122621
17,65772	118576
17,66185	115310
17,66597	114444
17,67008	105080
17,67422	105267
17,67833	99084
17,68245	93892
17,68658	95106
17,69070	93345
17,69482	90622
17,69895	91125
17,70307	82829
17,70718	84538
17,71132	79913
17,71543	81186
17,71955	76769
17,72368	72786
17,72780	72336
17,73192	69799
17,73605	68886
17,74017	65339
17,74428	63779
17,74840	64430
17,75253	61150
17,75665	61733
17,76077	61774
17,76490	58637
17,76902	58631
17,77313	57842
17,77727	56018
17,78138	54329
17,78550	54274
17,78963	55066
17,79375	53302
17,79787	54327
17,80200	52054
17,80612	53679
17,81023	53795
17,81437	52152
17,81848	56704
17,82260	60285
17,82673	69233
17,83085	84615
17,83497	98361
17,83908	123395
17,84322	156777
17,84733	196104
17,85145	256846
17,85558	315532
17,85970	397624
17,86382	477257
17,86795	569172
17,87207	661776
17,87618	750875
17,88032	825679
17,88443	895537
17,88855	942323
17,89268	959249
17,89680	969874
17,90092	959713
17,90505	950695
17,90917	914197
17,91328	877586
17,91742	857870
17,92153	835055
17,92565	820151
17,92978	822583
17,93390	822583
17,93802	845718
17,94213	868699
17,94627	907437
17,95038	947371
17,95450	987460
17,95863	1018711
17,96275	1040556
17,96687	1049928
17,97100	1055650
17,97512	1029640
17,97923	995807
17,98337	953924
17,98748	896342
17,99160	832489
17,99573	775450
17,99985	698344
18,00397	644004
18,00810	590298
18,01222	532029
18,01633	484635
18,02047	435657
18,02458	398716
18,02870	357018
18,03282	333845
18,03695	298628
18,04107	275190
18,04518	255214
18,04932	236864
18,05343	216716
18,05755	210162
18,06168	196399
18,06580	190471
18,06992	186235
18,07405	187764
18,07817	192807
18,08228	209219
18,08642	238975
18,09053	273303
18,09465	315434
18,09878	376806
18,10290	456110
18,10702	546617
18,11115	646550
18,11527	763900
18,11938	883185
18,12350	1009080
18,12763	1105556
18,13175	1197173
18,13587	1260219
18,14000	1299103
18,14412	1292888
18,14823	1263489
18,15237	1218852
18,15648	1159847
18,16060	1096280
18,16473	1010604
18,16885	923722
18,17297	845165
18,17710	764135
18,18122	690264
18,18533	625642
18,18947	558294
18,19358	512394
18,19770	464778
18,20183	421747
18,20595	389559
18,21007	355682
18,21418	326675
18,21832	302947
18,22243	276321
18,22655	264268
18,23068	240062
18,23480	228841
18,23892	213491
18,24305	200769
18,24717	192343
18,25128	178341
18,25542	169025
18,25953	163948
18,26365	157200
18,26778	145509
18,27190	140011
18,27602	132810
18,28015	130204
18,28427	126579
18,28838	120538
18,29252	111047
18,29663	109134
18,30075	105711
18,30487	100568
18,30900	99256
18,31312	96028
18,31723	89078
18,32137	86308
18,32548	84795
18,32960	79929
18,33373	76321
18,33785	78014
18,34197	74848
18,34610	73763
18,35022	70138
18,35433	66859
18,35847	67399
18,36258	65601
18,36670	66724
18,37083	63395
18,37495	63064
18,37907	60735
18,38320	58196
18,38732	58566
18,39143	53732
18,39555	55663
18,39968	51934
18,40380	54544
18,40792	52467
18,41205	51364
18,41617	52024
18,42028	51411
18,42442	48654
18,42853	49223
18,43265	45204
18,43678	47473
18,44090	45031
18,44502	43672
18,44915	44067
18,45327	42885
18,45738	44526
18,46152	43882
18,46563	43432
18,46975	42590
18,47388	42227
18,47800	43374
18,48212	40035
18,48623	43028
18,49037	41892
18,49448	42270
18,49860	40444
18,50273	38676
18,50685	39238
18,51097	38924
18,51510	37070
18,51922	36591
18,52333	35916
18,52747	35882
18,53158	34065
18,53570	35833
18,53983	34811
18,54395	34902
18,54807	33598
18,55220	32246
18,55632	31035
18,56043	33114
18,56457	30856
18,56868	32142
18,57280	30127
18,57692	28845
18,58105	30278
18,58517	27441
18,58928	29110
18,59342	28634
18,59753	30296
18,60165	26332
18,60578	29210
18,60990	30731
18,61402	27817
18,61815	27461
18,62227	26249
18,62638	26769
18,63052	27500
18,63463	29301
18,63875	27889
18,64288	28105
18,64700	28187
18,65112	26263
18,65525	31165
18,65937	32270
18,66348	37271
18,66760	38088
18,67173	44182
18,67585	55537
18,67997	71076
18,68410	92764
18,68822	124619
18,69233	164400
18,69647	216741
18,70058	284933
18,70470	366923
18,70883	465639
18,71295	576677
18,71707	700373
18,72120	844259
18,72532	966234
18,72943	1090447
18,73357	1188651
18,73768	1270750
18,74180	1315543
18,74593	1324632
18,75005	1304535
18,75417	1260977
18,75828	1188363
18,76242	1108186
18,76653	1016644
18,77065	928507
18,77478	842349
18,77890	753626
18,78302	683111
18,78715	620872
18,79127	554359
18,79538	503925
18,79952	464056
18,80363	421383
18,80775	379866
18,81188	353366
18,81600	328731
18,82012	298463
18,82425	277294
18,82837	259123
18,83248	241123
18,83662	226589
18,84073	210112
18,84485	199132
18,84897	189133
18,85310	182128
18,85722	165534
18,86133	157022
18,86547	152671
18,86958	144687
18,87370	137981
18,87783	130522
18,88195	124680
18,88607	117117
18,89020	113540
18,89432	109094
18,89843	106392
18,90257	98711
18,90668	101338
18,91080	95992
18,91493	94157
18,91905	89226
18,92317	86629
18,92730	81918
18,93142	82574
18,93553	81243
18,93965	76175
18,94378	78111
18,94790	72610
18,95202	69631
18,95615	68694
18,96027	66643
18,96438	66392
18,96852	60873
18,97263	62594
18,97675	60827
18,98088	59967
18,98500	56558
18,98912	55060
18,99325	56600
18,99737	53541
19,00148	52101
19,00562	52615
19,00973	48492
19,01385	51669
19,01798	49667
19,02210	48211
19,02622	47707
19,03033	44401
19,03447	44543
19,03858	45169
19,04270	42463
19,04683	43322
19,05095	42170
19,05507	41555
19,05920	42221
19,06332	42560
19,06743	42401
19,07157	39759
19,07568	38168
19,07980	37533
19,08393	36849
19,08805	35598
19,09217	36197
19,09630	35625
19,10042	36028
19,10453	35913
19,10867	33605
19,11278	35142
19,11690	33340
19,12102	32899
19,12515	35310
19,12927	35253
19,13338	38811
19,13752	40056
19,14163	42813
19,14575	49988
19,14988	58646
19,15400	74195
19,15812	93934
19,16225	124339
19,16637	163551
19,17048	217936
19,17462	279411
19,17873	351286
19,18285	446228
19,18698	545690
19,19110	648671
19,19522	754132
19,19935	859792
19,20347	948846
19,20758	1024901
19,21170	1081444
19,21583	1111731
19,21995	1117426
19,22407	1112108
19,22820	1112528
19,23232	1081732
19,23643	1064329
19,24057	1055616
19,24468	1047261
19,24880	1036816
19,25293	1051201
19,25705	1049295
19,26117	1073193
19,26530	1091963
19,26942	1090960
19,27353	1093603
19,27767	1080677
19,28178	1071291
19,28590	1033868
19,29003	992226
19,29415	937251
19,29827	871968
19,30238	812907
19,30652	753659
19,31063	693766
19,31475	630834
19,31888	575990
19,32300	520421
19,32712	474224
19,33125	430652
19,33537	404644
19,33948	368260
19,34362	334974
19,34773	308308
19,35185	283958
19,35598	266075
19,36010	243834
19,36422	227478
19,36835	218455
19,37247	195851
19,37658	190027
19,38072	175824
19,38483	170255
19,38895	160053
19,39307	149542
19,39720	142164
19,40132	137574
19,40543	127824
19,40957	122425
19,41368	121738
19,41780	109838
19,42193	109913
19,42605	102545
19,43017	100872
19,43430	95714
19,43842	94560
19,44253	89973
19,44667	85245
19,45078	83104
19,45490	81394
19,45903	76256
19,46315	78555
19,46727	72707
19,47140	70756
19,47552	70733
19,47963	66801
19,48375	66271
19,48788	62757
19,49200	62247
19,49612	61688
19,50025	57255
19,50437	57904
19,50848	58556
19,51262	55856
19,51673	56573
19,52085	52066
19,52498	51347
19,52910	50839
19,53322	49273
19,53735	49047
19,54147	50153
19,54558	47294
19,54972	47054
19,55383	47155
19,55795	46432
19,56208	46327
19,56620	41740
19,57032	41632
19,57443	42038
19,57857	42106
19,58268	39172
19,58680	41271
19,59093	39048
19,59505	39696
19,59917	40579
19,60330	36914
19,60742	36281
19,61153	37728
19,61567	34763
19,61978	35606
19,62390	36516
19,62803	36254
19,63215	35680
19,63627	34648
19,64040	34769
19,64452	33045
19,64863	35929
19,65277	34232
19,65688	33945
19,66100	33444
19,66513	35009
19,66925	33712
19,67337	32481
19,67748	32985
19,68162	31915
19,68573	32748
19,68985	30041
19,69398	32060
19,69810	30737
19,70222	31110
19,70635	30654
19,71047	29751
19,71458	30208
19,71872	29179
19,72283	28934
19,72695	28208
19,73108	27418
19,73520	29956
19,73932	29777
19,74345	30598
19,74757	28007
19,75168	26769
19,75582	26740
19,75993	27655
19,76405	27059
19,76817	27128
19,77230	26653
19,77642	27620
19,78053	26836
19,78467	26708
19,78878	26656
19,79290	28011
19,79703	25573
19,80115	28211
19,80527	26348
19,80940	26271
19,81352	25933
19,81763	27411
19,82177	24935
19,82588	26824
19,83000	25308
19,83413	26310
19,83825	25758
19,84237	23447
19,84650	26482
19,85062	24992
19,85473	23709
19,85885	23780
19,86298	24694
19,86710	23664
19,87122	25370
19,87535	25055
19,87947	25565
19,88358	24220
19,88772	24966
19,89183	25148
19,89595	25685
19,90008	24250
19,90420	25566
19,90832	25322
19,91245	25478
19,91657	24500
19,92068	26022
19,92482	27632
19,92893	29602
19,93305	32832
19,93718	35918
19,94130	43185
19,94542	51982
19,94953	67632
19,95367	85517
19,95778	109958
19,96190	148792
19,96603	193360
19,97015	253269
19,97427	329663
19,97840	421447
19,98252	530723
19,98663	664439
19,99077	808049
19,99488	984814
19,99900	1177759
20,00313	1383671
20,00725	1598554
20,01137	1819880
20,01550	2004674
20,01962	2209906
20,02373	2383516
20,02787	2496902
20,03198	2562861
20,03610	2572729
20,04022	2511664
20,04435	2394984
20,04847	2225019
20,05258	2054144
20,05672	1854320
20,06083	1680959
20,06495	1495904
20,06908	1353865
20,07320	1198455
20,07732	1074274
20,08145	964246
20,08557	868286
20,08968	791800
20,09382	720169
20,09793	656640
20,10205	603246
20,10618	561530
20,11030	517952
20,11442	473182
20,11855	444135
20,12267	415968
20,12678	388716
20,13090	365278
20,13503	340014
20,13915	322089
20,14327	303477
20,14740	289633
20,15152	273695
20,15563	258819
20,15977	247702
20,16388	235271
20,16800	225919
20,17213	213546
20,17625	205948
20,18037	193393
20,18450	190621
20,18862	181052
20,19273	176043
20,19687	168766
20,20098	164113
20,20510	153946
20,20923	152769
20,21335	144543
20,21747	137411
20,22158	134884
20,22572	131498
20,22983	125455
20,23395	123835
20,23808	122789
20,24220	115742
20,24632	112875
20,25045	110809
20,25457	105797
20,25868	104845
20,26282	100182
20,26693	100366
20,27105	92719
20,27518	94214
20,27930	91196
20,28342	89412
20,28755	88436
20,29167	84306
20,29578	81592
20,29992	82476
20,30403	81200
20,30815	76531
20,31227	76771
20,31640	73352
20,32052	73019
20,32463	73575
20,32877	71638
20,33288	68373
20,33700	69762
20,34113	66620
20,34525	64934
20,34937	65447
20,35350	61824
20,35762	59859
20,36173	62699
20,36587	59683
20,36998	60075
20,37410	57885
20,37823	58482
20,38235	57422
20,38647	56183
20,39060	53716
20,39472	56224
20,39883	52658
20,40295	54666
20,40708	51453
20,41120	53004
20,41532	51172
20,41945	50696
20,42357	50164
20,42768	49559
20,43182	47759
20,43593	48644
20,44005	48488
20,44418	47626
20,44830	45874
20,45242	47342
20,45655	46737
20,46067	45453
20,46478	43175
20,46892	45254
20,47303	44858
20,47715	43024
20,48128	43348
20,48540	42224
20,48952	42921
20,49363	43651
20,49777	42777
20,50188	41150
20,50600	40132
20,51013	40666
20,51425	40623
20,51837	40345
20,52250	38290
20,52662	38705
20,53073	39555
20,53487	39813
20,53898	40248
20,54310	36037
20,54723	38273
20,55135	37584
20,55547	37314
20,55960	38146
20,56372	36734
20,56783	36141
20,57197	38008
20,57608	38602
20,58020	38650
20,58432	37829
20,58845	39903
20,59257	38991
20,59668	44827
20,60082	48173
20,60493	53477
20,60905	58459
20,61318	68127
20,61730	86590
20,62142	109183
20,62555	140538
20,62967	182839
20,63378	237180
20,63792	297285
20,64203	372791
20,64615	466210
20,65028	560089
20,65440	673015
20,65852	795895
20,66265	901689
20,66677	992903
20,67088	1073309
20,67500	1141145
20,67913	1171984
20,68325	1182968
20,68737	1174366
20,69150	1127384
20,69562	1075711
20,69973	1005478
20,70387	931368
20,70798	861943
20,71210	784630
20,71623	716826
20,72035	649368
20,72447	591812
20,72860	541080
20,73272	498978
20,73683	453203
20,74097	416250
20,74508	384015
20,74920	352512
20,75333	325955
20,75745	304548
20,76157	286851
20,76568	261679
20,76982	250261
20,77393	236711
20,77805	223501
20,78218	213790
20,78630	199642
20,79042	187087
20,79455	180807
20,79867	170897
20,80278	163494
20,80692	153809
20,81103	150361
20,81515	145509
20,81928	137125
20,82340	132141
20,82752	124733
20,83165	124021
20,83577	121079
20,83988	113607
20,84402	110909
20,84813	108819
20,85225	104740
20,85637	101223
20,86050	95146
20,86462	92732
20,86873	92208
20,87287	89322
20,87698	87858
20,88110	82073
20,88523	82564
20,88935	81798
20,89347	80413
20,89760	77351
20,90172	74323
20,90583	70491
20,90997	70825
20,91408	71054
20,91820	68057
20,92233	66510
20,92645	67654
20,93057	66042
20,93470	65675
20,93882	64258
20,94293	64530
20,94705	65207
20,95118	68374
20,95530	70067
20,95942	74293
20,96355	74399
20,96767	80434
20,97178	81677
20,97592	85771
20,98003	91467
20,98415	94743
20,98828	96982
20,99240	101366
20,99652	103406
21,00065	105671
21,00477	102458
21,00888	105421
21,01302	105177
21,01713	99667
21,02125	98242
21,02538	96289
21,02950	90436
21,03362	88343
21,03773	84820
21,04187	81159
21,04598	77380
21,05010	70552
21,05423	69805
21,05835	65044
21,06247	64591
21,06660	60144
21,07072	57548
21,07483	54787
21,07897	53328
21,08308	53001
21,08720	51607
21,09133	49973
21,09545	48438
21,09957	45609
21,10370	44714
21,10782	43521
21,11193	43567
21,11607	43346
21,12018	41296
21,12430	42570
21,12842	40017
21,13255	38894
21,13667	39991
21,14078	39854
21,14492	41032
21,14903	36731
21,15315	37782
21,15728	36646
21,16140	36452
21,16552	35904
21,16965	37421
21,17377	36480
21,17788	34479
21,18202	36197
21,18613	32380
21,19025	35911
21,19438	35881
21,19850	32834
21,20262	32798
21,20675	33375
21,21087	34864
21,21498	33873
21,21912	31269
21,22323	32052
21,22735	33438
21,23147	32700
21,23560	30480
21,23972	31418
21,24383	33250
21,24797	32193
21,25208	31396
21,25620	33207
21,26033	31980
21,26445	32230
21,26857	31253
21,27270	31998
21,27682	29521
21,28093	31120
21,28507	30077
21,28918	30004
21,29330	33124
21,29743	30330
21,30155	30212
21,30567	31111
21,30980	28655
21,31392	29120
21,31803	28716
21,32215	27831
21,32628	28989
21,33040	28897
21,33452	28537
21,33865	30056
21,34277	27835
21,34688	28164
21,35102	27755
21,35513	29858
21,35925	27264
21,36338	28878
21,36750	27918
21,37162	26998
21,37575	29140
21,37987	26712
21,38398	29090
21,38812	28995
21,39223	29131
21,39635	29891
21,40048	30597
21,40460	25938
21,40872	29289
21,41283	29184
21,41697	29963
21,42108	28441
21,42520	28673
21,42933	26901
21,43345	28503
21,43757	26713
21,44170	26960
21,44582	27741
21,44993	26508
21,45407	28585
21,45818	27338
21,46230	26097
21,46643	26058
21,47055	26252
21,47467	24923
21,47880	26464
21,48292	25829
21,48703	26279
21,49117	25949
21,49528	25869
21,49940	24383
21,50352	23418
21,50765	27046
21,51177	24122
21,51588	24247
21,52002	24997
21,52413	22692
21,52825	23788
21,53238	23884
21,53650	24451
21,54062	24372
21,54475	24964
21,54887	24577
21,55298	25697
21,55712	24973
21,56123	24830
21,56535	25976
21,56948	25194
21,57360	24911
21,57772	22514
21,58185	23125
21,58597	25099
21,59008	24550
21,59420	24879
21,59833	26580
21,60245	26192
21,60657	25982
21,61070	23965
21,61482	25682
21,61893	26340
21,62307	25025
21,62718	24216
21,63130	24566
21,63543	25157
21,63955	25803
21,64367	25161
21,64780	25528
21,65192	25612
21,65603	24652
21,66017	27594
21,66428	24377
21,66840	24455
21,67253	24290
21,67665	23271
21,68077	23619
21,68488	24951
21,68902	25543
21,69313	24725
21,69725	23787
21,70138	24005
21,70550	23177
21,70962	24395
21,71375	23813
21,71787	22264
21,72198	23143
21,72612	24306
21,73023	23795
21,73435	23950
21,73848	24365
21,74260	23501
21,74672	24286
21,75085	25423
21,75497	23847
21,75908	23187
21,76322	23217
21,76733	23661
21,77145	23673
21,77557	24486
21,77970	24135
21,78382	23748
21,78793	25412
21,79207	24774
21,79618	24465
21,80030	23064
21,80443	24164
21,80855	22828
21,81267	22579
21,81680	24811
21,82092	24452
21,82503	25266
21,82917	23920
21,83328	23973
21,83740	24843
21,84153	23802
21,84565	22073
21,84977	22582
21,85390	25796
21,85802	22522
21,86213	23018
21,86625	23644
21,87038	24843
21,87450	22623
21,87862	24168
21,88275	23240
21,88687	24196
21,89098	23480
21,89512	23109
21,89923	23265
21,90335	23203
21,90748	23251
21,91160	23176
21,91572	23271
21,91985	23613
21,92397	21982
21,92808	22746
21,93222	24374
21,93633	22295
21,94045	23689
21,94458	24390
21,94870	22790
21,95282	22949
21,95693	23850
21,96107	22166
21,96518	21667
21,96930	22224
21,97343	22237
21,97755	22333
21,98167	23865
21,98580	22308
21,98992	21607
21,99403	21825
21,99817	20314
22,00228	20603
22,00640	22836
22,01053	22066
22,01465	22862
22,01877	21925
22,02290	22270
22,02702	23514
22,03113	21556
22,03527	21879
22,03938	22999
22,04350	22244
22,04762	20909
22,05175	20306
22,05587	22309
22,05998	21493
22,06412	23696
22,06823	24042
22,07235	22572
22,07648	21827
22,08060	22504
22,08472	22774
22,08885	22318
22,09297	24015
22,09708	22486
22,10122	22338
22,10533	22892
22,10945	20840
22,11358	24058
22,11770	22563
22,12182	23565
22,12595	23495
22,13007	22831
22,13418	24013
22,13830	23958
22,14243	22292
22,14655	22151
22,15067	22849
22,15480	22326
22,15892	22248
22,16303	22307
22,16717	21497
22,17128	23322
22,17540	21654
22,17953	23628
22,18365	22245
22,18777	22355
22,19190	22513
22,19602	23975
22,20013	22700
22,20427	23262
22,20838	21399
22,21250	20946
22,21663	22787
22,22075	21163
22,22487	22316
22,22898	23464
22,23312	23224
22,23723	22891
22,24135	21813
22,24548	21885
22,24960	22771
22,25372	22284
22,25785	21592
22,26197	21999
22,26608	24128
22,27022	24353
22,27433	23578
22,27845	22045
22,28258	21898
22,28670	21632
22,29082	24590
22,29495	22202
22,29907	23564
22,30318	21985
22,30732	23157
22,31143	21398
22,31555	22914
22,31967	23639
22,32380	21888
22,32792	22818
22,33203	22565
22,33617	24021
22,34028	23536
22,34440	24910
22,34853	27725
22,35265	28657
22,35677	31282
22,36090	38464
22,36502	44191
22,36913	55360
22,37327	71474
22,37738	89172
22,38150	113624
22,38563	150438
22,38975	194677
22,39387	237731
22,39800	294051
22,40212	353570
22,40623	406721
22,41035	467542
22,41448	520375
22,41860	557132
22,42272	597264
22,42685	620510
22,43097	628033
22,43508	624470
22,43922	607594
22,44333	586442
22,44745	553789
22,45158	519480
22,45570	485598
22,45982	448296
22,46395	411898
22,46807	381668
22,47218	349633
22,47632	315667
22,48043	289820
22,48455	265883
22,48868	245699
22,49280	224050
22,49692	205510
22,50103	190346
22,50517	177420
22,50928	164430
22,51340	152832
22,51753	141390
22,52165	138166
22,52577	128271
22,52990	122334
22,53402	113743
22,53813	108066
22,54227	102517
22,54638	93093
22,55050	92207
22,55463	89254
22,55875	85432
22,56287	80508
22,56700	79705
22,57112	74165
22,57523	72316
22,57937	70762
22,58348	67017
22,58760	66846
22,59172	65104
22,59585	62922
22,59997	60346
22,60408	58937
22,60822	54791
22,61233	55736
22,61645	54707
22,62058	52051
22,62470	53145
22,62882	50956
22,63295	49748
22,63707	49341
22,64118	47522
22,64532	47208
22,64943	47718
22,65355	44729
22,65768	44967
22,66180	45268
22,66592	44994
22,67005	40899
22,67417	43318
22,67828	44239
22,68240	40814
22,68653	40490
22,69065	40064
22,69477	40501
22,69890	41110
22,70302	39588
22,70713	39134
22,71127	38757
22,71538	37923
22,71950	37910
22,72363	37833
22,72775	35106
22,73187	38493
22,73600	36778
22,74012	37972
22,74423	37232
22,74837	35225
22,75248	34630
22,75660	33758
22,76073	35640
22,76485	34404
22,76897	35613
22,77310	35569
22,77722	34964
22,78133	34459
22,78545	33331
22,78958	32650
22,79370	30894
22,79782	32654
22,80195	31055
22,80607	32289
22,81018	30583
22,81432	30783
22,81843	30732
22,82255	32385
22,82668	29848
22,83080	32265
22,83492	31851
22,83905	31703
22,84317	31616
22,84728	30994
22,85142	30900
22,85553	30082
22,85965	31550
22,86378	28099
22,86790	29105
22,87202	29163
22,87613	29438
22,88027	29440
22,88438	29411
22,88850	29206
22,89263	30786
22,89675	29099
22,90087	28711
22,90500	31461
22,90912	28682
22,91323	31047
22,91737	28169
22,92148	30620
22,92560	29280
22,92973	29247
22,93385	30734
22,93797	29809
22,94210	28820
22,94622	29304
22,95033	30778
22,95447	29617
22,95858	29627
22,96270	30488
22,96682	29274
22,97095	29618
