D:\MassHunter\GCMS\1\data\Amal\Constant flow\140C\140C_1ml-min_7C-min_1.D Fri Jul 26 16:30:54 2024
Start of data points
5,04118,209295
5,04563,199687
5,05007,191430
5,05452,185594
5,05897,175745
5,06340,169328
5,06785,163699
5,07228,157326
5,07673,152430
5,08117,145439
5,08562,143009
5,09005,138537
5,09450,132507
5,09893,129441
5,10338,123059
5,10782,119182
5,11227,115803
5,11670,111809
5,12115,109719
5,12558,107770
5,13003,102815
5,13447,102648
5,13892,98353
5,14335,98562
5,14780,94832
5,15223,92296
5,15668,89642
5,16112,87628
5,16557,86775
5,17000,87578
5,17445,83333
5,17890,82654
5,18333,79382
5,18778,78556
5,19222,80169
5,19667,74893
5,20110,76154
5,20555,73648
5,20998,72026
5,21443,73534
5,21887,72705
5,22332,70660
5,22775,70233
5,23220,68367
5,23663,67515
5,24108,66013
5,24552,66038
5,24997,66060
5,25440,63176
5,25885,63168
5,26328,60785
5,26773,62137
5,27217,61793
5,27662,60262
5,28105,61539
5,28550,61563
5,28993,58668
5,29438,58486
5,29883,58607
5,30327,56636
5,30772,56206
5,31215,57052
5,31660,57657
5,32103,55260
5,32548,55194
5,32992,57347
5,33437,53831
5,33880,54593
5,34325,54032
5,34768,55101
5,35213,55046
5,35657,55041
5,36102,53231
5,36545,52254
5,36990,52028
5,37433,54573
5,37878,52734
5,38322,51131
5,38767,53657
5,39210,50718
5,39655,51372
5,40098,50020
5,40543,51072
5,40987,49961
5,41432,49770
5,41877,51285
5,42320,50040
5,42765,49655
5,43208,47677
5,43653,48965
5,44097,48285
5,44542,48723
5,44985,46785
5,45430,47345
5,45873,47699
5,46318,50293
5,46762,56296
5,47207,68660
5,47650,100861
5,48095,156143
5,48538,227762
5,48983,307005
5,49427,387816
5,49872,447426
5,50315,462922
5,50760,480924
5,51203,475401
5,51648,465356
5,52092,450326
5,52537,437397
5,52980,416285
5,53425,400049
5,53870,391159
5,54313,372421
5,54758,356850
5,55202,344766
5,55647,330146
5,56090,326976
5,56535,314160
5,56978,294686
5,57423,286585
5,57867,275035
5,58312,266551
5,58755,257295
5,59200,243208
5,59643,233939
5,60088,226469
5,60532,214542
5,60977,207115
5,61420,195576
5,61865,184768
5,62308,178185
5,62753,166161
5,63197,154924
5,63642,145185
5,64085,136184
5,64530,126562
5,64973,117987
5,65418,111215
5,65863,104433
5,66307,95544
5,66752,90840
5,67195,83853
5,67640,79065
5,68083,74191
5,68528,73006
5,68972,70245
5,69417,64571
5,69860,61918
5,70305,57497
5,70748,58661
5,71193,54170
5,71637,52495
5,72082,51038
5,72525,51579
5,72970,47673
5,73413,46958
5,73858,43726
5,74302,43083
5,74747,44519
5,75190,41943
5,75635,42176
5,76078,40377
5,76523,40290
5,76967,39880
5,77412,39118
5,77855,38665
5,78300,37491
5,78745,39169
5,79188,38561
5,79633,37036
5,80077,37479
5,80522,38760
5,80965,36541
5,81410,36285
5,81853,36543
5,82298,35478
5,82742,35346
5,83187,37025
5,83630,35888
5,84075,36020
5,84518,35307
5,84963,36968
5,85407,34906
5,85852,35513
5,86295,37293
5,86740,35661
5,87183,35119
5,87628,36018
5,88072,37442
5,88517,34799
5,88960,34778
5,89405,35765
5,89848,37283
5,90293,41048
5,90738,52343
5,91182,71279
5,91627,101508
5,92070,142225
5,92515,190967
5,92958,240819
5,93403,279871
5,93847,294258
5,94292,310841
5,94735,308877
5,95180,302775
5,95623,295151
5,96068,285395
5,96512,275188
5,96957,263196
5,97400,256604
5,97845,244943
5,98288,236827
5,98733,226377
5,99177,215430
5,99622,208826
6,00065,200587
6,00510,192362
6,00953,183447
6,01398,175341
6,01842,166824
6,02287,156033
6,02732,152310
6,03175,140065
6,03620,136043
6,04063,128092
6,04508,121857
6,04952,113824
6,05397,106124
6,05840,100391
6,06285,90806
6,06728,85215
6,07173,81125
6,07617,73344
6,08062,66813
6,08505,62992
6,08950,60642
6,09393,57790
6,09838,54102
6,10282,52532
6,10727,47816
6,11170,46620
6,11615,44184
6,12058,43431
6,12503,39879
6,12947,38992
6,13392,37907
6,13835,36710
6,14280,37786
6,14725,35352
6,15168,34373
6,15613,32794
6,16057,32812
6,16502,32157
6,16945,30767
6,17390,31290
6,17833,29787
6,18278,29105
6,18722,30019
6,19167,30578
6,19610,29424
6,20055,28079
6,20498,28728
6,20943,27803
6,21387,27096
6,21832,26169
6,22275,26559
6,22720,28282
6,23163,27792
6,23608,26332
6,24052,26406
6,24497,26291
6,24940,28268
6,25385,26572
6,25828,26989
6,26273,26521
6,26718,26925
6,27162,26031
6,27607,24537
6,28050,26753
6,28495,24997
6,28938,26824
6,29383,27318
6,29827,25650
6,30272,27391
6,30715,24451
6,31160,26260
6,31603,25289
6,32048,25419
6,32492,26315
6,32937,25810
6,33380,25634
6,33825,25275
6,34268,25361
6,34713,23984
6,35157,24127
6,35602,22946
6,36045,23898
6,36490,24474
6,36933,24548
6,37378,25172
6,37822,24202
6,38267,23512
6,38712,23939
6,39155,23560
6,39600,23914
6,40043,23490
6,40488,23514
6,40932,22971
6,41377,24252
6,41820,24833
6,42265,28714
6,42708,40065
6,43153,64032
6,43597,101270
6,44042,171136
6,44485,259437
6,44930,374803
6,45373,480777
6,45818,587496
6,46262,650976
6,46707,692020
6,47150,699528
6,47595,699510
6,48038,679838
6,48483,652241
6,48927,626130
6,49372,596936
6,49815,569785
6,50260,541265
6,50703,516243
6,51148,494340
6,51593,460357
6,52037,434658
6,52482,411728
6,52925,385136
6,53370,364388
6,53813,339687
6,54258,320383
6,54702,291860
6,55147,268484
6,55590,245082
6,56035,223381
6,56478,201688
6,56923,182046
6,57367,157582
6,57812,146004
6,58255,128506
6,58700,111049
6,59143,101573
6,59588,90790
6,60032,80987
6,60477,72623
6,60920,64416
6,61365,60008
6,61808,56072
6,62253,49722
6,62697,44368
6,63142,41477
6,63587,39798
6,64030,36538
6,64475,35866
6,64918,32504
6,65363,31917
6,65807,30184
6,66252,28673
6,66695,27728
6,67140,27709
6,67583,25717
6,68028,24553
6,68472,25284
6,68917,24065
6,69360,23246
6,69805,23384
6,70248,23433
6,70693,23148
6,71137,21777
6,71582,22790
6,72025,22307
6,72470,21996
6,72913,21570
6,73358,20556
6,73802,19808
6,74247,21569
6,74690,21182
6,75135,20940
6,75580,20613
6,76023,21163
6,76468,20682
6,76912,20780
6,77357,18986
6,77800,21152
6,78245,19949
6,78688,20123
6,79133,19631
6,79577,19878
6,80022,19178
6,80465,20144
6,80910,19663
6,81353,20685
6,81798,19332
6,82242,19418
6,82687,19142
6,83130,18652
6,83575,19799
6,84018,19453
6,84463,18599
6,84907,18379
6,85352,18664
6,85795,18825
6,86240,18602
6,86683,18467
6,87128,17661
6,87573,17468
6,88017,19027
6,88462,18483
6,88905,20831
6,89350,17983
6,89793,18095
6,90238,19076
6,90682,19011
6,91127,17775
6,91570,17212
6,92015,19304
6,92458,18957
6,92903,18170
6,93347,18558
6,93792,19197
6,94235,18209
6,94680,18296
6,95123,17861
6,95568,19062
6,96012,18087
6,96457,18046
6,96900,17456
6,97345,18270
6,97788,18816
6,98233,17904
6,98677,17766
6,99122,17171
6,99567,18642
7,00010,17507
7,00455,18199
7,00898,18402
7,01343,17357
7,01787,17903
7,02232,18281
7,02675,19081
7,03120,20021
7,03563,23652
7,04008,32351
7,04452,48456
7,04897,77788
7,05340,121795
7,05785,173026
7,06228,238940
7,06673,296076
7,07117,351386
7,07562,389526
7,08005,415434
7,08450,420945
7,08893,414743
7,09338,404420
7,09782,387880
7,10227,367808
7,10670,348155
7,11115,333717
7,11560,316354
7,12003,295754
7,12448,275830
7,12892,254064
7,13337,236840
7,13780,219086
7,14225,198938
7,14668,179130
7,15113,164416
7,15557,147361
7,16002,129785
7,16445,114705
7,16890,101875
7,17333,86999
7,17778,78488
7,18222,70314
7,18667,62106
7,19110,53569
7,19555,49073
7,19998,44900
7,20443,39687
7,20887,37030
7,21332,32989
7,21775,29349
7,22220,27748
7,22663,26205
7,23108,25094
7,23552,24606
7,23997,23915
7,24442,22196
7,24885,21949
7,25330,21838
7,25773,21610
7,26218,18793
7,26662,20447
7,27107,18117
7,27550,19325
7,27995,18192
7,28438,17350
7,28883,17728
7,29327,17126
7,29772,16823
7,30215,17426
7,30660,17246
7,31103,16512
7,31548,16369
7,31992,16749
7,32437,16358
7,32880,16695
7,33325,17301
7,33768,17454
7,34213,16396
7,34657,16799
7,35102,15984
7,35545,15504
7,35990,17207
7,36435,16604
7,36878,16990
7,37323,16358
7,37767,17023
7,38212,16082
7,38655,15320
7,39100,18085
7,39543,17279
7,39988,16552
7,40432,16621
7,40877,18747
7,41320,16623
7,41765,18143
7,42208,17647
7,42653,16738
7,43097,17062
7,43542,17204
7,43985,16548
7,44430,17832
7,44873,17901
7,45318,17379
7,45762,16097
7,46207,16804
7,46650,16261
7,47095,16289
7,47538,16904
7,47983,15106
7,48428,15968
7,48872,15512
7,49317,16095
7,49760,15509
7,50205,15282
7,50648,15256
7,51093,15012
7,51537,15315
7,51982,15597
7,52425,15066
7,52870,15590
7,53313,14540
7,53758,15456
7,54202,15149
7,54647,15999
7,55090,14753
7,55535,13874
7,55978,15189
7,56423,15048
7,56867,15009
7,57312,14060
7,57755,16505
7,58200,14298
7,58643,15706
7,59088,14032
7,59532,14015
7,59977,15593
7,60422,13915
7,60865,15514
7,61310,16317
7,61753,15852
7,62198,13663
7,62642,15763
7,63087,15293
7,63530,14362
7,63975,15650
7,64418,14134
7,64863,15450
7,65307,15353
7,65752,15100
7,66195,15790
7,66640,14148
7,67083,14655
7,67528,15486
7,67972,14513
7,68417,15981
7,68860,15661
7,69305,15510
7,69748,15637
7,70193,15937
7,70637,15979
7,71082,16465
7,71525,18846
7,71970,24574
7,72415,34644
7,72858,56822
7,73303,99857
7,73747,171130
7,74192,270512
7,74635,404635
7,75080,547036
7,75523,693299
7,75968,813839
7,76412,910638
7,76857,955658
7,77300,992658
7,77745,979455
7,78188,945446
7,78633,898472
7,79077,837385
7,79522,780195
7,79965,715435
7,80410,657577
7,80853,602276
7,81298,545040
7,81742,487738
7,82187,426957
7,82630,374020
7,83075,323855
7,83518,275031
7,83963,230756
7,84408,196966
7,84852,162605
7,85297,139088
7,85740,113017
7,86185,98166
7,86628,80722
7,87073,71582
7,87517,60782
7,87962,53025
7,88405,46322
7,88850,40944
7,89293,35889
7,89738,33341
7,90182,30845
7,90627,29260
7,91070,25847
7,91515,26017
7,91958,24307
7,92403,22087
7,92847,21889
7,93292,20552
7,93735,20530
7,94180,20024
7,94623,18899
7,95068,18948
7,95512,19041
7,95957,17848
7,96400,18207
7,96845,18735
7,97290,19141
7,97733,18935
7,98178,18414
7,98622,19966
7,99067,19324
7,99510,18298
7,99955,19094
8,00398,17570
8,00843,19154
8,01287,18520
8,01732,17936
8,02175,18136
8,02620,17006
8,03063,16151
8,03508,17555
8,03952,15699
8,04397,16474
8,04840,15719
8,05285,14993
8,05728,16664
8,06173,15686
8,06617,14549
8,07062,14199
8,07505,14772
8,07950,14919
8,08393,14852
8,08838,15133
8,09283,14632
8,09727,14820
8,10172,14882
8,10615,15293
8,11060,15593
8,11503,14166
8,11948,14275
8,12392,15929
8,12837,15620
8,13280,15736
8,13725,15872
8,14168,16042
8,14613,17111
8,15057,15238
8,15502,15807
8,15945,15828
8,16390,16597
8,16833,15820
8,17278,17137
8,17722,15518
8,18167,15445
8,18610,16197
8,19055,15862
8,19498,16174
8,19943,15558
8,20387,14995
8,20832,15302
8,21277,15330
8,21720,15988
8,22165,15160
8,22608,14518
8,23053,14467
8,23497,14663
8,23942,14547
8,24385,14796
8,24830,13444
8,25273,13109
8,25718,14507
8,26162,13568
8,26607,13830
8,27050,14289
8,27495,15541
8,27938,16043
8,28383,20495
8,28827,30464
8,29272,47621
8,29715,78589
8,30160,121448
8,30603,178548
8,31048,243914
8,31492,322140
8,31937,386050
8,32380,440563
8,32825,469820
8,33270,490292
8,33713,489555
8,34158,473316
8,34602,455162
8,35047,428129
8,35490,394706
8,35935,354973
8,36378,325697
8,36823,283262
8,37267,254422
8,37712,224085
8,38155,192632
8,38600,165080
8,39043,137734
8,39488,118336
8,39932,97911
8,40377,83794
8,40820,70306
8,41265,59896
8,41708,51490
8,42153,43707
8,42597,38094
8,43042,32443
8,43485,29663
8,43930,26083
8,44373,24695
8,44818,22567
8,45263,20021
8,45707,20268
8,46152,20129
8,46595,22383
8,47040,25334
8,47483,35004
8,47928,56146
8,48372,89732
8,48817,140829
8,49260,207298
8,49705,284261
8,50148,367582
8,50593,441381
8,51037,507166
8,51482,545946
8,51925,555668
8,52370,565279
8,52813,540200
8,53258,509826
8,53702,475753
8,54147,435413
8,54590,391698
8,55035,347615
8,55478,300091
8,55923,264306
8,56367,220977
8,56812,184931
8,57257,158248
8,57700,126843
8,58145,104130
8,58588,88664
8,59033,69614
8,59477,60200
8,59922,50549
8,60365,44597
8,60810,39091
8,61253,34606
8,61698,29773
8,62142,26542
8,62587,26183
8,63030,23743
8,63475,21328
8,63918,20985
8,64363,19357
8,64807,17393
8,65252,17154
8,65695,16219
8,66140,15224
8,66583,15418
8,67028,14390
8,67472,13981
8,67917,15095
8,68360,14367
8,68805,14294
8,69250,13888
8,69693,12499
8,70138,13627
8,70582,12447
8,71027,12783
8,71470,12139
8,71915,13664
8,72358,13223
8,72803,13949
8,73247,12975
8,73692,11647
8,74135,12364
8,74580,12313
8,75023,12489
8,75468,12081
8,75912,13136
8,76357,11893
8,76800,12052
8,77245,11629
8,77688,12236
8,78133,11433
8,78577,10836
8,79022,11770
8,79465,12191
8,79910,11695
8,80353,11111
8,80798,11985
8,81242,13753
8,81687,11916
8,82132,11437
8,82575,11804
8,83020,11044
8,83463,10990
8,83908,10154
8,84352,11886
8,84797,11135
8,85240,11394
8,85685,11720
8,86128,11332
8,86573,11941
8,87017,11045
8,87462,11884
8,87905,11318
8,88350,12154
8,88793,12196
8,89238,11514
8,89682,11256
8,90127,11890
8,90570,12012
8,91015,10544
8,91458,10313
8,91903,11680
8,92347,10921
8,92792,11075
8,93235,11334
8,93680,11555
8,94125,11789
8,94568,12172
8,95013,12274
8,95457,10933
8,95902,11903
8,96345,10718
8,96790,11255
8,97233,11394
8,97678,11571
8,98122,11967
8,98567,11678
8,99010,11002
8,99455,9782
8,99898,11496
9,00343,11606
9,00787,11535
9,01232,10562
9,01675,11518
9,02120,10022
9,02563,11061
9,03008,10815
9,03452,11553
9,03897,10728
9,04340,10815
9,04785,10800
9,05228,11721
9,05673,12104
9,06118,13768
9,06562,15517
9,07007,23922
9,07450,38143
9,07895,59458
9,08338,101785
9,08783,154802
9,09227,226518
9,09672,310923
9,10115,384908
9,10560,460802
9,11003,517767
9,11448,549833
9,11892,568958
9,12337,564167
9,12780,535415
9,13225,498546
9,13668,452312
9,14113,401899
9,14557,351781
9,15002,299382
9,15445,249956
9,15890,207772
9,16333,171150
9,16778,142345
9,17222,113079
9,17667,93960
9,18112,74208
9,18555,62498
9,19000,53418
9,19443,42668
9,19888,37169
9,20332,32500
9,20777,29021
9,21220,25369
9,21665,24099
9,22108,22454
9,22553,18962
9,22997,18995
9,23442,17348
9,23885,17434
9,24330,16199
9,24773,17092
9,25218,20212
9,25662,27879
9,26107,43020
9,26550,79099
9,26995,147704
9,27438,248467
9,27883,409194
9,28327,620834
9,28772,865067
9,29215,1144136
9,29660,1430142
9,30105,1646568
9,30548,1831392
9,30993,1949280
9,31437,1971101
9,31882,1920833
9,32325,1784772
9,32770,1619550
9,33213,1409048
9,33658,1195314
9,34102,988435
9,34547,803412
9,34990,652092
9,35435,511511
9,35878,401380
9,36323,313187
9,36767,248302
9,37212,197780
9,37655,158122
9,38100,128029
9,38543,108288
9,38988,89577
9,39432,75495
9,39877,65999
9,40320,56840
9,40765,52416
9,41208,47489
9,41653,41555
9,42098,39468
9,42542,35263
9,42987,32131
9,43430,30548
9,43875,29088
9,44318,27597
9,44763,26570
9,45207,24192
9,45652,23918
9,46095,22275
9,46540,21947
9,46983,20242
9,47428,20292
9,47872,19557
9,48317,18791
9,48760,17431
9,49205,17542
9,49648,19116
9,50093,17771
9,50537,15984
9,50982,15237
9,51425,15789
9,51870,16334
9,52313,15791
9,52758,14862
9,53202,15209
9,53647,16064
9,54090,14594
9,54535,14961
9,54980,16022
9,55423,16778
9,55868,15641
9,56312,15416
9,56757,14648
9,57200,14522
9,57645,13656
9,58088,13556
9,58533,13259
9,58977,11923
9,59422,13061
9,59865,11673
9,60310,12221
9,60753,11794
9,61198,11744
9,61642,12323
9,62087,12220
9,62530,11439
9,62975,11665
9,63418,12344
9,63863,12133
9,64307,11896
9,64752,11918
9,65195,11580
9,65640,11466
9,66083,12347
9,66528,11555
9,66973,11450
9,67417,10325
9,67862,11447
9,68305,12151
9,68750,11023
9,69193,11729
9,69638,10557
9,70082,11452
9,70527,10525
9,70970,10719
9,71415,11997
9,71858,11277
9,72303,11475
9,72747,11794
9,73192,11784
9,73635,12276
9,74080,11091
9,74523,12731
9,74968,12615
9,75412,12768
9,75857,12633
9,76300,12988
9,76745,15653
9,77188,19275
9,77633,26521
9,78077,42641
9,78522,73578
9,78967,118136
9,79410,187087
9,79855,269711
9,80298,358381
9,80743,452380
9,81187,538218
9,81632,606220
9,82075,631878
9,82520,639102
9,82963,623107
9,83408,565028
9,83852,504570
9,84297,435298
9,84740,373677
9,85185,307734
9,85628,247370
9,86073,199083
9,86517,161184
9,86962,131879
9,87405,101618
9,87850,82060
9,88293,69436
9,88738,56551
9,89182,44568
9,89627,40485
9,90070,35605
9,90515,31509
9,90960,27726
9,91403,27093
9,91848,25044
9,92292,25459
9,92737,23678
9,93180,22639
9,93625,20876
9,94068,20150
9,94513,17310
9,94957,17829
9,95402,18567
9,95845,16414
9,96290,15623
9,96733,14858
9,97178,13306
9,97622,13826
9,98067,13456
9,98510,13019
9,98955,11938
9,99398,11836
9,99843,12299
10,00287,12076
10,00732,11629
10,01175,11967
10,01620,12480
10,02063,12988
10,02508,14295
10,02953,14451
10,03397,15227
10,03842,15353
10,04285,14844
10,04730,15681
10,05173,16060
10,05618,14774
10,06062,15238
10,06507,16360
10,06950,17338
10,07395,22315
10,07838,36258
10,08283,54924
10,08727,95649
10,09172,154527
10,09615,235275
10,10060,327724
10,10503,438009
10,10948,544422
10,11392,627599
10,11837,699259
10,12280,727542
10,12725,723106
10,13168,671975
10,13613,604110
10,14057,523058
10,14502,439518
10,14947,357337
10,15390,282461
10,15835,224204
10,16278,178026
10,16723,138747
10,17167,106239
10,17612,86099
10,18055,69431
10,18500,55984
10,18943,47348
10,19388,39521
10,19832,34254
10,20277,31050
10,20720,26678
10,21165,25953
10,21608,23602
10,22053,21503
10,22497,20070
10,22942,19867
10,23385,17347
10,23830,16541
10,24273,16049
10,24718,16952
10,25162,15630
10,25607,15440
10,26050,14183
10,26495,14187
10,26938,13696
10,27383,13525
10,27828,12329
10,28272,11926
10,28717,13060
10,29160,12173
10,29605,12268
10,30048,11245
10,30493,10287
10,30937,12110
10,31382,10957
10,31825,11045
10,32270,11555
10,32713,10332
10,33158,11748
10,33602,11567
10,34047,10550
10,34490,11563
10,34935,10736
10,35378,10965
10,35823,11057
10,36267,10250
10,36712,11193
10,37155,11620
10,37600,9937
10,38043,10765
10,38488,11466
10,38932,11407
10,39377,10355
10,39822,10557
10,40265,11346
10,40710,9657
10,41153,9955
10,41598,10342
10,42042,11198
10,42487,10440
10,42930,9781
10,43375,9272
10,43818,10607
10,44263,9586
10,44707,9555
10,45152,8856
10,45595,9373
10,46040,10015
10,46483,8922
10,46928,10227
10,47372,8878
10,47817,8867
10,48260,10860
10,48705,9289
10,49148,9066
10,49593,10742
10,50037,9330
10,50482,8919
10,50925,9243
10,51370,9948
10,51815,8858
10,52258,9409
10,52703,10067
10,53147,10356
10,53592,9902
10,54035,9526
10,54480,10785
10,54923,9640
10,55368,9892
10,55812,10208
10,56257,9767
10,56700,10152
10,57145,11321
10,57588,9720
10,58033,10476
10,58477,11260
10,58922,11913
10,59365,14515
10,59810,21695
10,60253,35907
10,60698,61507
10,61142,102843
10,61587,167420
10,62030,248642
10,62475,347843
10,62918,462654
10,63363,572035
10,63808,665518
10,64252,718405
10,64697,728834
10,65140,707706
10,65585,642885
10,66028,568225
10,66473,478853
10,66917,393552
10,67362,314341
10,67805,245851
10,68250,189810
10,68693,150910
10,69138,120594
10,69582,94853
10,70027,78179
10,70470,60908
10,70915,52804
10,71358,44397
10,71803,38845
10,72247,32928
10,72692,29840
10,73135,26404
10,73580,24347
10,74023,23622
10,74468,19901
10,74912,18479
10,75357,19675
10,75802,18426
10,76245,15991
10,76690,15886
10,77133,15045
10,77578,16151
10,78022,13349
10,78467,13178
10,78910,13786
10,79355,13297
10,79798,12631
10,80243,12623
10,80687,11925
10,81132,12703
10,81575,11746
10,82020,12406
10,82463,11898
10,82908,11553
10,83352,9989
10,83797,12038
10,84240,11469
10,84685,9946
10,85128,10423
10,85573,10939
10,86017,10163
10,86462,9804
10,86905,9590
10,87350,11371
10,87795,9875
10,88238,10534
10,88683,10728
10,89127,13473
10,89572,18359
10,90015,32884
10,90460,59161
10,90903,107605
10,91348,186276
10,91792,306122
10,92237,462627
10,92680,661894
10,93125,887369
10,93568,1129673
10,94013,1357858
10,94457,1555509
10,94902,1634513
10,95345,1648874
10,95790,1562864
10,96233,1391953
10,96678,1173324
10,97122,938844
10,97567,728948
10,98010,561635
10,98455,422035
10,98898,322877
10,99343,247029
10,99787,195450
11,00232,152707
11,00677,128897
11,01120,104357
11,01565,85541
11,02008,76638
11,02453,66521
11,02897,58681
11,03342,49599
11,03785,45696
11,04230,39371
11,04673,37683
11,05118,35080
11,05562,31783
11,06007,29639
11,06450,27864
11,06895,26998
11,07338,23641
11,07783,22408
11,08227,22081
11,08672,21244
11,09115,21183
11,09560,18941
11,10003,19781
11,10448,17770
11,10892,18689
11,11337,17324
11,11780,18509
11,12225,16071
11,12670,17280
11,13113,16163
11,13558,16397
11,14002,15697
11,14447,15015
11,14890,15186
11,15335,14885
11,15778,13857
11,16223,13766
11,16667,14127
11,17112,13249
11,17555,14380
11,18000,12412
11,18443,13694
11,18888,13813
11,19332,13704
11,19777,20664
11,20220,28130
11,20665,46767
11,21108,82767
11,21553,135430
11,21997,212052
11,22442,303146
11,22885,417260
11,23330,542632
11,23773,654186
11,24218,727479
11,24663,778268
11,25107,778739
11,25552,733203
11,25995,647838
11,26440,547957
11,26883,453116
11,27328,359109
11,27772,277180
11,28217,214481
11,28660,165909
11,29105,129589
11,29548,103505
11,29993,81369
11,30437,68210
11,30882,54784
11,31325,48273
11,31770,41269
11,32213,36738
11,32658,33100
11,33102,30239
11,33547,28122
11,33990,26100
11,34435,25132
11,34878,27963
11,35323,34515
11,35767,49765
11,36212,80986
11,36657,141978
11,37100,225724
11,37545,355351
11,37988,525913
11,38433,747678
11,38877,985026
11,39322,1219471
11,39765,1415037
11,40210,1535516
11,40653,1573146
11,41098,1511751
11,41542,1361752
11,41987,1151199
11,42430,929754
11,42875,729718
11,43318,560427
11,43763,431063
11,44207,328593
11,44652,249314
11,45095,196048
11,45540,157149
11,45983,132507
11,46428,107969
11,46872,91029
11,47317,77054
11,47760,67520
11,48205,60229
11,48650,53607
11,49093,46653
11,49538,45123
11,49982,40469
11,50427,36700
11,50870,33878
11,51315,32034
11,51758,28395
11,52203,27876
11,52647,27309
11,53092,25086
11,53535,23103
11,53980,23511
11,54423,22002
11,54868,20541
11,55312,19327
11,55757,19531
11,56200,18537
11,56645,18364
11,57088,17889
11,57533,15904
11,57977,17852
11,58422,16972
11,58865,15852
11,59310,15386
11,59753,15023
11,60198,14860
11,60643,13007
11,61087,14140
11,61532,13591
11,61975,13615
11,62420,12833
11,62863,13460
11,63308,13735
11,63752,13531
11,64197,12498
11,64640,12846
11,65085,13024
11,65528,11430
11,65973,11928
11,66417,11238
11,66862,11708
11,67305,13181
11,67750,12788
11,68193,14533
11,68638,18624
11,69082,27200
11,69527,43704
11,69970,76022
11,70415,127987
11,70858,206325
11,71303,304473
11,71747,423856
11,72192,540172
11,72637,635433
11,73080,715326
11,73525,731986
11,73968,710122
11,74413,658562
11,74857,576233
11,75302,476461
11,75745,385123
11,76190,302036
11,76633,236999
11,77078,177087
11,77522,139273
11,77967,112028
11,78410,89170
11,78855,71588
11,79298,62208
11,79743,51208
11,80187,44835
11,80632,37820
11,81075,34609
11,81520,29670
11,81963,27222
11,82408,25589
11,82852,24962
11,83297,22003
11,83740,20791
11,84185,19998
11,84628,19815
11,85073,18132
11,85518,17858
11,85962,17121
11,86407,16843
11,86850,15497
11,87295,15434
11,87738,14618
11,88183,15193
11,88627,15235
11,89072,14939
11,89515,14920
11,89960,15173
11,90403,14516
11,90848,14145
11,91292,14275
11,91737,14574
11,92180,13534
11,92625,15180
11,93068,13763
11,93513,13716
11,93957,13759
11,94402,12993
11,94845,13555
11,95290,13598
11,95733,12551
11,96178,12257
11,96622,12000
11,97067,12620
11,97512,14004
11,97955,12773
11,98400,11897
11,98843,12485
11,99288,11566
11,99732,12178
12,00177,12526
12,00620,12133
12,01065,11722
12,01508,11821
12,01953,11171
12,02397,11010
12,02842,11611
12,03285,10943
12,03730,12552
12,04173,15627
12,04618,21876
12,05062,38461
12,05507,63505
12,05950,108392
12,06395,172834
12,06838,261937
12,07283,368094
12,07727,480999
12,08172,579922
12,08615,663279
12,09060,703875
12,09505,701796
12,09948,649882
12,10393,577418
12,10837,491594
12,11282,391525
12,11725,314511
12,12170,239555
12,12613,184429
12,13058,145300
12,13502,111768
12,13947,89672
12,14390,73767
12,14835,62011
12,15278,50241
12,15723,42405
12,16167,39392
12,16612,35188
12,17055,29757
12,17500,28731
12,17943,26833
12,18388,26278
12,18832,22963
12,19277,21018
12,19720,19527
12,20165,20640
12,20608,20589
12,21053,19087
12,21498,20130
12,21942,16109
12,22387,16131
12,22830,15912
12,23275,15837
12,23718,16032
12,24163,16018
12,24607,13996
12,25052,13097
12,25495,13927
12,25940,12748
12,26383,13017
12,26828,13397
12,27272,13163
12,27717,11571
12,28160,14530
12,28605,11947
12,29048,12698
12,29493,11682
12,29937,13399
12,30382,12952
12,30825,13623
12,31270,11629
12,31713,12505
12,32158,12865
12,32602,12291
12,33047,12158
12,33492,11600
12,33935,13000
12,34380,12995
12,34823,12535
12,35268,10038
12,35712,11361
12,36157,9932
12,36600,11556
12,37045,11686
12,37488,12064
12,37933,11341
12,38377,10860
12,38822,10708
12,39265,10485
12,39710,11196
12,40153,9852
12,40598,10515
12,41042,10927
12,41487,10055
12,41930,10489
12,42375,9950
12,42818,9853
12,43263,9642
12,43707,9708
12,44152,10840
12,44595,10902
12,45040,10166
12,45485,9995
12,45928,10663
12,46373,9649
12,46817,9388
12,47262,10510
12,47705,9425
12,48150,10116
12,48593,9789
12,49038,10086
12,49482,9956
12,49927,10643
12,50370,10157
12,50815,10261
12,51258,9367
12,51703,10543
12,52147,11656
12,52592,13611
12,53035,19023
12,53480,31460
12,53923,58260
12,54368,109605
12,54812,200027
12,55257,337961
12,55700,553151
12,56145,826690
12,56588,1165336
12,57033,1520490
12,57477,1886334
12,57922,2192455
12,58367,2422521
12,58810,2477705
12,59255,2395498
12,59698,2133974
12,60143,1788293
12,60587,1419566
12,61032,1097956
12,61475,820025
12,61920,614431
12,62363,468598
12,62808,357248
12,63252,280546
12,63697,223973
12,64140,182079
12,64585,154921
12,65028,133578
12,65473,109664
12,65917,96715
12,66362,84419
12,66805,75283
12,67250,68018
12,67693,61503
12,68138,56418
12,68582,51478
12,69027,47293
12,69470,44563
12,69915,40872
12,70360,38761
12,70803,35958
12,71248,35094
12,71692,34511
12,72137,30836
12,72580,29853
12,73025,28675
12,73468,26128
12,73913,25218
12,74357,24668
12,74802,24515
12,75245,22584
12,75690,22042
12,76133,20843
12,76578,21375
12,77022,19822
12,77467,20712
12,77910,20668
12,78355,19263
12,78798,21033
12,79243,22021
12,79687,23670
12,80132,22727
12,80575,26477
12,81020,26100
12,81463,27111
12,81908,25859
12,82353,26730
12,82797,23479
12,83242,23750
12,83685,24556
12,84130,28415
12,84573,31648
12,85018,43906
12,85462,69816
12,85907,107045
12,86350,164063
12,86795,245571
12,87238,342287
12,87683,443724
12,88127,542218
12,88572,604389
12,89015,632992
12,89460,628853
12,89903,573315
12,90348,509522
12,90792,425332
12,91237,349062
12,91680,269379
12,92125,213583
12,92568,162185
12,93013,130443
12,93457,98439
12,93902,81611
12,94347,66660
12,94790,58669
12,95235,48130
12,95678,43614
12,96123,40422
12,96567,36166
12,97012,34803
12,97455,35629
12,97900,41453
12,98343,55529
12,98788,80586
12,99232,128953
12,99677,199915
13,00120,300725
13,00565,417930
13,01008,546353
13,01453,679201
13,01897,775693
13,02342,838969
13,02785,837592
13,03230,785431
13,03673,688746
13,04118,571157
13,04562,462016
13,05007,358114
13,05450,279032
13,05895,216414
13,06340,166452
13,06783,128877
13,07228,107276
13,07672,88480
13,08117,71466
13,08560,65970
13,09005,57943
13,09448,50991
13,09893,43887
13,10337,41196
13,10782,40081
13,11225,32913
13,11670,33185
13,12113,30313
13,12558,28910
13,13002,25994
13,13447,26869
13,13890,27171
13,14335,27496
13,14778,28511
13,15223,27657
13,15667,25356
13,16112,22427
13,16555,20173
13,17000,20524
13,17443,19101
13,17888,19100
13,18333,18426
13,18777,18578
13,19222,17037
13,19665,18227
13,20110,16635
13,20553,17020
13,20998,17370
13,21442,16956
13,21887,15594
13,22330,16078
13,22775,15195
13,23218,14039
13,23663,14632
13,24107,14324
13,24552,14916
13,24995,14367
13,25440,15143
13,25883,15511
13,26328,13368
13,26772,14233
13,27217,13980
13,27660,13782
13,28105,12669
13,28548,14028
13,28993,14240
13,29437,13271
13,29882,12809
13,30325,12976
13,30770,12407
13,31215,13267
13,31658,13570
13,32103,13899
13,32547,15100
13,32992,16301
13,33435,25050
13,33880,37357
13,34323,63016
13,34768,108163
13,35212,175683
13,35657,276454
13,36100,398814
13,36545,544707
13,36988,698829
13,37433,826770
13,37877,914518
13,38322,941249
13,38765,891252
13,39210,789074
13,39653,648983
13,40098,521303
13,40542,402003
13,40987,309004
13,41430,238724
13,41875,179385
13,42318,141893
13,42763,119544
13,43208,97733
13,43652,81498
13,44097,71412
13,44540,61187
13,44985,53793
13,45428,48753
13,45873,46289
13,46317,41930
13,46762,38646
13,47205,33669
13,47650,32903
13,48093,30859
13,48538,28547
13,48982,27237
13,49427,27217
13,49870,26289
13,50315,24559
13,50758,24657
13,51203,24968
13,51647,23480
13,52092,24004
13,52535,21521
13,52980,22226
13,53423,20478
13,53868,21200
13,54312,21534
13,54757,19031
13,55202,19010
13,55645,17144
13,56090,18797
13,56533,15986
13,56978,17174
13,57422,16452
13,57867,16846
13,58310,15504
13,58755,16796
13,59198,15960
13,59643,17234
13,60087,16046
13,60532,18705
13,60975,14944
13,61420,15994
13,61863,14415
13,62308,15919
13,62752,14610
13,63197,14600
13,63640,15549
13,64085,15688
13,64528,16558
13,64973,19880
13,65417,25753
13,65862,39217
13,66305,63830
13,66750,105860
13,67195,173136
13,67638,260361
13,68083,377267
13,68527,506549
13,68972,625859
13,69415,701717
13,69860,739094
13,70303,727135
13,70748,670376
13,71192,586882
13,71637,498278
13,72080,390320
13,72525,309834
13,72968,242544
13,73413,190117
13,73857,149418
13,74302,114546
13,74745,91590
13,75190,78649
13,75633,66165
13,76078,59246
13,76522,48990
13,76967,46090
13,77410,40588
13,77855,36804
13,78298,33802
13,78743,32316
13,79188,29856
13,79632,27757
13,80077,25175
13,80520,25049
13,80965,23653
13,81408,23707
13,81853,23023
13,82297,21844
13,82742,19710
13,83185,20927
13,83630,18938
13,84073,19933
13,84518,19110
13,84962,18061
13,85407,18225
13,85850,18137
13,86295,16414
13,86738,17693
13,87183,18286
13,87627,18193
13,88072,17253
13,88515,17087
13,88960,16118
13,89403,15802
13,89848,16380
13,90292,16191
13,90737,16648
13,91182,15389
13,91625,16679
13,92070,16095
13,92513,14612
13,92958,15603
13,93402,15823
13,93847,15676
13,94290,15056
13,94735,12979
13,95178,14110
13,95623,14673
13,96067,15426
13,96512,14128
13,96955,12877
13,97400,14384
13,97843,15927
13,98288,14598
13,98732,13978
13,99177,13183
13,99620,13192
14,00065,13638
14,00508,13511
14,00953,13508
14,01397,14358
14,01842,15797
14,02285,15607
14,02730,15489
14,03173,14753
14,03618,15275
14,04063,14659
14,04507,14634
14,04952,14315
14,05395,14425
14,05840,14154
14,06283,14609
14,06728,14727
14,07172,12596
14,07617,13924
14,08060,13554
14,08505,14099
14,08948,13702
14,09393,13857
14,09837,13723
14,10282,15575
14,10725,15881
14,11170,21888
14,11613,31927
14,12058,50414
14,12502,87378
14,12947,146289
14,13390,239990
14,13835,377916
14,14278,570982
14,14723,820476
14,15167,1124007
14,15612,1474402
14,16057,1830314
14,16500,2172880
14,16945,2428418
14,17388,2548335
14,17833,2479229
14,18277,2214384
14,18722,1888955
14,19165,1527011
14,19610,1203653
14,20053,918446
14,20498,702537
14,20942,537696
14,21387,423475
14,21830,333939
14,22275,271305
14,22718,224744
14,23163,188801
14,23607,162885
14,24052,138416
14,24495,122265
14,24940,112731
14,25383,101630
14,25828,89952
14,26272,81250
14,26717,75908
14,27160,70549
14,27605,66858
14,28050,61080
14,28493,57285
14,28938,54786
14,29382,51806
14,29827,50221
14,30270,49724
14,30715,46839
14,31158,45681
14,31603,42232
14,32047,40930
14,32492,38102
14,32935,38043
14,33380,37037
14,33823,35479
14,34268,32407
14,34712,33583
14,35157,33005
14,35600,30773
14,36045,28671
14,36488,30629
14,36933,27862
14,37377,27179
14,37822,27581
14,38265,27942
14,38710,26388
14,39153,24768
14,39598,25573
14,40043,24125
14,40487,25082
14,40932,23472
14,41375,25315
14,41820,27442
14,42263,30943
14,42708,40898
14,43152,55813
14,43597,84810
14,44040,136255
14,44485,196863
14,44928,298298
14,45373,397692
14,45817,518392
14,46262,608796
14,46705,674884
14,47150,697573
14,47593,663293
14,48038,607532
14,48482,522150
14,48927,443162
14,49370,364556
14,49815,315840
14,50258,298499
14,50703,311926
14,51147,352490
14,51592,420182
14,52037,497877
14,52480,571581
14,52925,636922
14,53368,663319
14,53813,657368
14,54257,624937
14,54702,580417
14,55145,520252
14,55590,493759
14,56033,504980
14,56478,534173
14,56922,613862
14,57367,700933
14,57810,791335
14,58255,876940
14,58698,915716
14,59143,902550
14,59587,844727
14,60032,742653
14,60475,626625
14,60920,498081
14,61363,402748
14,61808,315930
14,62252,252483
14,62697,203780
14,63140,167331
14,63585,144225
14,64030,122530
14,64473,106026
14,64918,92994
14,65362,84589
14,65807,75649
14,66250,70896
14,66695,63735
14,67138,58425
14,67583,55008
14,68027,51833
14,68472,48706
14,68915,47480
14,69360,43580
14,69803,40331
14,70248,39775
14,70692,36804
14,71137,35883
14,71580,35707
14,72025,33188
14,72468,30446
14,72913,33878
14,73357,32435
14,73802,30465
14,74245,28778
14,74690,29541
14,75133,27423
14,75578,29334
14,76022,26623
14,76467,27126
14,76912,26662
14,77355,26636
14,77800,23513
14,78243,24890
14,78688,23876
14,79132,24345
14,79577,23392
14,80020,22478
14,80465,22419
14,80908,22988
14,81353,24668
14,81797,22582
14,82242,24521
14,82685,22012
14,83130,22552
14,83573,23133
14,84018,23470
14,84462,23921
14,84907,25018
14,85350,26863
14,85795,27916
14,86238,27966
14,86683,29737
14,87127,32389
14,87572,42378
14,88015,59522
14,88460,89690
14,88905,141397
14,89348,210096
14,89793,313064
14,90237,436112
14,90682,575922
14,91125,722283
14,91570,855569
14,92013,927458
14,92458,944537
14,92902,888194
14,93347,783204
14,93790,655847
14,94235,518515
14,94678,411569
14,95123,317793
14,95567,249834
14,96012,200296
14,96455,160700
14,96900,139996
14,97343,116034
14,97788,101697
14,98232,89013
14,98677,80780
14,99120,71962
14,99565,65107
15,00008,60806
15,00453,54417
15,00898,52904
15,01342,49750
15,01787,46863
15,02230,46390
15,02675,43146
15,03118,40179
15,03563,40479
15,04007,39317
15,04452,37159
15,04895,36880
15,05340,36456
15,05783,34305
15,06228,33205
15,06672,32691
15,07117,30470
15,07560,30515
15,08005,29791
15,08448,29438
15,08893,29551
15,09337,28169
15,09782,30283
15,10225,26066
15,10670,27260
15,11113,28883
15,11558,27853
15,12002,27090
15,12447,26585
15,12892,26114
15,13335,25899
15,13780,25031
15,14223,25137
15,14668,26530
15,15112,23707
15,15557,24910
15,16000,24765
15,16445,22059
15,16888,21940
15,17333,22987
15,17777,25820
15,18222,26604
15,18665,32780
15,19110,42651
15,19553,62900
15,19998,100522
15,20442,160549
15,20887,239325
15,21330,354358
15,21775,471282
15,22218,596946
15,22663,692613
15,23107,751762
15,23552,764748
15,23995,723573
15,24440,649995
15,24885,556091
15,25328,447981
15,25773,360074
15,26217,284191
15,26662,219524
15,27105,179375
15,27550,151427
15,27993,129875
15,28438,126219
15,28882,139477
15,29327,163118
15,29770,208792
15,30215,277498
15,30658,358522
15,31103,443071
15,31547,516794
15,31992,575974
15,32435,595818
15,32880,586474
15,33323,542631
15,33768,477127
15,34212,407772
15,34657,335521
15,35100,268597
15,35545,216829
15,35988,171599
15,36433,140153
15,36878,116890
15,37322,100093
15,37767,84999
15,38210,71964
15,38655,65620
15,39098,61824
15,39543,55395
15,39987,51335
15,40432,46763
15,40875,46888
15,41320,43990
15,41763,39761
15,42208,37456
15,42652,38095
15,43097,36117
15,43540,33953
15,43985,34100
15,44428,33433
15,44873,32628
15,45317,30386
15,45762,29275
15,46205,29022
15,46650,29159
15,47093,30441
15,47538,28438
15,47982,27712
15,48427,28870
15,48870,27060
15,49315,26857
15,49760,25684
15,50203,26249
15,50648,24939
15,51092,25883
15,51537,24540
15,51980,26441
15,52425,25922
15,52868,24602
15,53313,25039
15,53757,24522
15,54202,25127
15,54645,23703
15,55090,23782
15,55533,22732
15,55978,23298
15,56422,21788
15,56867,25467
15,57310,22919
15,57755,22977
15,58198,23190
15,58643,24116
15,59087,23168
15,59532,24690
15,59975,23221
15,60420,25294
15,60863,26146
15,61308,31271
15,61753,40621
15,62197,54811
15,62642,84455
15,63085,133758
15,63530,206756
15,63973,304654
15,64418,435297
15,64862,598848
15,65307,795982
15,65750,1013047
15,66195,1242178
15,66638,1470180
15,67083,1654304
15,67527,1781471
15,67972,1789839
15,68415,1671526
15,68860,1427816
15,69303,1160574
15,69748,904234
15,70192,694312
15,70637,528742
15,71080,413882
15,71525,335866
15,71968,272238
15,72413,228645
15,72857,205084
15,73302,174186
15,73747,150005
15,74190,137190
15,74635,121139
15,75078,112527
15,75523,100968
15,75967,96012
15,76412,88265
15,76855,84775
15,77300,79452
15,77743,74662
15,78188,69444
15,78632,66960
15,79077,63854
15,79520,60301
15,79965,59712
15,80408,55064
15,80853,55671
15,81297,51126
15,81742,49619
15,82185,49427
15,82630,49307
15,83073,47196
15,83518,44344
15,83962,45614
15,84407,45586
15,84850,43360
15,85295,39904
15,85740,40759
15,86183,39489
15,86628,41738
15,87072,38206
15,87517,36043
15,87960,37064
15,88405,37588
15,88848,35453
15,89293,35020
15,89737,37737
15,90182,34517
15,90625,33664
15,91070,33256
15,91513,33290
15,91958,33229
15,92402,34167
15,92847,32267
15,93290,33373
15,93735,31541
15,94178,31767
15,94623,32401
15,95067,30032
15,95512,29627
15,95955,30544
15,96400,29502
15,96843,28037
15,97288,28572
15,97733,30896
15,98177,29985
15,98622,29540
15,99065,28625
15,99510,29775
15,99953,27916
16,00398,27062
16,00842,27876
16,01287,30060
16,01730,31216
16,02175,32013
16,02618,41479
16,03063,53726
16,03507,76360
16,03952,115859
16,04395,175023
16,04840,253451
16,05283,357894
16,05728,478537
16,06172,601856
16,06617,712102
16,07060,791797
16,07505,836162
16,07948,833852
16,08393,776702
16,08837,679554
16,09282,571346
16,09727,464391
16,10170,380735
16,10615,307366
16,11058,249586
16,11503,207539
16,11947,171359
16,12392,146511
16,12835,124185
16,13280,111746
16,13723,104596
16,14168,90543
16,14612,81792
16,15057,74731
16,15500,74829
16,15945,66089
16,16388,60088
16,16833,60186
16,17277,57069
16,17722,52256
16,18165,50470
16,18610,48175
16,19053,46868
16,19498,45509
16,19942,44784
16,20387,44177
16,20830,40465
16,21275,39404
16,21718,39953
16,22163,36946
16,22608,38000
16,23052,36072
16,23497,35646
16,23940,36705
16,24385,33123
16,24828,34604
16,25273,33918
16,25717,33404
16,26162,31611
16,26605,31635
16,27050,32622
16,27493,31637
16,27938,32755
16,28382,31388
16,28827,30116
16,29270,28462
16,29715,31589
16,30158,31917
16,30603,30609
16,31047,30368
16,31492,29212
16,31935,30172
16,32380,30132
16,32823,26358
16,33268,27939
16,33712,29833
16,34157,27820
16,34602,26622
16,35045,27884
16,35490,27540
16,35933,27213
16,36378,26072
16,36822,28167
16,37267,27333
16,37710,30604
16,38155,29721
16,38598,29658
16,39043,29736
16,39487,29342
16,39932,29683
16,40375,30213
16,40820,28448
16,41263,29024
16,41708,26535
16,42152,27001
16,42597,25903
16,43040,27001
16,43485,27353
16,43928,27036
16,44373,23680
16,44817,26820
16,45262,25531
16,45705,25831
16,46150,25053
16,46595,25047
16,47038,24334
16,47483,24485
16,47927,25144
16,48372,26071
16,48815,26161
16,49260,24896
16,49703,25845
16,50148,25819
16,50592,26412
16,51037,29835
16,51480,29410
16,51925,28634
16,52368,28748
16,52813,28540
16,53257,25288
16,53702,26608
16,54145,26354
16,54590,24431
16,55033,23973
16,55478,25016
16,55922,24500
16,56367,25233
16,56810,24850
16,57255,24478
16,57698,23687
16,58143,23524
16,58588,25369
16,59032,23560
16,59477,23035
16,59920,23269
16,60365,25753
16,60808,24442
16,61253,24277
16,61697,24051
16,62142,23565
16,62585,23821
16,63030,24952
16,63473,24689
16,63918,24146
16,64362,23514
16,64807,23491
16,65250,25095
16,65695,25774
16,66138,24266
16,66583,25145
16,67027,24944
16,67472,24164
16,67915,23526
16,68360,24271
16,68803,24338
16,69248,23883
16,69692,24286
16,70137,22514
16,70582,24124
16,71025,25795
16,71470,23345
16,71913,25283
16,72358,24207
16,72802,23008
16,73247,23793
16,73690,23164
16,74135,22131
16,74578,23884
16,75023,23519
16,75467,20243
16,75912,24035
16,76355,21913
16,76800,23214
16,77243,24379
16,77688,23400
16,78132,23861
16,78577,22959
16,79020,22960
16,79465,25558
16,79908,21814
16,80353,25003
16,80797,24430
16,81242,23767
16,81685,24557
16,82130,22654
16,82573,21780
16,83018,22714
16,83463,22203
16,83907,23115
16,84352,24705
16,84795,23359
16,85240,23014
16,85683,23306
16,86128,23554
16,86572,23885
16,87017,24313
16,87460,24077
16,87905,23475
16,88348,24720
16,88793,22885
16,89237,24079
16,89682,24676
16,90125,22909
16,90570,23412
16,91013,23904
16,91458,23160
16,91902,23645
16,92347,25904
16,92790,22780
16,93235,25377
16,93678,24782
16,94123,23165
16,94567,24299
16,95012,24329
16,95457,24809
16,95900,24362
16,96345,21816
16,96788,24584
16,97233,22206
16,97677,23631
16,98122,23348
16,98565,21792
16,99010,21856
16,99453,23492
16,99898,23774
17,00342,23750
17,00787,25097
17,01230,24364
17,01675,24313
17,02118,24006
17,02563,22449
17,03007,23918
17,03452,25258
17,03895,24145
17,04340,24201
17,04783,24099
17,05228,22745
17,05672,24102
17,06117,25550
17,06560,23717
17,07005,23851
17,07450,22602
17,07893,22882
17,08338,24586
17,08782,22492
17,09227,22702
17,09670,24024
17,10115,22241
17,10558,24194
17,11003,23244
17,11447,22785
17,11892,23154
17,12335,22770
17,12780,24417
17,13223,24474
17,13668,23353
17,14112,24431
17,14557,25238
17,15000,24674
17,15445,24754
17,15888,23592
17,16333,23903
17,16777,24831
17,17222,24940
17,17665,24415
17,18110,23551
17,18553,22779
17,18998,24746
17,19443,24281
17,19887,24811
17,20332,26024
17,20775,26944
17,21220,27725
17,21663,33848
17,22108,40092
17,22552,53598
17,22997,73232
17,23440,103057
17,23885,145051
17,24328,193762
17,24773,251287
17,25217,313071
17,25662,367846
17,26105,419347
17,26550,445832
17,26993,456155
17,27438,453115
17,27882,415497
17,28327,376524
17,28770,336172
17,29215,278343
17,29658,245547
17,30103,204302
17,30547,169866
17,30992,144833
17,31437,124699
17,31880,106184
17,32325,95626
17,32768,82223
17,33213,73124
17,33657,67797
17,34102,60823
17,34545,54764
17,34990,54143
17,35433,50906
17,35878,46315
17,36322,45594
17,36767,44594
17,37210,42199
17,37655,41865
17,38098,39872
17,38543,37891
17,38987,37511
17,39432,36023
17,39875,35371
17,40320,35392
17,40763,35242
17,41208,33703
17,41652,31841
17,42097,33248
17,42540,33857
17,42985,30352
17,43430,31789
17,43873,29429
17,44318,31050
17,44762,28671
17,45207,30336
17,45650,29385
17,46095,29921
17,46538,31006
17,46983,29600
17,47427,27646
17,47872,30574
17,48315,29194
17,48760,29677
17,49203,28934
17,49648,27272
17,50092,27633
17,50537,27389
17,50980,25779
17,51425,26846
17,51868,27281
17,52313,26896
17,52757,26961
17,53202,26507
17,53645,25833
17,54090,26773
17,54533,25439
17,54978,25892
17,55423,26943
17,55867,28102
17,56312,25545
17,56755,25206
17,57200,25902
17,57643,25997
17,58088,26103
17,58532,24660
17,58977,25713
17,59420,26244
17,59865,27530
17,60308,25972
17,60753,25196
17,61197,27300
17,61642,24976
17,62085,25269
17,62530,24741
17,62973,25792
17,63418,24426
17,63862,24267
17,64307,24977
17,64750,26156
17,65195,27108
17,65638,23731
17,66083,25081
17,66527,25421
17,66972,24995
17,67415,24107
17,67860,26224
17,68305,24422
17,68748,24833
17,69193,26684
17,69637,26169
17,70082,24828
17,70525,25803
17,70970,25873
17,71413,26930
17,71858,25894
17,72302,24852
17,72747,26748
17,73190,26676
17,73635,26372
17,74078,25176
17,74523,23800
17,74967,25243
17,75412,25072
17,75855,26158
17,76300,25030
17,76743,24870
17,77188,23549
17,77632,25391
17,78077,24925
17,78520,25181
17,78965,23973
17,79408,25499
17,79853,23550
17,80298,25436
17,80742,26658
17,81187,26084
17,81630,25592
17,82075,24365
17,82518,25949
17,82963,26428
17,83407,24743
17,83852,25259
17,84295,24809
17,84740,25671
17,85183,25644
17,85628,25714
17,86072,25697
17,86517,23816
17,86960,23822
17,87405,24479
17,87848,23566
17,88293,24410
17,88737,24795
17,89182,24318
17,89625,24569
17,90070,23116
17,90513,24684
17,90958,22678
17,91402,25045
17,91847,23477
17,92292,24563
17,92735,25337
17,93180,25048
17,93623,24375
17,94068,24419
17,94512,26157
17,94957,25412
17,95400,26141
17,95845,25724
17,96288,25879
17,96733,25846
17,97177,25049
17,97622,27439
17,98065,27153
17,98510,24132
17,98953,25792
17,99398,26813
17,99842,26179
18,00287,25964
18,00730,27634
18,01175,24477
18,01618,25289
18,02063,25887
18,02507,24131
18,02952,26221
18,03395,25710
18,03840,25648
18,04285,27283
18,04728,27494
18,05173,27781
18,05617,27662
18,06062,24870
18,06505,26148
18,06950,27056
18,07393,26961
18,07838,25740
18,08282,26549
18,08727,27032
18,09170,27170
18,09615,25346
18,10058,23878
18,10503,25047
18,10947,22968
18,11392,25952
18,11835,24691
18,12280,25051
18,12723,27834
18,13168,26471
18,13612,25546
18,14057,25660
18,14500,24627
18,14945,25648
18,15388,24112
18,15833,25296
18,16278,26793
18,16722,24835
18,17167,27503
18,17610,25933
18,18055,24460
18,18498,25419
18,18943,24801
18,19387,25820
18,19832,23895
18,20275,25084
18,20720,25345
18,21163,24402
18,21608,26538
18,22052,26127
18,22497,28369
18,22940,26912
18,23385,25122
18,23828,25450
18,24273,25494
18,24717,25423
18,25162,26055
18,25605,24466
18,26050,24799
18,26493,25101
18,26938,24581
18,27382,25884
18,27827,25884
18,28272,26458
18,28715,26919
18,29160,27883
18,29603,24442
18,30048,23744
18,30492,26538
18,30937,24544
18,31380,25986
18,31825,25694
18,32268,26090
18,32713,25398
18,33157,26206
18,33602,27344
18,34045,26237
18,34490,27264
18,34933,26889
18,35378,27422
18,35822,26361
18,36267,27075
18,36710,27034
