D:\MassHunter\GCMS\1\data\Amal\Constant flow\150C_1ml-min_7C-min_1.D Fri Jul 26 14:44:17 2024
Start of data points
5,04138,127744
5,04582,123192
5,05027,119767
5,05470,117440
5,05915,112042
5,06358,108309
5,06803,106786
5,07247,104313
5,07692,99411
5,08135,96694
5,08580,93031
5,09023,96274
5,09468,91127
5,09912,92887
5,10357,99187
5,10800,120323
5,11245,161921
5,11690,227277
5,12133,299391
5,12578,369331
5,13022,416771
5,13467,437125
5,13910,447877
5,14355,435917
5,14798,422002
5,15243,409649
5,15687,392512
5,16132,374290
5,16575,357780
5,17020,347820
5,17463,338380
5,17908,318356
5,18352,310229
5,18797,294495
5,19240,285127
5,19685,271683
5,20128,265258
5,20573,249559
5,21017,247855
5,21462,231775
5,21905,225957
5,22350,213241
5,22793,206623
5,23238,200460
5,23683,188459
5,24127,185107
5,24572,171642
5,25015,163281
5,25460,161638
5,25903,152758
5,26348,145847
5,26792,137678
5,27237,130492
5,27680,132008
5,28125,124031
5,28568,121083
5,29013,112400
5,29457,110908
5,29902,107506
5,30345,102942
5,30790,95646
5,31233,92994
5,31678,91706
5,32122,85439
5,32567,79726
5,33010,78928
5,33455,72936
5,33898,71387
5,34343,68687
5,34787,62410
5,35232,63139
5,35677,60645
5,36120,58447
5,36565,56685
5,37008,53909
5,37453,53865
5,37897,54024
5,38342,52294
5,38785,50669
5,39230,47861
5,39673,48653
5,40118,48901
5,40562,46636
5,41007,46920
5,41450,44784
5,41895,47101
5,42338,46079
5,42783,49676
5,43227,54521
5,43672,72584
5,44115,99676
5,44560,143710
5,45003,190198
5,45448,229076
5,45892,258635
5,46337,272423
5,46780,280006
5,47225,273437
5,47670,264526
5,48113,254727
5,48558,245804
5,49002,238943
5,49447,228314
5,49890,218072
5,50335,207899
5,50778,205265
5,51223,193716
5,51667,187737
5,52112,181167
5,52555,169414
5,53000,168358
5,53443,158171
5,53888,150270
5,54332,147361
5,54777,135693
5,55220,132638
5,55665,126340
5,56108,121084
5,56553,115399
5,56997,110224
5,57442,109351
5,57885,103439
5,58330,98500
5,58773,95020
5,59218,89573
5,59662,87828
5,60107,85161
5,60552,81590
5,60995,77738
5,61440,74477
5,61883,71014
5,62328,67719
5,62772,64302
5,63217,62424
5,63660,58544
5,64105,58772
5,64548,53727
5,64993,53104
5,65437,49314
5,65882,48144
5,66325,46675
5,66770,45129
5,67213,42879
5,67658,44530
5,68102,40782
5,68547,40485
5,68990,40767
5,69435,37782
5,69878,39308
5,70323,37223
5,70767,36172
5,71212,36768
5,71655,36203
5,72100,35434
5,72545,35021
5,72988,35135
5,73433,34048
5,73877,34335
5,74322,35240
5,74765,35336
5,75210,32397
5,75653,33629
5,76098,32967
5,76542,34791
5,76987,34705
5,77430,33759
5,77875,33692
5,78318,34550
5,78763,33878
5,79207,32505
5,79652,32527
5,80095,31873
5,80540,32545
5,80983,32229
5,81428,32756
5,81872,33883
5,82317,33257
5,82760,38285
5,83205,49649
5,83648,75117
5,84093,124979
5,84538,196453
5,84982,292306
5,85427,398527
5,85870,489181
5,86315,558759
5,86758,588899
5,87203,599434
5,87647,590123
5,88092,579569
5,88535,548643
5,88980,532055
5,89423,508935
5,89868,482111
5,90312,464060
5,90757,439337
5,91200,414525
5,91645,400314
5,92088,377066
5,92533,352866
5,92977,337262
5,93422,314211
5,93865,298168
5,94310,277113
5,94753,267860
5,95198,250204
5,95642,228677
5,96087,218410
5,96532,205079
5,96975,193634
5,97420,179439
5,97863,168172
5,98308,160428
5,98752,147759
5,99197,136380
5,99640,127173
6,00085,120469
6,00528,112004
6,00973,102934
6,01417,97064
6,01862,90218
6,02305,79196
6,02750,73623
6,03193,68836
6,03638,63558
6,04082,59096
6,04527,54884
6,04970,49714
6,05415,48700
6,05858,44498
6,06303,41914
6,06747,39766
6,07192,38034
6,07635,37567
6,08080,36706
6,08525,33493
6,08968,34049
6,09413,32681
6,09857,31516
6,10302,31264
6,10745,29624
6,11190,30011
6,11633,30550
6,12078,28815
6,12522,28267
6,12967,28033
6,13410,26700
6,13855,26976
6,14298,27230
6,14743,26196
6,15187,25407
6,15632,26097
6,16075,23881
6,16520,25474
6,16963,25365
6,17408,24859
6,17852,24862
6,18297,24296
6,18740,23943
6,19185,24134
6,19628,24261
6,20073,24475
6,20518,24095
6,20962,24680
6,21407,23202
6,21850,23799
6,22295,24498
6,22738,21682
6,23183,24751
6,23627,22548
6,24072,23611
6,24515,22366
6,24960,22299
6,25403,22795
6,25848,22130
6,26292,21804
6,26737,22132
6,27180,21240
6,27625,21519
6,28068,22299
6,28513,22459
6,28957,22697
6,29402,20580
6,29845,21562
6,30290,22750
6,30733,25077
6,31178,29412
6,31622,40908
6,32067,62905
6,32510,95345
6,32955,144355
6,33400,199237
6,33843,260188
6,34288,297944
6,34732,327111
6,35177,345681
6,35620,350677
6,36065,347203
6,36508,333305
6,36953,315648
6,37397,300773
6,37842,292151
6,38285,273940
6,38730,256135
6,39173,243989
6,39618,227111
6,40062,214584
6,40507,209202
6,40950,194088
6,41395,180263
6,41838,170584
6,42283,157724
6,42727,146778
6,43172,135319
6,43615,127749
6,44060,120500
6,44503,108615
6,44948,99090
6,45393,95163
6,45837,87567
6,46282,78984
6,46725,73811
6,47170,71416
6,47613,63852
6,48058,57698
6,48502,53834
6,48947,49046
6,49390,44455
6,49835,42606
6,50278,38838
6,50723,37013
6,51167,34117
6,51612,32746
6,52055,29269
6,52500,30355
6,52943,27948
6,53388,28331
6,53832,26733
6,54277,23496
6,54720,23797
6,55165,24218
6,55608,24632
6,56053,24026
6,56497,21730
6,56942,21899
6,57387,20655
6,57830,22153
6,58275,22348
6,58718,21721
6,59163,19897
6,59607,21523
6,60052,21776
6,60495,21394
6,60940,22101
6,61383,22347
6,61828,21520
6,62272,22024
6,62717,21113
6,63160,20847
6,63605,20614
6,64048,21776
6,64493,21579
6,64937,20412
6,65382,20006
6,65825,19729
6,66270,18684
6,66713,19836
6,67158,20419
6,67602,18617
6,68047,19205
6,68490,18910
6,68935,17942
6,69380,18586
6,69823,18618
6,70268,18485
6,70712,17786
6,71157,17687
6,71600,17694
6,72045,17672
6,72488,17499
6,72933,19371
6,73377,18661
6,73822,19044
6,74265,18516
6,74710,17763
6,75153,17466
6,75598,17408
6,76042,17500
6,76487,17296
6,76930,17749
6,77375,18272
6,77818,18655
6,78263,18659
6,78707,19697
6,79152,18832
6,79595,19565
6,80040,18184
6,80483,18491
6,80928,19201
6,81373,18885
6,81817,19075
6,82262,18592
6,82705,17127
6,83150,18038
6,83593,17477
6,84038,17385
6,84482,17848
6,84927,17214
6,85370,16706
6,85815,19033
6,86258,20152
6,86703,28232
6,87147,44760
6,87592,76466
6,88035,131622
6,88480,211120
6,88923,321749
6,89368,447824
6,89812,569027
6,90257,659623
6,90700,736155
6,91145,767796
6,91588,786174
6,92033,782473
6,92477,746216
6,92922,712639
6,93367,680393
6,93810,646465
6,94255,608448
6,94698,571966
6,95143,532783
6,95587,492243
6,96032,455344
6,96475,417932
6,96920,390604
6,97363,352492
6,97808,327140
6,98252,295029
6,98697,268354
6,99140,244000
6,99585,218632
7,00028,193050
7,00473,174044
7,00917,151859
7,01362,138199
7,01805,118296
7,02250,103637
7,02693,89793
7,03138,80149
7,03582,67262
7,04027,60292
7,04470,53281
7,04915,47295
7,05358,42374
7,05803,38018
7,06248,35541
7,06692,31391
7,07137,30921
7,07580,28111
7,08025,26446
7,08468,25594
7,08913,24587
7,09357,24131
7,09802,22463
7,10245,20947
7,10690,21545
7,11133,20124
7,11578,21292
7,12022,18815
7,12467,19249
7,12910,19306
7,13355,19270
7,13798,18346
7,14243,17218
7,14687,18363
7,15132,18878
7,15575,18702
7,16020,18138
7,16463,18059
7,16908,19090
7,17352,19833
7,17797,19682
7,18242,21297
7,18685,19870
7,19130,20091
7,19573,19779
7,20018,19265
7,20462,20125
7,20907,19738
7,21350,19391
7,21795,19395
7,22238,19349
7,22683,18775
7,23127,18551
7,23572,18037
7,24015,18565
7,24460,17601
7,24903,18964
7,25348,17718
7,25792,18288
7,26237,17412
7,26680,16211
7,27125,15643
7,27568,17108
7,28013,16455
7,28457,16872
7,28902,16609
7,29345,16495
7,29790,16266
7,30235,16074
7,30678,15437
7,31123,16732
7,31567,15726
7,32012,14748
7,32455,15887
7,32900,16874
7,33343,16270
7,33788,16416
7,34232,17770
7,34677,19990
7,35120,23052
7,35565,33060
7,36008,50746
7,36453,80397
7,36897,122995
7,37342,175168
7,37785,236460
7,38230,288109
7,38673,340236
7,39118,361589
7,39562,384012
7,40007,391387
7,40450,392887
7,40895,375613
7,41338,356259
7,41783,342049
7,42228,323998
7,42672,296988
7,43117,271487
7,43560,255223
7,44005,232072
7,44448,219746
7,44893,196456
7,45337,181741
7,45782,160118
7,46225,146415
7,46670,134668
7,47113,120497
7,47558,106448
7,48002,91670
7,48447,80852
7,48890,73646
7,49335,68445
7,49778,65634
7,50223,75745
7,50667,94956
7,51112,129324
7,51555,180196
7,52000,239805
7,52443,301804
7,52888,362585
7,53332,401048
7,53777,435981
7,54222,449280
7,54665,447201
7,55110,432155
7,55553,413204
7,55998,397540
7,56442,374282
7,56887,352352
7,57330,323265
7,57775,293770
7,58218,276111
7,58663,253049
7,59107,228726
7,59552,204655
7,59995,179501
7,60440,165498
7,60883,147256
7,61328,127792
7,61772,109882
7,62217,97359
7,62660,82733
7,63105,72420
7,63548,60443
7,63993,53363
7,64437,44471
7,64882,40223
7,65325,36107
7,65770,32152
7,66215,29062
7,66658,27500
7,67103,25873
7,67547,23007
7,67992,21843
7,68435,19663
7,68880,19662
7,69323,17841
7,69768,18868
7,70212,19197
7,70657,16864
7,71100,16608
7,71545,16716
7,71988,15918
7,72433,15513
7,72877,15805
7,73322,15811
7,73765,15637
7,74210,15315
7,74653,14730
7,75098,15944
7,75542,15321
7,75987,14637
7,76430,13839
7,76875,14101
7,77318,14319
7,77763,13058
7,78207,14351
7,78652,14204
7,79097,13695
7,79540,13133
7,79985,13594
7,80428,13176
7,80873,14359
7,81317,14365
7,81762,15142
7,82205,12981
7,82650,14796
7,83093,14220
7,83538,14312
7,83982,13342
7,84427,14660
7,84870,13100
7,85315,13227
7,85758,14379
7,86203,13394
7,86647,14448
7,87092,13209
7,87535,12386
7,87980,13416
7,88423,13641
7,88868,13211
7,89312,13573
7,89757,13651
7,90200,13425
7,90645,15669
7,91090,13135
7,91533,13114
7,91978,12939
7,92422,12496
7,92867,13519
7,93310,13108
7,93755,12010
7,94198,12959
7,94643,13557
7,95087,12671
7,95532,13066
7,95975,13471
7,96420,13473
7,96863,13201
7,97308,12968
7,97752,13938
7,98197,13594
7,98640,13219
7,99085,13548
7,99528,13158
7,99973,12384
8,00417,12183
8,00862,12407
8,01305,13381
8,01750,14393
8,02193,16486
8,02638,23130
8,03083,33269
8,03527,53562
8,03972,84859
8,04415,134212
8,04860,187507
8,05303,252425
8,05748,318300
8,06192,375345
8,06637,415650
8,07080,442015
8,07525,447572
8,07968,446042
8,08413,431355
8,08857,400029
8,09302,391700
8,09745,355184
8,10190,328774
8,10633,303514
8,11078,273545
8,11522,240768
8,11967,218040
8,12410,191877
8,12855,167780
8,13298,146837
8,13743,129409
8,14187,106311
8,14632,95744
8,15077,81005
8,15520,66866
8,15965,59969
8,16408,50644
8,16853,43490
8,17297,43480
8,17742,47417
8,18185,67145
8,18630,105512
8,19073,179380
8,19518,287555
8,19962,445517
8,20407,645065
8,20850,859241
8,21295,1071350
8,21738,1248970
8,22183,1389730
8,22627,1472906
8,23072,1538213
8,23515,1516168
8,23960,1453388
8,24403,1383247
8,24848,1299861
8,25292,1184172
8,25737,1085511
8,26180,969611
8,26625,857986
8,27070,758362
8,27513,656256
8,27958,564562
8,28402,473308
8,28847,394832
8,29290,329608
8,29735,269608
8,30178,215698
8,30623,178669
8,31067,150799
8,31512,123144
8,31955,103244
8,32400,87080
8,32843,73438
8,33288,64223
8,33732,54945
8,34177,48493
8,34620,43511
8,35065,40003
8,35508,34996
8,35953,32266
8,36397,31356
8,36842,28218
8,37285,27236
8,37730,25919
8,38173,24917
8,38618,23918
8,39063,21970
8,39507,20990
8,39952,20556
8,40395,21212
8,40840,17946
8,41283,18612
8,41728,18331
8,42172,17277
8,42617,18277
8,43060,18276
8,43505,16827
8,43948,15295
8,44393,16358
8,44837,15676
8,45282,17479
8,45725,17082
8,46170,15471
8,46613,15100
8,47058,14333
8,47502,14170
8,47947,14512
8,48390,14501
8,48835,14018
8,49278,13810
8,49723,13560
8,50167,13432
8,50612,14184
8,51055,12968
8,51500,12823
8,51945,14363
8,52388,14486
8,52833,14565
8,53277,14016
8,53722,14408
8,54165,14276
8,54610,14996
8,55053,14090
8,55498,13363
8,55942,13799
8,56387,13398
8,56830,14223
8,57275,13606
8,57718,13033
8,58163,13689
8,58607,13526
8,59052,13480
8,59495,13354
8,59940,12943
8,60383,13433
8,60828,12525
8,61272,13021
8,61717,12451
8,62160,13377
8,62605,12276
8,63048,11569
8,63493,12858
8,63938,14955
8,64382,15546
8,64827,19415
8,65270,28407
8,65715,46041
8,66158,76538
8,66603,118050
8,67047,176627
8,67492,243736
8,67935,320474
8,68380,385952
8,68823,441674
8,69268,479532
8,69712,499451
8,70157,506450
8,70600,490444
8,71045,463461
8,71488,439787
8,71933,403472
8,72377,360610
8,72822,322182
8,73265,282369
8,73710,241686
8,74153,210809
8,74598,181252
8,75042,147450
8,75487,125204
8,75932,104903
8,76375,85743
8,76820,71170
8,77263,62309
8,77708,52006
8,78152,46021
8,78597,39998
8,79040,34975
8,79485,32780
8,79928,29347
8,80373,26707
8,80817,24768
8,81262,22171
8,81705,21623
8,82150,19928
8,82593,17521
8,83038,18756
8,83482,17786
8,83927,16799
8,84370,15314
8,84815,14360
8,85258,14075
8,85703,14139
8,86147,13335
8,86592,13362
8,87035,13073
8,87480,13350
8,87925,12767
8,88368,12124
8,88813,12936
8,89257,13619
8,89702,13390
8,90145,15996
8,90590,20975
8,91033,31304
8,91478,51812
8,91922,85501
8,92367,136799
8,92810,201419
8,93255,278859
8,93698,363574
8,94143,444354
8,94587,509492
8,95032,545128
8,95475,572856
8,95920,576501
8,96363,555652
8,96808,529086
8,97252,498057
8,97697,442987
8,98140,393549
8,98585,351742
8,99028,292372
8,99473,247065
8,99918,201798
9,00362,169633
9,00807,138347
9,01250,115752
9,01695,94330
9,02138,76102
9,02583,63994
9,03027,54604
9,03472,42610
9,03915,39386
9,04360,32386
9,04803,30797
9,05248,25912
9,05692,24407
9,06137,23181
9,06580,20092
9,07025,20273
9,07468,19447
9,07913,16590
9,08357,17398
9,08802,16650
9,09245,16536
9,09690,15734
9,10133,14799
9,10578,14509
9,11022,14475
9,11467,14059
9,11912,14113
9,12355,13032
9,12800,13455
9,13243,14024
9,13688,13151
9,14132,13237
9,14577,12821
9,15020,13321
9,15465,11493
9,15908,12869
9,16353,12971
9,16797,12178
9,17242,12469
9,17685,11971
9,18130,11712
9,18573,11578
9,19018,10932
9,19462,12610
9,19907,11285
9,20350,11266
9,20795,11006
9,21238,11647
9,21683,10592
9,22127,11491
9,22572,10832
9,23015,11073
9,23460,11350
9,23903,10941
9,24348,12491
9,24793,11729
9,25237,11022
9,25682,11231
9,26125,10741
9,26570,11489
9,27013,11329
9,27458,11587
9,27902,11672
9,28347,10667
9,28790,11959
9,29235,11497
9,29678,10554
9,30123,10249
9,30567,10978
9,31012,11254
9,31455,11328
9,31900,11829
9,32343,10814
9,32788,11618
9,33232,11898
9,33677,11139
9,34120,11064
9,34565,11747
9,35008,10380
9,35453,10638
9,35897,11224
9,36342,10797
9,36787,10164
9,37230,10509
9,37675,10552
9,38118,10825
9,38563,11243
9,39007,13842
9,39452,19134
9,39895,27983
9,40340,46068
9,40783,77849
9,41228,124563
9,41672,190680
9,42117,262278
9,42560,343126
9,43005,422308
9,43448,504977
9,43893,551036
9,44337,588830
9,44782,594212
9,45225,574356
9,45670,534345
9,46113,487503
9,46558,438826
9,47002,377166
9,47447,329807
9,47890,273733
9,48335,229301
9,48780,185063
9,49223,153347
9,49668,121964
9,50112,99149
9,50557,79915
9,51000,68060
9,51445,55263
9,51888,47461
9,52333,40177
9,52777,36083
9,53222,31813
9,53665,28192
9,54110,26361
9,54553,24306
9,54998,21692
9,55442,19994
9,55887,19657
9,56330,18596
9,56775,17442
9,57218,16649
9,57663,14893
9,58107,14041
9,58552,13948
9,58995,14411
9,59440,13216
9,59883,14134
9,60328,11293
9,60773,12823
9,61217,12951
9,61662,12886
9,62105,11709
9,62550,12165
9,62993,12279
9,63438,12023
9,63882,11247
9,64327,12255
9,64770,12169
9,65215,13948
9,65658,20749
9,66103,30484
9,66547,52181
9,66992,94222
9,67435,161274
9,67880,262949
9,68323,406865
9,68768,576749
9,69212,761444
9,69657,947686
9,70100,1115970
9,70545,1244102
9,70988,1335447
9,71433,1356539
9,71877,1309627
9,72322,1234825
9,72767,1123161
9,73210,965316
9,73655,807924
9,74098,664656
9,74543,534251
9,74987,414533
9,75432,327783
9,75875,255612
9,76320,203544
9,76763,161983
9,77208,128642
9,77652,104636
9,78097,88128
9,78540,74709
9,78985,63906
9,79428,55898
9,79873,50258
9,80317,44758
9,80762,41185
9,81205,38800
9,81650,37159
9,82093,35874
9,82538,35365
9,82982,32658
9,83427,31470
9,83870,29774
9,84315,31052
9,84760,29658
9,85203,25508
9,85648,27661
9,86092,23730
9,86537,24002
9,86980,22601
9,87425,22028
9,87868,20313
9,88313,19397
9,88757,19082
9,89202,18026
9,89645,16270
9,90090,15795
9,90533,15697
9,90978,13690
9,91422,14520
9,91867,14979
9,92310,14685
9,92755,16329
9,93198,14559
9,93643,14134
9,94087,16813
9,94532,22070
9,94975,29271
9,95420,50191
9,95863,82808
9,96308,130237
9,96752,198179
9,97197,277241
9,97642,380259
9,98085,469453
9,98530,543968
9,98973,605342
9,99418,651220
9,99862,650055
10,00307,628175
10,00750,587120
10,01195,526314
10,01638,455457
10,02083,387714
10,02527,320045
10,02972,256084
10,03415,206108
10,03860,164469
10,04303,130800
10,04748,103663
10,05192,86373
10,05637,68646
10,06080,57483
10,06525,45509
10,06968,42282
10,07413,35335
10,07857,31705
10,08302,29194
10,08745,31524
10,09190,31613
10,09635,42892
10,10078,59233
10,10523,94661
10,10967,156714
10,11412,248041
10,11855,380640
10,12300,549652
10,12743,733274
10,13188,922568
10,13632,1101566
10,14077,1238587
10,14520,1321756
10,14965,1335251
10,15408,1287624
10,15853,1182353
10,16297,1038512
10,16742,878134
10,17185,729018
10,17630,581444
10,18073,468360
10,18518,369040
10,18962,286494
10,19407,228322
10,19850,177550
10,20295,143070
10,20738,118490
10,21183,97631
10,21628,82580
10,22072,69703
10,22517,60863
10,22960,53583
10,23405,48760
10,23848,45577
10,24293,39588
10,24737,36045
10,25182,33573
10,25625,29783
10,26070,30555
10,26513,28089
10,26958,27502
10,27402,23096
10,27847,23891
10,28290,20283
10,28735,21358
10,29178,21258
10,29623,19588
10,30067,18168
10,30512,18865
10,30955,17254
10,31400,16570
10,31843,17341
10,32288,16069
10,32732,16923
10,33177,16538
10,33622,16310
10,34065,16172
10,34510,13437
10,34953,14257
10,35398,13994
10,35842,15329
10,36287,14742
10,36730,14497
10,37175,13423
10,37618,12168
10,38063,12649
10,38507,11920
10,38952,13414
10,39395,13411
10,39840,13998
10,40283,18216
10,40728,20862
10,41172,31659
10,41617,52414
10,42060,82953
10,42505,133130
10,42948,207892
10,43393,287771
10,43837,392547
10,44282,483718
10,44725,564538
10,45170,613131
10,45615,649535
10,46058,629276
10,46503,577747
10,46947,529991
10,47392,457186
10,47835,376677
10,48280,305416
10,48723,247281
10,49168,193837
10,49612,155028
10,50057,121082
10,50500,100628
10,50945,77665
10,51388,65515
10,51833,54939
10,52277,46244
10,52722,39918
10,53165,37477
10,53610,32515
10,54053,29753
10,54498,26542
10,54942,23841
10,55387,22425
10,55830,22124
10,56275,20371
10,56718,18983
10,57163,18303
10,57608,17430
10,58052,16296
10,58497,16896
10,58940,16173
10,59385,16122
10,59828,15491
10,60273,15910
10,60717,15590
10,61162,14383
10,61605,15794
10,62050,15251
10,62493,14621
10,62938,13409
10,63382,15432
10,63827,13252
10,64270,15046
10,64715,13734
10,65158,14496
10,65603,14365
10,66047,15179
10,66492,14091
10,66935,14612
10,67380,13408
10,67823,13619
10,68268,15152
10,68712,15032
10,69157,13191
10,69600,14498
10,70045,13764
10,70490,13389
10,70933,13104
10,71378,13831
10,71822,12090
10,72267,12775
10,72710,12729
10,73155,11721
10,73598,12121
10,74043,11675
10,74487,14339
10,74932,16871
10,75375,20272
10,75820,32667
10,76263,51876
10,76708,87682
10,77152,142976
10,77597,212131
10,78040,293014
10,78485,388244
10,78928,478547
10,79373,556229
10,79817,599403
10,80262,619468
10,80705,608465
10,81150,557457
10,81593,493611
10,82038,414633
10,82483,348870
10,82927,283144
10,83372,224593
10,83815,171847
10,84260,138910
10,84703,109256
10,85148,88903
10,85592,72355
10,86037,58704
10,86480,50474
10,86925,43380
10,87368,37331
10,87813,35698
10,88257,31982
10,88702,28917
10,89145,25787
10,89590,24877
10,90033,23423
10,90478,23822
10,90922,21051
10,91367,18432
10,91810,20708
10,92255,18691
10,92698,17641
10,93143,17630
10,93587,18215
10,94032,17210
10,94477,14925
10,94920,15297
10,95365,16539
10,95808,15329
10,96253,14072
10,96697,14879
10,97142,14081
10,97585,14282
10,98030,13467
10,98473,14255
10,98918,13028
10,99362,13188
10,99807,12461
11,00250,13642
11,00695,12491
11,01138,12523
11,01583,13091
11,02027,12278
11,02472,11559
11,02915,13010
11,03360,13410
11,03803,11880
11,04248,12025
11,04692,11714
11,05137,11568
11,05580,11490
11,06025,11966
11,06470,11430
11,06913,11351
11,07358,11286
11,07802,10589
11,08247,10267
11,08690,11719
11,09135,11089
11,09578,12541
11,10023,10919
11,10467,11544
11,10912,12267
11,11355,11912
11,11800,10954
11,12243,11211
11,12688,11880
11,13132,12597
11,13577,12117
11,14020,12438
11,14465,10528
11,14908,12017
11,15353,11474
11,15797,10922
11,16242,11859
11,16685,10806
11,17130,12576
11,17573,10947
11,18018,10094
11,18463,11748
11,18907,11387
11,19352,13249
11,19795,18984
11,20240,29460
11,20683,50705
11,21128,91947
11,21572,159488
11,22017,270363
11,22460,419878
11,22905,613358
11,23348,853439
11,23793,1120514
11,24237,1404613
11,24682,1668000
11,25125,1882766
11,25570,1999122
11,26013,1993908
11,26458,1889262
11,26902,1723358
11,27347,1530517
11,27790,1296833
11,28235,1091274
11,28678,900730
11,29123,744153
11,29567,597396
11,30012,474878
11,30457,379802
11,30900,301526
11,31345,243616
11,31788,198207
11,32233,160009
11,32677,132601
11,33122,112177
11,33565,99000
11,34010,87045
11,34453,75536
11,34898,66138
11,35342,58404
11,35787,54695
11,36230,50637
11,36675,45307
11,37118,43444
11,37563,38574
11,38007,39769
11,38452,36316
11,38895,35114
11,39340,30754
11,39783,30794
11,40228,29220
11,40672,27846
11,41117,27803
11,41560,24734
11,42005,23530
11,42448,22093
11,42893,22785
11,43338,21998
11,43782,21058
11,44227,20778
11,44670,20475
11,45115,18155
11,45558,20014
11,46003,17835
11,46447,18729
11,46892,17781
11,47335,17614
11,47780,16972
11,48223,17035
11,48668,16924
11,49112,16727
11,49557,17034
11,50000,17902
11,50445,17585
11,50888,19614
11,51333,21794
11,51777,25669
11,52222,35099
11,52665,46551
11,53110,73822
11,53553,110544
11,53998,162706
11,54442,234739
11,54887,317035
11,55332,410658
11,55775,473488
11,56220,543473
11,56663,581170
11,57108,562776
11,57552,538937
11,57997,479405
11,58440,415607
11,58885,348043
11,59328,280175
11,59773,219572
11,60217,172320
11,60662,135801
11,61105,109222
11,61550,85557
11,61993,69958
11,62438,60583
11,62882,54655
11,63327,53375
11,63770,53922
11,64215,66875
11,64658,93917
11,65103,137746
11,65547,200318
11,65992,295002
11,66435,402385
11,66880,520308
11,67325,627910
11,67768,707924
11,68213,761024
11,68657,756959
11,69102,718737
11,69545,642305
11,69990,538163
11,70433,443435
11,70878,345565
11,71322,271120
11,71767,215448
11,72210,168988
11,72655,136879
11,73098,107675
11,73543,89560
11,73987,80940
11,74432,68697
11,74875,61968
11,75320,57108
11,75763,49772
11,76208,45521
11,76652,39510
11,77097,38400
11,77540,35896
11,77985,30263
11,78428,30397
11,78873,27421
11,79318,26643
11,79762,25268
11,80207,24255
11,80650,23415
11,81095,22744
11,81538,20736
11,81983,20833
11,82427,22454
11,82872,18999
11,83315,20587
11,83760,19349
11,84203,18318
11,84648,19030
11,85092,15627
11,85537,17626
11,85980,16247
11,86425,17803
11,86868,16005
11,87313,17035
11,87757,17332
11,88202,14625
11,88645,17359
11,89090,15667
11,89533,14848
11,89978,16121
11,90422,14531
11,90867,15905
11,91312,15071
11,91755,14445
11,92200,15164
11,92643,16547
11,93088,14024
11,93532,13643
11,93977,13663
11,94420,15160
11,94865,14872
11,95308,15692
11,95753,14452
11,96197,16471
11,96642,18839
11,97085,22812
11,97530,33879
11,97973,57970
11,98418,100243
11,98862,156892
11,99307,247261
11,99750,365726
12,00195,496370
12,00638,636443
12,01083,738055
12,01527,814924
12,01972,853852
12,02415,814453
12,02860,739849
12,03305,624135
12,03748,505859
12,04193,404204
12,04637,311079
12,05082,244038
12,05525,188958
12,05970,151729
12,06413,123678
12,06858,102318
12,07302,84481
12,07747,74192
12,08190,63659
12,08635,55713
12,09078,49430
12,09523,46540
12,09967,43185
12,10412,38225
12,10855,35506
12,11300,33292
12,11743,32690
12,12188,30778
12,12632,27357
12,13077,26760
12,13520,24764
12,13965,24739
12,14408,23255
12,14853,25001
12,15297,22336
12,15742,21130
12,16187,20697
12,16630,21033
12,17075,22446
12,17518,21579
12,17963,21121
12,18407,20262
12,18852,19932
12,19295,19319
12,19740,20309
12,20183,18261
12,20628,19232
12,21072,18273
12,21517,17265
12,21960,18025
12,22405,17128
12,22848,16270
12,23293,16996
12,23737,16865
12,24182,16961
12,24625,15684
12,25070,16143
12,25513,16688
12,25958,16487
12,26402,15752
12,26847,15993
12,27290,14599
12,27735,14128
12,28180,14896
12,28623,16319
12,29068,20634
12,29512,26424
12,29957,40407
12,30400,65613
12,30845,105141
12,31288,166527
12,31733,251118
12,32177,351367
12,32622,459691
12,33065,564364
12,33510,629220
12,33953,669795
12,34398,665136
12,34842,618644
12,35287,555823
12,35730,472527
12,36175,381970
12,36618,301218
12,37063,235825
12,37507,187633
12,37952,146559
12,38395,118454
12,38840,93648
12,39283,79886
12,39728,67845
12,40173,57475
12,40617,50535
12,41062,46438
12,41505,42884
12,41950,39368
12,42393,36103
12,42838,33223
12,43282,29708
12,43727,29511
12,44170,27542
12,44615,25419
12,45058,25921
12,45503,24558
12,45947,23293
12,46392,21158
12,46835,20460
12,47280,20997
12,47723,21333
12,48168,20588
12,48612,19646
12,49057,19639
12,49500,19052
12,49945,18000
12,50388,18163
12,50833,18140
12,51277,16467
12,51722,18752
12,52167,17292
12,52610,17351
12,53055,17107
12,53498,16078
12,53943,15818
12,54387,17595
12,54832,16404
12,55275,16207
12,55720,16002
12,56163,14987
12,56608,15621
12,57052,15236
12,57497,15397
12,57940,15869
12,58385,14560
12,58828,14904
12,59273,15239
12,59717,14717
12,60162,14934
12,60605,14725
12,61050,16029
12,61493,15532
12,61938,15992
12,62382,14434
12,62827,14077
12,63270,15125
12,63715,15980
12,64160,13334
12,64603,16208
12,65048,15598
12,65492,14471
12,65937,15044
12,66380,16341
12,66825,15768
12,67268,15633
12,67713,15465
12,68157,15230
12,68602,13717
12,69045,14176
12,69490,15709
12,69933,15102
12,70378,14714
12,70822,15479
12,71267,16837
12,71710,15102
12,72155,16761
12,72598,22704
12,73043,30893
12,73487,49470
12,73932,82564
12,74375,134269
12,74820,221768
12,75263,343835
12,75708,509405
12,76153,713443
12,76597,968596
12,77042,1239162
12,77485,1502678
12,77930,1758407
12,78373,1919314
12,78818,2035847
12,79262,1989728
12,79707,1860555
12,80150,1677705
12,80595,1472503
12,81038,1292404
12,81483,1102864
12,81927,929527
12,82372,781764
12,82815,633823
12,83260,519292
12,83703,410639
12,84148,334428
12,84592,273494
12,85037,221756
12,85480,187973
12,85925,160995
12,86368,135057
12,86813,117537
12,87257,105928
12,87702,94787
12,88145,84546
12,88590,76995
12,89035,71702
12,89478,67020
12,89923,63408
12,90367,58275
12,90812,52521
12,91255,51907
12,91700,48087
12,92143,47397
12,92588,43980
12,93032,41563
12,93477,38035
12,93920,39359
12,94365,36999
12,94808,37941
12,95253,36627
12,95697,33607
12,96142,33897
12,96585,33431
12,97030,31175
12,97473,31909
12,97918,30905
12,98362,29995
12,98807,29753
12,99250,29634
12,99695,30063
13,00138,29674
13,00583,29758
13,01028,29150
13,01472,28067
13,01917,25774
13,02360,27618
13,02805,25206
13,03248,27096
13,03693,27835
13,04137,25502
13,04582,32674
13,05025,39628
13,05470,51497
13,05913,78222
13,06358,122013
13,06802,182636
13,07247,263493
13,07690,366918
13,08135,465698
13,08578,551922
13,09023,611507
13,09467,637400
13,09912,622465
13,10355,567300
13,10800,491796
13,11243,413860
13,11688,347609
13,12132,293541
13,12577,265414
13,13022,259934
13,13465,281650
13,13910,338190
13,14353,407617
13,14798,486871
13,15242,560476
13,15687,621279
13,16130,669381
13,16575,688104
13,17018,697287
13,17463,706271
13,17907,730005
13,18352,779660
13,18795,836895
13,19240,892476
13,19683,924835
13,20128,920611
13,20572,861237
13,21017,777529
13,21460,659977
13,21905,542511
13,22348,439802
13,22793,351150
13,23237,280239
13,23682,224789
13,24125,184519
13,24570,159292
13,25015,136361
13,25458,113884
13,25903,104628
13,26347,91634
13,26792,84615
13,27235,79636
13,27680,70781
13,28123,65159
13,28568,60579
13,29012,56446
13,29457,53020
13,29900,48587
13,30345,44971
13,30788,44939
13,31233,41684
13,31677,41795
13,32122,41271
13,32565,37800
13,33010,36445
13,33453,35330
13,33898,33936
13,34342,31721
13,34787,32869
13,35230,31292
13,35675,30504
13,36118,28762
13,36563,30279
13,37008,27091
13,37452,26584
13,37897,26605
13,38340,27433
13,38785,25330
13,39228,24571
13,39673,25998
13,40117,26351
13,40562,23693
13,41005,24888
13,41450,26090
13,41893,25310
13,42338,22730
13,42782,25185
13,43227,25669
13,43670,23192
13,44115,26569
13,44558,26013
13,45003,24724
13,45447,25381
13,45892,25060
13,46335,24702
13,46780,26420
13,47223,32099
13,47668,43831
13,48112,60051
13,48557,91680
13,49002,146983
13,49445,226602
13,49890,338738
13,50333,460855
13,50778,605282
13,51222,734044
13,51667,834909
13,52110,880913
13,52555,862870
13,52998,798598
13,53443,689263
13,53887,558422
13,54332,449695
13,54775,352075
13,55220,283568
13,55663,224219
13,56108,182721
13,56552,153918
13,56997,128035
13,57440,110266
13,57885,96985
13,58328,89603
13,58773,75963
13,59217,71131
13,59662,65963
13,60105,62648
13,60550,55371
13,60993,54075
13,61438,48543
13,61883,45989
13,62327,44291
13,62772,43288
13,63215,41114
13,63660,39473
13,64103,40760
13,64548,37844
13,64992,36559
13,65437,35955
13,65880,36095
13,66325,33103
13,66768,33271
13,67213,32606
13,67657,32139
13,68102,29861
13,68545,30220
13,68990,28432
13,69433,28201
13,69878,28946
13,70322,26680
13,70767,27210
13,71210,27628
13,71655,26989
13,72098,26820
13,72543,27073
13,72987,26639
13,73432,27638
13,73877,26564
13,74320,24427
13,74765,25804
13,75208,25467
13,75653,23966
13,76097,23695
13,76542,22501
13,76985,24843
13,77430,24196
13,77873,23101
13,78318,25091
13,78762,28110
13,79207,35221
13,79650,50076
13,80095,75181
13,80538,118838
13,80983,182566
13,81427,273819
13,81872,389111
13,82315,501753
13,82760,608533
13,83203,691377
13,83648,719003
13,84092,704851
13,84537,644555
13,84980,552086
13,85425,460346
13,85870,374734
13,86313,302793
13,86758,231477
13,87202,190306
13,87647,153982
13,88090,129343
13,88535,108967
13,88978,98485
13,89423,99767
13,89867,105931
13,90312,127033
13,90755,166554
13,91200,221440
13,91643,292010
13,92088,378300
13,92532,450302
13,92977,507774
13,93420,536528
13,93865,542592
13,94308,523691
13,94753,467196
13,95197,411868
13,95642,344043
13,96085,279775
13,96530,227744
13,96973,185359
13,97418,147802
13,97863,124730
13,98307,103977
13,98752,88502
13,99195,79647
13,99640,68876
14,00083,61679
14,00528,54815
14,00972,53523
14,01417,48666
14,01860,46813
14,02305,44367
14,02748,42943
14,03193,39245
14,03637,37456
14,04082,35561
14,04525,34299
14,04970,34636
14,05413,32935
14,05858,31787
14,06302,31072
14,06747,30701
14,07190,30550
14,07635,29167
14,08078,28567
14,08523,27419
14,08967,29098
14,09412,29706
14,09857,27068
14,10300,27858
14,10745,27690
14,11188,27252
14,11633,26723
14,12077,27154
14,12522,26507
14,12965,26043
14,13410,26807
14,13853,24756
14,14298,25634
14,14742,25867
14,15187,26803
14,15630,23485
14,16075,24778
14,16518,23486
14,16963,24577
14,17407,25171
14,17852,23460
14,18295,23131
14,18740,23045
14,19183,23617
14,19628,26857
14,20072,30889
14,20517,38196
14,20960,51384
14,21405,72937
14,21850,111496
14,22293,179656
14,22738,266819
14,23182,395327
14,23627,551896
14,24070,742174
14,24515,960554
14,24958,1170581
14,25403,1406743
14,25847,1576970
14,26292,1696466
14,26735,1700003
14,27180,1573681
14,27623,1339822
14,28068,1083384
14,28512,853094
14,28957,663825
14,29400,513702
14,29845,408620
14,30288,328514
14,30733,272885
14,31177,230032
14,31622,200795
14,32065,174314
14,32510,152818
14,32953,139981
14,33398,123993
14,33842,115778
14,34287,105731
14,34732,95866
14,35175,88175
14,35620,83471
14,36063,77587
14,36508,77046
14,36952,71009
14,37397,68927
14,37840,66074
14,38285,63976
14,38728,60155
14,39173,56189
14,39617,55863
14,40062,51958
14,40505,53402
14,40950,50161
14,41393,48377
14,41838,48214
14,42282,46435
14,42727,46393
14,43170,45345
14,43615,43700
14,44058,43889
14,44503,40976
14,44947,40095
14,45392,39964
14,45835,38748
14,46280,38130
14,46725,38244
14,47168,38502
14,47613,37664
14,48057,36608
14,48502,35014
14,48945,37966
14,49390,34489
14,49833,34709
14,50278,35062
14,50722,33307
14,51167,34320
14,51610,32919
14,52055,32980
14,52498,31783
14,52943,33423
14,53387,30292
14,53832,31965
14,54275,32504
14,54720,29095
14,55163,30095
14,55608,32396
14,56052,30121
14,56497,31070
14,56940,29538
14,57385,27975
14,57828,32855
14,58273,30192
14,58718,28668
14,59162,29578
14,59607,30144
14,60050,31533
14,60495,32066
14,60938,33785
14,61383,38832
14,61827,46268
14,62272,63988
14,62715,95618
14,63160,141716
14,63603,206098
14,64048,291324
14,64492,394333
14,64937,510887
14,65380,625902
14,65825,712669
14,66268,766671
14,66713,780005
14,67157,741744
14,67602,670157
14,68045,574320
14,68490,489945
14,68933,394279
14,69378,320093
14,69822,271294
14,70267,220263
14,70712,183888
14,71155,155789
14,71600,138491
14,72043,124496
14,72488,107466
14,72932,96710
14,73377,87726
14,73820,83654
14,74265,76123
14,74708,71939
14,75153,67426
14,75597,64212
14,76042,61697
14,76485,54657
14,76930,54921
14,77373,51681
14,77818,48637
14,78262,46663
14,78707,45877
14,79150,43181
14,79595,43313
14,80038,41724
14,80483,38516
14,80927,42219
14,81372,38415
14,81815,38116
14,82260,37041
14,82705,36184
14,83148,36298
14,83593,36685
14,84037,34806
14,84482,35758
14,84925,32663
14,85370,31629
14,85813,32223
14,86258,32532
14,86702,31805
14,87147,31705
14,87590,33772
14,88035,31252
14,88478,31270
14,88923,29995
14,89367,32332
14,89812,29535
14,90255,28582
14,90700,28611
14,91143,29734
14,91588,28811
14,92032,28993
14,92477,28825
14,92920,30150
14,93365,27915
14,93808,27786
14,94253,29792
14,94698,27938
14,95142,28663
14,95587,28579
14,96030,29792
14,96475,29114
14,96918,29774
14,97363,29601
14,97807,30705
14,98252,28947
14,98695,29121
14,99140,28060
14,99583,29544
15,00028,30370
15,00472,27877
15,00917,27629
15,01360,28369
15,01805,29447
15,02248,27291
15,02693,26689
15,03137,27282
15,03582,27860
15,04025,26538
15,04470,25995
15,04913,24575
15,05358,27482
15,05802,24793
15,06247,25602
15,06690,25081
15,07135,25267
15,07580,24931
15,08023,27220
15,08468,27946
15,08912,29732
15,09357,28949
15,09800,30200
15,10245,29761
15,10688,29817
15,11133,27079
15,11577,27479
15,12022,26514
15,12465,27516
15,12910,28188
15,13353,26874
15,13798,24867
15,14242,24598
15,14687,25850
15,15130,25466
15,15575,25862
15,16018,25072
15,16463,24649
15,16907,25465
15,17352,24642
15,17795,27228
15,18240,25092
15,18683,24080
15,19128,24141
15,19573,25258
15,20017,24386
15,20462,26435
15,20905,24834
15,21350,25072
15,21793,23458
15,22238,25862
15,22682,23580
15,23127,24639
15,23570,24552
15,24015,26805
15,24458,26466
15,24903,24830
15,25347,24974
15,25792,24709
15,26235,25376
15,26680,24340
15,27123,24787
15,27568,24700
15,28012,23291
15,28457,24216
15,28900,23209
15,29345,24287
15,29788,23680
15,30233,25341
15,30677,22968
15,31122,24632
15,31567,25357
15,32010,25266
15,32455,24561
15,32898,24509
15,33343,26769
15,33787,23907
15,34232,23441
15,34675,25091
15,35120,22417
15,35563,23812
15,36008,24445
15,36452,25416
15,36897,26451
15,37340,26127
15,37785,26036
15,38228,23044
15,38673,26686
15,39117,23607
15,39562,22924
15,40005,24714
15,40450,23628
15,40893,23845
15,41338,25366
15,41782,23978
15,42227,25802
15,42670,23532
15,43115,26283
15,43560,24054
15,44003,22530
15,44448,22534
15,44892,25115
15,45337,25293
15,45780,23703
15,46225,23381
15,46668,22525
15,47113,24404
15,47557,24241
15,48002,24282
15,48445,23975
15,48890,22736
15,49333,22941
15,49778,22057
15,50222,23313
15,50667,23889
15,51110,24083
15,51555,25039
15,51998,24984
15,52443,24419
15,52887,25346
15,53332,25219
15,53775,25095
15,54220,25398
15,54663,24884
15,55108,23189
15,55553,24703
15,55997,24609
15,56442,24735
15,56885,25083
15,57330,24679
15,57773,25576
15,58218,23887
15,58662,24038
15,59107,24457
15,59550,23980
15,59995,23396
15,60438,24920
15,60883,24445
15,61327,24925
15,61772,22602
15,62215,23301
15,62660,23872
15,63103,24197
15,63548,22404
15,63992,26107
15,64437,23305
15,64880,24265
15,65325,23146
15,65768,23174
15,66213,23946
15,66657,23530
15,67102,24479
15,67547,22907
15,67990,23084
15,68435,25339
15,68878,23021
15,69323,23188
15,69767,24537
15,70212,23690
15,70655,23273
15,71100,21835
15,71543,24597
15,71988,24740
15,72432,23498
15,72877,24465
15,73320,24195
15,73765,23864
15,74208,24448
15,74653,24410
15,75097,23114
15,75542,25795
15,75985,24549
15,76430,24943
15,76873,24235
15,77318,23470
15,77762,24593
15,78207,24585
15,78650,26821
15,79095,25132
15,79538,26619
15,79983,28384
15,80428,29740
15,80872,34833
15,81317,44407
15,81760,61087
15,82205,84179
15,82648,120979
15,83093,159209
15,83537,213646
15,83982,266532
15,84425,324116
15,84870,371751
15,85313,402187
15,85758,426474
15,86202,421379
15,86647,401190
15,87090,371440
15,87535,329263
15,87978,281441
15,88423,245829
15,88867,208748
15,89312,175740
15,89755,149513
15,90200,126291
15,90643,111389
15,91088,94492
15,91532,82749
15,91977,74336
15,92422,66706
15,92865,63304
15,93310,60651
15,93753,56325
15,94198,52755
15,94642,48447
15,95087,45965
15,95530,44422
15,95975,40722
15,96418,42728
15,96863,41595
15,97307,39229
15,97752,38793
15,98195,37693
15,98640,37218
15,99083,36504
15,99528,35533
15,99972,35692
16,00417,35558
16,00860,34201
16,01305,31571
16,01748,33034
16,02193,31978
16,02637,32663
16,03082,30746
16,03525,32572
16,03970,30251
16,04415,30402
16,04858,30574
16,05303,29020
16,05747,30135
16,06192,28915
16,06635,28651
16,07080,29990
16,07523,30668
16,07968,29138
16,08412,29777
16,08857,27926
16,09300,29755
16,09745,27766
16,10188,27070
16,10633,26610
16,11077,28206
16,11522,27342
16,11965,27306
16,12410,26881
16,12853,26153
16,13298,28103
16,13742,26196
16,14187,28069
16,14630,27510
16,15075,27766
16,15518,28726
16,15963,28558
16,16408,27097
16,16852,25446
16,17297,27867
16,17740,25445
16,18185,27898
16,18628,26969
16,19073,26877
16,19517,25648
16,19962,28500
16,20405,28986
16,20850,26738
16,21293,25569
16,21738,26444
16,22182,25291
16,22627,27165
16,23070,24633
16,23515,25889
16,23958,26340
16,24403,24544
16,24847,22578
16,25292,25037
16,25735,27062
16,26180,25237
16,26623,27641
16,27068,24855
16,27512,25756
16,27957,26140
16,28402,26494
16,28845,26477
16,29290,25857
16,29733,26757
16,30178,25297
16,30622,24175
16,31067,27583
16,31510,26115
16,31955,25464
16,32398,27657
16,32843,27696
16,33287,28192
16,33732,24606
16,34175,25847
16,34620,27285
16,35063,23882
16,35508,26244
16,35952,26070
16,36397,26051
16,36840,25418
16,37285,25689
16,37728,23947
16,38173,24330
16,38617,25636
16,39062,25153
16,39505,25075
16,39950,24691
16,40395,24722
16,40838,25010
16,41283,26160
16,41727,25344
16,42172,26364
16,42615,24775
16,43060,23773
16,43503,25356
16,43948,23638
16,44392,26507
16,44837,26335
16,45280,24854
16,45725,25823
16,46168,26181
16,46613,25562
16,47057,28064
16,47502,26120
16,47945,26318
16,48390,26448
16,48833,24945
16,49278,26198
16,49722,26063
16,50167,25751
16,50610,25809
16,51055,26217
16,51498,25476
16,51943,24286
16,52387,25097
16,52832,25879
16,53277,25410
16,53720,27248
16,54165,24875
16,54608,27414
16,55053,25241
16,55497,25899
16,55942,27382
16,56385,28299
16,56830,25200
16,57273,25613
16,57718,26041
16,58162,26824
16,58607,25162
16,59050,28492
16,59495,26456
16,59938,24629
16,60383,24606
16,60827,26022
16,61272,24455
16,61715,25687
16,62160,25182
16,62603,24044
16,63048,25545
16,63492,26357
16,63937,25364
16,64380,26394
16,64825,26217
16,65270,27406
16,65713,24161
16,66158,25392
16,66602,26577
16,67047,24420
16,67490,24183
16,67935,26640
16,68378,24685
16,68823,26114
16,69267,25303
16,69712,25913
16,70155,27635
16,70600,26128
16,71043,25034
16,71488,26392
16,71932,24218
16,72377,24761
16,72820,25890
16,73265,23401
16,73708,26272
16,74153,26884
16,74597,23672
16,75042,24765
16,75485,24133
16,75930,25435
16,76373,26582
16,76818,25059
16,77263,26270
16,77707,24736
16,78152,26171
16,78595,23974
16,79040,24221
16,79483,25485
16,79928,25516
16,80372,26274
16,80817,24969
16,81260,26875
16,81705,24235
16,82148,28131
16,82593,26483
16,83037,26456
16,83482,26514
16,83925,24629
16,84370,25465
16,84813,26241
16,85258,23763
16,85702,24645
16,86147,24388
16,86590,25491
16,87035,24921
16,87478,24649
16,87923,26233
16,88367,24751
16,88812,25453
16,89257,24812
16,89700,24724
16,90145,25097
16,90588,26729
16,91033,26236
16,91477,26271
16,91922,28118
16,92365,26444
16,92810,25523
16,93253,27168
16,93698,25035
16,94142,29279
16,94587,29304
16,95030,30050
16,95475,28101
16,95918,30574
16,96363,29875
16,96807,29315
16,97252,29746
16,97695,30063
16,98140,28651
16,98583,28567
16,99028,27883
16,99472,29293
16,99917,27973
17,00360,26631
17,00805,28080
17,01250,29600
17,01693,26172
17,02138,27461
17,02582,29206
17,03027,27515
17,03470,26490
17,03915,26301
17,04358,26239
17,04803,26906
17,05247,27163
17,05692,27210
17,06135,26132
17,06580,27931
17,07023,26659
17,07468,25974
17,07912,26461
17,08357,26008
17,08800,25232
17,09245,26808
17,09688,26207
17,10133,25283
17,10577,25091
17,11022,24620
17,11465,27215
17,11910,25641
17,12353,26000
17,12798,26202
17,13243,25285
17,13687,26795
17,14132,25266
17,14575,25411
17,15020,26825
17,15463,27304
17,15908,24785
17,16352,25751
17,16797,25995
17,17240,24679
17,17685,25409
17,18128,25190
17,18573,25431
17,19017,25562
17,19462,25000
17,19905,25529
17,20350,26496
17,20793,27888
17,21238,26284
17,21682,27039
17,22127,24934
17,22570,26035
17,23015,27757
17,23458,26045
17,23903,24810
17,24347,24699
17,24792,24650
17,25237,25192
17,25680,25521
17,26125,24087
17,26568,25424
17,27013,24919
17,27457,26019
17,27902,23522
17,28345,25820
17,28790,25052
17,29233,25422
17,29678,26104
17,30122,26913
17,30567,26575
17,31010,28545
17,31455,26052
17,31898,26281
17,32343,24834
17,32787,25960
17,33232,26875
17,33675,27453
17,34120,26503
17,34563,26237
17,35008,26775
17,35452,26840
17,35897,26382
17,36340,25234
17,36785,25731
17,37228,25696
17,37673,25520
17,38118,27478
17,38562,25341
17,39007,25085
17,39450,26092
17,39895,25326
17,40338,25938
17,40783,27177
17,41227,24684
17,41672,26801
17,42115,25002
17,42560,26219
17,43003,24104
17,43448,25011
17,43892,27059
17,44337,25733
17,44780,25622
17,45225,27116
17,45668,25899
17,46113,25144
17,46557,25941
17,47002,27433
17,47445,25066
17,47890,26288
17,48333,27763
17,48778,26566
17,49222,25884
17,49667,24401
17,50112,25949
17,50555,25654
17,51000,25970
17,51443,26912
17,51888,24898
17,52332,26635
17,52777,26036
17,53220,25907
17,53665,26397
17,54108,28324
17,54553,25315
17,54997,25947
17,55442,26031
17,55885,26118
17,56330,24307
17,56773,25344
17,57218,26629
17,57662,24467
17,58107,24342
17,58550,25845
17,58995,25212
17,59438,25983
17,59883,26943
17,60327,26394
17,60772,25372
17,61215,26654
17,61660,25660
17,62105,25045
17,62548,26636
17,62993,26159
17,63437,25924
17,63882,26207
17,64325,24661
17,64770,26834
17,65213,25885
17,65658,27217
17,66102,24814
17,66547,27264
17,66990,26463
17,67435,25583
17,67878,26979
17,68323,24773
17,68767,26953
17,69212,27016
17,69655,24787
17,70100,25923
17,70543,26967
17,70988,27082
17,71432,26206
17,71877,25757
17,72320,26201
17,72765,25513
17,73208,25174
17,73653,24970
17,74098,25013
17,74542,25626
17,74987,25500
17,75430,28954
17,75875,25528
17,76318,26474
17,76763,26772
17,77207,24932
17,77652,25249
17,78095,27065
17,78540,27560
17,78983,29348
17,79428,28224
17,79872,24934
17,80317,27499
17,80760,25787
17,81205,26677
17,81648,25779
17,82093,26982
17,82537,27634
17,82982,26219
17,83425,26846
17,83870,25493
17,84313,27855
17,84758,27034
17,85202,27206
17,85647,25731
17,86092,27334
17,86535,28576
17,86980,25844
17,87423,26640
17,87868,26648
17,88312,27336
17,88757,25797
17,89200,26685
17,89645,28119
17,90088,27101
17,90533,26442
17,90977,26464
17,91422,24442
17,91865,25520
17,92310,25053
17,92753,26457
17,93198,24375
17,93642,25067
17,94087,25695
17,94530,27688
17,94975,28185
17,95418,25887
17,95863,27377
17,96307,29279
17,96752,27913
17,97195,28304
17,97640,25559
17,98083,28063
17,98528,27822
17,98973,27798
17,99417,29907
17,99862,26211
18,00305,28183
18,00750,29021
18,01193,27342
18,01638,26931
18,02082,28171
18,02527,26984
18,02970,27478
18,03415,25774
18,03858,26746
18,04303,25756
18,04747,26229
18,05192,26847
18,05635,27114
18,06080,28312
18,06523,27234
18,06968,25832
18,07412,24494
18,07857,27143
