D:\MassHunter\GCMS\1\data\Amal\Constant flow\70C\70C_1ml-min_6C-min_1.D Tue Aug 06 17:54:38 2024
Start of data points
6,24098,24824
6,24510,24421
6,24923,27045
6,25335,26060
6,25747,25739
6,26160,24876
6,26572,24002
6,26983,24579
6,27397,26716
6,27808,24849
6,28220,23636
6,28633,24363
6,29045,23387
6,29457,25460
6,29870,25183
6,30282,23981
6,30693,23982
6,31105,24080
6,31518,24324
6,31930,24336
6,32342,23284
6,32755,24234
6,33167,23593
6,33578,23783
6,33992,23177
6,34403,23091
6,34815,24096
6,35228,22496
6,35640,22789
6,36052,23512
6,36465,24033
6,36877,22182
6,37288,22220
6,37702,21412
6,38113,21149
6,38525,22553
6,38938,22618
6,39350,22716
6,39762,22187
6,40173,20997
6,40587,22255
6,40998,22020
6,41410,20900
6,41823,21528
6,42235,21259
6,42647,20676
6,43060,21137
6,43472,20925
6,43883,20694
6,44297,21678
6,44708,20655
6,45120,19532
6,45533,21015
6,45945,21781
6,46357,20607
6,46770,19364
6,47182,19742
6,47593,19562
6,48007,20632
6,48418,20200
6,48830,18558
6,49242,20688
6,49655,19780
6,50067,18866
6,50478,19492
6,50892,20443
6,51303,19874
6,51715,19376
6,52128,18286
6,52540,19087
6,52952,19240
6,53365,18668
6,53777,19333
6,54188,18809
6,54602,18150
6,55013,17434
6,55425,18711
6,55838,18481
6,56250,16658
6,56662,17638
6,57075,18481
6,57487,18945
6,57898,18116
6,58310,17298
6,58723,19249
6,59135,18235
6,59547,18455
6,59960,17342
6,60372,17786
6,60783,18099
6,61197,18043
6,61608,17074
6,62020,17805
6,62433,18027
6,62845,15893
6,63257,17430
6,63670,17122
6,64082,16104
6,64493,16673
6,64907,15999
6,65318,17482
6,65730,16546
6,66143,17290
6,66555,18583
6,66967,17630
6,67378,17022
6,67792,19419
6,68203,17768
6,68615,17580
6,69028,16915
6,69440,18919
6,69852,17558
6,70265,17724
6,70677,18698
6,71088,18953
6,71502,19282
6,71913,19510
6,72325,21367
6,72738,21195
6,73150,19810
6,73562,21620
6,73975,23055
6,74387,23199
6,74798,22520
6,75212,23211
6,75623,23226
6,76035,23016
6,76447,22143
6,76860,22126
6,77272,22897
6,77683,21175
6,78097,21607
6,78508,21625
6,78920,19639
6,79333,20370
6,79745,20638
6,80157,19448
6,80570,18856
6,80982,18601
6,81393,19324
6,81807,19442
6,82218,18697
6,82630,18279
6,83043,18587
6,83455,17256
6,83867,17383
6,84280,17112
6,84692,16738
6,85103,16207
6,85515,15571
6,85928,16154
6,86340,15369
6,86752,15205
6,87165,15219
6,87577,14320
6,87988,15311
6,88402,13654
6,88813,14779
6,89225,13626
6,89638,14356
6,90050,13386
6,90462,13857
6,90875,14456
6,91287,13228
6,91698,12968
6,92112,15083
6,92523,12649
6,92935,12955
6,93348,12727
6,93760,13215
6,94172,11920
6,94583,12469
6,94997,13385
6,95408,12052
6,95820,12811
6,96233,13345
6,96645,12453
6,97057,12277
6,97470,12220
6,97882,12241
6,98293,12022
6,98707,12432
6,99118,11761
6,99530,12713
6,99943,11762
7,00355,11699
7,00767,12834
7,01180,12391
7,01592,11725
7,02003,13003
7,02417,12306
7,02828,13273
7,03240,13732
7,03652,13049
7,04065,11753
7,04477,12275
7,04888,12886
7,05302,13603
7,05713,12488
7,06125,12749
7,06538,12346
7,06950,13126
7,07362,12343
7,07775,11951
7,08187,11901
7,08598,11724
7,09012,12478
7,09423,11655
7,09835,13261
7,10248,11610
7,10660,12232
7,11072,10978
7,11485,11557
7,11897,11786
7,12308,11068
7,12720,11753
7,13133,10668
7,13545,12750
7,13957,11090
7,14370,10932
7,14782,11857
7,15193,11804
7,15607,11313
7,16018,11760
7,16430,11375
7,16843,12107
7,17255,11271
7,17667,11671
7,18080,12013
7,18492,11358
7,18903,11049
7,19317,11409
7,19728,12373
7,20140,11572
7,20553,12200
7,20965,10468
7,21377,10863
7,21788,12876
7,22202,11155
7,22613,10955
7,23025,10655
7,23438,12018
7,23850,11205
7,24262,10802
7,24675,11858
7,25087,11175
7,25498,13602
7,25912,16939
7,26323,23156
7,26735,33716
7,27148,45476
7,27560,67854
7,27972,97856
7,28385,133501
7,28797,184154
7,29208,239580
7,29622,299744
7,30033,363767
7,30445,416486
7,30857,478205
7,31270,528261
7,31682,545400
7,32093,562089
7,32507,578216
7,32918,577529
7,33330,552593
7,33743,537049
7,34155,517217
7,34567,490051
7,34980,460688
7,35392,432315
7,35803,402362
7,36217,375046
7,36628,349217
7,37040,323452
7,37453,302404
7,37865,275388
7,38277,255304
7,38690,233316
7,39102,216278
7,39513,197269
7,39925,182885
7,40338,162208
7,40750,150508
7,41162,137383
7,41575,127064
7,41987,112674
7,42398,104313
7,42812,93302
7,43223,85292
7,43635,79630
7,44048,69134
7,44460,66519
7,44872,60187
7,45285,53511
7,45697,48566
7,46108,47189
7,46522,42058
7,46933,37898
7,47345,36763
7,47758,33526
7,48170,30775
7,48582,29651
7,48993,27134
7,49407,25628
7,49818,23940
7,50230,21556
7,50643,21008
7,51055,19606
7,51467,19470
7,51880,18942
7,52292,18547
7,52703,16821
7,53117,15783
7,53528,16486
7,53940,15030
7,54353,15269
7,54765,14896
7,55177,15836
7,55590,13771
7,56002,12993
7,56413,13611
7,56827,13210
7,57238,13115
7,57650,12490
7,58063,12416
7,58475,11902
7,58887,11990
7,59298,13198
7,59712,12403
7,60123,12018
7,60535,11354
7,60948,10708
7,61360,11319
7,61772,10876
7,62185,11933
7,62597,11103
7,63008,11562
7,63422,10944
7,63833,9982
7,64245,10296
7,64658,10710
7,65070,10234
7,65482,9673
7,65895,9982
7,66307,10426
7,66718,9048
7,67132,9893
7,67543,9700
7,67955,10180
7,68367,9757
7,68780,8844
7,69192,10742
7,69603,9690
7,70017,9733
7,70428,9857
7,70840,8801
7,71253,8655
7,71665,9668
7,72077,8474
7,72490,9134
7,72902,8004
7,73313,8958
7,73727,8364
7,74138,7993
7,74550,8554
7,74963,9382
7,75375,8461
7,75787,8521
7,76200,9042
7,76612,8223
7,77023,8645
7,77435,8233
7,77848,8331
7,78260,8779
7,78672,8223
7,79085,8330
7,79497,8191
7,79908,7491
7,80322,7813
7,80733,8726
7,81145,10230
7,81558,8866
7,81970,10304
7,82382,9564
7,82795,10567
7,83207,10968
7,83618,12054
7,84032,12083
7,84443,12667
7,84855,12274
7,85268,11914
7,85680,11907
7,86092,11948
7,86503,12389
7,86917,11695
7,87328,11481
7,87740,9627
7,88153,9343
7,88565,9982
7,88977,9158
7,89390,9187
7,89802,8332
7,90213,8126
7,90627,8350
7,91038,7790
7,91450,8694
7,91863,8380
7,92275,7591
7,92687,7481
7,93100,6807
7,93512,7880
7,93923,8360
7,94337,6718
7,94748,7605
7,95160,7576
7,95572,7530
7,95985,7584
7,96397,6784
7,96808,7707
7,97222,7991
7,97633,7541
7,98045,7630
7,98458,7147
7,98870,6963
7,99282,7267
7,99695,7456
8,00107,7224
8,00518,7011
8,00932,6899
8,01343,6636
8,01755,6965
8,02168,7419
8,02580,6810
8,02992,6477
8,03405,7211
8,03817,7249
8,04228,7378
8,04640,7309
8,05053,6431
8,05465,6653
8,05877,7159
8,06290,6755
8,06702,7392
8,07113,7690
8,07527,6216
8,07938,7189
8,08350,6616
8,08763,6721
8,09175,6912
8,09587,6616
8,10000,6756
8,10412,7104
8,10823,6786
8,11237,6641
8,11648,7017
8,12060,6637
8,12473,6810
8,12885,5941
8,13297,6359
8,13708,7393
8,14122,6704
8,14533,7710
8,14945,6921
8,15358,7160
8,15770,7075
8,16182,6859
8,16595,6246
8,17007,7347
8,17418,7089
8,17832,6770
8,18243,5961
8,18655,6754
8,19068,6884
8,19480,5983
8,19892,6293
8,20305,6157
8,20717,6429
8,21128,7076
8,21542,5986
8,21953,6316
8,22365,6030
8,22777,6070
8,23190,6396
8,23602,5666
8,24013,6716
8,24427,5459
8,24838,6362
8,25250,6279
8,25663,6332
8,26075,6491
8,26487,5869
8,26900,6216
8,27312,6671
8,27723,6084
8,28137,6720
8,28548,6514
8,28960,6866
8,29373,6413
8,29785,6081
8,30197,6375
8,30610,6179
8,31022,5509
8,31433,5855
8,31845,5791
8,32258,6338
8,32670,6462
8,33082,5764
8,33495,6520
8,33907,6164
8,34318,6771
8,34732,6418
8,35143,6844
8,35555,5959
8,35968,6740
8,36380,6290
8,36792,6791
8,37205,5804
8,37617,5728
8,38028,6378
8,38442,5595
8,38853,6040
8,39265,5962
8,39678,5806
8,40090,6370
8,40502,5917
8,40913,6541
8,41327,5643
8,41738,6088
8,42150,6179
8,42563,5738
8,42975,6707
8,43387,6376
8,43800,7060
8,44212,7118
8,44623,6097
8,45037,6281
8,45448,6563
8,45860,6788
8,46273,6775
8,46685,5605
8,47097,6680
8,47510,6186
8,47922,6325
8,48333,5764
8,48747,5889
8,49158,6188
8,49570,6002
8,49982,5988
8,50395,5934
8,50807,6291
8,51218,5973
8,51632,5747
8,52043,5879
8,52455,6212
8,52868,6091
8,53280,5875
8,53692,5883
8,54105,5126
8,54517,5861
8,54928,5411
8,55342,5766
8,55753,5865
8,56165,5614
8,56578,6056
8,56990,6117
8,57402,5795
8,57815,5683
8,58227,5434
8,58638,5480
8,59050,5986
8,59463,5506
8,59875,5652
8,60287,5654
8,60700,5445
8,61112,6117
8,61523,5572
8,61937,6028
8,62348,5528
8,62760,6051
8,63173,5129
8,63585,5608
8,63997,5835
8,64410,5321
8,64822,5740
8,65233,5682
8,65647,5906
8,66058,6124
8,66470,5221
8,66883,5775
8,67295,5949
8,67707,4885
8,68118,5743
8,68532,5270
8,68943,5558
8,69355,5609
8,69768,5715
8,70180,5423
8,70592,4541
8,71005,5584
8,71417,5567
8,71828,5228
8,72242,5476
8,72653,5498
8,73065,5376
8,73478,5123
8,73890,4720
8,74302,5391
8,74715,5303
8,75127,5134
8,75538,5781
8,75952,5332
8,76363,5479
8,76775,4952
8,77187,4715
8,77600,4924
8,78012,5478
8,78423,5428
8,78837,4733
8,79248,5811
8,79660,4594
8,80073,5310
8,80485,5489
8,80897,4941
8,81310,4766
8,81722,5591
8,82133,5478
8,82547,5637
8,82958,5258
8,83370,5230
8,83783,5329
8,84195,5091
8,84607,5505
8,85020,5217
8,85432,5028
8,85843,5033
8,86255,4839
8,86668,6088
8,87080,5310
8,87492,5008
8,87905,5611
8,88317,4896
8,88728,4918
8,89142,5215
8,89553,5199
8,89965,4812
8,90378,4666
8,90790,4763
8,91202,4406
8,91615,4425
8,92027,5197
8,92438,5356
8,92852,4294
8,93263,4807
8,93675,5117
8,94088,4724
8,94500,5093
8,94912,5719
8,95323,5544
8,95737,4780
8,96148,4790
8,96560,5135
8,96973,5109
8,97385,5454
8,97797,5394
8,98210,5124
8,98622,4868
8,99033,4676
8,99447,4965
8,99858,4808
9,00270,4559
9,00683,5025
9,01095,5463
9,01507,5000
9,01920,4704
9,02332,4588
9,02743,4784
9,03157,4471
9,03568,4949
9,03980,4940
9,04392,4556
9,04805,5301
9,05217,4745
9,05628,4974
9,06042,4268
9,06453,4664
9,06865,4549
9,07278,5024
9,07690,5170
9,08102,4638
9,08515,4606
9,08927,4410
9,09338,5011
9,09752,4144
9,10163,5094
9,10575,5319
9,10988,5448
9,11400,5175
9,11812,5082
9,12225,5298
9,12637,5325
9,13048,5416
9,13462,5437
9,13873,5877
9,14285,6034
9,14697,6491
9,15110,6491
9,15522,6508
9,15933,6428
9,16347,6683
9,16758,7440
9,17170,6129
9,17583,5040
9,17995,5661
9,18407,5791
9,18820,5470
9,19232,5646
9,19643,5727
9,20057,4805
9,20468,4466
9,20880,4744
9,21293,4987
9,21705,4816
9,22117,4831
9,22530,5283
9,22942,5021
9,23353,5082
9,23765,4225
9,24178,4241
9,24590,3846
9,25002,4178
9,25415,4861
9,25827,4753
9,26238,4991
9,26652,4346
9,27063,5061
9,27475,4376
9,27888,4037
9,28300,4724
9,28712,4111
9,29125,4691
9,29537,3833
9,29948,4396
9,30362,4795
9,30773,4380
9,31185,4755
9,31598,4259
9,32010,4605
9,32422,3929
9,32833,5117
9,33247,4239
9,33658,4551
9,34070,4596
9,34483,4213
9,34895,3777
9,35307,4196
9,35720,3995
9,36132,4640
9,36543,4362
9,36957,4961
9,37368,4593
9,37780,4791
9,38193,4440
9,38605,4251
9,39017,4785
9,39430,4536
9,39842,4303
9,40253,4775
9,40667,3925
9,41078,4611
9,41490,4679
9,41902,3820
9,42315,4334
9,42727,3834
9,43138,4736
9,43552,4640
9,43963,3930
9,44375,4431
9,44788,4587
9,45200,4844
9,45612,4577
9,46025,4582
9,46437,4569
9,46848,3795
9,47262,4213
9,47673,4380
9,48085,4499
9,48498,4363
9,48910,4487
9,49322,4196
9,49735,3840
9,50147,3918
9,50558,3984
9,50970,4195
9,51383,3957
9,51795,4142
9,52207,4037
9,52620,4202
9,53032,4024
9,53443,4526
9,53857,4053
9,54268,3525
9,54680,4460
9,55093,4028
9,55505,4033
9,55917,3939
9,56330,3692
9,56742,4362
9,57153,4084
9,57567,4063
9,57978,3888
9,58390,3791
9,58803,4047
9,59215,4177
9,59627,4201
9,60038,4121
9,60452,3836
9,60863,3718
9,61275,4077
9,61688,4099
9,62100,3994
9,62512,4283
9,62925,4343
9,63337,3678
9,63748,4203
9,64162,4303
9,64573,4294
9,64985,3652
9,65398,4308
9,65810,4415
9,66222,3881
9,66635,3914
9,67047,4143
9,67458,3991
9,67872,4019
9,68283,3917
9,68695,3512
9,69107,4129
9,69520,4065
9,69932,4503
9,70343,4235
9,70757,4139
9,71168,4246
9,71580,3591
9,71993,4428
9,72405,4127
9,72817,4359
9,73230,4578
9,73642,5928
9,74053,7931
9,74467,10522
9,74878,15537
9,75290,21231
9,75703,29649
9,76115,44199
9,76527,60163
9,76940,82121
9,77352,101884
9,77763,122017
9,78175,144218
9,78588,164235
9,79000,178461
9,79412,189186
9,79825,195443
9,80237,195244
9,80648,194010
9,81062,182269
9,81473,167905
9,81885,157595
9,82298,141516
9,82710,126823
9,83122,113768
9,83535,95688
9,83947,85034
9,84358,73217
9,84772,63337
9,85183,56392
9,85595,46646
9,86008,38946
9,86420,34791
9,86832,30623
9,87243,26869
9,87657,24178
9,88068,21576
9,88480,19380
9,88893,16766
9,89305,15825
9,89717,15320
9,90130,13302
9,90542,12189
9,90953,11578
9,91367,10627
9,91778,10233
9,92190,9569
9,92603,9541
9,93015,8812
9,93427,8034
9,93840,8422
9,94252,7808
9,94663,7307
9,95077,7090
9,95488,6920
9,95900,5834
9,96312,5424
9,96725,6664
9,97137,6427
9,97548,6069
9,97962,6184
9,98373,5931
9,98785,5586
9,99198,5695
9,99610,4945
10,00022,5062
10,00435,5566
10,00847,5168
10,01258,3844
10,01672,5268
10,02083,4802
10,02495,4881
10,02908,4710
10,03320,4532
10,03732,4489
10,04145,4825
10,04557,4378
10,04968,4806
10,05380,4482
10,05793,4947
10,06205,4409
10,06617,4180
10,07030,4504
10,07442,3995
10,07853,4430
10,08267,3864
10,08678,3974
10,09090,4724
10,09503,4064
10,09915,4280
10,10327,4527
10,10740,4057
10,11152,4063
10,11563,4057
10,11977,3793
10,12388,3486
10,12800,3428
10,13213,4215
10,13625,4727
10,14037,3919
10,14448,4512
10,14862,3406
10,15273,4435
10,15685,3449
10,16098,4279
10,16510,3647
10,16922,3978
10,17335,4023
10,17747,4020
10,18158,3565
10,18572,3438
10,18983,4071
10,19395,3842
10,19808,3658
10,20220,3062
10,20632,3481
10,21045,2994
10,21457,3422
10,21868,3992
10,22282,3224
10,22693,3193
10,23105,3764
10,23517,3023
10,23930,3488
10,24342,3632
10,24753,4122
10,25167,3245
10,25578,3044
10,25990,3097
10,26403,3624
10,26815,3670
10,27227,3696
10,27640,3457
10,28052,4160
10,28463,3703
10,28877,3927
10,29288,3254
10,29700,3894
10,30113,3436
10,30525,3729
10,30937,3783
10,31350,3630
10,31762,3417
10,32173,3826
10,32585,3333
10,32998,3228
10,33410,3689
10,33822,3275
10,34235,3745
10,34647,3264
10,35058,3091
10,35472,3683
10,35883,3246
10,36295,3553
10,36708,3220
10,37120,2920
10,37532,3692
10,37945,3415
10,38357,3715
10,38768,3218
10,39182,2795
10,39593,3300
10,40005,3940
10,40418,3568
10,40830,3933
10,41242,3345
10,41653,3574
10,42067,3644
10,42478,4398
10,42890,3580
10,43303,3737
10,43715,4744
10,44127,4275
10,44540,4559
10,44952,4204
10,45363,3566
10,45777,3635
10,46188,3712
10,46600,4253
10,47013,3869
10,47425,3400
10,47837,3790
10,48250,3967
10,48662,3295
10,49073,3518
10,49487,3318
10,49898,2906
10,50310,3352
10,50722,3324
10,51135,3541
10,51547,3121
10,51958,3386
10,52372,3327
10,52783,3278
10,53195,3036
10,53608,3411
10,54020,3110
10,54432,2985
10,54845,2765
10,55257,3226
10,55668,2970
10,56082,2982
10,56493,3487
10,56905,3295
10,57318,3863
10,57730,3312
10,58142,3018
10,58555,3070
10,58967,3233
10,59378,3038
10,59790,3106
10,60203,3330
10,60615,3271
10,61027,3237
10,61440,2936
10,61852,3158
10,62263,2936
10,62677,3237
10,63088,2859
10,63500,3293
10,63913,3038
10,64325,3300
10,64737,3667
10,65150,2972
10,65562,3075
10,65973,3751
10,66387,3454
10,66798,2937
10,67210,2760
10,67623,3096
10,68035,3438
10,68447,3671
10,68858,2878
10,69272,3329
10,69683,3374
10,70095,3294
10,70508,3223
10,70920,3414
10,71332,3075
10,71745,3563
10,72157,3447
10,72568,3313
10,72982,2855
10,73393,3425
10,73805,3500
10,74218,3442
10,74630,3705
10,75042,2587
10,75455,3051
10,75867,2955
10,76278,3127
10,76692,3159
10,77103,3895
10,77515,3300
10,77928,3596
10,78340,3631
10,78752,4025
10,79163,4823
10,79577,5893
10,79988,5649
10,80400,6687
10,80813,7028
10,81225,7651
10,81637,7718
10,82050,6467
10,82462,6697
10,82873,4883
10,83287,4808
10,83698,3969
10,84110,3408
10,84523,3428
10,84935,3458
10,85347,3505
10,85760,2996
10,86172,2796
10,86583,3040
10,86997,2799
10,87408,2795
10,87820,3245
10,88232,3543
10,88645,3236
10,89057,2975
10,89468,3237
10,89882,3297
10,90293,2978
10,90705,3121
10,91118,3475
10,91530,3737
10,91942,2874
10,92355,2923
10,92767,3003
10,93178,3081
10,93592,2962
10,94003,2573
10,94415,2697
10,94828,2793
10,95240,2964
10,95652,2635
10,96065,2896
10,96477,3163
10,96888,2975
10,97300,2786
10,97713,2922
10,98125,3108
10,98537,3264
10,98950,2594
10,99362,2558
10,99773,2739
11,00187,2729
11,00598,3394
11,01010,3140
11,01423,2801
11,01835,2874
11,02247,3301
11,02660,3047
11,03072,2838
11,03483,2911
11,03897,3001
11,04308,2779
11,04720,3037
11,05133,2843
11,05545,2486
11,05957,2918
11,06368,2677
11,06782,3137
11,07193,2979
11,07605,2776
11,08018,2789
11,08430,2598
11,08842,2914
11,09255,2690
11,09667,2867
11,10078,3074
11,10492,3420
11,10903,3350
11,11315,3517
11,11728,2877
11,12140,3324
11,12552,3073
11,12965,3604
11,13377,3040
11,13788,2425
11,14202,3150
11,14613,2791
11,15025,3166
11,15437,2954
11,15850,2877
11,16262,3048
11,16673,3247
11,17087,2943
11,17498,2625
11,17910,3287
11,18323,3304
11,18735,2549
11,19147,2801
11,19560,3418
11,19972,3280
11,20383,2763
11,20797,2461
11,21208,2619
11,21620,3142
11,22033,3315
11,22445,3082
11,22857,3302
11,23270,3004
11,23682,3442
11,24093,3111
11,24505,3865
11,24918,3547
11,25330,4073
11,25742,4174
11,26155,4762
11,26567,4920
11,26978,6204
11,27392,6271
11,27803,6298
11,28215,7339
11,28628,7577
11,29040,8000
11,29452,7632
11,29865,7614
11,30277,7533
11,30688,7658
11,31102,7352
11,31513,7257
11,31925,7015
11,32338,6310
11,32750,5246
11,33162,5322
11,33573,5118
11,33987,4817
11,34398,4687
11,34810,3878
11,35223,3751
11,35635,3994
11,36047,3552
11,36460,3737
11,36872,3894
11,37283,3064
11,37697,3487
11,38108,3111
11,38520,3377
11,38933,2785
11,39345,3044
11,39757,3066
11,40170,3188
11,40582,3022
11,40993,3053
11,41407,2527
11,41818,2793
11,42230,2899
11,42642,2646
11,43055,2430
11,43467,2815
11,43878,3221
11,44292,2863
11,44703,2432
11,45115,3489
11,45528,3237
11,45940,3055
11,46352,2754
11,46765,2907
11,47177,2535
11,47588,3184
11,48002,2514
11,48413,2723
11,48825,3026
11,49238,2652
11,49650,2371
11,50062,3253
11,50475,2841
11,50887,2708
11,51298,2576
11,51710,2710
11,52123,3027
11,52535,2521
11,52947,2554
11,53360,2725
11,53772,2517
11,54183,3202
11,54597,2939
11,55008,2938
11,55420,2717
11,55833,2273
11,56245,2841
11,56657,2687
11,57070,2639
11,57482,3003
11,57893,2976
11,58307,2585
11,58718,2297
11,59130,2861
11,59543,3014
11,59955,2634
11,60367,2405
11,60778,2053
11,61192,2867
11,61603,2843
11,62015,2816
11,62428,2322
11,62840,2606
11,63252,2477
11,63665,2991
11,64077,2698
11,64488,2368
11,64902,2502
11,65313,3023
11,65725,2392
11,66138,2857
11,66550,2709
11,66962,2405
11,67375,2886
11,67787,2591
11,68198,2920
11,68612,3181
11,69023,3122
11,69435,3887
11,69847,3331
11,70260,3377
11,70672,3963
11,71083,4304
11,71497,3831
11,71908,3327
11,72320,3358
11,72733,3664
11,73145,3298
11,73557,2974
11,73970,2771
11,74382,2672
11,74793,2925
11,75207,3347
11,75618,2583
11,76030,3153
11,76443,2439
11,76855,2919
11,77267,2786
11,77680,2577
11,78092,2554
11,78503,2945
11,78915,2631
11,79328,3104
11,79740,2766
11,80152,2701
11,80565,2992
11,80977,2421
11,81388,2333
11,81802,2435
11,82213,2308
11,82625,2934
11,83038,2137
11,83450,2561
11,83862,2349
11,84275,2361
11,84687,2656
11,85098,2300
11,85512,2688
11,85923,2580
11,86335,2627
11,86748,2467
11,87160,2732
11,87572,2583
11,87983,2583
11,88397,2298
11,88808,2502
11,89220,2618
11,89633,2768
11,90045,2248
11,90457,2364
11,90870,2135
11,91282,2185
11,91693,2496
11,92107,2905
11,92518,2461
11,92930,2366
11,93343,2515
11,93755,2204
11,94167,2257
11,94580,2744
11,94992,2978
11,95403,2723
11,95817,2454
11,96228,2773
11,96640,2707
11,97052,1944
11,97465,2509
11,97877,2622
11,98288,3096
11,98702,2657
11,99113,2810
11,99525,2660
11,99938,2909
12,00350,2855
12,00762,3161
12,01175,3198
12,01587,2801
12,01998,2639
12,02412,2781
12,02823,2920
12,03235,2774
12,03648,3062
12,04060,3458
12,04472,3034
12,04885,3253
12,05297,3230
12,05708,3188
12,06120,3439
12,06533,4056
12,06945,3790
12,07357,3344
12,07770,2950
12,08182,3132
12,08593,3374
12,09007,2966
12,09418,3193
12,09830,3130
12,10243,3417
12,10655,2686
12,11067,2329
12,11480,2491
12,11892,2611
12,12303,2496
12,12717,2892
12,13128,2257
12,13540,2384
12,13953,2595
12,14365,2258
12,14777,2568
12,15188,2694
12,15602,2366
12,16013,2306
12,16425,2817
12,16838,2605
12,17250,2155
12,17662,2550
12,18075,2324
12,18487,2440
12,18898,2843
12,19312,2425
12,19723,3014
12,20135,2678
12,20548,2425
12,20960,2526
12,21372,2293
12,21785,2300
12,22197,2793
12,22608,2446
12,23022,2697
12,23433,2109
12,23845,2116
12,24257,2401
12,24670,2003
12,25082,2317
12,25493,2250
12,25907,2293
12,26318,2495
12,26730,2264
12,27143,2661
12,27555,2594
12,27967,2362
12,28380,2252
12,28792,2223
12,29203,2446
12,29617,2214
12,30028,2713
12,30440,2388
12,30853,2745
12,31265,2114
12,31677,2865
12,32090,2465
12,32502,2820
12,32913,2306
12,33327,2407
12,33738,2826
12,34150,2779
12,34562,2996
12,34975,2637
12,35387,3170
12,35798,2716
12,36212,2753
12,36623,2847
12,37035,3189
12,37448,3606
12,37860,3220
12,38272,3185
12,38685,2715
12,39097,2727
12,39508,3329
12,39922,2523
12,40333,2928
12,40745,2397
12,41158,2716
12,41570,2082
12,41982,2663
12,42395,2788
12,42807,2447
12,43218,2180
12,43630,2642
12,44043,2180
12,44455,2709
12,44867,2021
12,45280,3081
12,45692,2482
12,46103,2339
12,46517,2150
12,46928,2351
12,47340,2381
12,47753,2143
12,48165,2432
12,48577,3114
12,48990,2394
12,49402,2602
12,49813,2410
12,50227,3060
12,50638,2353
12,51050,2294
12,51463,2414
12,51875,2084
12,52287,2162
12,52698,2063
12,53112,2721
12,53523,2410
12,53935,2465
12,54348,2495
12,54760,1955
12,55172,2332
12,55585,2549
12,55997,2243
12,56408,2585
12,56822,2198
12,57233,2917
12,57645,1959
12,58058,2695
12,58470,2160
12,58882,2298
12,59295,2777
12,59707,2709
12,60118,2287
12,60532,2410
12,60943,2136
12,61355,2831
12,61767,2273
12,62180,2945
12,62592,2094
12,63003,2484
12,63417,2112
12,63828,2206
12,64240,2421
12,64653,2455
12,65065,2735
12,65477,2162
12,65890,2572
12,66302,2832
12,66713,2674
12,67127,2105
12,67538,2210
12,67950,2085
12,68363,2423
12,68775,2815
12,69187,3373
12,69600,4815
12,70012,7532
12,70423,11029
12,70835,19509
12,71248,34531
12,71660,56507
12,72072,90395
12,72485,141049
12,72897,204970
12,73308,291873
12,73722,392945
12,74133,504979
12,74545,622742
12,74958,742395
12,75370,835030
12,75782,909134
12,76195,955251
12,76607,970653
12,77018,947997
12,77432,897862
12,77843,805740
12,78255,720106
12,78668,628004
12,79080,540883
12,79492,456878
12,79903,376090
12,80317,309660
12,80728,259758
12,81140,218692
12,81553,181264
12,81965,150994
12,82377,125638
12,82790,105966
12,83202,93614
12,83613,78703
12,84027,71356
12,84438,65301
12,84850,53580
12,85263,50182
12,85675,45120
12,86087,40846
12,86500,36260
12,86912,34064
12,87323,30263
12,87737,27840
12,88148,25845
12,88560,24791
12,88972,22713
12,89385,21384
12,89797,19278
12,90208,18094
12,90622,15969
12,91033,15463
12,91445,14700
12,91858,14353
12,92270,12744
12,92682,12332
12,93095,11974
12,93507,11333
12,93918,12120
12,94332,11954
12,94743,9603
12,95155,9405
12,95568,9067
12,95980,8263
12,96392,9370
12,96805,9309
12,97217,8045
12,97628,7780
12,98040,8326
12,98453,8101
12,98865,7615
12,99277,7657
12,99690,7875
13,00102,6629
13,00513,6613
13,00927,6289
13,01338,6556
13,01750,6186
13,02163,5721
13,02575,5467
13,02987,5514
13,03400,5062
13,03812,5558
13,04223,4275
13,04637,5331
13,05048,5132
13,05460,4731
13,05873,3988
13,06285,3940
13,06697,4522
13,07108,4534
13,07522,4491
13,07933,3963
13,08345,3867
13,08758,4735
13,09170,3865
13,09582,4608
13,09995,3746
13,10407,4280
13,10818,4761
13,11232,3684
13,11643,3436
13,12055,3267
13,12468,4076
13,12880,3180
13,13292,3740
13,13705,3114
13,14117,3384
13,14528,3279
13,14942,3198
13,15353,3313
13,15765,3438
13,16177,3929
13,16590,3572
13,17002,3207
13,17413,2801
13,17827,2911
13,18238,2690
13,18650,3295
13,19063,3085
13,19475,3934
13,19887,2890
13,20300,2801
13,20712,2688
13,21123,3160
13,21537,3075
13,21948,2754
13,22360,1954
13,22773,3133
13,23185,3156
13,23597,3019
13,24010,3353
13,24422,3125
13,24833,2727
13,25245,2766
13,25658,2679
13,26070,2684
13,26482,2881
13,26895,3061
13,27307,3321
13,27718,2634
13,28132,2369
13,28543,3242
13,28955,2812
13,29368,2645
13,29780,3261
13,30192,2793
13,30605,2756
13,31017,2513
13,31428,2773
13,31842,2774
13,32253,2865
13,32665,2983
13,33078,3012
13,33490,2564
13,33902,2722
13,34313,2891
13,34727,3040
13,35138,3005
13,35550,2515
13,35963,2867
13,36375,3373
13,36787,2577
13,37200,3176
13,37612,3004
13,38023,3325
13,38437,2619
13,38848,3170
13,39260,2858
13,39673,2806
13,40085,2842
13,40497,3610
13,40910,2443
13,41322,2486
13,41733,2387
13,42147,2734
13,42558,2314
13,42970,1978
13,43382,2798
13,43795,3025
13,44207,2343
13,44618,2358
13,45032,2643
13,45443,2773
13,45855,1919
13,46268,2389
13,46680,3219
13,47092,2870
13,47505,2464
13,47917,2304
13,48328,2145
13,48742,2402
13,49153,2524
13,49565,1962
13,49978,2766
13,50390,2702
13,50802,2711
13,51215,3247
13,51627,2760
13,52038,2594
13,52450,2839
13,52863,2394
13,53275,2404
13,53687,2129
13,54100,2529
13,54512,2464
13,54923,1935
13,55337,2376
13,55748,2338
13,56160,2476
13,56573,2395
13,56985,2639
13,57397,2037
13,57810,2277
13,58222,2217
13,58633,2637
13,59047,2650
13,59458,2794
13,59870,2058
13,60283,2197
13,60695,1893
13,61107,2615
13,61518,2206
13,61932,1952
13,62343,2417
13,62755,2218
13,63168,2393
13,63580,1844
13,63992,2169
13,64405,2009
13,64817,2257
13,65228,2211
13,65642,2662
13,66053,1980
13,66465,1897
13,66878,2287
13,67290,2721
13,67702,1777
13,68115,1951
13,68527,2192
13,68938,2055
13,69352,1812
13,69763,2423
13,70175,2415
13,70587,1640
13,71000,2094
13,71412,2708
13,71823,1844
13,72237,2568
13,72648,2877
13,73060,2270
13,73473,2077
13,73885,2161
13,74297,2360
13,74710,1896
13,75122,2523
13,75533,1796
13,75947,2883
13,76358,2278
13,76770,1964
13,77183,2293
13,77595,2147
13,78007,2391
13,78420,2188
13,78832,1990
13,79243,2750
13,79655,2007
13,80068,2035
13,80480,2387
13,80892,1950
13,81305,1798
13,81717,2206
13,82128,2657
13,82542,1952
13,82953,1593
13,83365,2204
13,83778,2615
13,84190,2201
13,84602,2264
13,85015,2309
13,85427,2060
13,85838,2451
13,86252,2278
13,86663,2915
13,87075,3398
13,87488,3668
13,87900,5095
13,88312,6077
13,88723,5836
13,89137,6354
13,89548,5937
13,89960,5661
13,90373,5070
13,90785,4012
13,91197,3623
13,91610,2514
13,92022,2083
13,92433,2974
13,92847,2839
13,93258,2398
13,93670,2235
13,94083,2539
13,94495,1872
13,94907,2231
13,95320,1991
13,95732,2348
13,96143,2542
13,96557,2406
13,96968,2246
13,97380,1526
13,97793,2617
13,98205,1804
13,98617,2365
13,99028,2398
13,99442,2007
13,99853,1665
14,00265,1901
14,00678,2306
14,01090,2208
14,01502,2073
14,01915,2166
14,02327,2186
14,02738,2532
14,03152,3293
14,03563,3194
14,03975,3847
14,04388,4482
14,04800,5159
14,05212,5554
14,05625,5866
14,06037,5786
14,06448,6995
14,06862,7274
14,07273,6092
14,07685,6685
14,08097,6434
14,08510,5845
14,08922,6016
14,09333,6195
14,09747,5104
14,10158,4768
14,10570,4314
14,10983,4574
14,11395,3516
14,11807,4034
14,12220,4004
14,12632,3228
14,13043,3125
14,13457,3364
14,13868,2105
14,14280,2956
14,14693,2856
14,15105,2873
14,15517,1964
14,15930,2787
14,16342,2137
14,16753,2979
14,17165,2557
14,17578,2598
14,17990,3882
14,18402,4525
14,18815,5397
14,19227,10360
14,19638,16843
14,20052,28663
14,20463,46628
14,20875,73925
14,21288,114037
14,21700,165800
14,22112,232178
14,22525,306756
14,22937,384106
14,23348,467439
14,23762,528620
14,24173,574984
14,24585,610658
14,24998,616294
14,25410,595567
14,25822,562636
14,26233,513510
14,26647,448359
14,27058,385005
14,27470,324584
14,27883,272864
14,28295,221772
14,28707,184008
14,29120,152848
14,29532,127389
14,29943,106667
14,30357,87040
14,30768,74762
14,31180,65930
14,31593,57060
14,32005,47942
14,32417,40129
14,32830,34871
14,33242,32569
14,33653,29265
14,34067,25376
14,34478,23851
14,34890,22555
14,35302,20419
14,35715,18682
14,36127,17800
14,36538,15248
14,36952,14677
14,37363,14576
14,37775,12028
14,38188,12467
14,38600,11860
14,39012,11645
14,39425,9724
14,39837,9416
14,40248,9546
14,40662,7708
14,41073,8309
14,41485,6884
14,41898,7434
14,42310,7747
14,42722,6054
14,43135,6481
14,43547,6080
14,43958,5935
14,44370,5528
14,44783,5661
14,45195,5380
14,45607,5042
14,46020,5942
14,46432,5275
14,46843,5278
14,47257,4465
14,47668,4425
14,48080,4560
14,48493,4868
14,48905,3346
14,49317,4436
14,49730,4287
14,50142,3978
14,50553,3556
14,50967,3987
14,51378,3319
14,51790,3219
14,52203,3095
14,52615,3665
14,53027,3253
14,53438,3244
14,53852,3493
14,54263,3004
14,54675,3191
14,55088,2601
14,55500,3124
14,55912,2844
14,56325,2752
14,56737,3325
14,57148,2749
14,57562,3235
14,57973,2300
14,58385,3444
14,58798,2947
14,59210,2784
14,59622,2606
14,60035,2668
14,60447,2569
14,60858,2528
14,61272,2557
14,61683,2450
14,62095,2890
14,62507,2663
14,62920,2376
14,63332,1757
14,63743,1623
14,64157,2400
14,64568,3107
14,64980,2316
14,65393,2322
14,65805,2377
14,66217,2663
14,66630,2918
14,67042,2385
14,67453,2535
14,67867,2403
14,68278,1676
14,68690,1605
14,69103,2375
14,69515,2081
14,69927,2578
14,70340,2423
14,70752,2129
14,71163,1827
14,71575,2373
14,71988,2473
14,72400,2561
14,72812,1829
14,73225,2498
14,73637,1902
14,74048,2822
14,74462,2281
14,74873,1734
14,75285,2449
14,75698,2381
14,76110,2476
14,76522,2240
14,76935,2231
14,77347,2448
14,77758,2367
14,78172,2023
14,78583,2457
14,78995,2538
14,79408,2629
14,79820,3288
14,80232,3732
14,80643,3114
14,81057,3690
14,81468,4190
14,81880,3971
14,82293,4510
14,82705,3561
14,83117,4056
14,83530,4010
14,83942,3805
14,84353,3420
14,84767,3500
14,85178,3301
14,85590,3365
14,86003,2833
14,86415,3470
14,86827,3060
14,87240,2817
14,87652,3143
14,88063,2442
14,88477,2243
14,88888,2520
14,89300,1564
14,89712,2285
14,90125,2319
14,90537,1563
14,90948,2109
14,91362,1463
14,91773,1898
14,92185,1714
14,92598,1804
14,93010,2412
14,93422,1887
14,93835,1824
14,94247,2245
14,94658,2187
14,95072,1326
14,95483,1816
14,95895,2096
14,96308,1775
14,96720,2141
14,97132,1689
14,97545,1618
14,97957,2172
14,98368,1800
14,98780,1917
14,99193,2228
14,99605,1706
15,00017,1953
15,00430,2234
15,00842,2286
15,01253,2156
15,01667,1502
15,02078,2656
15,02490,1405
15,02903,1666
15,03315,1885
15,03727,1433
15,04140,1641
15,04552,1952
15,04963,2186
15,05377,1671
15,05788,1639
15,06200,1511
15,06613,1752
15,07025,1599
15,07437,1466
15,07848,1762
15,08262,1794
15,08673,1635
15,09085,1941
15,09498,1791
15,09910,1807
15,10322,1464
15,10735,1496
15,11147,1671
15,11558,1698
15,11972,1573
15,12383,1713
15,12795,2112
15,13208,1400
15,13620,1489
15,14032,1570
15,14445,1369
15,14857,1760
15,15268,1690
15,15682,1348
15,16093,1480
15,16505,1539
15,16917,1353
15,17330,2155
15,17742,1556
15,18153,1528
15,18567,1787
15,18978,1748
15,19390,1697
15,19803,1308
15,20215,1866
15,20627,1816
15,21040,1641
15,21452,1640
15,21863,1789
15,22277,1750
15,22688,2150
15,23100,2425
15,23513,1878
15,23925,1489
15,24337,1609
15,24750,1761
15,25162,1772
15,25573,1788
15,25985,1512
15,26398,1501
15,26810,1964
15,27222,1821
15,27635,2355
15,28047,1912
15,28458,2103
15,28872,2290
15,29283,2046
15,29695,1808
15,30108,2610
15,30520,2498
15,30932,1994
15,31345,1932
15,31757,2221
15,32168,2509
15,32582,3063
15,32993,2607
15,33405,1961
15,33818,2662
15,34230,2611
15,34642,1615
15,35053,2636
15,35467,2563
15,35878,2017
15,36290,2343
15,36703,1841
15,37115,2262
15,37527,2335
15,37940,2127
15,38352,2319
15,38763,1999
15,39177,1949
15,39588,1649
15,40000,2358
15,40413,2305
15,40825,2053
15,41237,2391
15,41650,2257
15,42062,1744
15,42473,1309
15,42887,1634
15,43298,1537
15,43710,1519
15,44122,2130
15,44535,1391
15,44947,1837
15,45358,1761
15,45772,1682
15,46183,2702
15,46595,1879
15,47008,1657
15,47420,1867
15,47832,1655
15,48245,1880
15,48657,1643
15,49068,2112
15,49482,1950
15,49893,1237
15,50305,1352
15,50718,1830
15,51130,1489
15,51542,1968
15,51955,2152
15,52367,1788
15,52778,1659
15,53190,1478
15,53603,1659
15,54015,1616
15,54427,1297
15,54840,1845
15,55252,1565
15,55663,1836
15,56077,1656
15,56488,1996
15,56900,1554
15,57313,1290
15,57725,1845
15,58137,1286
15,58550,1228
15,58962,1360
15,59373,1349
15,59787,2023
15,60198,1727
15,60610,1227
15,61023,1403
15,61435,1376
15,61847,2290
15,62260,2916
15,62672,4265
15,63083,8877
15,63495,15849
15,63908,27797
15,64320,50538
15,64732,87652
15,65145,142915
15,65557,224670
15,65968,337628
15,66382,475637
15,66793,628266
15,67205,804222
15,67618,986850
15,68030,1157533
15,68442,1305700
15,68855,1421239
15,69267,1457214
15,69678,1445775
15,70092,1356220
15,70503,1245268
15,70915,1086297
15,71328,939185
15,71740,779315
15,72152,635729
15,72563,522561
15,72977,420415
15,73388,344116
15,73800,276694
15,74213,231142
15,74625,187753
15,75037,157546
15,75450,132944
15,75862,114354
15,76273,97901
15,76687,84197
15,77098,77308
15,77510,67268
15,77923,58055
15,78335,53028
15,78747,46708
15,79160,43828
15,79572,40237
15,79983,34431
15,80397,31941
15,80808,28628
15,81220,27932
15,81632,24259
15,82045,23989
15,82457,22040
15,82868,20153
15,83282,20392
15,83693,17755
15,84105,16894
15,84518,17300
15,84930,15427
15,85342,15600
15,85755,14312
15,86167,13770
15,86578,12576
15,86992,11495
15,87403,10452
15,87815,10475
15,88228,10508
15,88640,9509
15,89052,9372
15,89465,8421
15,89877,8555
15,90288,7431
15,90700,8385
15,91113,7360
15,91525,7946
15,91937,7084
15,92350,6452
15,92762,6708
15,93173,6811
15,93587,5795
15,93998,6853
15,94410,5703
15,94823,5581
15,95235,5330
15,95647,5389
15,96060,5624
15,96472,5449
15,96883,5599
15,97297,5019
15,97708,5269
15,98120,4277
15,98533,4537
15,98945,4532
15,99357,4654
15,99768,4010
16,00182,3876
16,00593,3532
16,01005,4036
16,01418,3830
16,01830,3165
16,02242,4014
16,02655,2874
16,03067,3294
16,03478,2652
16,03892,3975
16,04303,3209
16,04715,2996
16,05128,3108
16,05540,3454
16,05952,2928
16,06365,3436
16,06777,3013
16,07188,2950
16,07602,3639
16,08013,3143
16,08425,2533
16,08837,2022
16,09250,2128
16,09662,2856
16,10073,2912
16,10487,2207
16,10898,2530
16,11310,2790
16,11723,3278
16,12135,2987
16,12547,3272
16,12960,3405
16,13372,3066
16,13783,3265
16,14197,3504
16,14608,3703
16,15020,3462
16,15433,3867
16,15845,3944
16,16257,3985
16,16670,4649
16,17082,4841
16,17493,5721
16,17905,6153
16,18318,7388
16,18730,8619
16,19142,9814
16,19555,10178
16,19967,11080
16,20378,11827
16,20792,11284
16,21203,11495
16,21615,11665
16,22028,10995
16,22440,10903
16,22852,9795
16,23265,9943
16,23677,8631
16,24088,7841
16,24502,7697
16,24913,6848
16,25325,5167
16,25738,6094
16,26150,4830
16,26562,4712
16,26973,3590
16,27387,3928
16,27798,3538
16,28210,3321
16,28623,3194
16,29035,2720
16,29447,2748
16,29860,2202
16,30272,2653
16,30683,1949
16,31097,2506
16,31508,2500
16,31920,2428
16,32333,1699
16,32745,2455
16,33157,1944
16,33570,2269
16,33982,2909
16,34393,2156
16,34807,1684
16,35218,2336
16,35630,1955
16,36042,1697
16,36455,2502
16,36867,1929
16,37278,1106
16,37692,1994
16,38103,1409
16,38515,1928
16,38928,1518
16,39340,2001
16,39752,1906
16,40165,1488
16,40577,2176
16,40988,2103
16,41402,1875
16,41813,1699
16,42225,1941
16,42638,1674
16,43050,2012
16,43462,1507
16,43875,2068
16,44287,1174
16,44698,1485
16,45110,1221
16,45523,1990
16,45935,1607
16,46347,1272
16,46760,1659
16,47172,1951
16,47583,1235
16,47997,1494
16,48408,1374
16,48820,1784
16,49233,1519
16,49645,1793
16,50057,1662
16,50470,1562
16,50882,1473
16,51293,767
16,51707,1523
16,52118,2050
16,52530,1485
16,52943,1564
16,53355,1327
16,53767,1408
16,54178,1415
16,54592,2240
16,55003,1896
16,55415,1975
16,55828,1332
16,56240,1356
16,56652,1230
16,57065,1695
16,57477,1450
16,57888,1576
16,58302,1635
16,58713,1666
16,59125,1575
16,59538,1502
16,59950,1405
16,60362,1960
16,60775,1563
16,61187,1609
16,61598,1252
16,62012,1334
16,62423,1247
16,62835,1453
16,63247,1243
16,63660,2004
16,64072,818
16,64483,1590
16,64897,1549
16,65308,1099
16,65720,1453
16,66133,1674
16,66545,1524
16,66957,1342
16,67370,997
16,67782,1552
16,68193,1543
16,68607,1735
16,69018,1736
16,69430,1001
16,69843,1051
16,70255,1253
16,70667,1426
16,71080,1123
16,71492,1437
16,71903,1473
16,72315,2173
16,72728,2535
16,73140,3416
16,73552,4076
16,73965,5006
16,74377,5070
16,74788,4382
16,75202,3178
16,75613,2446
16,76025,1715
16,76438,2021
16,76850,1330
16,77262,1327
16,77675,1789
16,78087,1869
16,78498,1967
16,78912,1323
16,79323,1663
16,79735,2195
16,80148,1324
16,80560,1256
16,80972,1664
16,81383,1047
16,81797,1426
16,82208,1448
16,82620,1291
16,83033,1391
16,83445,1536
16,83857,1548
16,84270,1339
16,84682,1401
16,85093,1105
16,85507,1676
16,85918,1432
16,86330,1922
16,86743,1719
16,87155,2032
16,87567,1867
16,87980,1983
16,88392,1907
16,88803,1665
16,89217,1226
16,89628,1045
16,90040,1724
16,90452,1650
16,90865,1327
16,91277,1238
16,91688,1424
16,92102,1348
16,92513,1130
16,92925,1162
16,93338,1501
16,93750,944
16,94162,1488
16,94575,1164
16,94987,1043
16,95398,1102
16,95812,965
16,96223,949
16,96635,1070
16,97048,1523
16,97460,1098
16,97872,1212
16,98285,1509
16,98697,1285
16,99108,931
16,99520,1446
16,99933,1273
17,00345,935
17,00757,2042
17,01170,1813
17,01582,2559
17,01993,6064
17,02407,13867
17,02818,24423
17,03230,44014
17,03643,71330
17,04055,117897
17,04467,178410
17,04880,260573
17,05292,356587
17,05703,459388
17,06117,561702
17,06528,663936
17,06940,742450
17,07353,798045
17,07765,804512
17,08177,777751
17,08588,725181
17,09002,646106
17,09413,573227
17,09825,489944
17,10238,406101
17,10650,329665
17,11062,268791
17,11475,217401
17,11887,176663
17,12298,139190
17,12712,118260
17,13123,96940
17,13535,78315
17,13948,69108
17,14360,56787
17,14772,48987
17,15185,43032
17,15597,37289
17,16008,33640
17,16422,29921
17,16833,25907
17,17245,24221
17,17657,21181
17,18070,18987
17,18482,17785
17,18893,15812
17,19307,15315
17,19718,13566
17,20130,13710
17,20543,11703
17,20955,11643
17,21367,11473
17,21780,10404
17,22192,10845
17,22603,7935
17,23017,7839
17,23428,7888
17,23840,7641
17,24253,6699
17,24665,6208
17,25077,6630
17,25490,6563
17,25902,5157
17,26313,5530
17,26727,5641
17,27138,4959
17,27550,4507
17,27962,4912
17,28375,4460
17,28787,3773
17,29198,3819
17,29612,4127
17,30023,3560
17,30435,3585
17,30848,3769
17,31260,2796
17,31672,3425
17,32085,3311
17,32497,2479
17,32908,2691
17,33322,2905
17,33733,2470
17,34145,2088
17,34558,2713
17,34970,2877
17,35382,2460
17,35795,2677
17,36207,2069
17,36618,2146
17,37030,2267
17,37443,2355
17,37855,2070
17,38267,2053
17,38680,2292
17,39092,1654
17,39503,2270
17,39917,2295
17,40328,2153
17,40740,1686
17,41153,1503
17,41565,1645
17,41977,1750
17,42390,1840
17,42802,1789
17,43213,1830
17,43627,2071
17,44038,1786
17,44450,1323
17,44863,1833
17,45275,1717
17,45687,2161
17,46098,1724
17,46512,1737
17,46923,1627
17,47335,1804
17,47748,1705
17,48160,1767
17,48572,1415
17,48985,1411
17,49397,1527
17,49808,1515
17,50222,1816
17,50633,1674
17,51045,1448
17,51458,1858
17,51870,1200
17,52282,1692
17,52695,920
17,53107,1513
17,53518,1584
17,53932,1300
17,54343,1866
17,54755,1136
17,55167,1565
17,55580,1406
17,55992,1752
17,56403,1619
17,56817,1562
17,57228,1820
17,57640,1689
17,58053,1427
17,58465,1239
17,58877,1326
17,59290,1157
17,59702,947
17,60113,1145
17,60527,1060
17,60938,1390
17,61350,1452
17,61763,1039
17,62175,1165
17,62587,1241
17,63000,1272
17,63412,2311
17,63823,1417
17,64235,2011
17,64648,1571
17,65060,1535
17,65472,1121
17,65885,848
17,66297,1060
17,66708,1726
17,67122,1249
17,67533,1431
17,67945,1220
17,68358,1601
17,68770,1955
17,69182,1877
17,69595,2213
17,70007,2485
17,70418,2715
17,70832,3683
17,71243,3959
17,71655,4466
17,72068,3870
17,72480,4064
17,72892,4296
17,73303,3973
17,73717,5415
17,74128,5531
17,74540,5319
17,74953,5333
17,75365,5137
17,75777,4829
17,76190,4177
17,76602,4230
17,77013,4589
17,77427,3953
17,77838,3518
17,78250,3266
17,78663,2265
17,79075,2463
17,79487,2053
17,79900,1674
17,80312,1301
17,80723,1739
17,81137,1543
17,81548,1412
17,81960,1412
17,82372,1567
17,82785,1376
17,83197,1232
17,83608,738
17,84022,1114
17,84433,1815
17,84845,1179
17,85258,1825
17,85670,1346
17,86082,1078
17,86495,1085
17,86907,722
17,87318,942
17,87732,514
17,88143,685
17,88555,1221
17,88968,886
17,89380,1195
17,89792,1289
17,90205,956
17,90617,993
17,91028,747
17,91440,574
17,91853,690
17,92265,1316
17,92677,959
17,93090,840
17,93502,1423
17,93913,1099
17,94327,1082
17,94738,1343
17,95150,1063
17,95563,1126
17,95975,1583
17,96387,749
17,96800,708
17,97212,1129
17,97623,1139
17,98037,691
17,98448,1343
17,98860,1095
17,99273,1013
17,99685,1317
18,00097,1252
18,00508,1205
18,00922,1322
18,01333,827
18,01745,934
18,02158,1362
18,02570,1090
18,02982,646
18,03395,1092
18,03807,892
18,04218,1398
18,04632,1208
18,05043,889
18,05455,1261
18,05868,1076
18,06280,816
18,06692,980
18,07105,1444
18,07517,1585
18,07928,1161
18,08342,1048
18,08753,1700
18,09165,1202
18,09577,1395
18,09990,1521
18,10402,957
18,10813,1156
18,11227,1118
18,11638,1184
18,12050,1285
18,12463,1388
18,12875,1116
18,13287,1329
18,13700,1748
18,14112,1257
18,14523,1096
18,14937,1453
18,15348,1368
18,15760,2174
18,16173,2993
18,16585,3590
18,16997,5103
18,17410,4565
18,17822,5554
18,18233,4982
18,18645,7154
18,19058,6155
18,19470,7066
18,19882,6703
18,20295,6202
18,20707,5575
18,21118,4101
18,21532,4898
18,21943,4473
18,22355,4125
18,22768,3048
18,23180,2136
18,23592,2207
18,24005,1979
18,24417,2067
18,24828,1888
18,25242,1217
18,25653,1522
18,26065,1169
18,26478,1018
18,26890,1945
18,27302,1005
18,27713,1199
18,28127,972
18,28538,1299
18,28950,1029
18,29363,1019
18,29775,1313
18,30187,1301
18,30600,1206
18,31012,1353
18,31423,1170
18,31837,1632
18,32248,2135
18,32660,2218
18,33073,3001
18,33485,3918
18,33897,6415
18,34310,8891
18,34722,13484
18,35133,24288
18,35547,41789
18,35958,72432
18,36370,117551
18,36782,189557
18,37195,293607
18,37607,435016
18,38018,604356
18,38432,800088
18,38843,1024120
18,39255,1257361
18,39668,1470536
18,40080,1653213
18,40492,1752927
18,40905,1770523
18,41317,1725972
18,41728,1608880
18,42142,1453261
18,42553,1243053
18,42965,1044449
18,43378,855203
18,43790,686145
18,44202,546239
18,44615,431466
18,45027,348148
18,45438,277637
18,45850,227084
18,46263,186011
18,46675,156524
18,47087,128470
18,47500,111137
18,47912,96283
18,48323,83058
18,48737,73365
18,49148,65522
18,49560,58531
18,49973,52926
18,50385,46035
18,50797,43332
18,51210,37456
18,51622,35278
18,52033,30821
18,52447,27373
18,52858,26072
18,53270,25031
18,53683,22932
18,54095,21965
18,54507,20591
18,54918,18396
18,55332,17979
18,55743,15847
18,56155,15979
18,56568,14619
18,56980,12824
18,57392,12910
18,57805,11065
18,58217,12098
18,58628,11349
18,59042,11207
18,59453,9690
18,59865,8878
18,60278,7858
18,60690,9090
18,61102,7874
18,61515,7393
18,61927,6837
18,62338,7629
18,62752,6884
18,63163,6141
18,63575,6344
18,63987,5699
18,64400,5458
18,64812,5451
18,65223,5418
18,65637,5755
18,66048,5467
18,66460,5141
18,66873,4474
18,67285,5108
18,67697,4184
18,68110,4527
18,68522,4029
18,68933,4410
18,69347,3308
18,69758,4025
18,70170,3413
18,70583,3921
18,70995,3268
18,71407,3266
18,71820,2442
18,72232,3137
18,72643,2589
18,73057,2812
18,73468,2671
18,73880,2476
18,74292,1879
18,74705,2282
18,75117,2688
18,75528,1807
18,75942,2373
18,76353,2272
18,76765,2307
18,77178,1901
18,77590,2370
18,78002,2389
18,78415,2164
18,78827,1915
18,79238,2234
18,79652,2328
18,80063,1693
18,80475,1687
18,80888,1834
18,81300,2288
18,81712,1599
18,82125,2047
18,82537,1633
18,82948,1605
18,83360,1789
18,83773,1692
18,84185,1366
18,84597,1500
18,85010,1415
18,85422,1580
18,85833,2163
18,86247,1386
18,86658,1785
18,87070,1377
18,87483,966
18,87895,1752
18,88307,1436
18,88720,1546
18,89132,1770
18,89543,918
18,89957,1513
18,90368,1500
18,90780,1863
18,91193,1225
18,91605,1091
18,92017,1659
18,92428,1541
18,92842,1114
18,93253,916
18,93665,1640
18,94078,1469
18,94490,1705
18,94902,1113
18,95315,1618
18,95727,1032
18,96138,1033
18,96552,1046
18,96963,1782
18,97375,1573
18,97788,1152
18,98200,924
18,98612,1339
18,99025,1203
18,99437,1353
18,99848,1192
19,00262,1137
19,00673,679
19,01085,1774
19,01497,1192
19,01910,2044
19,02322,1809
19,02733,2634
19,03147,2306
19,03558,2950
19,03970,3361
19,04383,4245
19,04795,2883
19,05207,2559
19,05620,3282
19,06032,2879
19,06443,2628
19,06857,2871
19,07268,2330
19,07680,1947
19,08093,1919
19,08505,1853
19,08917,1532
19,09330,1354
19,09742,1485
19,10153,1260
19,10565,814
19,10978,931
19,11390,721
19,11802,1590
19,12215,963
19,12627,720
19,13038,1385
19,13452,838
19,13863,1025
19,14275,775
19,14688,994
19,15100,857
19,15512,1316
19,15925,1460
19,16337,766
19,16748,978
19,17162,1445
19,17573,440
19,17985,593
19,18398,1201
19,18810,1180
19,19222,1300
19,19633,1641
19,20047,1132
19,20458,1126
19,20870,1624
19,21283,1344
19,21695,2096
19,22107,4133
19,22520,8354
19,22932,15559
19,23343,29318
19,23757,48486
19,24168,83638
19,24580,126620
19,24993,194909
19,25405,275417
19,25817,372017
19,26230,486589
19,26642,601630
19,27053,690854
19,27467,765367
19,27878,798754
19,28290,816210
19,28702,796471
19,29115,741416
19,29527,655348
19,29938,571166
19,30352,475842
19,30763,398389
19,31175,327788
19,31588,268954
19,32000,212055
19,32412,176699
19,32825,137203
19,33237,117068
19,33648,94051
19,34062,79414
19,34473,67872
19,34885,58732
19,35298,49692
19,35710,41944
19,36122,37276
19,36535,32754
19,36947,31418
19,37358,27374
19,37770,23256
19,38183,21302
19,38595,19491
19,39007,18104
19,39420,15905
19,39832,15334
19,40243,14762
19,40657,13499
19,41068,12404
19,41480,9984
19,41893,9957
19,42305,9643
19,42717,8274
19,43130,8513
19,43542,7648
19,43953,6515
19,44367,6319
19,44778,6546
19,45190,6034
19,45603,4472
19,46015,5565
19,46427,4314
19,46838,5416
19,47252,4401
19,47663,3775
19,48075,4543
19,48488,4250
19,48900,2902
19,49312,3560
19,49725,3065
19,50137,3842
19,50548,2828
19,50962,3155
19,51373,2093
19,51785,2117
19,52198,3173
19,52610,2423
19,53022,2723
19,53435,2562
19,53847,2225
19,54258,1691
19,54672,2422
19,55083,2346
19,55495,1975
19,55907,1715
19,56320,2536
19,56732,2164
19,57143,1688
19,57557,1579
19,57968,1352
19,58380,1589
19,58793,1103
19,59205,1266
19,59617,1684
19,60030,2326
19,60442,2460
19,60853,2983
19,61267,5817
19,61678,9974
19,62090,17396
19,62503,34125
19,62915,59621
19,63327,100242
19,63740,156124
19,64152,238373
19,64563,335816
19,64975,454022
19,65388,577233
19,65800,703915
19,66212,808535
19,66625,881405
19,67037,929799
19,67448,910669
19,67862,877824
19,68273,804319
19,68685,701891
19,69098,588890
19,69510,496316
19,69922,399582
19,70335,322804
19,70747,257968
19,71158,204359
19,71572,165435
19,71983,132888
19,72395,110410
19,72808,89541
19,73220,76397
19,73632,61870
19,74043,53200
19,74457,46749
19,74868,42195
19,75280,34153
19,75693,32575
19,76105,28546
19,76517,24976
19,76930,21642
19,77342,20735
19,77753,19498
19,78167,18622
19,78578,15046
19,78990,14124
19,79403,13059
19,79815,12627
19,80227,11937
19,80640,10914
19,81052,11207
19,81463,9852
19,81877,8469
19,82288,8840
19,82700,7652
19,83112,7359
19,83525,6746
19,83937,5833
19,84348,6468
19,84762,5764
19,85173,5305
19,85585,5061
19,85998,5017
19,86410,4407
19,86822,4952
19,87235,4701
19,87647,4596
19,88058,4148
19,88472,4697
19,88883,4574
19,89295,3293
19,89708,4304
19,90120,2863
19,90532,3531
19,90945,3757
19,91357,2897
19,91768,2459
19,92180,2962
19,92593,2386
19,93005,2346
19,93417,3013
19,93830,2294
19,94242,2817
19,94653,2069
19,95067,1939
19,95478,2820
19,95890,2653
19,96303,2759
19,96715,2732
19,97127,3705
19,97540,2779
19,97952,2920
19,98363,2797
19,98777,2670
19,99188,3002
19,99600,2646
20,00013,2520
20,00425,2116
20,00837,2423
20,01248,2986
20,01662,2279
20,02073,2141
20,02485,2203
20,02898,2123
20,03310,1849
20,03722,2124
20,04135,1993
20,04547,2113
20,04958,1868
20,05372,1311
20,05783,1973
20,06195,1344
20,06608,1482
20,07020,2076
20,07432,1975
20,07845,1785
20,08257,2027
20,08668,1177
20,09082,1388
20,09493,1648
20,09905,1754
20,10317,910
20,10730,1063
20,11142,859
20,11553,1096
20,11967,1349
20,12378,1626
20,12790,1276
20,13203,1466
20,13615,1204
20,14027,1075
20,14440,605
20,14852,1491
20,15263,958
20,15677,887
20,16088,1501
20,16500,1106
20,16913,1104
20,17325,1075
20,17737,1173
20,18150,872
20,18562,627
20,18973,955
20,19385,928
20,19798,945
20,20210,1115
20,20622,888
20,21035,442
20,21447,832
20,21858,971
20,22272,595
20,22683,1184
20,23095,1323
20,23508,1016
20,23920,935
20,24332,1062
20,24745,1453
20,25157,1131
20,25568,539
20,25982,1177
20,26393,579
20,26805,866
20,27218,1360
20,27630,347
20,28042,1443
20,28453,1958
20,28867,1471
20,29278,1038
20,29690,606
20,30103,766
20,30515,838
20,30927,1005
20,31340,891
20,31752,657
20,32163,1357
20,32577,825
20,32988,1223
20,33400,1083
20,33813,779
20,34225,798
20,34637,1116
20,35050,475
20,35462,781
20,35873,567
20,36287,963
20,36698,956
20,37110,892
20,37523,948
20,37935,1021
20,38347,1108
20,38758,451
20,39172,1577
20,39583,1485
20,39995,1374
20,40408,1530
20,40820,1657
20,41232,1982
20,41645,2871
20,42057,2670
20,42468,2556
20,42882,2576
20,43293,2546
20,43705,2349
20,44118,2321
20,44530,1872
20,44942,1852
20,45355,839
20,45767,1736
20,46178,2121
20,46592,3514
20,47003,7272
20,47415,13600
20,47827,27121
20,48240,53159
20,48652,86810
20,49063,144362
20,49477,219130
20,49888,313694
20,50300,416049
20,50713,535830
20,51125,654234
20,51537,750777
20,51950,841456
20,52362,884388
20,52773,877482
20,53187,838108
20,53598,770457
20,54010,683137
20,54423,581061
20,54835,493173
20,55247,405356
20,55660,322222
20,56072,260331
20,56483,212524
20,56895,168881
20,57308,140908
20,57720,113379
20,58132,96054
20,58545,77236
20,58957,65112
20,59368,56118
20,59782,46935
20,60193,43156
20,60605,36636
20,61018,33888
20,61430,30122
20,61842,26078
20,62255,22933
20,62667,22448
20,63078,18454
20,63492,17285
20,63903,15542
20,64315,14521
20,64728,14005
20,65140,11803
20,65552,12016
20,65963,10896
20,66377,9747
20,66788,10026
20,67200,7788
20,67613,8330
20,68025,7273
20,68437,7509
20,68850,7072
20,69262,6351
20,69673,5256
20,70087,4293
20,70498,4853
20,70910,4354
20,71323,4375
20,71735,4536
20,72147,3554
20,72560,3557
20,72972,3007
20,73383,3435
20,73797,3538
20,74208,2593
20,74620,3337
20,75032,2842
20,75445,2384
20,75857,2795
20,76268,2309
20,76682,2713
20,77093,2083
20,77505,2110
20,77918,2398
20,78330,2716
20,78742,2081
20,79155,2026
20,79567,1842
20,79978,1495
20,80392,1584
20,80803,1874
20,81215,2185
20,81628,2413
20,82040,3588
20,82452,8033
20,82865,14136
20,83277,28677
20,83688,50534
20,84100,88735
20,84513,150101
20,84925,236278
20,85337,364379
20,85750,526874
20,86162,708090
20,86573,954433
20,86987,1223023
20,87398,1539874
20,87810,1873783
20,88223,2206644
20,88635,2500923
20,89047,2728220
20,89460,2861644
20,89872,2920567
20,90283,2795743
20,90697,2589628
20,91108,2236511
20,91520,1860809
20,91933,1509315
20,92345,1194041
20,92757,931862
20,93168,719510
20,93582,567145
20,93993,450297
20,94405,367235
20,94818,301220
20,95230,247917
20,95642,209018
20,96055,180180
20,96467,156751
20,96878,133321
20,97292,119107
20,97703,102784
20,98115,93963
20,98528,85124
20,98940,77011
20,99352,68523
20,99765,61545
21,00177,55266
21,00588,49714
21,01002,49397
21,01413,44441
21,01825,40920
21,02237,39113
21,02650,35172
21,03062,31407
21,03473,31932
21,03887,28009
21,04298,25949
21,04710,25436
21,05123,22933
21,05535,20846
21,05947,20579
21,06360,20969
21,06772,18195
21,07183,18726
21,07597,17681
21,08008,16038
21,08420,14224
21,08833,13357
21,09245,13541
21,09657,12218
21,10070,12089
21,10482,11098
21,10893,10568
21,11305,10897
21,11718,9728
21,12130,10188
21,12542,9607
21,12955,9646
21,13367,7860
21,13778,8169
21,14192,8228
21,14603,7531
21,15015,7551
21,15428,6008
21,15840,5588
21,16252,6128
21,16665,6146
21,17077,6515
21,17488,5479
21,17902,5100
21,18313,5551
21,18725,4783
21,19138,5017
21,19550,4681
21,19962,4070
21,20373,3218
21,20787,4524
21,21198,3385
21,21610,3737
21,22023,3626
21,22435,4256
21,22847,3390
21,23260,3865
21,23672,3339
21,24083,3473
21,24497,3751
21,24908,2605
21,25320,3656
21,25733,2677
21,26145,2334
21,26557,2638
21,26970,2291
21,27382,2497
21,27793,2994
21,28207,2374
21,28618,3622
21,29030,2786
21,29442,2038
21,29855,2492
21,30267,2374
21,30678,2888
21,31092,2632
21,31503,3377
21,31915,4194
21,32328,3397
21,32740,3803
21,33152,2517
21,33565,3798
21,33977,2851
21,34388,3126
21,34802,2640
21,35213,2597
21,35625,2537
21,36038,2505
21,36450,2155
21,36862,2460
21,37275,2078
21,37687,2092
21,38098,2305
21,38510,1864
21,38923,1538
21,39335,2054
21,39747,1944
21,40160,2128
21,40572,2886
21,40983,2449
21,41397,2980
21,41808,3665
21,42220,6291
21,42633,6730
21,43045,7554
21,43457,8483
21,43870,11214
21,44282,13438
21,44693,12005
21,45107,16268
21,45518,15095
21,45930,15125
21,46343,14367
21,46755,13400
21,47167,11754
21,47578,11494
21,47992,10107
21,48403,9356
21,48815,7442
21,49228,7342
21,49640,7145
21,50052,8861
21,50465,11676
21,50877,18905
21,51288,30961
21,51702,54886
21,52113,94590
21,52525,148044
21,52938,220726
21,53350,310432
21,53762,421293
21,54175,547356
21,54587,667940
21,54998,769406
21,55412,852926
21,55823,904482
21,56235,902525
21,56647,875420
21,57060,808762
21,57472,716475
21,57883,614947
21,58297,511410
21,58708,423421
21,59120,335194
21,59533,270300
21,59945,215072
21,60357,174703
21,60770,144747
21,61182,118626
21,61593,95138
21,62007,81279
21,62418,67757
21,62830,62114
21,63243,52568
21,63655,45706
21,64067,40120
21,64480,35406
21,64892,32381
21,65303,29364
21,65715,25045
21,66128,22373
21,66540,19576
21,66952,19442
21,67365,18804
21,67777,15880
21,68188,16802
21,68602,15779
21,69013,16318
21,69425,14793
21,69838,15600
21,70250,15885
21,70662,15521
21,71075,16076
21,71487,16881
21,71898,17964
21,72312,17465
21,72723,17106
21,73135,16446
21,73548,14402
21,73960,11719
21,74372,9913
21,74783,7602
21,75197,7619
21,75608,5816
21,76020,6274
21,76433,6120
21,76845,4245
21,77257,4834
21,77670,4864
21,78082,4929
21,78493,4313
21,78907,4578
21,79318,4920
21,79730,4543
21,80143,4222
21,80555,3998
21,80967,5257
21,81380,3968
21,81792,4099
21,82203,4110
21,82617,2937
21,83028,3411
21,83440,3689
21,83852,2691
21,84265,3107
21,84677,3263
21,85088,2758
21,85502,2072
21,85913,3051
21,86325,2279
21,86738,2497
21,87150,2044
21,87562,2472
21,87975,1611
21,88387,2088
21,88798,1928
21,89212,2364
21,89623,2083
21,90035,2219
21,90448,1880
21,90860,1900
21,91272,1849
21,91685,2044
21,92097,2272
21,92508,2274
21,92920,1308
21,93333,1842
21,93745,2059
21,94157,1653
21,94570,2472
21,94982,2101
21,95393,1007
21,95807,1484
21,96218,1857
21,96630,1504
21,97043,1476
21,97455,2495
21,97867,4189
21,98280,5855
21,98692,12262
21,99103,24230
21,99517,41861
21,99928,69006
22,00340,120780
22,00753,188843
22,01165,277210
22,01577,379822
22,01990,515965
22,02402,649266
22,02813,782256
22,03225,900693
22,03638,982911
22,04050,1030426
22,04462,1021395
22,04875,968272
22,05287,878677
22,05698,769113
22,06112,637602
22,06523,529936
22,06935,424552
22,07348,334604
22,07760,268536
22,08172,207375
22,08585,167241
22,08997,139814
22,09408,111491
22,09822,94198
22,10233,77772
22,10645,67598
22,11058,56883
22,11470,49750
22,11882,44555
22,12293,40353
22,12707,32661
22,13118,30843
22,13530,26570
22,13943,26283
22,14355,24053
22,14767,22737
22,15180,21772
22,15592,18138
22,16003,17822
22,16417,17424
22,16828,17231
22,17240,16316
22,17653,15198
22,18065,13063
22,18477,13356
22,18890,12271
22,19302,10677
22,19713,10718
22,20127,10697
22,20538,10197
22,20950,8871
22,21362,8315
22,21775,7235
22,22187,6574
22,22598,6192
22,23012,6548
22,23423,5072
22,23835,5610
22,24248,4990
22,24660,5559
22,25072,3970
22,25485,4450
22,25897,3915
22,26308,3629
22,26722,4441
22,27133,3602
22,27545,3895
22,27958,4341
22,28370,3046
22,28782,3487
22,29195,3776
22,29607,2259
22,30018,3163
22,30430,2973
22,30843,2630
22,31255,2276
22,31667,2640
22,32080,2412
22,32492,2920
22,32903,2696
22,33317,1760
22,33728,2105
22,34140,2460
22,34553,2057
22,34965,2018
22,35377,1634
22,35790,1613
22,36202,2186
22,36613,2149
22,37027,2735
22,37438,2175
22,37850,1571
22,38263,2730
22,38675,1956
22,39087,2011
22,39498,1793
22,39912,2312
22,40323,1507
22,40735,2481
22,41148,2055
22,41560,1191
22,41972,1826
22,42385,1598
22,42797,1829
22,43208,1545
22,43622,1561
22,44033,1967
22,44445,1352
22,44858,1761
22,45270,1471
22,45682,2158
22,46095,1544
22,46507,2066
22,46918,2158
22,47332,2300
22,47743,2196
22,48155,1875
22,48567,1631
22,48980,2048
22,49392,1132
22,49803,1435
22,50217,1318
22,50628,1086
22,51040,1669
22,51453,1457
22,51865,1216
22,52277,1742
22,52690,1094
22,53102,1554
22,53513,1293
22,53927,1032
22,54338,1303
22,54750,1179
22,55163,1245
22,55575,1519
22,55987,492
22,56400,1428
22,56812,1350
22,57223,1294
22,57635,1294
22,58048,1393
22,58460,1096
22,58872,1275
22,59285,969
22,59697,1690
22,60108,2228
22,60522,1227
22,60933,1638
22,61345,1092
22,61758,1022
22,62170,2039
22,62582,1665
22,62995,3003
22,63407,3446
22,63818,6864
22,64232,11314
22,64643,20842
22,65055,37793
22,65468,63938
22,65880,107712
22,66292,170414
22,66703,246434
22,67117,355644
22,67528,476590
22,67940,611061
22,68353,741069
22,68765,845529
22,69177,944378
22,69590,996910
22,70002,977057
22,70413,938618
22,70827,856410
22,71238,743600
22,71650,625967
22,72063,524148
22,72475,430320
22,72887,344097
22,73300,270456
22,73712,221377
22,74123,174689
22,74537,145740
22,74948,116080
22,75360,99050
22,75772,84062
22,76185,71295
22,76597,61038
22,77008,53109
22,77422,45278
22,77833,42372
22,78245,38673
22,78658,37062
22,79070,34181
22,79482,35066
22,79895,33872
22,80307,35298
22,80718,33390
22,81132,37403
22,81543,38007
22,81955,39123
22,82368,39552
22,82780,37737
22,83192,35639
22,83605,37287
22,84017,32974
22,84428,29658
22,84840,26730
22,85253,24977
22,85665,21218
22,86077,18797
22,86490,17297
22,86902,15537
22,87313,12644
22,87727,11053
22,88138,11195
22,88550,9543
22,88963,9150
22,89375,7692
22,89787,7936
22,90200,7483
22,90612,6055
22,91023,7234
22,91437,5664
22,91848,5611
22,92260,4388
22,92673,5838
22,93085,4382
22,93497,5293
22,93908,4893
22,94322,3881
22,94733,4080
22,95145,3335
22,95558,3231
22,95970,3263
22,96382,2885
22,96795,2998
22,97207,3163
22,97618,4130
22,98032,2287
22,98443,3436
22,98855,3404
22,99268,3247
22,99680,2360
23,00092,2572
23,00505,1688
23,00917,2113
23,01328,1678
23,01742,2069
23,02153,2078
23,02565,1938
23,02977,3225
23,03390,3227
23,03802,2681
23,04213,2201
23,04627,1915
23,05038,2137
23,05450,1789
23,05863,2149
23,06275,2618
23,06687,2147
23,07100,2179
23,07512,1717
23,07923,2126
23,08337,2200
23,08748,3255
23,09160,5219
23,09573,8251
23,09985,13483
23,10397,25190
23,10810,44186
23,11222,74289
23,11633,125434
23,12045,197256
23,12458,293510
23,12870,412808
23,13282,564454
23,13695,749309
23,14107,960452
23,14518,1185598
23,14932,1427928
23,15343,1676456
23,15755,1891903
23,16168,2071503
23,16580,2161903
23,16992,2138467
23,17405,2030633
23,17817,1836188
23,18228,1567477
23,18642,1302806
23,19053,1037222
23,19465,827467
23,19878,647051
23,20290,515323
23,20702,401785
23,21113,321784
23,21527,267359
23,21938,221597
23,22350,184266
23,22763,153492
23,23175,134740
23,23587,116224
23,24000,100979
23,24412,90291
23,24823,78074
23,25237,73251
23,25648,66574
23,26060,60231
23,26473,50908
23,26885,48524
23,27297,45830
23,27710,42955
23,28122,38297
23,28533,34577
23,28947,32390
23,29358,31575
23,29770,28217
23,30182,27630
23,30595,24320
23,31007,22641
23,31418,23512
23,31832,19501
23,32243,18401
23,32655,17675
23,33068,16783
23,33480,16082
23,33892,15054
23,34305,14218
23,34717,14309
23,35128,13188
23,35542,12645
23,35953,12541
23,36365,11048
23,36778,10699
23,37190,10627
23,37602,9360
23,38015,9780
23,38427,10143
23,38838,8501
23,39250,8235
23,39663,8721
23,40075,7257
23,40487,7376
23,40900,6861
23,41312,6592
23,41723,6737
23,42137,6348
23,42548,7469
23,42960,5588
23,43373,6613
23,43785,5536
23,44197,6207
23,44610,6192
23,45022,5989
23,45433,7532
23,45847,11024
23,46258,16327
23,46670,26552
23,47083,45053
23,47495,73368
23,47907,113046
23,48318,168997
23,48732,249275
23,49143,346971
23,49555,443459
23,49968,563785
23,50380,685236
23,50792,799830
23,51205,907767
23,51617,971667
23,52028,1011981
23,52442,980223
23,52853,929591
23,53265,844068
23,53678,745494
23,54090,628853
23,54502,520602
23,54915,423110
23,55327,350739
23,55738,275268
23,56152,227041
23,56563,184009
23,56975,147111
23,57388,125206
23,57800,102096
23,58212,93497
23,58623,76772
23,59037,65369
23,59448,57682
23,59860,50190
23,60273,47113
23,60685,39757
23,61097,35935
23,61510,33092
23,61922,31216
23,62333,28297
23,62747,26600
23,63158,26009
23,63570,25147
23,63983,28248
23,64395,33672
23,64807,44952
23,65220,66965
23,65632,100795
23,66043,155340
23,66457,231510
23,66868,334131
23,67280,479824
23,67692,658300
23,68105,858087
23,68517,1090282
23,68928,1333626
23,69342,1579236
23,69753,1765657
23,70165,1928250
23,70578,2009210
23,70990,2016008
23,71402,1910764
23,71815,1715851
23,72227,1474843
23,72638,1246053
23,73052,997278
23,73463,804566
23,73875,644377
23,74288,507111
23,74700,403875
23,75112,330901
23,75525,272082
23,75937,227839
23,76348,191292
23,76760,159980
23,77173,136195
23,77585,124360
23,77997,107140
23,78410,93614
23,78822,84462
23,79233,79938
23,79647,69590
23,80058,64696
23,80470,58325
23,80883,51464
23,81295,49426
23,81707,43476
23,82120,41167
23,82532,39115
23,82943,34847
23,83357,33736
23,83768,31476
23,84180,29023
23,84593,26958
23,85005,25050
23,85417,23132
23,85828,22867
23,86242,20205
23,86653,19400
23,87065,20254
23,87478,17758
23,87890,17792
23,88302,14706
23,88715,17106
23,89127,14741
23,89538,13577
23,89952,14234
23,90363,13157
23,90775,12896
23,91188,13157
23,91600,12364
23,92012,10052
23,92425,9942
23,92837,10385
23,93248,9154
23,93662,8853
23,94073,8529
23,94485,8793
23,94897,8468
23,95310,6310
23,95722,8087
23,96133,7087
23,96547,7807
23,96958,7779
23,97370,7021
23,97783,7119
23,98195,8679
23,98607,9332
23,99020,10669
23,99432,11100
23,99843,11916
24,00257,10762
24,00668,9045
24,01080,7405
24,01493,8000
24,01905,5971
24,02317,4652
24,02730,5065
24,03142,4801
24,03553,4967
24,03965,4746
24,04378,3890
24,04790,5025
24,05202,4568
24,05615,4537
24,06027,5540
24,06438,5209
24,06852,7056
24,07263,8037
24,07675,10815
24,08088,15218
24,08500,24894
24,08912,41282
24,09325,65786
24,09737,108083
24,10148,169756
24,10562,255720
24,10973,362724
24,11385,476893
24,11798,604174
24,12210,727167
24,12622,823689
24,13033,902515
24,13447,949001
24,13858,933161
24,14270,890016
24,14683,799527
24,15095,697831
24,15507,593435
24,15920,494989
24,16332,400772
24,16743,321788
24,17157,260230
24,17568,209824
24,17980,174001
24,18393,139891
24,18805,120896
24,19217,101185
24,19630,86067
24,20042,75568
24,20453,64801
24,20867,60490
24,21278,52595
24,21690,49262
24,22102,42337
24,22515,39087
24,22927,33140
24,23338,30149
24,23752,29349
24,24163,27266
24,24575,24754
24,24988,21889
24,25400,19642
24,25812,20759
24,26225,16314
24,26637,17449
24,27048,14034
24,27462,14955
24,27873,13610
24,28285,13269
24,28698,11529
24,29110,11726
24,29522,10437
24,29935,10590
24,30347,11001
24,30758,10309
24,31170,8959
24,31583,8630
24,31995,9312
24,32407,8376
24,32820,8587
24,33232,9311
24,33643,9133
24,34057,8743
24,34468,9775
24,34880,9347
24,35293,8492
24,35705,8467
24,36117,9061
24,36530,8135
24,36942,8275
24,37353,7496
24,37767,7438
24,38178,8256
24,38590,7141
24,39003,7870
24,39415,8511
24,39827,8962
24,40238,7807
24,40652,6817
24,41063,7103
24,41475,7371
24,41888,7880
24,42300,6416
24,42712,7879
24,43125,7503
24,43537,5992
24,43948,6809
24,44362,6538
24,44773,5530
24,45185,5755
24,45598,4717
24,46010,5501
24,46422,4092
24,46835,5150
24,47247,5587
24,47658,5360
24,48072,5317
24,48483,5515
24,48895,6626
24,49307,8595
24,49720,11745
24,50132,16709
24,50543,29348
24,50957,49653
24,51368,80299
24,51780,129683
24,52193,194762
24,52605,283290
24,53017,389375
24,53430,504975
24,53842,631664
24,54253,748261
24,54667,831133
24,55078,883468
24,55490,890582
24,55903,859150
24,56315,796625
24,56727,714858
24,57140,626928
24,57552,521799
24,57963,426163
24,58375,350876
24,58788,280965
24,59200,226350
24,59612,180478
24,60025,150750
24,60437,120946
24,60848,103837
24,61262,86724
24,61673,72425
24,62085,61139
24,62498,55659
24,62910,48497
24,63322,41741
24,63735,39416
24,64147,34274
24,64558,32065
24,64972,28289
24,65383,25161
24,65795,23841
24,66208,22580
24,66620,20734
24,67032,19534
24,67443,17606
24,67857,17782
24,68268,15613
24,68680,15426
24,69093,14953
24,69505,13538
24,69917,13154
24,70330,11689
24,70742,12098
24,71153,10604
24,71567,11522
24,71978,11201
24,72390,9604
24,72803,9656
24,73215,10562
24,73627,9665
24,74040,10364
24,74452,7767
24,74863,7932
24,75277,8435
24,75688,8474
24,76100,7999
24,76512,7207
24,76925,6598
24,77337,5760
24,77748,6333
24,78162,5185
24,78573,6025
24,78985,5811
24,79398,5763
24,79810,4405
24,80222,4889
24,80635,5247
24,81047,4790
24,81458,4155
24,81872,4732
24,82283,4218
24,82695,4595
24,83108,4815
24,83520,3572
24,83932,3934
24,84345,3746
24,84757,3039
24,85168,3792
24,85580,4087
24,85993,3748
24,86405,4436
24,86817,3384
24,87230,3179
24,87642,3633
24,88053,3478
24,88467,3136
24,88878,3502
24,89290,2867
24,89703,4033
24,90115,2488
24,90527,3018
24,90940,3544
24,91352,3367
24,91763,3463
24,92177,3343
24,92588,3375
24,93000,3981
24,93413,2712
24,93825,3150
24,94237,4667
24,94648,3675
24,95062,3322
24,95473,3077
24,95885,4090
24,96298,3928
24,96710,3212
24,97122,3225
24,97535,3370
24,97947,3194
24,98358,3533
24,98772,3518
24,99183,3681
24,99595,3207
25,00008,3655
25,00420,2712
25,00832,2331
25,01245,3328
25,01657,3190
25,02068,2817
25,02482,2738
25,02893,2875
25,03305,2605
25,03717,2586
25,04130,2938
25,04542,3610
25,04953,2719
25,05367,3223
25,05778,2197
25,06190,2776
25,06603,2235
25,07015,2922
25,07427,2587
25,07840,2726
25,08252,3364
25,08663,3817
25,09077,5526
25,09488,9393
25,09900,15706
25,10313,26919
25,10725,45754
25,11137,77997
25,11550,119249
25,11962,184284
25,12373,263655
25,12785,361494
25,13198,460682
25,13610,574707
25,14022,655010
25,14435,732659
25,14847,769072
25,15258,781174
25,15672,752755
25,16083,707778
25,16495,631735
25,16908,548856
25,17320,462323
25,17732,391215
25,18145,339672
25,18557,303567
25,18968,286369
25,19382,308080
25,19793,345694
25,20205,418487
25,20618,518154
25,21030,654325
25,21442,820064
25,21855,997429
25,22267,1223347
25,22678,1438880
25,23090,1675927
25,23503,1900373
25,23915,2072304
25,24327,2201374
25,24740,2226509
25,25152,2164497
25,25563,1991239
25,25977,1730682
25,26388,1457353
25,26800,1177156
25,27213,942299
25,27625,742737
25,28037,594803
25,28450,479002
25,28862,390662
25,29273,323590
25,29687,268646
25,30098,228492
25,30510,193893
25,30923,169578
25,31335,149370
25,31747,130815
25,32158,117997
25,32572,100908
25,32983,95681
25,33395,84972
25,33808,79580
25,34220,71956
25,34632,68883
25,35045,62520
25,35457,57927
25,35868,54182
25,36282,49466
25,36693,44170
25,37105,42647
25,37518,40114
25,37930,39768
25,38342,34613
25,38755,34293
25,39167,32675
25,39578,29778
25,39992,27570
25,40403,27254
25,40815,26118
25,41227,24529
25,41640,24093
25,42052,22462
25,42463,22154
25,42877,20868
25,43288,19377
25,43700,19255
25,44113,18113
25,44525,17168
25,44937,15568
25,45350,15086
25,45762,14456
25,46173,14039
25,46587,15427
25,46998,15644
25,47410,16755
25,47823,20714
25,48235,29683
25,48647,39890
25,49060,63229
25,49472,95411
25,49883,137168
25,50295,200183
25,50708,270163
25,51120,370575
25,51532,471715
25,51945,569518
25,52357,666742
25,52768,726793
25,53182,764126
25,53593,755068
25,54005,722359
25,54418,668229
25,54830,593313
25,55242,505912
25,55655,418867
25,56067,346661
25,56478,282040
25,56892,232140
25,57303,189073
25,57715,152125
25,58128,125321
25,58540,105004
25,58952,91213
25,59363,76197
25,59777,66202
25,60188,59475
25,60600,52949
25,61013,47555
25,61425,41500
25,61837,38058
25,62250,35466
25,62662,32472
25,63073,27913
25,63487,27919
25,63898,25727
25,64310,22487
25,64723,23140
25,65135,21633
25,65547,17980
25,65960,18048
25,66372,18460
25,66783,16930
25,67197,17496
25,67608,16588
25,68020,18232
25,68432,20632
25,68845,27666
25,69257,37023
25,69668,56023
25,70082,87090
25,70493,132445
25,70905,194665
25,71318,276831
25,71730,379587
25,72142,502843
25,72555,638053
25,72967,778215
25,73378,892516
25,73792,985449
25,74203,1045345
25,74615,1043978
25,75028,989528
25,75440,909056
25,75852,802503
25,76265,679766
25,76677,573295
25,77088,466961
25,77500,382284
25,77913,306749
25,78325,245564
25,78737,204389
25,79150,166423
25,79562,139826
25,79973,121353
25,80387,106232
25,80798,90619
25,81210,79029
25,81623,70209
25,82035,60554
25,82447,57160
25,82860,52558
25,83272,48648
25,83683,43214
25,84097,41241
25,84508,39366
25,84920,38400
25,85333,34613
25,85745,32783
25,86157,30774
25,86568,29081
25,86982,26239
25,87393,25850
25,87805,22742
25,88218,23343
25,88630,21043
25,89042,20244
25,89455,17538
25,89867,17045
25,90278,16628
25,90692,16705
25,91103,16242
25,91515,13328
25,91928,14624
25,92340,13217
25,92752,12555
25,93165,13016
25,93577,12399
25,93988,10458
25,94402,11471
25,94813,10965
25,95225,10553
25,95637,10113
25,96050,11269
25,96462,8764
25,96873,10176
25,97287,9980
25,97698,9064
25,98110,9178
25,98523,8967
25,98935,8327
25,99347,7951
25,99760,9579
26,00172,8539
26,00583,7171
26,00997,8999
26,01408,8012
26,01820,7371
26,02233,7305
26,02645,6903
26,03057,5646
26,03470,6586
26,03882,6422
26,04293,7397
26,04705,5911
26,05118,5667
26,05530,5764
26,05942,5498
26,06355,6031
26,06767,5503
26,07178,5762
26,07592,5850
26,08003,4590
26,08415,5194
26,08828,5755
26,09240,4669
26,09652,4738
26,10065,5242
26,10477,4897
26,10888,5291
26,11302,6875
26,11713,8678
26,12125,9408
26,12538,11134
26,12950,11320
26,13362,11796
26,13773,13362
26,14187,11439
26,14598,13824
26,15010,16518
26,15423,24931
26,15835,39890
26,16247,66383
26,16660,107616
26,17072,165704
26,17483,242133
26,17897,341471
26,18308,458617
26,18720,591793
26,19133,734063
26,19545,876816
26,19957,1000317
26,20370,1075381
26,20782,1103580
26,21193,1090630
26,21607,1026082
26,22018,932510
26,22430,805630
26,22842,662618
26,23255,541843
26,23667,438333
26,24078,355152
26,24492,283296
26,24903,229040
26,25315,193097
26,25728,159155
26,26140,136361
26,26552,116206
26,26965,101346
26,27377,87571
26,27788,78078
26,28202,69234
26,28613,63566
26,29025,56204
26,29438,51199
26,29850,46635
26,30262,44323
26,30675,41245
26,31087,37336
26,31498,35950
26,31910,31638
26,32323,31878
26,32735,31839
26,33147,28840
26,33560,28918
26,33972,26781
26,34383,24291
26,34797,24187
26,35208,23122
26,35620,22738
26,36033,20844
26,36445,20576
26,36857,20160
26,37270,17750
26,37682,16640
26,38093,16088
26,38507,15521
26,38918,16406
26,39330,15629
26,39743,16131
26,40155,13101
26,40567,13862
26,40978,12246
26,41392,12422
26,41803,11267
26,42215,11662
26,42628,12153
26,43040,11034
26,43452,11386
26,43865,11196
26,44277,10433
26,44688,10097
26,45102,10927
26,45513,10379
26,45925,8896
26,46338,10352
26,46750,9121
26,47162,9388
26,47575,9196
26,47987,8759
26,48398,9078
26,48812,9792
26,49223,12376
26,49635,17412
26,50047,24786
26,50460,38128
26,50872,59661
26,51283,93519
26,51697,151358
26,52108,221362
26,52520,310750
26,52933,408827
26,53345,535417
26,53757,665912
26,54170,767571
26,54582,856071
26,54993,884777
26,55407,893065
26,55818,873122
26,56230,790617
26,56643,706791
26,57055,604801
26,57467,502215
26,57880,419043
26,58292,339122
26,58703,275769
26,59115,227064
26,59528,185855
26,59940,151859
26,60352,131295
26,60765,109168
26,61177,94451
26,61588,81062
26,62002,69848
26,62413,62717
26,62825,56406
26,63238,50488
26,63650,46941
26,64062,42458
26,64475,38172
26,64887,35482
26,65298,32310
26,65712,30486
26,66123,30085
26,66535,26384
26,66948,26306
26,67360,23405
26,67772,22546
26,68183,21917
26,68597,20883
26,69008,18092
26,69420,18058
26,69833,17574
26,70245,15952
26,70657,15807
26,71070,14495
26,71482,15066
26,71893,14327
26,72307,13291
26,72718,12255
26,73130,11600
26,73543,12118
26,73955,12399
26,74367,12357
26,74780,11666
26,75192,10501
26,75603,10693
26,76017,10820
26,76428,10694
26,76840,9844
26,77253,8495
26,77665,9666
26,78077,9880
26,78488,8969
26,78902,8626
26,79313,7612
26,79725,8362
26,80138,8055
26,80550,9374
26,80962,8887
26,81375,8091
26,81787,7692
26,82198,8377
26,82612,6849
26,83023,7761
26,83435,6861
26,83848,6703
26,84260,6286
26,84672,7134
26,85085,5966
26,85497,7226
26,85908,7807
26,86322,8642
26,86733,6978
26,87145,6655
26,87557,6788
26,87970,6698
26,88382,8252
26,88793,8100
26,89207,9132
26,89618,9535
26,90030,8628
26,90443,9904
26,90855,9018
26,91267,9381
26,91680,8879
26,92092,10121
26,92503,8929
26,92917,9255
26,93328,8000
26,93740,8814
26,94153,9486
26,94565,8010
26,94977,8429
26,95390,6645
26,95802,7725
26,96213,6731
26,96625,7276
26,97038,7067
26,97450,6006
26,97862,5939
26,98275,5160
26,98687,5651
26,99098,5432
26,99512,5401
26,99923,6404
27,00335,5919
27,00748,4551
27,01160,6059
27,01572,6455
27,01985,6746
27,02397,5573
27,02808,5272
27,03222,6257
27,03633,5574
27,04045,6653
27,04458,7257
27,04870,8556
27,05282,10869
27,05693,14207
27,06107,20371
27,06518,29884
27,06930,46523
27,07343,75458
27,07755,116134
27,08167,177761
27,08580,257196
27,08992,343722
27,09403,456861
27,09817,577470
27,10228,696119
27,10640,806472
27,11053,887763
27,11465,946502
27,11877,981760
27,12290,1030161
27,12702,1052006
27,13113,1106379
27,13527,1162291
27,13938,1259021
27,14350,1363585
27,14762,1499540
27,15175,1671326
27,15587,1832044
27,15998,1969507
27,16412,2107427
27,16823,2197498
27,17235,2163247
27,17648,2052235
27,18060,1839950
27,18472,1573186
27,18885,1307131
27,19297,1068008
27,19708,849955
27,20122,676436
27,20533,552619
27,20945,448055
27,21358,375944
27,21770,318641
27,22182,275277
27,22595,239866
27,23007,209370
27,23418,186967
27,23830,165876
27,24243,149414
27,24655,137304
27,25067,124694
27,25480,114118
27,25892,106761
27,26303,100412
27,26717,89197
27,27128,84273
27,27540,79716
27,27953,76018
27,28365,68856
27,28777,65273
27,29190,60516
27,29602,58177
27,30013,54386
27,30427,52645
27,30838,50315
27,31250,48623
27,31663,46393
27,32075,42018
27,32487,41383
27,32898,41083
27,33312,37058
27,33723,36456
27,34135,36430
27,34548,33804
27,34960,30681
27,35372,29208
27,35785,30935
27,36197,29166
27,36608,26881
27,37022,24772
27,37433,25911
27,37845,24538
27,38258,24434
27,38670,25508
27,39082,24690
27,39495,23569
27,39907,22226
27,40318,23225
27,40732,25972
27,41143,28674
27,41555,33384
27,41967,44306
27,42380,59409
27,42792,90597
27,43203,124983
27,43617,189057
27,44028,270480
27,44440,369390
27,44853,475194
27,45265,587848
27,45677,685435
27,46090,762521
27,46502,814287
27,46913,835915
27,47327,806590
27,47738,751485
27,48150,693168
27,48563,619115
27,48975,554727
27,49387,521525
27,49800,508602
27,50212,515771
27,50623,545245
27,51035,595149
27,51448,655315
27,51860,707582
27,52272,759775
27,52685,793345
27,53097,787885
27,53508,759030
27,53922,709974
27,54333,641174
27,54745,564519
27,55158,479653
27,55570,406571
27,55982,340919
27,56395,277509
27,56807,237031
27,57218,204535
27,57632,167405
27,58043,151971
27,58455,142492
27,58868,137680
27,59280,146464
27,59692,169010
27,60103,210825
27,60517,267618
27,60928,347063
27,61340,443356
27,61753,552869
27,62165,675575
27,62577,792876
27,62990,887501
27,63402,979561
27,63813,1028008
27,64227,1015471
27,64638,973289
27,65050,885597
27,65463,781257
27,65875,667882
27,66287,554304
27,66700,462362
27,67112,382327
27,67523,320028
27,67937,260927
27,68348,219651
27,68760,189396
27,69172,159752
27,69585,143556
27,69997,124882
27,70408,112882
27,70822,102779
27,71233,94690
27,71645,85109
27,72058,77539
27,72470,73119
27,72882,68064
27,73295,60999
27,73707,56951
27,74118,56003
27,74532,52459
27,74943,48553
27,75355,44999
27,75768,42787
27,76180,42219
27,76592,39215
27,77005,37076
27,77417,34151
27,77828,30837
27,78240,31652
27,78653,29138
27,79065,28341
27,79477,29013
27,79890,27476
27,80302,24764
27,80713,25193
27,81127,22281
27,81538,24808
27,81950,22691
27,82363,21480
27,82775,21450
27,83187,22590
27,83600,22002
27,84012,20531
27,84423,23892
27,84837,22153
27,85248,22786
27,85660,22020
27,86073,20272
27,86485,21549
27,86897,20746
27,87308,19372
27,87722,20223
27,88133,18238
27,88545,18191
27,88958,16749
27,89370,16761
27,89782,15789
27,90195,14127
27,90607,14926
27,91018,14953
27,91432,14616
27,91843,13467
27,92255,13781
27,92668,13287
27,93080,13031
27,93492,12642
27,93905,12491
27,94317,12089
27,94728,11590
27,95142,11985
27,95553,12599
27,95965,12435
27,96377,12342
27,96790,10995
27,97202,11695
27,97613,11161
27,98027,11403
27,98438,11689
27,98850,13390
27,99263,14480
27,99675,19462
28,00087,24913
28,00500,35478
28,00912,55279
28,01323,85388
28,01737,124163
28,02148,180355
28,02560,255153
28,02973,355993
28,03385,469038
28,03797,599420
28,04210,742589
28,04622,861126
28,05033,962910
28,05445,1032092
28,05858,1054487
28,06270,1027567
28,06682,936557
28,07095,834570
28,07507,716566
28,07918,599654
28,08332,490239
28,08743,405135
28,09155,331447
28,09568,272740
28,09980,227199
28,10392,193198
28,10805,165373
28,11217,145037
28,11628,125770
28,12042,112627
28,12453,104477
28,12865,95949
28,13278,86985
28,13690,82252
28,14102,77911
28,14513,73528
28,14927,71880
28,15338,67693
28,15750,65478
28,16163,60177
28,16575,57539
28,16987,54602
28,17400,53595
28,17812,50551
28,18223,49405
28,18637,46597
28,19048,45021
28,19460,42344
28,19873,42062
28,20285,39273
28,20697,36550
28,21110,36679
28,21522,34842
28,21933,32548
28,22347,31441
28,22758,29159
28,23170,28418
28,23582,26724
28,23995,24898
28,24407,25142
28,24818,23929
28,25232,23056
28,25643,21131
28,26055,21247
28,26468,22581
28,26880,22983
28,27292,20893
28,27705,21234
28,28117,18237
28,28528,19469
28,28942,20515
28,29353,20016
28,29765,18149
28,30178,19041
28,30590,17839
28,31002,17263
28,31415,16583
28,31827,15961
28,32238,16156
28,32650,17689
28,33063,16340
28,33475,18417
28,33887,20011
28,34300,22624
28,34712,31681
28,35123,47090
28,35537,69138
28,35948,105555
28,36360,157030
28,36773,228406
28,37185,313357
28,37597,421569
28,38010,543149
28,38422,668766
28,38833,761825
28,39247,826229
28,39658,869249
28,40070,865729
28,40483,834486
28,40895,768246
28,41307,682717
28,41718,599659
28,42132,525644
28,42543,472848
28,42955,439837
28,43368,426358
28,43780,442653
28,44192,479395
28,44605,537260
28,45017,592360
28,45428,651104
28,45842,695871
28,46253,727071
28,46665,723470
28,47078,695660
28,47490,648118
28,47902,578274
28,48315,511245
28,48727,441585
28,49138,370057
28,49552,306554
28,49963,261104
28,50375,220270
28,50788,184919
28,51200,159951
28,51612,139047
28,52023,120809
28,52437,105171
28,52848,93143
28,53260,85395
28,53673,77975
28,54085,68926
28,54497,66341
28,54910,60710
28,55322,54193
28,55733,53293
28,56147,48170
28,56558,45187
28,56970,43982
28,57383,40152
28,57795,37232
28,58207,36184
28,58620,34295
28,59032,32343
28,59443,32365
28,59857,32263
28,60268,29540
28,60680,29128
28,61092,28431
28,61505,27234
28,61917,26340
28,62328,24011
28,62742,27071
28,63153,24768
28,63565,23651
28,63978,24845
28,64390,23388
28,64802,22492
28,65215,21652
28,65627,20621
28,66038,20757
28,66452,20803
28,66863,20545
28,67275,20398
28,67688,18443
28,68100,18734
28,68512,19399
28,68925,19695
28,69337,18825
28,69748,17394
28,70160,19201
28,70573,18463
28,70985,19032
28,71397,16563
28,71810,17082
28,72222,18322
28,72633,17708
28,73047,17930
28,73458,17187
28,73870,16580
28,74283,17729
28,74695,15517
28,75107,15410
28,75520,14987
28,75932,14498
28,76343,14626
28,76757,14983
28,77168,14928
28,77580,14434
28,77993,14219
28,78405,14235
28,78817,13107
28,79228,15533
28,79642,13323
28,80053,15881
28,80465,15696
28,80878,14246
28,81290,15312
28,81702,15114
28,82115,13680
28,82527,15903
28,82938,15572
28,83352,13565
28,83763,14324
28,84175,13914
28,84588,13183
28,85000,13757
28,85412,14166
28,85825,13050
28,86237,12486
28,86648,15225
28,87062,15316
28,87473,16558
28,87885,21394
28,88297,29722
28,88710,43965
28,89122,61773
28,89533,94045
28,89947,133943
28,90358,196317
28,90770,268329
28,91183,365493
28,91595,470048
28,92007,613677
28,92420,768778
28,92832,931652
28,93243,1109342
28,93657,1296488
28,94068,1492645
28,94480,1668680
28,94893,1814654
28,95305,1919869
28,95717,1947019
28,96130,1858228
28,96542,1677887
28,96953,1449050
28,97365,1204366
28,97778,995004
28,98190,796872
28,98602,646620
28,99015,529124
28,99427,441901
28,99838,368019
29,00252,317042
29,00663,277243
29,01075,242578
29,01488,214297
29,01900,191838
29,02312,173070
29,02725,155286
29,03137,140459
29,03548,132681
29,03962,120103
29,04373,114571
29,04785,104637
29,05198,99962
29,05610,92567
29,06022,87970
29,06433,81630
29,06847,76636
29,07258,74650
29,07670,71202
29,08083,66283
29,08495,64231
29,08907,62376
29,09320,59398
29,09732,57041
29,10143,56101
29,10557,53256
29,10968,52445
29,11380,52344
29,11793,46447
29,12205,47343
29,12617,45328
29,13030,42774
29,13442,41806
29,13853,40803
29,14267,39876
29,14678,39289
29,15090,37650
29,15502,37161
29,15915,35643
29,16327,34149
29,16738,33364
29,17152,32209
29,17563,31699
29,17975,31169
29,18388,28690
29,18800,32465
29,19212,29557
29,19625,29345
29,20037,29023
29,20448,28684
29,20862,30196
29,21273,28917
29,21685,28063
29,22098,29853
29,22510,27377
29,22922,27676
29,23335,28587
29,23747,28215
29,24158,25965
29,24570,26021
29,24983,25714
29,25395,24664
29,25807,24383
29,26220,24744
29,26632,21942
29,27043,21508
29,27457,21764
29,27868,22239
29,28280,20762
29,28693,21167
29,29105,21581
29,29517,20078
29,29930,19105
29,30342,19566
29,30753,19272
29,31167,19621
29,31578,18381
29,31990,17963
29,32403,17801
29,32815,19693
29,33227,19201
29,33638,20896
29,34052,23854
29,34463,29629
29,34875,39370
29,35288,55808
29,35700,82338
29,36112,118033
29,36525,168757
29,36937,240335
29,37348,326257
29,37762,424883
29,38173,536948
29,38585,662596
29,38998,776435
29,39410,871301
29,39822,927043
29,40235,957631
29,40647,936014
29,41058,877912
29,41472,788198
29,41883,694364
29,42295,588866
29,42707,492771
29,43120,416124
29,43532,342056
29,43943,290332
29,44357,240600
29,44768,209244
29,45180,183583
29,45593,161842
29,46005,140982
29,46417,128893
29,46830,112672
29,47242,105520
29,47653,96586
29,48067,89267
29,48478,85109
29,48890,77431
29,49303,73146
29,49715,70417
29,50127,64868
29,50540,59679
29,50952,58235
29,51363,55132
29,51775,53739
29,52188,50574
29,52600,49738
29,53012,46310
29,53425,44582
29,53837,41734
29,54248,41654
29,54662,40218
29,55073,37263
29,55485,36384
29,55898,35903
29,56310,34427
29,56722,33420
29,57135,33046
29,57547,32341
29,57958,29984
29,58372,31120
29,58783,30872
29,59195,29289
29,59608,28747
29,60020,27278
29,60432,25487
29,60843,25945
29,61257,25152
29,61668,23973
29,62080,23947
29,62493,25842
29,62905,24121
29,63317,25016
29,63730,22727
29,64142,23763
29,64553,23511
29,64967,23025
29,65378,23191
29,65790,20799
29,66203,22353
29,66615,23225
29,67027,23788
29,67440,25832
29,67852,24387
29,68263,26969
29,68677,27150
29,69088,29287
29,69500,30809
29,69912,30749
29,70325,31629
29,70737,31792
29,71148,31473
29,71562,29959
29,71973,27435
29,72385,29033
29,72798,28677
29,73210,27166
29,73622,25248
29,74035,25190
29,74447,24384
29,74858,24435
29,75272,25277
29,75683,21832
29,76095,21577
29,76508,21344
29,76920,21930
29,77332,20872
29,77745,19383
29,78157,18421
29,78568,18871
29,78980,17948
29,79393,18773
29,79805,17017
29,80217,16108
29,80630,17866
29,81042,17318
29,81453,17945
29,81867,17669
29,82278,16253
29,82690,17253
29,83103,16718
29,83515,16481
29,83927,17661
29,84340,15911
29,84752,17602
29,85163,15805
29,85577,18721
29,85988,18746
29,86400,19727
29,86813,17155
29,87225,18838
29,87637,18570
29,88048,19567
29,88462,20378
29,88873,19978
29,89285,19900
29,89698,17361
29,90110,17959
29,90522,18196
29,90935,19109
29,91347,16563
29,91758,17606
29,92172,19343
29,92583,19328
29,92995,19834
29,93408,18133
29,93820,20769
29,94232,19502
29,94645,22210
29,95057,20942
29,95468,20538
29,95882,20769
29,96293,21976
29,96705,22795
29,97117,23724
29,97530,25795
29,97942,23831
29,98353,21893
29,98767,21696
29,99178,23258
29,99590,20892
30,00003,19055
30,00415,18973
30,00827,19591
30,01240,20167
30,01652,18107
30,02063,17337
30,02477,16949
30,02888,17862
30,03300,17421
30,03713,17218
30,04125,17109
30,04537,17652
30,04950,19756
30,05362,22471
30,05773,20619
30,06185,21334
30,06598,20604
30,07010,22139
30,07422,21261
30,07835,18705
30,08247,20822
30,08658,20142
30,09072,18276
30,09483,19421
30,09895,19494
30,10308,16809
30,10720,18672
30,11132,16706
30,11545,16434
30,11957,17160
30,12368,17426
30,12782,14882
30,13193,14632
30,13605,16438
30,14018,17055
30,14430,15835
30,14842,13919
30,15255,16432
30,15667,15732
30,16078,16146
30,16490,15457
30,16903,15047
30,17315,15868
30,17727,15179
30,18140,16248
30,18552,16514
30,18963,16349
30,19377,17250
30,19788,18632
30,20200,18513
30,20613,18681
30,21025,17493
30,21437,22241
30,21850,20976
30,22262,19158
30,22673,20090
30,23087,19621
30,23498,18955
30,23910,18825
30,24323,19703
30,24735,18789
30,25147,18455
30,25558,17281
30,25972,16147
30,26383,15257
30,26795,15970
30,27208,16360
30,27620,16185
30,28032,14860
30,28445,15595
30,28857,16043
30,29268,13586
30,29682,15815
30,30093,16552
30,30505,15138
30,30918,14422
30,31330,16581
30,31742,15881
30,32155,15166
30,32567,16008
30,32978,14859
30,33392,14823
30,33803,12987
30,34215,14882
30,34627,14059
30,35040,13500
30,35452,14457
30,35863,13576
30,36277,13168
30,36688,14646
30,37100,14048
30,37513,14638
30,37925,14210
30,38337,14099
30,38750,14300
30,39162,12991
30,39573,12990
30,39987,13852
30,40398,13929
30,40810,14053
30,41223,14549
30,41635,13537
30,42047,14280
30,42460,14071
30,42872,13737
30,43283,14125
30,43695,15646
30,44108,14008
30,44520,13597
30,44932,14549
30,45345,15020
30,45757,15603
30,46168,15346
30,46582,14548
30,46993,15439
30,47405,14650
30,47818,15597
30,48230,15536
30,48642,15764
30,49055,16950
30,49467,17365
30,49878,15347
30,50292,15831
30,50703,15685
30,51115,15847
30,51528,15499
30,51940,15481
30,52352,15561
30,52763,16168
30,53177,15572
30,53588,15584
30,54000,13834
30,54413,16663
30,54825,15816
30,55237,15851
30,55650,17802
30,56062,16060
30,56473,15932
30,56887,18330
30,57298,17783
30,57710,16092
30,58123,17894
30,58535,17275
30,58947,18391
30,59360,16653
30,59772,16365
30,60183,20397
30,60597,22093
30,61008,24299
30,61420,31842
30,61832,39967
30,62245,55895
30,62657,76906
30,63068,110299
30,63482,155776
30,63893,208868
30,64305,271073
30,64718,332211
30,65130,395872
30,65542,450612
30,65955,492697
30,66367,521360
30,66778,529964
30,67192,514098
30,67603,484142
30,68015,442272
30,68428,397466
30,68840,349439
30,69252,299005
30,69665,253054
30,70077,217677
30,70488,190498
30,70900,157490
30,71313,139364
30,71725,121110
30,72137,104220
30,72550,92119
30,72962,83100
30,73373,74484
30,73787,69206
30,74198,64152
30,74610,57836
30,75023,54948
30,75435,52387
30,75847,48818
30,76260,44722
30,76672,44879
30,77083,40772
30,77497,37890
30,77908,37214
30,78320,36007
30,78733,35131
30,79145,33694
30,79557,30436
30,79968,31723
30,80382,30502
30,80793,30979
30,81205,29834
30,81618,29118
30,82030,27667
30,82442,28119
30,82855,28116
30,83267,26253
30,83678,27009
30,84092,26812
30,84503,25252
30,84915,24214
30,85328,24087
30,85740,23341
30,86152,24642
30,86565,23848
30,86977,24915
30,87388,22939
30,87802,22769
30,88213,23400
30,88625,22005
30,89037,23323
30,89450,23328
30,89862,20287
30,90273,20235
30,90687,20111
30,91098,19532
30,91510,21438
30,91923,19560
30,92335,19969
30,92747,19268
30,93160,18985
30,93572,19871
30,93983,18991
30,94397,17684
30,94808,19576
30,95220,19027
30,95633,19531
30,96045,18963
30,96457,17537
30,96870,17574
30,97282,18149
30,97693,16712
30,98105,19867
30,98518,18488
30,98930,17027
30,99342,17940
30,99755,16003
31,00167,16808
31,00578,16561
31,00992,16935
31,01403,16971
31,01815,16911
31,02228,15990
31,02640,17097
31,03052,16040
31,03465,17081
31,03877,15731
31,04288,17097
31,04702,17147
31,05113,16086
31,05525,19018
31,05938,17311
31,06350,17552
31,06762,17464
31,07173,15758
31,07587,16963
31,07998,15840
31,08410,17241
31,08823,18504
31,09235,18483
