D:\MassHunter\GCMS\1\data\Amal\Constant flow\150C\150C_1ml-min_6C-min_2.D Fri Aug 30 14:15:41 2024
Start of data points
4,94107	694346
4,94518	656877
4,94930	634950
4,95342	607210
4,95755	573435
4,96167	549752
4,96578	524789
4,96992	507378
4,97403	487320
4,97815	467909
4,98228	446937
4,98640	432552
4,99052	413151
4,99465	399528
4,99877	387900
5,00288	364763
5,00702	354715
5,01113	347051
5,01525	329832
5,01938	320082
5,02350	308071
5,02762	299196
5,03175	287541
5,03587	280639
5,03998	271366
5,04410	260011
5,04823	251071
5,05235	247191
5,05647	240178
5,06060	235677
5,06472	226783
5,06883	217815
5,07297	213525
5,07708	210241
5,08120	204255
5,08533	199657
5,08945	193911
5,09357	191665
5,09770	191230
5,10182	185625
5,10593	181042
5,11007	177893
5,11418	176749
5,11830	173363
5,12243	167263
5,12655	166559
5,13067	163262
5,13478	163630
5,13892	160492
5,14303	151566
5,14715	151356
5,15128	149624
5,15540	149204
5,15952	165657
5,16365	189304
5,16777	245690
5,17188	356716
5,17602	509180
5,18013	694383
5,18425	889270
5,18838	1052173
5,19250	1161764
5,19662	1231514
5,20075	1254776
5,20487	1261963
5,20898	1252147
5,21312	1212874
5,21723	1183925
5,22135	1147996
5,22547	1112782
5,22960	1082993
5,23372	1039058
5,23783	1014460
5,24197	979714
5,24608	947137
5,25020	909594
5,25433	871356
5,25845	846123
5,26257	810103
5,26670	781180
5,27082	758760
5,27493	724968
5,27907	701356
5,28318	679833
5,28730	647880
5,29143	629061
5,29555	603613
5,29967	579773
5,30380	549710
5,30792	526497
5,31203	506509
5,31615	479224
5,32028	463093
5,32440	448377
5,32852	427253
5,33265	409458
5,33677	390681
5,34088	370828
5,34502	348417
5,34913	333787
5,35325	312302
5,35738	296294
5,36150	277757
5,36562	260092
5,36975	245381
5,37387	228368
5,37798	218259
5,38212	203727
5,38623	197677
5,39035	184080
5,39448	176726
5,39860	168485
5,40272	159518
5,40683	154540
5,41097	145090
5,41508	138517
5,41920	137408
5,42333	130561
5,42745	129476
5,43157	122203
5,43570	117000
5,43982	115751
5,44393	110544
5,44807	109463
5,45218	110367
5,45630	107787
5,46043	101521
5,46455	102300
5,46867	101116
5,47280	97855
5,47692	99473
5,48103	98889
5,48517	93383
5,48928	92703
5,49340	93753
5,49752	94794
5,50165	91217
5,50577	92272
5,50988	94721
5,51402	95999
5,51813	110730
5,52225	135208
5,52638	186423
5,53050	250130
5,53462	342312
5,53875	442511
5,54287	536775
5,54698	605340
5,55112	657526
5,55523	695201
5,55935	698105
5,56348	689646
5,56760	677930
5,57172	666067
5,57585	643380
5,57997	637739
5,58408	614699
5,58820	601311
5,59233	580749
5,59645	568850
5,60057	545619
5,60470	526259
5,60882	513961
5,61293	493847
5,61707	470415
5,62118	453513
5,62530	443875
5,62943	430948
5,63355	415404
5,63767	395229
5,64180	379566
5,64592	363560
5,65003	350613
5,65417	334977
5,65828	321202
5,66240	305487
5,66653	295669
5,67065	283557
5,67477	269920
5,67888	259244
5,68302	248388
5,68713	234628
5,69125	223974
5,69538	210713
5,69950	197803
5,70362	186933
5,70775	173534
5,71187	167098
5,71598	156286
5,72012	147568
5,72423	141865
5,72835	131284
5,73248	127531
5,73660	122235
5,74072	114272
5,74485	109751
5,74897	108055
5,75308	101903
5,75722	98570
5,76133	95947
5,76545	95805
5,76957	89509
5,77370	91110
5,77782	86106
5,78193	84383
5,78607	82948
5,79018	83630
5,79430	83207
5,79843	77565
5,80255	79617
5,80667	76179
5,81080	81050
5,81492	75199
5,81903	74876
5,82317	73835
5,82728	73651
5,83140	71617
5,83553	71465
5,83965	72659
5,84377	71669
5,84790	72358
5,85202	68522
5,85613	66907
5,86027	70055
5,86438	69074
5,86850	68143
5,87262	69961
5,87675	67362
5,88087	66045
5,88498	70165
5,88912	66054
5,89323	66785
5,89735	67926
5,90148	65611
5,90560	65627
5,90972	66726
5,91385	65148
5,91797	65963
5,92208	63907
5,92622	65002
5,93033	66144
5,93445	63316
5,93858	66134
5,94270	64654
5,94682	67326
5,95095	71367
5,95507	86385
5,95918	120336
5,96330	179315
5,96743	276669
5,97155	415819
5,97567	606220
5,97980	805036
5,98392	1000192
5,98803	1171770
5,99217	1294850
5,99628	1357070
6,00040	1391752
6,00453	1394796
6,00865	1376431
6,01277	1358301
6,01690	1321778
6,02102	1286991
6,02513	1243448
6,02927	1213282
6,03338	1185367
6,03750	1147226
6,04163	1114557
6,04575	1063201
6,04987	1027801
6,05398	996401
6,05812	954867
6,06223	924955
6,06635	879460
6,07048	836252
6,07460	811204
6,07872	770172
6,08285	722831
6,08697	690851
6,09108	647255
6,09522	619217
6,09933	582739
6,10345	555086
6,10758	520096
6,11170	486974
6,11582	452521
6,11995	415195
6,12407	382822
6,12818	354731
6,13232	322961
6,13643	296917
6,14055	268992
6,14467	247189
6,14880	224392
6,15292	206259
6,15703	191547
6,16117	175876
6,16528	159689
6,16940	148630
6,17353	139974
6,17765	126805
6,18177	117201
6,18590	112011
6,19002	107953
6,19413	100810
6,19827	96069
6,20238	91306
6,20650	86329
6,21063	81901
6,21475	78436
6,21887	76230
6,22300	74946
6,22712	70816
6,23123	70481
6,23535	69039
6,23948	66115
6,24360	63158
6,24772	62215
6,25185	61151
6,25597	60853
6,26008	60608
6,26422	57356
6,26833	57636
6,27245	57535
6,27658	56506
6,28070	55363
6,28482	55049
6,28895	56312
6,29307	55582
6,29718	56027
6,30132	53205
6,30543	52147
6,30955	52108
6,31368	53370
6,31780	53649
6,32192	53089
6,32603	53336
6,33017	50839
6,33428	52690
6,33840	50840
6,34253	51420
6,34665	50825
6,35077	47238
6,35490	48800
6,35902	51325
6,36313	50083
6,36727	49565
6,37138	50446
6,37550	48078
6,37963	47180
6,38375	47679
6,38787	48881
6,39200	47935
6,39612	47257
6,40023	46958
6,40437	48584
6,40848	47459
6,41260	48119
6,41672	45912
6,42085	47832
6,42497	44930
6,42908	45522
6,43322	47090
6,43733	46949
6,44145	45324
6,44558	45922
6,44970	47158
6,45382	47151
6,45795	45562
6,46207	45432
6,46618	44804
6,47032	45538
6,47443	46291
6,47855	46222
6,48268	48737
6,48680	60029
6,49092	78737
6,49505	111394
6,49917	159062
6,50328	232724
6,50740	317104
6,51153	421430
6,51565	524364
6,51977	609230
6,52390	679136
6,52802	725797
6,53213	754379
6,53627	769260
6,54038	774391
6,54450	751947
6,54863	743915
6,55275	723141
6,55687	704341
6,56100	688335
6,56512	665826
6,56923	650216
6,57337	643857
6,57748	624018
6,58160	598391
6,58573	576167
6,58985	554173
6,59397	532524
6,59808	509775
6,60222	479326
6,60633	455350
6,61045	437365
6,61458	412911
6,61870	381141
6,62282	362239
6,62695	333427
6,63107	314393
6,63518	292710
6,63932	274804
6,64343	245324
6,64755	220620
6,65168	206897
6,65580	189183
6,65992	165649
6,66405	151714
6,66817	139348
6,67228	125554
6,67642	115826
6,68053	107621
6,68465	101459
6,68877	92920
6,69290	85903
6,69702	82119
6,70113	76171
6,70527	74619
6,70938	70036
6,71350	68056
6,71763	63622
6,72175	64142
6,72587	59703
6,73000	55163
6,73412	56690
6,73823	55583
6,74237	53909
6,74648	52406
6,75060	51246
6,75473	51010
6,75885	51173
6,76297	48405
6,76710	47387
6,77122	47856
6,77533	47163
6,77945	47098
6,78358	45587
6,78770	44184
6,79182	45851
6,79595	44284
6,80007	45264
6,80418	44624
6,80832	43891
6,81243	45463
6,81655	45010
6,82068	45295
6,82480	44196
6,82892	43398
6,83305	42786
6,83717	45326
6,84128	43571
6,84542	43661
6,84953	45044
6,85365	44352
6,85778	42909
6,86190	42222
6,86602	44515
6,87013	42180
6,87427	39667
6,87838	41240
6,88250	40952
6,88663	40293
6,89075	40530
6,89487	39933
6,89900	38798
6,90312	37898
6,90723	40222
6,91137	38661
6,91548	40222
6,91960	37730
6,92373	40178
6,92785	39682
6,93197	39443
6,93610	37991
6,94022	37199
6,94433	37401
6,94847	36014
6,95258	37719
6,95670	39255
6,96082	36953
6,96495	36221
6,96907	37989
6,97318	37308
6,97732	36262
6,98143	36748
6,98555	35403
6,98968	35611
6,99380	35792
6,99792	34250
7,00205	34413
7,00617	36872
7,01028	35386
7,01442	35906
7,01853	35117
7,02265	36288
7,02678	35892
7,03090	35044
7,03502	34980
7,03915	36229
7,04327	34790
7,04738	35646
7,05150	35836
7,05563	35758
7,05975	35724
7,06387	36350
7,06800	35041
7,07212	36001
7,07623	33536
7,08037	35983
7,08448	35634
7,08860	35347
7,09273	35140
7,09685	36769
7,10097	40986
7,10510	53782
7,10922	74521
7,11333	116459
7,11747	186694
7,12158	294153
7,12570	447224
7,12983	639298
7,13395	857373
7,13807	1070832
7,14218	1264317
7,14632	1420547
7,15043	1550183
7,15455	1618087
7,15868	1647504
7,16280	1659899
7,16692	1650355
7,17105	1638254
7,17517	1597560
7,17928	1571487
7,18342	1539132
7,18753	1490847
7,19165	1461112
7,19578	1410074
7,19990	1364198
7,20402	1303488
7,20815	1255117
7,21227	1199496
7,21638	1130053
7,22052	1062847
7,22463	999226
7,22875	921500
7,23287	863867
7,23700	788680
7,24112	712442
7,24523	653156
7,24937	585131
7,25348	521818
7,25760	464588
7,26173	407585
7,26585	362563
7,26997	319774
7,27410	281887
7,27822	249318
7,28233	219600
7,28647	200206
7,29058	171724
7,29470	153497
7,29883	139001
7,30295	128640
7,30707	115188
7,31120	103640
7,31532	93157
7,31943	88411
7,32355	84559
7,32768	75920
7,33180	73360
7,33592	66811
7,34005	65285
7,34417	61632
7,34828	58094
7,35242	56526
7,35653	55836
7,36065	53299
7,36478	51126
7,36890	49845
7,37302	46421
7,37715	47440
7,38127	45923
7,38538	45941
7,38952	41159
7,39363	46311
7,39775	46803
7,40188	44740
7,40600	41739
7,41012	42693
7,41425	44770
7,41837	44621
7,42248	44468
7,42660	44370
7,43073	43417
7,43485	43048
7,43897	44594
7,44310	42935
7,44722	42488
7,45133	42760
7,45547	41853
7,45958	41385
7,46370	42952
7,46783	40785
7,47195	42987
7,47607	43851
7,48020	42083
7,48432	43369
7,48843	39856
7,49257	40930
7,49668	40558
7,50080	40447
7,50493	40652
7,50905	41274
7,51317	39728
7,51728	39333
7,52142	38485
7,52553	38030
7,52965	36846
7,53378	38035
7,53790	37876
7,54202	37471
7,54615	34469
7,55027	34579
7,55438	36656
7,55852	36063
7,56263	34463
7,56675	34258
7,57088	32387
7,57500	33018
7,57912	34141
7,58325	34850
7,58737	37240
7,59148	37204
7,59562	39211
7,59973	38343
7,60385	38981
7,60797	41226
7,61210	40234
7,61622	41869
7,62033	40967
7,62447	41253
7,62858	41504
7,63270	41509
7,63683	43989
7,64095	47191
7,64507	54560
7,64920	70056
7,65332	95534
7,65743	139597
7,66157	198951
7,66568	274204
7,66980	359162
7,67393	458676
7,67805	562815
7,68217	657756
7,68630	735635
7,69042	790213
7,69453	827268
7,69865	853152
7,70278	854342
7,70690	851564
7,71102	837587
7,71515	828134
7,71927	803725
7,72338	783719
7,72752	761292
7,73163	733235
7,73575	703611
7,73988	666945
7,74400	628453
7,74812	598596
7,75225	560192
7,75637	519293
7,76048	489863
7,76462	447904
7,76873	406698
7,77285	360265
7,77698	330771
7,78110	290941
7,78522	266010
7,78933	232432
7,79347	204644
7,79758	186178
7,80170	165724
7,80583	146394
7,80995	142229
7,81407	136453
7,81820	149304
7,82232	177806
7,82643	222924
7,83057	289450
7,83468	382366
7,83880	484644
7,84293	594336
7,84705	707383
7,85117	794709
7,85530	855806
7,85942	909025
7,86353	940800
7,86767	951418
7,87178	953828
7,87590	944559
7,88002	933759
7,88415	921070
7,88827	893115
7,89238	878632
7,89652	840662
7,90063	821625
7,90475	782189
7,90888	741087
7,91300	699874
7,91712	656180
7,92125	603077
7,92537	551494
7,92948	500310
7,93362	450808
7,93773	400284
7,94185	355139
7,94598	320382
7,95010	280640
7,95422	244527
7,95835	214521
7,96247	193569
7,96658	164596
7,97070	150929
7,97483	129117
7,97895	116768
7,98307	103632
7,98720	97226
7,99132	86199
7,99543	78374
7,99957	72705
8,00368	63916
8,00780	64006
8,01193	60438
8,01605	56336
8,02017	54827
8,02430	49785
8,02842	48077
8,03253	46562
8,03667	45595
8,04078	42798
8,04490	41916
8,04903	41803
8,05315	40169
8,05727	40071
8,06138	37966
8,06552	37393
8,06963	35768
8,07375	36503
8,07788	33739
8,08200	34536
8,08612	33200
8,09025	34025
8,09437	32141
8,09848	33327
8,10262	33433
8,10673	31912
8,11085	30399
8,11498	31247
8,11910	30538
8,12322	29852
8,12735	29494
8,13147	30305
8,13558	28150
8,13972	28753
8,14383	28589
8,14795	27056
8,15207	29202
8,15620	28464
8,16032	26637
8,16443	27611
8,16857	26542
8,17268	28132
8,17680	26880
8,18093	27641
8,18505	26528
8,18917	26622
8,19330	26780
8,19742	28737
8,20153	25391
8,20567	25535
8,20978	24954
8,21390	26233
8,21803	24224
8,22215	25472
8,22627	25418
8,23040	24571
8,23452	26260
8,23863	26025
8,24275	24761
8,24688	24861
8,25100	25122
8,25512	26638
8,25925	24135
8,26337	22904
8,26748	24734
8,27162	23253
8,27573	22654
8,27985	24749
8,28398	23935
8,28810	25642
8,29222	25066
8,29635	22794
8,30047	23345
8,30458	22882
8,30872	23474
8,31283	24153
8,31695	24710
8,32108	22850
8,32520	23972
8,32932	23949
8,33343	23483
8,33757	22485
8,34168	23409
8,34580	23189
8,34993	23232
8,35405	23953
8,35817	22582
8,36230	23612
8,36642	23578
8,37053	23988
8,37467	23219
8,37878	22047
8,38290	24876
8,38703	23229
8,39115	25127
8,39527	23863
8,39940	25897
8,40352	32342
8,40763	40525
8,41177	58373
8,41588	87473
8,42000	132651
8,42412	197498
8,42825	276856
8,43237	380437
8,43648	483728
8,44062	595413
8,44473	695855
8,44885	806676
8,45298	864792
8,45710	918437
8,46122	955758
8,46535	968767
8,46947	972913
8,47358	977348
8,47772	953350
8,48183	931569
8,48595	900708
8,49008	864334
8,49420	828375
8,49832	774443
8,50245	722427
8,50657	662574
8,51068	613184
8,51480	563677
8,51893	503616
8,52305	447281
8,52717	396163
8,53130	339697
8,53542	306735
8,53953	263707
8,54367	229767
8,54778	201408
8,55190	175276
8,55603	153503
8,56015	135810
8,56427	118708
8,56840	108760
8,57252	98370
8,57663	88954
8,58077	92382
8,58488	106091
8,58900	139683
8,59313	198724
8,59725	298647
8,60137	453843
8,60548	666108
8,60962	947602
8,61373	1281791
8,61785	1646475
8,62198	2036978
8,62610	2391565
8,63022	2696131
8,63435	2917635
8,63847	3089820
8,64258	3205662
8,64672	3246993
8,65083	3277561
8,65495	3250045
8,65908	3172101
8,66320	3076453
8,66732	2986092
8,67145	2835485
8,67557	2691916
8,67968	2509300
8,68382	2298282
8,68793	2093412
8,69205	1888299
8,69617	1684153
8,70030	1487568
8,70442	1282874
8,70853	1106993
8,71267	939915
8,71678	805983
8,72090	688520
8,72503	590233
8,72915	505970
8,73327	436008
8,73740	373968
8,74152	327474
8,74563	285593
8,74977	256359
8,75388	219419
8,75800	197320
8,76213	173567
8,76625	157163
8,77037	141707
8,77450	133613
8,77862	122283
8,78273	112744
8,78685	102115
8,79098	98290
8,79510	89661
8,79922	85988
8,80335	82747
8,80747	78595
8,81158	73652
8,81572	69161
8,81983	68027
8,82395	63536
8,82808	63367
8,83220	57695
8,83632	57596
8,84045	52912
8,84457	52651
8,84868	49598
8,85282	48258
8,85693	48561
8,86105	46261
8,86518	46737
8,86930	45438
8,87342	42999
8,87753	42981
8,88167	41320
8,88578	39752
8,88990	39493
8,89403	36844
8,89815	36485
8,90227	36572
8,90640	36545
8,91052	36134
8,91463	33628
8,91877	35998
8,92288	32816
8,92700	35071
8,93113	30722
8,93525	32758
8,93937	31504
8,94350	33022
8,94762	32127
8,95173	31210
8,95587	31609
8,95998	30588
8,96410	31293
8,96822	30064
8,97235	32363
8,97647	28062
8,98058	30067
8,98472	31373
8,98883	30446
8,99295	28618
8,99708	28505
9,00120	29754
9,00532	28845
9,00945	28659
9,01357	29149
9,01768	28647
9,02182	29064
9,02593	28421
9,03005	26489
9,03418	26682
9,03830	25435
9,04242	27219
9,04655	25988
9,05067	25236
9,05478	27253
9,05892	25579
9,06303	26167
9,06715	25856
9,07127	26719
9,07540	25378
9,07952	26056
9,08363	25457
9,08777	25683
9,09188	25209
9,09600	25315
9,10013	27167
9,10425	25627
9,10837	28117
9,11250	32581
9,11662	43720
9,12073	62021
9,12487	89728
9,12898	132987
9,13310	198336
9,13723	280463
9,14135	387240
9,14547	504336
9,14960	626433
9,15372	738239
9,15783	853438
9,16195	937034
9,16608	1009891
9,17020	1055042
9,17432	1085646
9,17845	1099508
9,18257	1090058
9,18668	1066203
9,19082	1037753
9,19493	992595
9,19905	929188
9,20318	864080
9,20730	795749
9,21142	725526
9,21555	649464
9,21967	566439
9,22378	504314
9,22792	436218
9,23203	379126
9,23615	327375
9,24028	275597
9,24440	239694
9,24852	211853
9,25263	181778
9,25677	161383
9,26088	145174
9,26500	124767
9,26913	114028
9,27325	104261
9,27737	95987
9,28150	84718
9,28562	78867
9,28973	76665
9,29387	70445
9,29798	65524
9,30210	59864
9,30623	56869
9,31035	53389
9,31447	51762
9,31860	53035
9,32272	49673
9,32683	45875
9,33097	43088
9,33508	39734
9,33920	38744
9,34332	38491
9,34745	36453
9,35157	35573
9,35568	34198
9,35982	34587
9,36393	31969
9,36805	31923
9,37218	29705
9,37630	30199
9,38042	28557
9,38455	27379
9,38867	28906
9,39278	26905
9,39692	28691
9,40103	30082
9,40515	30594
9,40928	33176
9,41340	40684
9,41752	51450
9,42165	71572
9,42577	109321
9,42988	170264
9,43400	248282
9,43813	350347
9,44225	477645
9,44637	612406
9,45050	746076
9,45462	892704
9,45873	1021920
9,46287	1109121
9,46698	1165720
9,47110	1210586
9,47523	1238183
9,47935	1243104
9,48347	1232056
9,48760	1200195
9,49172	1142699
9,49583	1076817
9,49997	988814
9,50408	899948
9,50820	811269
9,51233	728460
9,51645	642869
9,52057	561096
9,52468	483640
9,52882	417576
9,53293	359824
9,53705	305484
9,54118	257822
9,54530	223926
9,54942	194394
9,55355	167753
9,55767	151289
9,56178	134207
9,56592	115507
9,57003	105555
9,57415	94502
9,57828	89292
9,58240	78845
9,58652	74444
9,59065	67042
9,59477	61984
9,59888	62164
9,60302	53311
9,60713	53863
9,61125	48784
9,61537	46505
9,61950	48064
9,62362	43959
9,62773	41202
9,63187	39207
9,63598	39437
9,64010	38625
9,64423	36752
9,64835	35805
9,65247	35545
9,65660	33849
9,66072	33315
9,66483	32894
9,66897	31153
9,67308	29701
9,67720	30543
9,68133	28712
9,68545	30053
9,68957	27882
9,69370	28021
9,69782	28557
9,70193	27971
9,70605	27272
9,71018	26465
9,71430	25727
9,71842	24795
9,72255	24664
9,72667	25623
9,73078	25240
9,73492	24373
9,73903	25024
9,74315	25045
9,74728	24044
9,75140	23010
9,75552	24029
9,75965	22759
9,76377	23595
9,76788	22175
9,77202	22171
9,77613	23083
9,78025	22575
9,78438	22036
9,78850	21583
9,79262	22025
9,79673	23547
9,80087	21761
9,80498	20312
9,80910	21380
9,81323	22200
9,81735	21417
9,82147	20372
9,82560	20289
9,82972	20202
9,83383	19431
9,83797	19987
9,84208	20563
9,84620	21266
9,85033	19248
9,85445	21116
9,85857	20529
9,86270	21794
9,86682	20266
9,87093	20191
9,87507	19543
9,87918	19114
9,88330	18781
9,88742	19338
9,89155	19900
9,89567	20027
9,89978	19972
9,90392	19253
9,90803	19944
9,91215	19342
9,91628	19338
9,92040	20139
9,92452	19918
9,92865	19181
9,93277	19196
9,93688	18392
9,94102	19759
9,94513	19952
9,94925	20968
9,95338	19678
9,95750	21526
9,96162	25376
9,96575	30681
9,96987	38540
9,97398	58774
9,97810	89283
9,98223	131565
9,98635	198167
9,99047	288872
9,99460	394113
9,99872	530122
10,00283	664151
10,00697	818571
10,01108	940861
10,01520	1058005
10,01933	1161180
10,02345	1224353
10,02757	1271009
10,03170	1287786
10,03582	1271706
10,03993	1229583
10,04407	1177338
10,04818	1087065
10,05230	990905
10,05643	906553
10,06055	800936
10,06467	708508
10,06878	616565
10,07292	530179
10,07703	453122
10,08115	393386
10,08528	327102
10,08940	286517
10,09352	243721
10,09765	212140
10,10177	185422
10,10588	158346
10,11002	141437
10,11413	124844
10,11825	112248
10,12238	100290
10,12650	92549
10,13062	82395
10,13475	78689
10,13887	73272
10,14298	64988
10,14712	62207
10,15123	57328
10,15535	55064
10,15947	53481
10,16360	50562
10,16772	47850
10,17183	46229
10,17597	42369
10,18008	42557
10,18420	41426
10,18833	36848
10,19245	39389
10,19657	35212
10,20070	33832
10,20482	34019
10,20893	32214
10,21307	31955
10,21718	30195
10,22130	29359
10,22543	28295
10,22955	28183
10,23367	28671
10,23780	29061
10,24192	27155
10,24603	26276
10,25015	25309
10,25428	24310
10,25840	28187
10,26252	25138
10,26665	27806
10,27077	29045
10,27488	33222
10,27902	47309
10,28313	71767
10,28725	118471
10,29138	189349
10,29550	303447
10,29962	459838
10,30375	666200
10,30787	927220
10,31198	1219827
10,31612	1554335
10,32023	1890624
10,32435	2187899
10,32848	2458880
10,33260	2672367
10,33672	2816459
10,34083	2900601
10,34497	2893538
10,34908	2800269
10,35320	2690458
10,35733	2518864
10,36145	2291881
10,36557	2052524
10,36970	1806529
10,37382	1581134
10,37793	1359980
10,38207	1165440
10,38618	979883
10,39030	827065
10,39443	696655
10,39855	591451
10,40267	504021
10,40680	433683
10,41092	377224
10,41503	325828
10,41917	290461
10,42328	255452
10,42740	225636
10,43152	206333
10,43565	189452
10,43977	175963
10,44388	156292
10,44802	143880
10,45213	131129
10,45625	120403
10,46038	114468
10,46450	104693
10,46862	99766
10,47275	94849
10,47687	88178
10,48098	82847
10,48512	78791
10,48923	71653
10,49335	69591
10,49748	65894
10,50160	62798
10,50572	58309
10,50985	56710
10,51397	54547
10,51808	53188
10,52220	51078
10,52633	49832
10,53045	47781
10,53457	45177
10,53870	45113
10,54282	43018
10,54693	41886
10,55107	41871
10,55518	41412
10,55930	40478
10,56343	38493
10,56755	39099
10,57167	37248
10,57580	36261
10,57992	36457
10,58403	34603
10,58817	35947
10,59228	33383
10,59640	37153
10,60053	38170
10,60465	45825
10,60877	54854
10,61288	78339
10,61702	114699
10,62113	170475
10,62525	248211
10,62938	357206
10,63350	493431
10,63762	644199
10,64175	811690
10,64587	971846
10,64998	1113835
10,65412	1240703
10,65823	1324999
10,66235	1390686
10,66648	1418637
10,67060	1392979
10,67472	1360417
10,67885	1273959
10,68297	1189185
10,68708	1078806
10,69122	959309
10,69533	842331
10,69945	737141
10,70358	632425
10,70770	538646
10,71182	461008
10,71593	392853
10,72007	337580
10,72418	292023
10,72830	248261
10,73243	216064
10,73655	188485
10,74067	165829
10,74480	147152
10,74892	131576
10,75303	120796
10,75717	108755
10,76128	100785
10,76540	98081
10,76953	97264
10,77365	101989
10,77777	124247
10,78190	165965
10,78602	224591
10,79013	328322
10,79427	484567
10,79838	682727
10,80250	941358
10,80662	1230216
10,81075	1547849
10,81487	1886765
10,81898	2216559
10,82312	2513580
10,82723	2703182
10,83135	2839655
10,83548	2893602
10,83960	2902099
10,84372	2801955
10,84785	2631806
10,85197	2421398
10,85608	2167903
10,86022	1913141
10,86433	1679083
10,86845	1441285
10,87258	1233995
10,87670	1038973
10,88082	874089
10,88495	751842
10,88907	641660
10,89318	543755
10,89730	464617
10,90143	405522
10,90555	350672
10,90967	304893
10,91380	270296
10,91792	241956
10,92203	219548
10,92617	191684
10,93028	177339
10,93440	164668
10,93853	147945
10,94265	138498
10,94677	125948
10,95090	115098
10,95502	112465
10,95913	102769
10,96327	97128
10,96738	93998
10,97150	84045
10,97563	80004
10,97975	76787
10,98387	76528
10,98798	72528
10,99212	69839
10,99623	67344
11,00035	63524
11,00448	59329
11,00860	57695
11,01272	56826
11,01685	54284
11,02097	51533
11,02508	47716
11,02922	48394
11,03333	47303
11,03745	47802
11,04158	45102
11,04570	43517
11,04982	42470
11,05395	40610
11,05807	41159
11,06218	40524
11,06632	37868
11,07043	36885
11,07455	36312
11,07867	34214
11,08280	33646
11,08692	33791
11,09103	34933
11,09517	32333
11,09928	31391
11,10340	32811
11,10753	30304
11,11165	32388
11,11577	30987
11,11990	30182
11,12402	28673
11,12813	32488
11,13227	35165
11,13638	42918
11,14050	52583
11,14463	73898
11,14875	111293
11,15287	167699
11,15700	254221
11,16112	367809
11,16523	516558
11,16935	698476
11,17348	909356
11,17760	1139024
11,18172	1395452
11,18585	1686325
11,18997	1969117
11,19408	2258709
11,19822	2577352
11,20233	2886441
11,20645	3174977
11,21058	3410048
11,21470	3571794
11,21882	3681356
11,22295	3689548
11,22707	3623972
11,23118	3490365
11,23532	3248956
11,23943	2993459
11,24355	2671824
11,24768	2328587
11,25180	2018794
11,25592	1723007
11,26003	1449212
11,26417	1206825
11,26828	1033772
11,27240	874366
11,27653	747808
11,28065	638069
11,28477	548773
11,28890	481065
11,29302	417693
11,29713	368039
11,30127	333807
11,30538	295368
11,30950	269940
11,31363	238556
11,31775	216432
11,32187	199140
11,32600	183905
11,33012	168666
11,33423	158635
11,33837	146707
11,34248	138984
11,34660	128738
11,35072	120349
11,35485	114434
11,35897	107141
11,36308	102237
11,36722	99536
11,37133	92696
11,37545	87730
11,37958	85772
11,38370	84056
11,38782	82447
11,39195	76542
11,39607	75099
11,40018	72019
11,40432	70096
11,40843	68257
11,41255	65688
11,41668	63189
11,42080	62544
11,42492	58596
11,42905	57636
11,43317	56407
11,43728	54604
11,44140	51791
11,44553	50944
11,44965	51203
11,45377	47861
11,45790	48609
11,46202	46181
11,46613	47126
11,47027	44752
11,47438	43747
11,47850	42799
11,48263	42469
11,48675	39167
11,49087	40204
11,49500	37567
11,49912	40184
11,50323	38141
11,50737	37736
11,51148	34917
11,51560	35940
11,51973	37850
11,52385	41571
11,52797	46824
11,53208	59632
11,53622	85414
11,54033	124442
11,54445	179485
11,54858	259768
11,55270	366314
11,55682	498250
11,56095	654700
11,56507	814324
11,56918	972513
11,57332	1116023
11,57743	1236895
11,58155	1316579
11,58568	1352006
11,58980	1326870
11,59392	1288203
11,59805	1209707
11,60217	1099197
11,60628	986202
11,61042	864569
11,61453	761507
11,61865	647199
11,62277	551780
11,62690	471119
11,63102	403331
11,63513	340172
11,63927	289240
11,64338	252217
11,64750	215985
11,65163	191828
11,65575	170641
11,65987	147645
11,66400	133456
11,66812	122705
11,67223	113567
11,67637	97970
11,68048	92745
11,68460	88446
11,68873	84350
11,69285	77553
11,69697	74233
11,70110	70493
11,70522	67407
11,70933	65292
11,71345	59044
11,71758	57510
11,72170	53994
11,72582	51742
11,72995	49267
11,73407	49779
11,73818	44219
11,74232	43931
11,74643	43756
11,75055	41914
11,75468	40334
11,75880	41346
11,76292	40424
11,76705	37478
11,77117	37278
11,77528	35294
11,77942	32757
11,78353	33519
11,78765	33554
11,79178	33085
11,79590	33347
11,80002	31906
11,80413	31235
11,80827	29901
11,81238	29249
11,81650	26539
11,82063	29015
11,82475	29514
11,82887	27172
11,83300	25695
11,83712	27396
11,84123	28131
11,84537	26271
11,84948	25790
11,85360	25723
11,85773	26006
11,86185	24312
11,86597	25618
11,87010	25292
11,87422	23388
11,87833	25271
11,88247	25155
11,88658	24470
11,89070	23847
11,89482	25312
11,89895	24759
11,90307	22557
11,90718	23191
11,91132	22152
11,91543	21914
11,91955	23264
11,92368	23141
11,92780	21579
11,93192	21738
11,93605	21502
11,94017	21482
11,94428	23050
11,94842	22254
11,95253	20684
11,95665	19124
11,96078	21722
11,96490	22423
11,96902	20463
11,97315	22002
11,97727	21847
11,98138	21782
11,98550	21253
11,98963	20907
11,99375	20365
11,99787	20846
12,00200	21219
12,00612	20664
12,01023	20006
12,01437	19594
12,01848	19839
12,02260	20775
12,02673	20291
12,03085	19164
12,03497	20156
12,03910	19652
12,04322	19469
12,04733	22428
12,05147	26273
12,05558	32246
12,05970	47330
12,06383	74620
12,06795	124404
12,07207	214912
12,07618	344412
12,08032	536524
12,08443	804919
12,08855	1171178
12,09268	1607845
12,09680	2130570
12,10092	2677877
12,10505	3247457
12,10917	3746448
12,11328	4127235
12,11742	4366973
12,12153	4452912
12,12565	4359851
12,12978	4153313
12,13390	3777039
12,13802	3388544
12,14215	2974991
12,14627	2597123
12,15038	2210191
12,15452	1870122
12,15863	1583273
12,16275	1334487
12,16687	1131851
12,17100	957112
12,17512	812224
12,17923	704983
12,18337	613032
12,18748	538472
12,19160	473487
12,19573	417313
12,19985	374652
12,20397	331843
12,20810	308222
12,21222	273385
12,21633	254170
12,22047	229780
12,22458	209491
12,22870	195805
12,23283	183412
12,23695	167616
12,24107	159661
12,24520	150289
12,24932	141201
12,25343	130731
12,25755	122726
12,26168	119166
12,26580	114984
12,26992	105163
12,27405	99930
12,27817	97724
12,28228	93102
12,28642	90573
12,29053	86051
12,29465	82603
12,29878	78952
12,30290	76987
12,30702	74568
12,31115	70546
12,31527	70051
12,31938	67514
12,32352	65660
12,32763	61523
12,33175	59675
12,33588	59740
12,34000	57770
12,34412	59156
12,34825	55001
12,35237	58800
12,35648	58270
12,36060	58584
12,36473	59389
12,36885	57199
12,37297	61135
12,37710	54817
12,38122	60469
12,38533	57215
12,38947	60028
12,39358	57562
12,39770	58573
12,40183	55867
12,40595	59540
12,41007	63409
12,41420	75548
12,41832	94303
12,42243	127510
12,42657	180611
12,43068	256741
12,43480	359401
12,43893	483193
12,44305	628444
12,44717	782448
12,45128	917582
12,45542	1042311
12,45953	1136831
12,46365	1221426
12,46778	1228589
12,47190	1206996
12,47602	1140400
12,48015	1046070
12,48427	957086
12,48838	843935
12,49252	733309
12,49663	637945
12,50075	535418
12,50488	453940
12,50900	393042
12,51312	332640
12,51725	286526
12,52137	245106
12,52548	214407
12,52962	187251
12,53373	165252
12,53785	151611
12,54197	135596
12,54610	125636
12,55022	118939
12,55433	118449
12,55847	127527
12,56258	144401
12,56670	178909
12,57083	240206
12,57495	323395
12,57907	446267
12,58320	600278
12,58732	778747
12,59143	965518
12,59557	1146515
12,59968	1318668
12,60380	1432987
12,60793	1520235
12,61205	1544939
12,61617	1512128
12,62030	1420997
12,62442	1314999
12,62853	1173882
12,63265	1035763
12,63678	885739
12,64090	771905
12,64502	659786
12,64915	561683
12,65327	487390
12,65738	414421
12,66152	362420
12,66563	320147
12,66975	280891
12,67388	252949
12,67800	225471
12,68212	204092
12,68625	185539
12,69037	169190
12,69448	156813
12,69862	143391
12,70273	132098
12,70685	123231
12,71098	111633
12,71510	108635
12,71922	99912
12,72333	94145
12,72747	90254
12,73158	86950
12,73570	81949
12,73983	76024
12,74395	73665
12,74807	72426
12,75220	66260
12,75632	64206
12,76043	62979
12,76457	58514
12,76868	56865
12,77280	58933
12,77693	53954
12,78105	52961
12,78517	50526
12,78930	49129
12,79342	48588
12,79753	48941
12,80167	44830
12,80578	43295
12,80990	44479
12,81402	43215
12,81815	42410
12,82227	41768
12,82638	40254
12,83052	38982
12,83463	39204
12,83875	38019
12,84288	37901
12,84700	37751
12,85112	36722
12,85525	35484
12,85937	34584
12,86348	32184
12,86762	34184
12,87173	33540
12,87585	32748
12,87998	32495
12,88410	32500
12,88822	31201
12,89235	29960
12,89647	30343
12,90058	30453
12,90470	29729
12,90883	31662
12,91295	30407
12,91707	27732
12,92120	27825
12,92532	27929
12,92943	28168
12,93357	28791
12,93768	28201
12,94180	29106
12,94593	32303
12,95005	38575
12,95417	53695
12,95830	72784
12,96242	108228
12,96653	164149
12,97067	245719
12,97478	359313
12,97890	515082
12,98303	697303
12,98715	911745
12,99127	1134860
12,99538	1324942
12,99952	1465434
13,00363	1564974
13,00775	1592307
13,01188	1542198
13,01600	1427326
13,02012	1322720
13,02425	1163157
13,02837	1016333
13,03248	868304
13,03662	749686
13,04073	643525
13,04485	547176
13,04898	479851
13,05310	417989
13,05722	364900
13,06135	320267
13,06547	280265
13,06958	254462
13,07372	228505
13,07783	208373
13,08195	184591
13,08607	172309
13,09020	156200
13,09432	144520
13,09843	137382
13,10257	127207
13,10668	118601
13,11080	110073
13,11493	103109
13,11905	98749
13,12317	93331
13,12730	89848
13,13142	85633
13,13553	82221
13,13967	77899
13,14378	76555
13,14790	72225
13,15203	70416
13,15615	69039
13,16027	65626
13,16440	64118
13,16852	62291
13,17263	59113
13,17675	57826
13,18088	55174
13,18500	53014
13,18912	55485
13,19325	53453
13,19737	52004
13,20148	49492
13,20562	49404
13,20973	48291
13,21385	45412
13,21798	43498
13,22210	44740
13,22622	40834
13,23035	42547
13,23447	39620
13,23858	40780
13,24272	38910
13,24683	37981
13,25095	37193
13,25508	37429
13,25920	37478
13,26332	37085
13,26743	35435
13,27157	35545
13,27568	36209
13,27980	34703
13,28393	34972
13,28805	32691
13,29217	33821
13,29630	33083
13,30042	33178
13,30453	34375
13,30867	40015
13,31278	45616
13,31690	58445
13,32103	79894
13,32515	115085
13,32927	174905
13,33340	258929
13,33752	369039
13,34163	505335
13,34577	675321
13,34988	857656
13,35400	1031957
13,35812	1188878
13,36225	1287247
13,36637	1353101
13,37048	1362725
13,37462	1316651
13,37873	1234949
13,38285	1126965
13,38698	1000800
13,39110	884999
13,39522	759190
13,39935	651576
13,40347	552497
13,40758	481264
13,41172	411911
13,41583	358626
13,41995	311427
13,42408	271849
13,42820	239216
13,43232	212962
13,43645	193242
13,44057	174150
13,44468	156195
13,44880	144484
13,45293	133150
13,45705	123996
13,46117	111663
13,46530	105431
13,46942	97483
13,47353	92413
13,47767	88404
13,48178	81852
13,48590	78159
13,49003	72701
13,49415	69409
13,49827	64794
13,50240	64732
13,50652	58771
13,51063	61994
13,51477	57926
13,51888	54033
13,52300	54497
13,52713	53248
13,53125	48773
13,53537	50682
13,53948	48928
13,54362	47167
13,54773	47620
13,55185	45420
13,55598	44448
13,56010	44885
13,56422	43059
13,56835	39152
13,57247	40300
13,57658	40175
13,58072	39467
13,58483	38347
13,58895	37010
13,59308	37527
13,59720	36481
13,60132	35215
13,60545	36299
13,60957	36326
13,61368	33546
13,61782	34377
13,62193	33330
13,62605	32858
13,63017	32083
13,63430	32845
13,63842	32960
13,64253	31436
13,64667	32679
13,65078	30526
13,65490	28155
13,65903	29750
13,66315	28570
13,66727	29051
13,67140	29442
13,67552	29292
13,67963	28756
13,68377	28984
13,68788	27353
13,69200	27740
13,69613	27425
13,70025	28869
13,70437	28349
13,70850	27126
13,71262	28656
13,71673	29415
13,72085	28612
13,72498	28615
13,72910	28653
13,73322	30105
13,73735	27835
13,74147	29256
13,74558	28664
13,74972	28321
13,75383	28834
13,75795	29434
13,76208	28897
13,76620	27988
13,77032	29194
13,77445	26079
13,77857	27843
13,78268	26964
13,78682	27170
13,79093	26596
13,79505	28116
13,79918	27938
13,80330	25875
13,80742	27120
13,81153	26175
13,81567	25208
13,81978	27672
13,82390	29962
13,82803	36715
13,83215	46057
13,83627	66027
13,84040	93960
13,84452	145074
13,84863	234518
13,85277	362650
13,85688	558101
13,86100	812776
13,86513	1147395
13,86925	1570665
13,87337	2075635
13,87750	2610424
13,88162	3163874
13,88573	3642611
13,88987	4012275
13,89398	4233645
13,89810	4274414
13,90222	4138175
13,90635	3866795
13,91047	3537277
13,91458	3138749
13,91872	2771875
13,92283	2402893
13,92695	2066674
13,93108	1777244
13,93520	1520775
13,93932	1298000
13,94345	1132250
13,94757	970980
13,95168	843518
13,95582	746439
13,95993	657421
13,96405	587574
13,96818	532155
13,97230	478632
13,97642	437524
13,98055	387972
13,98467	361383
13,98878	326057
13,99292	304768
13,99703	284542
14,00115	264198
14,00527	245817
14,00940	234390
14,01352	217898
14,01763	206253
14,02177	191634
14,02588	185162
14,03000	173925
14,03413	166414
14,03825	158788
14,04237	147428
14,04650	141552
14,05062	137213
14,05473	131793
14,05887	129688
14,06298	120713
14,06710	118804
14,07123	113045
14,07535	108768
14,07947	107498
14,08360	100640
14,08772	99853
14,09183	97512
14,09595	92097
14,10008	91201
14,10420	85765
14,10832	86459
14,11245	81604
14,11657	81954
14,12068	77421
14,12482	76075
14,12893	72749
14,13305	72101
14,13718	71302
14,14130	67640
14,14542	68618
14,14955	66269
14,15367	65002
14,15778	62772
14,16192	62764
14,16603	62753
14,17015	59170
14,17428	62508
14,17840	64286
14,18252	71630
14,18663	78425
14,19077	98118
14,19488	130226
14,19900	171870
14,20313	246717
14,20725	347254
14,21137	467396
14,21550	614744
14,21962	779558
14,22373	935432
14,22787	1087262
14,23198	1179476
14,23610	1260421
14,24023	1267921
14,24435	1242189
14,24847	1163090
14,25260	1082875
14,25672	989411
14,26083	901498
14,26497	821817
14,26908	768778
14,27320	751025
14,27732	762263
14,28145	821235
14,28557	898305
14,28968	1001289
14,29382	1104369
14,29793	1210300
14,30205	1287674
14,30618	1344076
14,31030	1335660
14,31442	1316139
14,31855	1252473
14,32267	1179118
14,32678	1116050
14,33092	1056307
14,33503	1016697
14,33915	1018246
14,34328	1045038
14,34740	1139747
14,35152	1241047
14,35565	1369147
14,35977	1498712
14,36388	1600366
14,36800	1650488
14,37213	1663783
14,37625	1614626
14,38037	1513621
14,38450	1378018
14,38862	1244493
14,39273	1108253
14,39687	970479
14,40098	848773
14,40510	747335
14,40923	662262
14,41335	581119
14,41747	509596
14,42160	454886
14,42572	414583
14,42983	376015
14,43397	341133
14,43808	305081
14,44220	288837
14,44633	263887
14,45045	245894
14,45457	227849
14,45868	215823
14,46282	202984
14,46693	189302
14,47105	179572
14,47518	173081
14,47930	164061
14,48342	154317
14,48755	146899
14,49167	139807
14,49578	133131
14,49992	124137
14,50403	120626
14,50815	116393
14,51228	113133
14,51640	109217
14,52052	106005
14,52465	99006
14,52877	100037
14,53288	91675
14,53702	91255
14,54113	90478
14,54525	85351
14,54937	82974
14,55350	81156
14,55762	78290
14,56173	74486
14,56587	74130
14,56998	69973
14,57410	71477
14,57823	67490
14,58235	70011
14,58647	67500
14,59060	64968
14,59472	62063
14,59883	63347
14,60297	62941
14,60708	60819
14,61120	59144
14,61533	58582
14,61945	57697
14,62357	56201
14,62770	55428
14,63182	55062
14,63593	54982
14,64005	54191
14,64418	52926
14,64830	51598
14,65242	53208
14,65655	50985
14,66067	48876
14,66478	50197
14,66892	48721
14,67303	47138
14,67715	49832
14,68128	48502
14,68540	49193
14,68952	52332
14,69365	55570
14,69777	60363
14,70188	76660
14,70602	101764
14,71013	135591
14,71425	189232
14,71838	273097
14,72250	378443
14,72662	513881
14,73073	692889
14,73487	885135
14,73898	1068537
14,74310	1243248
14,74723	1373120
14,75135	1430611
14,75547	1428843
14,75960	1371464
14,76372	1272481
14,76783	1151469
14,77197	1031191
14,77608	898599
14,78020	793527
14,78433	697141
14,78845	616438
14,79257	544195
14,79670	490811
14,80082	433019
14,80493	394400
14,80907	355464
14,81318	321813
14,81730	293894
14,82142	275502
14,82555	253811
14,82967	235534
14,83378	219648
14,83792	204005
14,84203	194870
14,84615	180687
14,85028	167803
14,85440	162673
14,85852	151004
14,86265	144347
14,86677	140396
14,87088	132654
14,87502	126941
14,87913	127248
14,88325	122238
14,88738	115931
14,89150	112195
14,89562	106889
14,89975	106915
14,90387	106081
14,90798	99906
14,91210	97063
14,91623	92874
14,92035	93703
14,92447	90235
14,92860	87900
14,93272	88980
14,93683	85830
14,94097	84432
14,94508	80071
14,94920	75633
14,95333	76002
14,95745	74615
14,96157	74851
14,96570	71160
14,96982	68919
14,97393	69755
14,97807	66827
14,98218	66267
14,98630	65699
14,99043	65042
14,99455	63296
14,99867	63951
15,00278	59994
15,00692	60664
15,01103	57594
15,01515	59826
15,01928	57965
15,02340	56704
15,02752	58554
15,03165	58352
15,03577	56601
15,03988	57396
15,04402	59677
15,04813	61663
15,05225	65337
15,05638	77423
15,06050	92907
15,06462	122079
15,06875	165347
15,07287	240908
15,07698	331082
15,08112	457942
15,08523	603702
15,08935	786547
15,09347	957922
15,09760	1101368
15,10172	1207984
15,10583	1275589
15,10997	1293296
15,11408	1237465
15,11820	1171670
15,12233	1069859
15,12645	944962
15,13057	829287
15,13470	733347
15,13882	639384
15,14293	570319
15,14707	508747
15,15118	451487
15,15530	418471
15,15943	395324
15,16355	398708
15,16767	413750
15,17180	462529
15,17592	535567
15,18003	632375
15,18415	731731
15,18828	868723
15,19240	988589
15,19652	1093208
15,20065	1166188
15,20477	1203958
15,20888	1208751
15,21302	1156210
15,21713	1082558
15,22125	995628
15,22538	890727
15,22950	785111
15,23362	693113
15,23775	593799
15,24187	532169
15,24598	464843
15,25012	407349
15,25423	356458
15,25835	319535
15,26248	282557
15,26660	257217
15,27072	235290
15,27483	215007
15,27897	196071
15,28308	182938
15,28720	169253
15,29133	153833
15,29545	144519
15,29957	136813
15,30370	130971
15,30782	123199
15,31193	115261
15,31607	113658
15,32018	107992
15,32430	102141
15,32843	99942
15,33255	93981
15,33667	91280
15,34080	88675
15,34492	86215
15,34903	82671
15,35317	80019
15,35728	77084
15,36140	73916
15,36552	74768
15,36965	74359
15,37377	71200
15,37788	73370
15,38202	70515
15,38613	68803
15,39025	66011
15,39438	63344
15,39850	62056
15,40262	62293
15,40675	64490
15,41087	62495
15,41498	58097
15,41912	59060
15,42323	59369
15,42735	57002
15,43148	56364
15,43560	55169
15,43972	55923
15,44385	55270
15,44797	54871
15,45208	53510
15,45620	55668
15,46033	52944
15,46445	51349
15,46857	52335
15,47270	50040
15,47682	48478
15,48093	49524
15,48507	49144
15,48918	47399
15,49330	46968
15,49743	48127
15,50155	47576
15,50567	47312
15,50980	46152
15,51392	47113
15,51803	47532
15,52217	46084
15,52628	44353
15,53040	46444
15,53453	48366
15,53865	50169
15,54277	55572
15,54690	64684
15,55102	75517
15,55513	98242
15,55925	126740
15,56338	178199
15,56750	254794
15,57162	361717
15,57575	508201
15,57987	696870
15,58398	936196
15,58812	1218399
15,59223	1551167
15,59635	1918188
15,60048	2218315
15,60460	2510004
15,60872	2707303
15,61285	2770740
15,61697	2702572
15,62108	2544021
15,62522	2318038
15,62933	2046096
15,63345	1790798
15,63758	1566592
15,64170	1360769
15,64582	1183018
15,64993	1041362
15,65407	921187
15,65818	814444
15,66230	737092
15,66643	658696
15,67055	594581
15,67467	541429
15,67880	500625
15,68292	465819
15,68703	425976
15,69117	400422
15,69528	366301
15,69940	349215
15,70353	321998
15,70765	302644
15,71177	288232
15,71590	275710
15,72002	258590
15,72413	245526
15,72827	232116
15,73238	223128
15,73650	216466
15,74062	205889
15,74475	193199
15,74887	185129
15,75298	183646
15,75712	174826
15,76123	172468
15,76535	163936
15,76948	157502
15,77360	153332
15,77772	151778
15,78185	146813
15,78597	140948
15,79008	138174
15,79422	133070
15,79833	127683
15,80245	128850
15,80658	123133
15,81070	120743
15,81482	117167
15,81895	115461
15,82307	110093
15,82718	108847
15,83130	106678
15,83543	107824
15,83955	102901
15,84367	98979
15,84780	98205
15,85192	100711
15,85603	98625
15,86017	95189
15,86428	92961
15,86840	90097
15,87253	91858
15,87665	87583
15,88077	87201
15,88490	87598
15,88902	83494
15,89313	82179
15,89727	79839
15,90138	78111
15,90550	80182
15,90963	80775
15,91375	76088
15,91787	76988
15,92198	75928
15,92612	75718
15,93023	75153
15,93435	73796
15,93848	75911
15,94260	72140
15,94672	71541
15,95085	71977
15,95497	68166
15,95908	71765
15,96322	67526
15,96733	66182
15,97145	68162
15,97558	63774
15,97970	67865
15,98382	69370
15,98795	65113
15,99207	65332
15,99618	65641
16,00032	64566
16,00443	66432
16,00855	72835
16,01267	77638
16,01680	89558
16,02092	106788
16,02503	139107
16,02917	177176
16,03328	234898
16,03740	324686
16,04153	430152
16,04565	565524
16,04977	720221
16,05390	890379
16,05802	1025098
16,06213	1149097
16,06627	1241904
16,07038	1262943
16,07450	1236429
16,07863	1193165
16,08275	1111800
16,08687	1012432
16,09100	909547
16,09512	802179
16,09923	728613
16,10335	652404
16,10748	582341
16,11160	519205
16,11572	470162
16,11985	424552
16,12397	395327
16,12808	362396
16,13222	336637
16,13633	311090
16,14045	285707
16,14458	272032
16,14870	256007
16,15282	242853
16,15695	224127
16,16107	214800
16,16518	200932
16,16932	192482
16,17343	187012
16,17755	177798
16,18168	168923
16,18580	162876
16,18992	157757
16,19403	149858
16,19817	145939
16,20228	143142
16,20640	136856
16,21053	130685
16,21465	127140
16,21877	127065
16,22290	120403
16,22702	124423
16,23113	115849
16,23527	112401
16,23938	110007
16,24350	106085
16,24763	103648
16,25175	103157
16,25587	101019
16,26000	98042
16,26412	95775
16,26823	97031
16,27237	94905
16,27648	91440
16,28060	92931
16,28472	86913
16,28885	89422
16,29297	88957
16,29708	85546
16,30122	84425
16,30533	84343
16,30945	82135
16,31358	76913
16,31770	80763
16,32182	78659
16,32595	78899
16,33007	78109
16,33418	75505
16,33832	75523
16,34243	75216
16,34655	72095
16,35068	70679
16,35480	72338
16,35892	70876
16,36305	70569
16,36717	68022
16,37128	65560
16,37540	65445
16,37953	67887
16,38365	65544
16,38777	67187
16,39190	67420
16,39602	66508
16,40013	64778
16,40427	63999
16,40838	65137
16,41250	62568
16,41663	63022
16,42075	64007
16,42487	64305
16,42900	62192
16,43312	64148
16,43723	64812
16,44137	67746
16,44548	72669
16,44960	72285
16,45373	80490
16,45785	88755
16,46197	94432
16,46608	105605
16,47022	114701
16,47433	123626
16,47845	133411
16,48258	138181
16,48670	140918
16,49082	142434
16,49495	135850
16,49907	132777
16,50318	126288
16,50732	122168
16,51143	116104
16,51555	106649
16,51968	95643
16,52380	87128
16,52792	87450
16,53205	79838
16,53617	76061
16,54028	70155
16,54442	68449
16,54853	66337
16,55265	64499
16,55677	65157
16,56090	60612
16,56502	61608
16,56913	58593
16,57327	59261
16,57738	60035
16,58150	57534
16,58563	58158
16,58975	56451
16,59387	55735
16,59800	55778
16,60212	52322
16,60623	53518
16,61037	54192
16,61448	53674
16,61860	53383
16,62273	53379
16,62685	54457
16,63097	52099
16,63510	51717
16,63922	51410
16,64333	52373
16,64745	51346
16,65158	50999
16,65570	54227
16,65982	49765
16,66395	52020
16,66807	54306
16,67218	50101
16,67632	52840
16,68043	49235
16,68455	50028
16,68868	51827
16,69280	51913
16,69692	52622
16,70105	51512
16,70517	51458
16,70928	50330
16,71342	49215
16,71753	48938
16,72165	48720
16,72578	50741
16,72990	52911
16,73402	50100
16,73813	48539
16,74227	48359
16,74638	49597
16,75050	50358
16,75463	49638
16,75875	49040
16,76287	46889
16,76700	48583
16,77112	46718
16,77523	50551
16,77937	48714
16,78348	49830
16,78760	50981
16,79173	50720
16,79585	50026
16,79997	48160
16,80410	46553
16,80822	47817
16,81233	48882
16,81647	48754
16,82058	47721
16,82470	48433
16,82882	48850
16,83295	47744
16,83707	49876
16,84118	49501
16,84532	50125
16,84943	52003
16,85355	46873
16,85768	50233
16,86180	48406
16,86592	46886
16,87005	48296
16,87417	47526
16,87828	48863
16,88242	50530
16,88653	47654
16,89065	48373
16,89478	49887
16,89890	47427
16,90302	47108
16,90715	47531
16,91127	47743
16,91538	48188
16,91950	46897
16,92363	46157
16,92775	49185
16,93187	49607
16,93600	48401
16,94012	46969
16,94423	50724
16,94837	45787
16,95248	49394
16,95660	46116
16,96073	48007
16,96485	49993
16,96897	50113
16,97310	50494
16,97722	50288
16,98133	51914
16,98547	45147
16,98958	51167
16,99370	49838
16,99783	50108
17,00195	48491
17,00607	45505
17,01018	48195
17,01432	48948
17,01843	48836
17,02255	49884
17,02668	47975
17,03080	46101
17,03492	46361
17,03905	47348
17,04317	47005
17,04728	44535
17,05142	46765
17,05553	48857
17,05965	47954
17,06378	44542
17,06790	48002
17,07202	47555
17,07615	45773
17,08027	45594
17,08438	49711
17,08852	48557
17,09263	48175
17,09675	46606
17,10087	46816
17,10500	48043
17,10912	47373
17,11323	46746
17,11737	50345
17,12148	45974
17,12560	47652
17,12973	44604
17,13385	48308
17,13797	45694
17,14210	43303
17,14622	50012
17,15033	52081
17,15447	48014
17,15858	48339
17,16270	49654
17,16683	47041
17,17095	45985
17,17507	49427
17,17920	44432
17,18332	49741
17,18743	45363
17,19157	48597
17,19568	44871
17,19980	46869
17,20392	47948
17,20805	47216
17,21217	45523
17,21628	47688
17,22042	48120
17,22453	47298
17,22865	49947
17,23278	47625
17,23690	49839
17,24102	49468
17,24515	46694
17,24927	48021
17,25338	48464
17,25752	47829
17,26163	47551
17,26575	47608
17,26988	49423
17,27400	50661
17,27812	55639
17,28225	62618
17,28637	71191
17,29048	86649
17,29460	109362
17,29873	139774
17,30285	185615
17,30697	249653
17,31110	317924
17,31522	408789
17,31933	493319
17,32347	584856
17,32758	663431
17,33170	728424
17,33583	763561
17,33995	778972
17,34407	766014
17,34820	736052
17,35232	700896
17,35643	641411
17,36057	588722
17,36468	532721
17,36880	474198
17,37293	431447
17,37705	379909
17,38117	338878
17,38528	310324
17,38942	283200
17,39353	248235
17,39765	230777
17,40178	214252
17,40590	197983
17,41002	181097
17,41415	170455
17,41827	159063
17,42238	147910
17,42652	137267
17,43063	132566
17,43475	124092
17,43888	119468
17,44300	110251
17,44712	109823
17,45125	105715
17,45537	101944
17,45948	99145
17,46362	95299
17,46773	92712
17,47185	90926
17,47597	88241
17,48010	86946
17,48422	84207
17,48833	82028
17,49247	78285
17,49658	80345
17,50070	78209
17,50483	79279
17,50895	76711
17,51307	74808
17,51720	72009
17,52132	69436
17,52543	71878
17,52957	70166
17,53368	69741
17,53780	71015
17,54193	66691
17,54605	65706
17,55017	65369
17,55430	64621
17,55842	65284
17,56253	61798
17,56665	65922
17,57078	62573
17,57490	64210
17,57902	64365
17,58315	61522
17,58727	60725
17,59138	59557
17,59552	58722
17,59963	60095
17,60375	57728
17,60788	58748
17,61200	58926
17,61612	57165
17,62025	59653
17,62437	58752
17,62848	56659
17,63262	56175
17,63673	56214
17,64085	56037
17,64498	56055
17,64910	57301
17,65322	57948
17,65733	55512
17,66147	55567
17,66558	56211
17,66970	53520
17,67383	54843
17,67795	53589
17,68207	53342
17,68620	52893
17,69032	56392
17,69443	54215
17,69857	53398
17,70268	55105
17,70680	55373
17,71093	51711
17,71505	52135
17,71917	56903
17,72330	54446
17,72742	55004
17,73153	53099
17,73567	56472
17,73978	54982
17,74390	53784
17,74802	53151
17,75215	54773
17,75627	56546
17,76038	57205
17,76452	53358
17,76863	55604
17,77275	56668
17,77688	56258
17,78100	57563
17,78512	54675
17,78925	55986
17,79337	56720
17,79748	55069
17,80162	57081
17,80573	56528
17,80985	54868
17,81398	55695
17,81810	53372
17,82222	56215
17,82635	55233
17,83047	55107
17,83458	57864
17,83870	54831
17,84283	56904
17,84695	55956
17,85107	53562
17,85520	56233
17,85932	53567
17,86343	56006
17,86757	51558
17,87168	53492
17,87580	54439
17,87993	54405
17,88405	54053
17,88817	53746
17,89230	53263
17,89642	54334
17,90053	54523
17,90467	52573
17,90878	52116
17,91290	50448
17,91703	54299
17,92115	53947
17,92527	52148
17,92938	52101
17,93352	52969
17,93763	51149
17,94175	52484
17,94588	51372
17,95000	53643
17,95412	50816
17,95825	52812
17,96237	52569
17,96648	52287
17,97062	50615
17,97473	51498
17,97885	53667
17,98298	53266
17,98710	51740
17,99122	55050
17,99535	52404
17,99947	53865
18,00358	52800
18,00772	52151
18,01183	51898
18,01595	56403
18,02007	51145
18,02420	52639
18,02832	55687
18,03243	55166
18,03657	54112
18,04068	52098
18,04480	55823
18,04893	53308
18,05305	52938
18,05717	51124
18,06130	52893
18,06542	54666
18,06953	53930
18,07367	55656
18,07778	54785
18,08190	55194
18,08603	56576
18,09015	52636
18,09427	51409
18,09840	53574
18,10252	53004
18,10663	52780
18,11075	53904
18,11488	52410
18,11900	53277
18,12312	53020
18,12725	54789
18,13137	51617
18,13548	52059
18,13962	54147
18,14373	51747
18,14785	49299
18,15198	53001
18,15610	50175
18,16022	54092
18,16435	52585
18,16847	50759
18,17258	49521
18,17672	54014
18,18083	51248
18,18495	54129
18,18908	51364
18,19320	52401
18,19732	54926
18,20143	53228
18,20557	51690
18,20968	50656
18,21380	51431
18,21793	51792
18,22205	51300
18,22617	49603
18,23030	49601
18,23442	51057
18,23853	50567
18,24267	49344
18,24678	49881
18,25090	51549
18,25503	50945
18,25915	50845
18,26327	51909
18,26740	52226
18,27152	49008
18,27563	50186
18,27977	50449
18,28388	50747
18,28800	50681
18,29212	52274
18,29625	50533
18,30037	54056
18,30448	51140
18,30862	53563
18,31273	52880
18,31685	52136
18,32098	49656
18,32510	50497
18,32922	50623
18,33335	50460
18,33747	49653
18,34158	51405
18,34572	53253
18,34983	52004
18,35395	51220
18,35808	47994
18,36220	50674
18,36632	51724
18,37045	49512
18,37457	51176
18,37868	50876
18,38280	50248
18,38693	52966
18,39105	53453
18,39517	53892
18,39930	54092
18,40342	49060
18,40753	52747
18,41167	51243
18,41578	54479
18,41990	52598
18,42403	53066
18,42815	49985
18,43227	51809
18,43640	48823
18,44052	52690
18,44463	53534
18,44877	51715
18,45288	49456
18,45700	51708
18,46113	52391
18,46525	51841
18,46937	50202
18,47348	52794
18,47762	51759
18,48173	50856
18,48585	49405
18,48998	51584
18,49410	50525
18,49822	49827
18,50235	49607
18,50647	49681
18,51058	49382
18,51472	51168
18,51883	49275
18,52295	51288
18,52708	50634
18,53120	51723
18,53532	50884
18,53945	51422
18,54357	51458
18,54768	53537
18,55182	51594
18,55593	49937
18,56005	49092
18,56417	49190
18,56830	51667
18,57242	51898
18,57653	49395
18,58067	50090
18,58478	49192
18,58890	51864
18,59303	49147
18,59715	48596
18,60127	51204
18,60540	49518
18,60952	49676
18,61363	50109
18,61777	49306
18,62188	52749
18,62600	51542
