D:\MassHunter\GCMS\1\data\Amal\Constant flow\90C\90C_1ml-min_8C-min_1.D Thu Aug 01 18:39:07 2024
Start of data points
6,09087,18946
6,09500,18486
6,09912,19686
6,10323,18931
6,10735,19180
6,11148,17428
6,11560,17816
6,11972,18385
6,12385,17524
6,12797,18039
6,13208,17769
6,13622,16409
6,14033,17268
6,14445,16908
6,14858,16057
6,15270,16771
6,15682,17255
6,16095,17684
6,16507,15594
6,16918,17129
6,17332,17145
6,17743,16966
6,18155,16235
6,18568,15792
6,18980,14742
6,19392,15258
6,19803,17606
6,20217,15448
6,20628,16623
6,21040,16439
6,21453,15440
6,21865,15494
6,22277,15712
6,22690,15872
6,23102,16045
6,23513,15281
6,23927,15536
6,24338,15712
6,24750,15173
6,25163,15493
6,25575,15926
6,25987,14445
6,26400,14294
6,26812,16564
6,27223,15135
6,27637,16537
6,28048,14267
6,28460,14306
6,28872,14730
6,29285,14374
6,29697,15471
6,30108,13984
6,30522,14487
6,30933,14880
6,31345,14322
6,31758,14701
6,32170,14990
6,32582,14158
6,32995,14212
6,33407,14661
6,33818,14687
6,34232,14172
6,34643,13099
6,35055,14379
6,35468,13941
6,35880,13993
6,36292,14562
6,36705,13163
6,37117,14825
6,37528,14017
6,37940,14139
6,38353,13237
6,38765,13254
6,39177,12993
6,39590,13904
6,40002,12979
6,40413,12875
6,40827,12931
6,41238,13295
6,41650,13728
6,42063,11981
6,42475,12927
6,42887,13098
6,43300,12497
6,43712,13144
6,44123,12686
6,44537,13251
6,44948,12645
6,45360,13088
6,45773,12826
6,46185,12812
6,46597,12105
6,47008,11834
6,47422,13233
6,47833,12190
6,48245,13670
6,48658,12483
6,49070,12660
6,49482,12567
6,49895,12843
6,50307,11721
6,50718,12169
6,51132,12205
6,51543,11956
6,51955,11662
6,52368,13263
6,52780,12855
6,53192,12514
6,53605,12343
6,54017,12716
6,54428,12374
6,54842,12091
6,55253,12689
6,55665,13186
6,56077,13076
6,56490,13220
6,56902,12945
6,57313,12050
6,57727,13181
6,58138,13555
6,58550,12279
6,58963,12761
6,59375,11910
6,59787,12158
6,60200,11654
6,60612,11814
6,61023,12719
6,61437,11900
6,61848,11927
6,62260,11958
6,62673,12457
6,63085,11006
6,63497,11511
6,63910,10330
6,64322,11067
6,64733,10914
6,65145,12592
6,65558,11188
6,65970,10599
6,66382,10147
6,66795,11520
6,67207,11011
6,67618,10918
6,68032,11557
6,68443,10430
6,68855,11512
6,69268,10716
6,69680,10694
6,70092,11863
6,70505,10949
6,70917,10003
6,71328,11232
6,71742,10698
6,72153,10668
6,72565,10604
6,72978,9772
6,73390,10239
6,73802,10957
6,74213,10015
6,74627,10019
6,75038,10364
6,75450,10759
6,75863,10165
6,76275,11286
6,76687,10062
6,77100,10234
6,77512,11436
6,77923,10360
6,78337,10246
6,78748,9925
6,79160,10885
6,79573,10442
6,79985,10800
6,80397,11034
6,80810,10715
6,81222,9775
6,81633,10287
6,82047,11542
6,82458,10824
6,82870,10790
6,83283,11088
6,83695,10426
6,84107,10506
6,84518,9749
6,84932,10412
6,85343,9956
6,85755,10324
6,86168,9945
6,86580,10349
6,86992,10192
6,87405,11066
6,87817,9843
6,88228,9646
6,88642,10965
6,89053,11629
6,89465,10061
6,89878,9895
6,90290,10587
6,90702,11186
6,91115,10300
6,91527,10160
6,91938,10521
6,92352,9879
6,92763,9473
6,93175,10937
6,93587,9663
6,94000,9632
6,94412,9738
6,94823,9651
6,95237,10223
6,95648,9632
6,96060,9319
6,96473,10078
6,96885,9185
6,97297,9824
6,97710,10840
6,98122,9141
6,98533,9754
6,98947,10215
6,99358,9076
6,99770,9532
7,00183,9658
7,00595,11057
7,01007,13139
7,01420,17837
7,01832,24374
7,02243,35325
7,02655,48860
7,03068,68556
7,03480,89936
7,03892,114606
7,04305,138023
7,04717,156995
7,05128,167013
7,05542,173613
7,05953,176352
7,06365,172247
7,06778,163755
7,07190,158598
7,07602,146647
7,08015,137600
7,08427,121168
7,08838,113869
7,09252,102853
7,09663,97052
7,10075,86160
7,10488,78407
7,10900,71327
7,11312,61697
7,11723,56013
7,12137,52434
7,12548,44131
7,12960,41295
7,13373,35512
7,13785,32480
7,14197,29668
7,14610,25869
7,15022,24196
7,15433,21044
7,15847,18590
7,16258,18390
7,16670,16670
7,17083,16024
7,17495,15818
7,17907,13839
7,18320,13771
7,18732,12910
7,19143,13138
7,19557,11645
7,19968,11656
7,20380,10885
7,20792,10562
7,21205,10780
7,21617,10974
7,22028,10433
7,22442,10237
7,22853,11541
7,23265,11469
7,23678,11554
7,24090,12452
7,24502,12389
7,24915,12183
7,25327,13493
7,25738,12927
7,26152,12343
7,26563,11051
7,26975,10473
7,27388,12714
7,27800,11104
7,28212,9622
7,28625,9433
7,29037,10431
7,29448,9553
7,29860,10009
7,30273,9008
7,30685,9719
7,31097,8025
7,31510,7835
7,31922,8991
7,32333,8396
7,32747,8672
7,33158,8226
7,33570,8307
7,33983,8528
7,34395,8685
7,34807,7629
7,35220,8916
7,35632,8546
7,36043,8360
7,36457,8103
7,36868,8365
7,37280,7916
7,37693,8506
7,38105,8117
7,38517,8500
7,38928,8945
7,39342,8098
7,39753,8026
7,40165,7709
7,40578,8056
7,40990,7297
7,41402,8691
7,41815,8002
7,42227,8259
7,42638,7291
7,43052,8182
7,43463,7953
7,43875,7139
7,44288,7982
7,44700,7524
7,45112,8153
7,45525,7816
7,45937,9201
7,46348,7844
7,46762,7368
7,47173,8187
7,47585,7444
7,47997,7959
7,48410,7493
7,48822,8009
7,49233,7592
7,49647,7820
7,50058,7548
7,50470,7204
7,50883,7723
7,51295,7559
7,51707,6965
7,52120,7259
7,52532,6742
7,52943,7344
7,53357,7801
7,53768,7565
7,54180,7374
7,54593,8497
7,55005,7079
7,55417,7832
7,55830,7259
7,56242,7805
7,56653,7509
7,57065,8005
7,57478,7661
7,57890,8453
7,58302,7432
7,58715,7813
7,59127,7538
7,59538,8037
7,59952,8111
7,60363,7176
7,60775,7668
7,61188,7601
7,61600,8144
7,62012,7238
7,62425,7528
7,62837,6894
7,63248,7762
7,63662,6273
7,64073,7184
7,64485,6868
7,64898,7483
7,65310,7234
7,65722,6987
7,66133,7240
7,66547,7605
7,66958,7621
7,67370,7375
7,67783,7228
7,68195,6969
7,68607,6984
7,69020,6975
7,69432,7619
7,69843,6521
7,70257,6923
7,70668,7319
7,71080,7188
7,71493,6926
7,71905,7237
7,72317,7239
7,72730,6964
7,73142,7962
7,73553,7708
7,73967,7284
7,74378,7180
7,74790,7067
7,75202,6627
7,75615,6724
7,76027,7163
7,76438,6896
7,76852,8105
7,77263,6447
7,77675,7021
7,78088,6785
7,78500,6520
7,78912,6072
7,79325,6922
7,79737,7398
7,80148,6632
7,80562,6698
7,80973,6731
7,81385,6328
7,81798,5835
7,82210,5672
7,82622,6084
7,83035,6818
7,83447,5840
7,83858,6482
7,84270,6627
7,84683,6051
7,85095,6164
7,85507,5768
7,85920,6774
7,86332,6603
7,86743,6864
7,87157,6041
7,87568,6471
7,87980,6109
7,88393,5755
7,88805,6316
7,89217,6047
7,89630,6037
7,90042,7046
7,90453,8152
7,90867,6901
7,91278,7817
7,91690,8026
7,92103,7575
7,92515,7973
7,92927,7216
7,93338,7286
7,93752,6373
7,94163,6774
7,94575,7501
7,94988,7094
7,95400,7164
7,95812,6671
7,96225,6536
7,96637,7026
7,97048,5842
7,97462,6220
7,97873,6626
7,98285,6086
7,98698,6089
7,99110,6688
7,99522,6184
7,99935,5869
8,00347,6298
8,00758,5832
8,01172,5748
8,01583,5483
8,01995,6050
8,02407,6306
8,02820,5595
8,03232,5585
8,03643,6571
8,04057,6056
8,04468,5869
8,04880,5796
8,05293,6513
8,05705,7093
8,06117,6477
8,06530,7359
8,06942,8887
8,07353,7964
8,07767,9912
8,08178,9374
8,08590,9537
8,09003,9380
8,09415,9468
8,09827,9993
8,10240,10027
8,10652,9316
8,11063,9594
8,11475,9573
8,11888,7559
8,12300,8591
8,12712,7242
8,13125,7537
8,13537,6526
8,13948,6587
8,14362,7269
8,14773,6439
8,15185,6410
8,15598,6738
8,16010,6348
8,16422,5781
8,16835,5781
8,17247,6015
8,17658,6837
8,18072,6454
8,18483,5639
8,18895,6307
8,19308,5636
8,19720,6312
8,20132,5846
8,20543,5845
8,20957,5799
8,21368,6031
8,21780,5634
8,22193,5194
8,22605,5463
8,23017,5415
8,23430,5418
8,23842,6250
8,24253,6013
8,24667,6594
8,25078,6378
8,25490,5089
8,25903,5671
8,26315,5938
8,26727,5790
8,27140,5970
8,27552,5509
8,27963,5897
8,28377,5401
8,28788,6305
8,29200,5577
8,29612,5613
8,30025,5845
8,30437,5475
8,30848,5798
8,31262,4989
8,31673,5703
8,32085,5622
8,32498,6166
8,32910,6123
8,33322,5327
8,33735,5027
8,34147,4855
8,34558,4670
8,34972,5622
8,35383,5275
8,35795,5406
8,36208,5429
8,36620,5372
8,37032,5707
8,37445,5311
8,37857,4677
8,38268,4460
8,38680,5728
8,39093,5751
8,39505,5824
8,39917,5434
8,40330,5325
8,40742,5130
8,41153,5523
8,41567,5697
8,41978,4573
8,42390,5780
8,42803,5668
8,43215,5013
8,43627,5504
8,44040,5811
8,44452,5076
8,44863,4775
8,45277,5744
8,45688,5057
8,46100,4955
8,46513,4744
8,46925,5134
8,47337,5047
8,47748,5190
8,48162,4599
8,48573,5941
8,48985,5044
8,49398,4746
8,49810,5474
8,50222,4859
8,50635,4667
8,51047,5326
8,51458,5420
8,51872,4986
8,52283,5186
8,52695,6379
8,53108,5006
8,53520,4810
8,53932,5037
8,54345,5237
8,54757,5410
8,55168,5223
8,55582,4823
8,55993,5692
8,56405,5131
8,56818,4757
8,57230,6506
8,57642,5165
8,58053,6223
8,58467,5835
8,58878,6327
8,59290,6159
8,59703,5670
8,60115,5708
8,60527,5557
8,60940,5843
8,61352,5275
8,61763,4894
8,62177,6018
8,62588,5045
8,63000,5274
8,63413,5327
8,63825,5658
8,64237,5948
8,64650,5032
8,65062,5267
8,65473,4233
8,65887,5164
8,66298,5464
8,66710,5614
8,67122,5730
8,67535,5762
8,67947,5325
8,68358,5258
8,68772,5353
8,69183,4716
8,69595,5077
8,70008,5633
8,70420,4608
8,70832,5310
8,71245,4950
8,71657,5500
8,72068,4786
8,72482,4896
8,72893,4471
8,73305,4829
8,73718,4636
8,74130,4191
8,74542,4573
8,74955,4347
8,75367,5060
8,75778,4339
8,76190,4380
8,76603,3601
8,77015,4249
8,77427,5053
8,77840,5190
8,78252,4331
8,78663,5425
8,79077,4469
8,79488,4454
8,79900,5135
8,80313,4744
8,80725,4584
8,81137,5920
8,81550,6470
8,81962,9844
8,82373,17832
8,82787,29156
8,83198,54365
8,83610,95017
8,84023,155214
8,84435,245929
8,84847,351949
8,85258,475310
8,85672,606288
8,86083,735057
8,86495,835520
8,86908,903882
8,87320,931170
8,87732,908927
8,88145,858743
8,88557,793110
8,88968,708062
8,89382,606589
8,89793,521501
8,90205,434031
8,90618,353549
8,91030,290445
8,91442,230009
8,91855,191010
8,92267,153569
8,92678,124960
8,93092,102009
8,93503,84301
8,93915,68874
8,94327,59986
8,94740,50612
8,95152,44490
8,95563,38927
8,95977,33302
8,96388,30234
8,96800,26544
8,97213,26103
8,97625,22620
8,98037,20384
8,98450,20602
8,98862,19392
8,99273,16681
8,99687,16151
9,00098,14486
9,00510,13995
9,00923,14720
9,01335,13048
9,01747,12358
9,02160,11653
9,02572,11551
9,02983,10235
9,03395,10207
9,03808,9796
9,04220,9349
9,04632,9015
9,05045,9023
9,05457,8547
9,05868,8729
9,06282,8494
9,06693,8308
9,07105,7215
9,07518,7532
9,07930,7443
9,08342,6527
9,08755,6357
9,09167,6528
9,09578,6396
9,09992,6205
9,10403,6766
9,10815,6491
9,11228,6957
9,11640,5738
9,12052,6018
9,12463,5923
9,12877,6650
9,13288,5348
9,13700,6076
9,14113,5745
9,14525,5928
9,14937,5626
9,15350,5785
9,15762,5189
9,16173,5405
9,16587,5306
9,16998,5432
9,17410,5056
9,17823,5775
9,18235,6357
9,18647,5472
9,19060,6562
9,19472,5539
9,19883,6312
9,20297,5964
9,20708,5222
9,21120,5198
9,21532,5339
9,21945,5129
9,22357,5304
9,22768,6217
9,23182,5216
9,23593,5013
9,24005,4943
9,24418,5265
9,24830,4463
9,25242,5776
9,25655,5020
9,26067,4838
9,26478,5183
9,26892,4491
9,27303,4692
9,27715,4572
9,28128,5272
9,28540,6922
9,28952,7551
9,29365,8848
9,29777,9098
9,30188,9016
9,30600,8468
9,31013,7496
9,31425,7305
9,31837,7131
9,32250,5325
9,32662,4313
9,33073,4200
9,33487,4537
9,33898,4516
9,34310,4499
9,34723,4207
9,35135,4356
9,35547,4974
9,35960,4999
9,36372,4598
9,36783,4273
9,37197,4493
9,37608,4639
9,38020,4618
9,38433,4566
9,38845,4933
9,39257,3638
9,39668,3465
9,40082,4045
9,40493,4372
9,40905,4017
9,41318,4162
9,41730,4041
9,42142,4322
9,42555,5080
9,42967,4103
9,43378,4708
9,43792,4288
9,44203,4376
9,44615,4927
9,45028,4980
9,45440,3840
9,45852,4456
9,46265,4038
9,46677,3967
9,47088,3818
9,47502,3538
9,47913,3407
9,48325,3969
9,48737,4016
9,49150,4641
9,49562,4521
9,49973,3372
9,50387,4151
9,50798,3314
9,51210,3598
9,51623,3668
9,52035,4209
9,52447,3773
9,52860,3823
9,53272,3557
9,53683,4073
9,54097,3588
9,54508,2931
9,54920,3984
9,55333,4232
9,55745,3962
9,56157,4043
9,56570,3545
9,56982,3809
9,57393,4738
9,57805,4037
9,58218,3644
9,58630,4296
9,59042,4384
9,59455,4135
9,59867,4582
9,60278,4016
9,60692,4415
9,61103,4008
9,61515,4580
9,61928,4019
9,62340,3778
9,62752,3636
9,63165,4139
9,63577,4016
9,63988,4148
9,64402,3825
9,64813,4606
9,65225,3632
9,65638,4674
9,66050,4869
9,66462,3994
9,66873,4609
9,67287,4165
9,67698,4018
9,68110,4258
9,68523,4215
9,68935,4062
9,69347,3753
9,69760,3802
9,70172,2971
9,70583,3823
9,70997,3174
9,71408,3609
9,71820,3605
9,72233,3860
9,72645,3797
9,73057,3340
9,73470,3077
9,73882,3183
9,74293,3898
9,74707,3734
9,75118,3827
9,75530,3514
9,75942,4027
9,76355,3587
9,76767,3533
9,77178,3750
9,77592,4250
9,78003,2785
9,78415,3372
9,78828,3945
9,79240,3406
9,79652,3573
9,80065,3396
9,80477,3709
9,80888,4650
9,81302,6498
9,81713,12274
9,82125,22022
9,82538,37719
9,82950,67062
9,83362,111479
9,83775,172520
9,84187,247247
9,84598,334238
9,85010,430342
9,85423,513127
9,85835,582073
9,86247,607786
9,86660,616053
9,87072,597676
9,87483,544351
9,87897,484013
9,88308,399707
9,88720,327353
9,89133,271067
9,89545,211273
9,89957,166308
9,90370,131685
9,90782,102713
9,91193,86123
9,91607,65704
9,92018,52571
9,92430,44999
9,92843,38236
9,93255,34094
9,93667,30331
9,94078,25365
9,94492,24213
9,94903,22627
9,95315,19837
9,95728,19626
9,96140,18212
9,96552,16706
9,96965,16390
9,97377,14849
9,97788,14200
9,98202,12995
9,98613,12295
9,99025,10899
9,99438,10754
9,99850,9422
10,00262,9728
10,00675,9427
10,01087,8646
10,01498,8293
10,01912,8617
10,02323,6693
10,02735,7227
10,03148,6140
10,03560,6640
10,03972,4754
10,04383,5436
10,04797,6111
10,05208,5964
10,05620,5350
10,06033,5322
10,06445,5279
10,06857,5223
10,07270,4774
10,07682,4834
10,08093,4685
10,08507,4219
10,08918,5461
10,09330,4995
10,09743,4670
10,10155,4558
10,10567,4587
10,10980,4535
10,11392,4277
10,11803,4330
10,12217,3978
10,12628,3496
10,13040,4204
10,13452,4266
10,13865,3857
10,14277,4581
10,14688,4439
10,15102,4070
10,15513,4160
10,15925,3872
10,16338,3578
10,16750,3327
10,17162,4287
10,17575,3512
10,17987,3879
10,18398,3864
10,18812,3590
10,19223,3721
10,19635,4181
10,20048,3829
10,20460,3709
10,20872,3365
10,21285,3449
10,21697,4032
10,22108,4688
10,22520,4911
10,22933,5088
10,23345,5394
10,23757,6020
10,24170,6678
10,24582,5475
10,24993,6591
10,25407,6078
10,25818,5761
10,26230,5411
10,26643,4812
10,27055,3693
10,27467,3967
10,27880,4727
10,28292,3626
10,28703,3277
10,29117,4087
10,29528,4097
10,29940,4728
10,30353,2754
10,30765,3260
10,31177,3718
10,31588,4199
10,32002,3562
10,32413,3200
10,32825,3267
10,33238,4407
10,33650,2907
10,34062,3108
10,34475,3232
10,34887,3016
10,35298,3624
10,35712,3134
10,36123,3907
10,36535,3742
10,36948,3824
10,37360,3788
10,37772,3549
10,38185,3017
10,38597,2965
10,39008,3452
10,39422,2342
10,39833,3364
10,40245,3942
10,40657,2960
10,41070,3437
10,41482,3015
10,41893,3508
10,42307,2830
10,42718,3417
10,43130,3477
10,43543,2870
10,43955,2892
10,44367,2577
10,44780,3141
10,45192,3291
10,45603,2552
10,46017,2618
10,46428,2669
10,46840,3489
10,47253,3273
10,47665,3052
10,48077,3418
10,48490,3788
10,48902,3224
10,49313,2807
10,49725,2501
10,50138,3091
10,50550,2471
10,50962,2942
10,51375,2539
10,51787,2968
10,52198,3068
10,52612,3869
10,53023,3413
10,53435,2733
10,53848,2674
10,54260,3229
10,54672,2818
10,55085,3056
10,55497,3292
10,55908,2526
10,56322,3237
10,56733,3693
10,57145,2924
10,57558,3048
10,57970,3313
10,58382,2914
10,58793,3311
10,59207,2206
10,59618,2937
10,60030,3015
10,60443,2510
10,60855,2969
10,61267,2572
10,61680,3092
10,62092,3342
10,62503,2780
10,62917,3467
10,63328,2488
10,63740,3631
10,64153,2555
10,64565,3527
10,64977,3119
10,65390,2429
10,65802,3045
10,66213,3217
10,66627,3470
10,67038,3321
10,67450,2446
10,67862,3233
10,68275,2830
10,68687,3113
10,69098,2593
10,69512,2268
10,69923,3074
10,70335,2986
10,70748,3305
10,71160,2960
10,71572,2750
10,71985,3047
10,72397,2925
10,72808,4130
10,73222,4094
10,73633,2854
10,74045,3074
10,74458,3685
10,74870,3277
10,75282,3165
10,75695,3836
10,76107,2829
10,76518,3402
10,76930,3501
10,77343,3171
10,77755,2983
10,78167,2842
10,78580,3167
10,78992,2429
10,79403,2221
10,79817,3017
10,80228,3063
10,80640,3266
10,81053,4622
10,81465,9665
10,81877,17217
10,82290,37937
10,82702,74949
10,83113,133990
10,83527,231567
10,83938,374358
10,84350,561696
10,84763,771252
10,85175,1003099
10,85587,1217471
10,85998,1386511
10,86412,1495698
10,86823,1511951
10,87235,1449565
10,87648,1316182
10,88060,1122750
10,88472,930776
10,88885,727095
10,89297,565798
10,89708,434268
10,90122,336770
10,90533,251214
10,90945,195847
10,91358,153042
10,91770,122500
10,92182,99936
10,92595,84011
10,93007,69183
10,93418,60530
10,93832,51557
10,94243,44681
10,94655,39371
10,95067,35456
10,95480,30698
10,95892,29193
10,96303,24596
10,96717,23436
10,97128,20710
10,97540,19810
10,97953,18645
10,98365,16225
10,98777,15410
10,99190,15957
10,99602,15093
11,00013,12588
11,00427,12185
11,00838,12091
11,01250,10769
11,01663,10784
11,02075,9759
11,02487,9653
11,02900,8830
11,03312,8552
11,03723,7961
11,04135,8507
11,04548,7973
11,04960,7251
11,05372,6891
11,05785,6606
11,06197,7003
11,06608,5987
11,07022,6633
11,07433,5170
11,07845,5563
11,08258,6086
11,08670,4451
11,09082,5538
11,09495,4432
11,09907,4354
11,10318,4929
11,10732,4404
11,11143,4261
11,11555,4746
11,11968,4310
11,12380,4337
11,12792,4799
11,13203,4069
11,13617,3620
11,14028,4501
11,14440,4171
11,14853,4151
11,15265,3836
11,15677,4817
11,16090,3914
11,16502,4102
11,16913,3759
11,17327,3261
11,17738,3929
11,18150,3916
11,18563,3438
11,18975,3432
11,19387,3349
11,19800,3367
11,20212,3372
11,20623,4052
11,21037,3994
11,21448,3493
11,21860,3694
11,22272,3634
11,22685,3380
11,23097,3186
11,23508,3564
11,23922,2848
11,24333,3317
11,24745,3526
11,25158,3233
11,25570,3378
11,25982,3543
11,26395,3309
11,26807,3093
11,27218,2689
11,27632,3161
11,28043,3113
11,28455,3358
11,28868,3320
11,29280,2916
11,29692,2255
11,30105,2649
11,30517,2578
11,30928,3026
11,31340,3166
11,31753,3193
11,32165,2592
11,32577,3057
11,32990,2918
11,33402,2721
11,33813,3115
11,34227,3365
11,34638,5539
11,35050,6596
11,35463,7287
11,35875,7611
11,36287,6720
11,36700,5880
11,37112,5619
11,37523,3804
11,37937,3419
11,38348,3731
11,38760,3320
11,39173,3679
11,39585,3623
11,39997,3734
11,40408,4040
11,40822,4777
11,41233,6324
11,41645,7159
11,42058,7635
11,42470,8667
11,42882,10046
11,43295,10101
11,43707,11163
11,44118,10584
11,44532,10695
11,44943,10129
11,45355,9395
11,45768,8683
11,46180,7249
11,46592,6967
11,47005,6246
11,47417,4769
11,47828,4359
11,48242,4100
11,48653,3886
11,49065,3581
11,49477,3746
11,49890,3227
11,50302,2856
11,50713,3226
11,51127,2840
11,51538,2927
11,51950,2668
11,52363,2958
11,52775,2490
11,53187,2013
11,53600,2383
11,54012,2524
11,54423,3055
11,54837,2684
11,55248,2361
11,55660,2969
11,56073,2727
11,56485,2775
11,56897,2259
11,57310,2256
11,57722,2060
11,58133,2566
11,58545,2291
11,58958,2165
11,59370,1967
11,59782,1845
11,60195,2399
11,60607,2754
11,61018,2522
11,61432,2805
11,61843,2520
11,62255,1958
11,62668,2538
11,63080,1777
11,63492,2450
11,63905,2290
11,64317,2742
11,64728,2180
11,65142,2080
11,65553,2172
11,65965,2579
11,66378,2485
11,66790,2194
11,67202,2023
11,67613,2393
11,68027,2861
11,68438,2482
11,68850,1955
11,69263,2526
11,69675,1722
11,70087,2306
11,70500,2813
11,70912,2437
11,71323,1947
11,71737,2356
11,72148,2335
11,72560,2183
11,72973,1754
11,73385,1827
11,73797,2417
11,74210,2620
11,74622,2546
11,75033,2035
11,75447,2053
11,75858,2422
11,76270,1719
11,76683,2512
11,77095,2054
11,77507,1920
11,77918,2135
11,78332,1624
11,78743,1974
11,79155,2078
11,79568,2225
11,79980,3382
11,80392,5712
11,80805,12294
11,81217,24104
11,81628,45969
11,82042,86647
11,82453,151201
11,82865,246485
11,83278,358395
11,83690,501182
11,84102,629911
11,84515,753894
11,84927,833152
11,85338,858447
11,85752,832253
11,86163,755492
11,86575,651298
11,86987,540679
11,87400,438003
11,87812,334331
11,88223,254694
11,88637,191553
11,89048,148474
11,89460,112215
11,89873,88585
11,90285,70495
11,90697,56282
11,91110,47092
11,91522,40078
11,91933,33678
11,92347,28854
11,92758,24642
11,93170,21683
11,93583,20534
11,93995,17094
11,94407,15202
11,94820,14649
11,95232,12885
11,95643,12112
11,96055,11043
11,96468,10325
11,96880,10062
11,97292,9322
11,97705,8707
11,98117,7465
11,98528,7165
11,98942,6263
11,99353,6562
11,99765,5489
12,00178,5409
12,00590,5963
12,01002,4975
12,01415,6067
12,01827,5304
12,02238,5118
12,02652,4698
12,03063,4816
12,03475,4430
12,03888,4215
12,04300,3563
12,04712,3936
12,05123,3458
12,05537,3525
12,05948,3082
12,06360,3166
12,06773,3643
12,07185,2418
12,07597,2914
12,08010,3070
12,08422,3202
12,08833,3142
12,09247,3347
12,09658,2594
12,10070,2326
12,10483,2935
12,10895,3221
12,11307,3420
12,11720,2325
12,12132,2842
12,12543,2947
12,12957,3087
12,13368,2630
12,13780,2969
12,14192,2807
12,14605,2262
12,15017,2372
12,15428,2778
12,15842,2652
12,16253,3009
12,16665,2467
12,17078,2532
12,17490,2359
12,17902,2153
12,18315,2873
12,18727,2262
12,19138,1646
12,19552,2742
12,19963,1998
12,20375,2151
12,20788,1659
12,21200,2678
12,21612,2119
12,22025,2460
12,22437,1912
12,22848,2580
12,23260,2217
12,23673,2289
12,24085,2383
12,24497,1644
12,24910,2325
12,25322,2046
12,25733,1886
12,26147,2059
12,26558,2387
12,26970,1781
12,27383,2494
12,27795,2245
12,28207,2569
12,28620,2354
12,29032,2374
12,29443,2209
12,29857,2450
12,30268,2431
12,30680,2071
12,31093,2749
12,31505,2850
12,31917,3259
12,32328,3893
12,32742,4463
12,33153,4412
12,33565,6074
12,33978,5723
12,34390,4534
12,34802,5360
12,35215,4895
12,35627,4380
12,36038,3044
12,36452,2938
12,36863,3092
12,37275,2600
12,37688,2411
12,38100,2406
12,38512,1838
12,38925,1735
12,39337,1913
12,39748,1452
12,40162,2185
12,40573,2259
12,40985,2211
12,41397,1574
12,41810,2582
12,42222,2974
12,42633,3309
12,43047,3158
12,43458,4461
12,43870,3758
12,44283,5267
12,44695,4533
12,45107,4888
12,45520,5492
12,45932,5424
12,46343,4618
12,46757,3950
12,47168,3462
12,47580,3806
12,47993,2985
12,48405,2861
12,48817,2885
12,49230,1780
12,49642,2114
12,50053,2699
12,50465,2254
12,50878,2136
12,51290,2193
12,51702,1872
12,52115,2339
12,52527,1508
12,52938,1914
12,53352,1737
12,53763,2056
12,54175,1510
12,54588,1826
12,55000,1818
12,55412,1675
12,55825,1654
12,56237,2074
12,56648,1178
12,57062,2105
12,57473,1586
12,57885,2355
12,58298,2569
12,58710,1878
12,59122,2640
12,59533,2344
12,59947,2566
12,60358,2045
12,60770,2668
12,61183,1888
12,61595,1770
12,62007,1979
12,62420,1756
12,62832,2278
12,63243,1739
12,63657,1729
12,64068,1531
12,64480,1396
12,64893,1716
12,65305,2090
12,65717,1709
12,66130,2001
12,66542,1443
12,66953,2521
12,67367,1004
12,67778,1677
12,68190,1815
12,68602,2016
12,69015,1653
12,69427,1544
12,69838,2030
12,70252,2161
12,70663,1879
12,71075,1205
12,71488,2057
12,71900,1861
12,72312,1539
12,72725,2302
12,73137,1749
12,73548,1506
12,73962,1578
12,74373,1811
12,74785,1818
12,75198,1431
12,75610,2061
12,76022,2821
12,76435,5467
12,76847,11162
12,77258,25338
12,77670,50162
12,78083,101686
12,78495,186945
12,78907,326422
12,79320,522843
12,79732,766511
12,80143,1068025
12,80557,1361039
12,80968,1632803
12,81380,1844453
12,81793,1931696
12,82205,1903135
12,82617,1748172
12,83030,1497133
12,83442,1230121
12,83853,952580
12,84267,721020
12,84678,527257
12,85090,400302
12,85503,294365
12,85915,225207
12,86327,174932
12,86738,139423
12,87152,113930
12,87563,92560
12,87975,75734
12,88388,63943
12,88800,55660
12,89212,48997
12,89625,43688
12,90037,38607
12,90448,34648
12,90862,29542
12,91273,27165
12,91685,25369
12,92098,23916
12,92510,20640
12,92922,19681
12,93335,17711
12,93747,16596
12,94158,15375
12,94572,15495
12,94983,14386
12,95395,14507
12,95807,15166
12,96220,15627
12,96632,14900
12,97043,16297
12,97457,14802
12,97868,14267
12,98280,13248
12,98693,12268
12,99105,12238
12,99517,10136
12,99930,9446
13,00342,8493
13,00753,7761
13,01167,6228
13,01578,6550
13,01990,5833
13,02403,5402
13,02815,5643
13,03227,5610
13,03640,4825
13,04052,5044
13,04463,4395
13,04875,4587
13,05288,3980
13,05700,3951
13,06112,4120
13,06525,4448
13,06937,3996
13,07348,3115
13,07762,3529
13,08173,3197
13,08585,3314
13,08998,3494
13,09410,3445
13,09822,3216
13,10235,3135
13,10647,3172
13,11058,3249
13,11472,2344
13,11883,2708
13,12295,1893
13,12708,2432
13,13120,2373
13,13532,2493
13,13943,2513
13,14357,3238
13,14768,2519
13,15180,2550
13,15593,2752
13,16005,2457
13,16417,3162
13,16830,3817
13,17242,2014
13,17653,3096
13,18067,2755
13,18478,2220
13,18890,2278
13,19303,2611
13,19715,2404
13,20127,2160
13,20540,1919
13,20952,2431
13,21363,2139
13,21777,2541
13,22188,2036
13,22600,1841
13,23012,1837
13,23425,2236
13,23837,2139
13,24248,1932
13,24662,2237
13,25073,3600
13,25485,5387
13,25898,6746
13,26310,7794
13,26722,7127
13,27135,6612
13,27547,5583
13,27958,4523
13,28372,4432
13,28783,4608
13,29195,4551
13,29608,3381
13,30020,3460
13,30432,2817
13,30845,2751
13,31257,2168
13,31668,1986
13,32082,2299
13,32493,1498
13,32905,1567
13,33317,2225
13,33730,2051
13,34142,1767
13,34553,2284
13,34967,1866
13,35378,1880
13,35790,1738
13,36203,1672
13,36615,1189
13,37027,1463
13,37440,1941
13,37852,1872
13,38263,1843
13,38677,1811
13,39088,1367
13,39500,1628
13,39913,1565
13,40325,907
13,40737,1240
13,41150,1282
13,41562,1699
13,41973,1787
13,42385,2310
13,42798,3725
13,43210,7967
13,43622,18796
13,44035,39261
13,44447,72762
13,44858,129014
13,45272,217011
13,45683,330287
13,46095,473048
13,46508,602997
13,46920,752450
13,47332,852621
13,47745,879636
13,48157,867976
13,48568,810179
13,48982,709539
13,49393,587547
13,49805,478160
13,50218,367216
13,50630,277482
13,51042,211509
13,51453,157548
13,51867,126026
13,52278,97783
13,52690,77044
13,53103,62220
13,53515,52302
13,53927,43332
13,54340,36446
13,54752,33345
13,55163,27782
13,55577,23780
13,55988,22914
13,56400,19686
13,56813,16914
13,57225,14206
13,57637,14424
13,58050,13004
13,58462,9926
13,58873,10421
13,59287,9254
13,59698,9256
13,60110,7246
13,60522,6954
13,60935,6480
13,61347,6357
13,61758,6862
13,62172,5527
13,62583,5176
13,62995,4923
13,63408,3818
13,63820,4236
13,64232,4435
13,64645,4285
13,65057,3773
13,65468,3867
13,65882,3236
13,66293,3294
13,66705,3151
13,67118,3311
13,67530,3258
13,67942,3055
13,68355,2736
13,68767,3351
13,69178,2960
13,69590,6243
13,70003,11187
13,70415,22675
13,70827,45227
13,71240,88368
13,71652,157184
13,72063,263448
13,72477,396462
13,72888,549126
13,73300,721357
13,73713,863413
13,74125,975469
13,74537,1011416
13,74950,977987
13,75362,884711
13,75773,768688
13,76187,608673
13,76598,485148
13,77010,366289
13,77423,271269
13,77835,201619
13,78247,149069
13,78658,115116
13,79072,87313
13,79483,72416
13,79895,57120
13,80308,47789
13,80720,40500
13,81132,33599
13,81545,28551
13,81957,25339
13,82368,22156
13,82782,19736
13,83193,17430
13,83605,15413
13,84018,13850
13,84430,13667
13,84842,12410
13,85255,11210
13,85667,10977
13,86078,9513
13,86492,8900
13,86903,8791
13,87315,7143
13,87727,8061
13,88140,7182
13,88552,6585
13,88963,6600
13,89377,6558
13,89788,5721
13,90200,5894
13,90613,5168
13,91025,4822
13,91437,3993
13,91850,3668
13,92262,4126
13,92673,3598
13,93087,3625
13,93498,3910
13,93910,3182
13,94323,3307
13,94735,2985
13,95147,2851
13,95560,2842
13,95972,2460
13,96383,3441
13,96795,3411
13,97208,3056
13,97620,2627
13,98032,2995
13,98445,2731
13,98857,2228
13,99268,2877
13,99682,2347
14,00093,2206
14,00505,2321
14,00918,2548
14,01330,2875
14,01742,2353
14,02155,1808
14,02567,2279
14,02978,2030
14,03392,1792
14,03803,2133
14,04215,1870
14,04628,2476
14,05040,2095
14,05452,2215
14,05863,2513
14,06277,2027
14,06688,2004
14,07100,1863
14,07513,1900
14,07925,2215
14,08337,2060
14,08750,1459
14,09162,1474
14,09573,1668
14,09987,1557
14,10398,1437
14,10810,2103
14,11223,1868
14,11635,2098
14,12047,2227
14,12460,2519
14,12872,2457
14,13283,2344
14,13697,1832
14,14108,2395
14,14520,2519
14,14932,2805
14,15345,2660
14,15757,2212
14,16168,2132
14,16582,1903
14,16993,2068
14,17405,2520
14,17818,1887
14,18230,1992
14,18642,2306
14,19055,2155
14,19467,2601
14,19878,2452
14,20292,1558
14,20703,1970
14,21115,1778
14,21528,2018
14,21940,1623
14,22352,1692
14,22765,1473
14,23177,1497
14,23588,1234
14,24000,1555
14,24413,1744
14,24825,1663
14,25237,2106
14,25650,894
14,26062,1440
14,26473,1700
14,26887,1563
14,27298,1763
14,27710,1749
14,28123,1739
14,28535,2005
14,28947,1811
14,29360,1184
14,29772,1751
14,30183,1788
14,30597,2284
14,31008,1947
14,31420,2095
14,31833,2253
14,32245,1741
14,32657,2073
14,33068,1869
14,33482,2008
14,33893,2214
14,34305,2672
14,34718,6470
14,35130,13197
14,35542,33824
14,35955,64004
14,36367,119213
14,36778,207367
14,37192,325047
14,37603,473992
14,38015,639203
14,38428,800846
14,38840,901659
14,39252,971460
14,39665,957946
14,40077,882482
14,40488,769783
14,40902,641602
14,41313,515070
14,41725,392826
14,42137,302071
14,42550,223130
14,42962,169222
14,43373,129891
14,43787,99828
14,44198,80724
14,44610,63637
14,45023,51948
14,45435,45248
14,45847,36759
14,46260,30897
14,46672,27314
14,47083,25076
14,47497,22338
14,47908,18423
14,48320,17078
14,48733,14742
14,49145,15162
14,49557,11240
14,49970,11367
14,50382,9447
14,50793,9548
14,51205,8273
14,51618,7392
14,52030,6995
14,52442,6305
14,52855,5681
14,53267,5870
14,53678,5582
14,54092,4649
14,54503,5225
14,54915,4543
14,55328,4135
14,55740,4127
14,56152,3964
14,56565,3087
14,56977,4261
14,57388,4059
14,57802,4089
14,58213,3430
14,58625,4873
14,59038,7172
14,59450,18189
14,59862,37801
14,60273,76220
14,60687,140777
14,61098,260875
14,61510,428957
14,61923,678559
14,62335,987326
14,62747,1373242
14,63160,1815816
14,63572,2268016
14,63983,2675229
14,64397,2998989
14,64808,3200334
14,65220,3157111
14,65633,2861329
14,66045,2426887
14,66457,1931630
14,66870,1451719
14,67282,1073616
14,67693,767416
14,68107,558726
14,68518,412469
14,68930,314601
14,69342,243410
14,69755,192885
14,70167,152653
14,70578,132410
14,70992,110759
14,71403,92792
14,71815,84150
14,72228,73997
14,72640,64858
14,73052,57508
14,73465,50888
14,73877,48350
14,74288,41477
14,74702,39225
14,75113,33414
14,75525,32884
14,75938,30202
14,76350,28818
14,76762,26343
14,77175,23856
14,77587,21655
14,77998,19646
14,78410,18654
14,78823,16502
14,79235,17212
14,79647,14534
14,80060,13967
14,80472,13393
14,80883,13144
14,81297,13448
14,81708,11319
14,82120,10436
14,82533,11067
14,82945,9526
14,83357,8663
14,83770,8629
14,84182,8961
14,84593,9119
14,85007,8976
14,85418,7930
14,85830,8229
14,86243,7407
14,86655,7440
14,87067,6645
14,87478,6483
14,87892,5258
14,88303,5618
14,88715,5972
14,89128,4572
14,89540,5164
14,89952,4602
14,90365,4313
14,90777,4132
14,91188,4362
14,91602,3838
14,92013,4495
14,92425,4066
14,92838,3304
14,93250,4256
14,93662,3453
14,94075,3681
14,94487,3955
14,94898,3637
14,95312,3472
14,95723,4013
14,96135,3832
14,96548,4922
14,96960,3965
14,97372,3401
14,97783,3751
14,98197,4115
14,98608,4671
14,99020,3651
14,99433,3609
14,99845,3535
15,00257,3154
15,00670,3295
15,01082,2902
15,01493,2694
15,01907,2798
15,02318,2736
15,02730,2685
15,03143,2747
15,03555,2373
15,03967,3215
15,04380,2139
15,04792,3804
15,05203,5858
15,05617,7702
15,06028,9565
15,06440,8582
15,06852,6945
15,07265,7249
15,07677,5624
15,08088,4848
15,08502,4004
15,08913,4326
15,09325,3895
15,09738,3040
15,10150,3050
15,10562,3475
15,10975,6017
15,11387,11069
15,11798,21316
15,12212,45899
15,12623,86107
15,13035,151068
15,13448,251098
15,13860,389014
15,14272,539188
15,14685,698212
15,15097,845409
15,15508,948741
15,15920,995991
15,16333,966712
15,16745,888787
15,17157,764199
15,17570,622403
15,17982,489837
15,18393,380655
15,18807,284217
15,19218,214064
15,19630,161874
15,20043,124933
15,20455,100065
15,20867,83201
15,21280,69783
15,21692,61832
15,22103,52829
15,22517,49507
15,22928,41143
15,23340,38474
15,23753,32524
15,24165,30864
15,24577,27064
15,24988,24489
15,25402,23467
15,25813,21619
15,26225,21569
15,26638,20524
15,27050,20488
15,27462,19578
15,27875,19020
15,28287,16178
15,28698,15001
15,29112,14173
15,29523,12191
15,29935,10750
15,30348,10033
15,30760,9186
15,31172,7694
15,31585,6406
15,31997,6837
15,32408,5984
15,32822,6053
15,33233,4373
15,33645,5160
15,34057,4951
15,34470,4432
15,34882,3898
15,35293,4821
15,35707,3967
15,36118,4179
15,36530,4219
15,36943,4225
15,37355,3719
15,37767,2913
15,38180,3213
15,38592,3801
15,39003,2959
15,39417,3790
15,39828,3377
15,40240,3258
15,40653,2984
15,41065,3030
15,41477,2354
15,41890,3156
15,42302,2372
15,42713,2100
15,43125,3630
15,43538,2791
15,43950,3372
15,44362,3151
15,44775,5979
15,45187,9766
15,45598,20698
15,46012,40977
15,46423,79362
15,46835,144347
15,47248,242384
15,47660,374595
15,48072,533486
15,48485,714081
15,48897,878286
15,49308,1033081
15,49722,1125909
15,50133,1130171
15,50545,1036114
15,50958,909995
15,51370,736188
15,51782,571857
15,52193,429302
15,52607,321993
15,53018,238306
15,53430,176192
15,53843,134924
15,54255,101782
15,54667,82183
15,55080,65223
15,55492,52702
15,55903,45924
15,56317,39165
15,56728,34982
15,57140,30628
15,57553,27119
15,57965,20811
15,58377,21378
15,58790,18728
15,59202,16608
15,59613,14821
15,60027,14044
15,60438,14078
15,60850,11800
15,61262,10936
15,61675,10387
15,62087,10162
15,62498,8616
15,62912,8896
15,63323,8626
15,63735,7149
15,64148,7176
15,64560,7869
15,64972,8058
15,65385,7858
15,65797,7186
15,66208,5669
15,66622,6580
15,67033,6992
15,67445,7054
15,67858,5316
15,68270,6874
15,68682,5231
15,69095,4149
15,69507,4776
15,69918,4760
15,70330,3890
15,70743,4071
15,71155,3516
15,71567,4505
15,71980,4318
15,72392,4144
15,72803,3702
15,73217,4264
15,73628,4594
15,74040,4059
15,74453,4376
15,74865,3875
15,75277,4640
15,75690,4308
15,76102,3701
15,76513,3705
15,76927,3744
15,77338,3603
15,77750,3337
15,78163,3495
15,78575,3068
15,78987,3590
15,79398,2548
15,79812,3231
15,80223,3230
15,80635,3141
15,81048,2705
15,81460,2134
15,81872,2609
15,82285,2505
15,82697,1987
15,83108,2291
15,83522,2284
15,83933,2651
15,84345,2184
15,84758,1585
15,85170,2100
15,85582,1535
15,85995,1837
15,86407,2468
15,86818,3174
15,87232,1871
15,87643,2596
15,88055,2178
15,88467,1810
15,88880,2529
15,89292,1816
15,89703,2140
15,90117,1565
15,90528,2435
15,90940,2774
15,91353,2397
15,91765,3576
15,92177,2542
15,92590,2649
15,93002,2382
15,93413,2050
15,93827,3514
15,94238,2783
15,94650,2849
15,95063,4882
15,95475,6711
15,95887,13901
15,96300,29288
15,96712,58105
15,97123,108974
15,97535,195070
15,97948,306900
15,98360,460802
15,98772,636040
15,99185,811654
15,99597,949928
16,00008,1053018
16,00422,1086221
16,00833,1047057
16,01245,934288
16,01658,775357
16,02070,624638
16,02482,480159
16,02895,364158
16,03307,270476
16,03718,200984
16,04132,149897
16,04543,120841
16,04955,94262
16,05368,76403
16,05780,60117
16,06192,51269
16,06603,45225
16,07017,35854
16,07428,32095
16,07840,28253
16,08253,25956
16,08665,23952
16,09077,19933
16,09490,18509
16,09902,18335
16,10313,16585
16,10727,14993
16,11138,13544
16,11550,15322
16,11963,12349
16,12375,11140
16,12787,10019
16,13200,9036
16,13612,8973
16,14023,8450
16,14437,7166
16,14848,7810
16,15260,6078
16,15672,5866
16,16085,5610
16,16497,5239
16,16908,5789
16,17322,6253
16,17733,5227
16,18145,5133
16,18558,4359
16,18970,4719
16,19382,5705
16,19795,7061
16,20207,9280
16,20618,10690
16,21032,13478
16,21443,17061
16,21855,19574
16,22268,22131
16,22680,23895
16,23092,23793
16,23505,24480
16,23917,24651
16,24328,19919
16,24740,17334
16,25153,14783
16,25565,12049
16,25977,10357
16,26390,8043
16,26802,10192
16,27213,7455
16,27627,12697
16,28038,17917
16,28450,32695
16,28863,63861
16,29275,117464
16,29687,203485
16,30100,333794
16,30512,512228
16,30923,755450
16,31337,1046225
16,31748,1356751
16,32160,1674945
16,32573,2009452
16,32985,2237703
16,33397,2354909
16,33808,2316558
16,34222,2080632
16,34633,1777714
16,35045,1430713
16,35458,1080787
16,35870,796297
16,36282,579004
16,36695,428557
16,37107,318531
16,37518,241791
16,37932,189896
16,38343,154624
16,38755,126604
16,39168,107735
16,39580,93088
16,39992,78603
16,40405,69590
16,40817,61357
16,41228,54838
16,41642,48467
16,42053,45139
16,42465,39930
16,42877,34521
16,43290,34365
16,43702,28887
16,44113,28532
16,44527,25945
16,44938,23325
16,45350,23425
16,45763,21244
16,46175,20260
16,46587,19479
16,47000,17196
16,47412,15729
16,47823,14932
16,48237,13587
16,48648,13256
16,49060,13013
16,49473,12014
16,49885,10732
16,50297,11375
16,50710,10346
16,51122,10142
16,51533,9951
16,51945,9337
16,52358,9219
16,52770,7943
16,53182,8249
16,53595,7546
16,54007,8190
16,54418,7024
16,54832,7141
16,55243,7640
16,55655,11090
16,56068,17474
16,56480,32252
16,56892,60228
16,57305,107270
16,57717,183274
16,58128,289794
16,58542,424093
16,58953,584968
16,59365,753210
16,59778,910524
16,60190,1037889
16,60602,1084678
16,61015,1102383
16,61427,1020858
16,61838,900262
16,62250,755503
16,62663,611374
16,63075,465471
16,63487,355712
16,63900,266413
16,64312,198918
16,64723,153647
16,65137,122931
16,65548,95622
16,65960,79377
16,66373,65176
16,66785,54027
16,67197,47182
16,67610,40776
16,68022,37589
16,68433,31354
16,68847,28627
16,69258,27016
16,69670,27622
16,70083,30358
16,70495,40558
16,70907,63202
16,71318,106794
16,71732,184684
16,72143,299277
16,72555,475334
16,72968,708439
16,73380,1003203
16,73792,1317441
16,74205,1646717
16,74617,1962621
16,75028,2165421
16,75442,2272515
16,75853,2155688
16,76265,1934114
16,76678,1637247
16,77090,1290786
16,77502,1000055
16,77915,734853
16,78327,547824
16,78738,404604
16,79152,305958
16,79563,237312
16,79975,188414
16,80387,155749
16,80800,127859
16,81212,108700
16,81623,93205
16,82037,81201
16,82448,75032
16,82860,63663
16,83273,59205
16,83685,52038
16,84097,47832
16,84510,42318
16,84922,39513
16,85333,36426
16,85747,34381
16,86158,30067
16,86570,27849
16,86983,26923
16,87395,25865
16,87807,24499
16,88220,22042
16,88632,19519
16,89043,20012
16,89455,19769
16,89868,17249
16,90280,17648
16,90692,16935
16,91105,15175
16,91517,15032
16,91928,13670
16,92342,14004
16,92753,12184
16,93165,11125
16,93578,10844
16,93990,9529
16,94402,9685
16,94815,9986
16,95227,9540
16,95638,8966
16,96052,9245
16,96463,7039
16,96875,8719
16,97288,8469
16,97700,8353
16,98112,7263
16,98523,6314
16,98937,6390
16,99348,6275
16,99760,5658
17,00173,6096
17,00585,6813
17,00997,5759
17,01410,6286
17,01822,7293
17,02233,12380
17,02647,23989
17,03058,44438
17,03470,84177
17,03883,153466
17,04295,262855
17,04707,403134
17,05120,575973
17,05532,769361
17,05943,928573
17,06357,1028863
17,06768,1071361
17,07180,1030725
17,07592,930050
17,08005,791606
17,08417,637698
17,08828,499203
17,09242,388686
17,09653,288031
17,10065,225762
17,10478,173607
17,10890,129859
17,11302,105451
17,11715,86485
17,12127,70298
17,12538,59873
17,12952,51944
17,13363,44350
17,13775,39531
17,14188,37484
17,14600,31844
17,15012,29601
17,15425,26622
17,15837,24945
17,16248,21269
17,16660,23004
17,17073,19851
17,17485,18856
17,17897,17859
17,18310,14505
17,18722,14897
17,19133,13964
17,19547,14366
17,19958,13112
17,20370,11648
17,20783,11824
17,21195,10172
17,21607,10737
17,22020,11252
17,22432,10699
17,22843,10920
17,23257,11511
17,23668,11685
17,24080,11528
17,24493,10769
17,24905,9541
17,25317,8412
17,25728,8083
17,26142,9609
17,26553,7971
17,26965,7987
17,27378,7693
17,27790,9154
17,28202,8128
17,28615,7884
17,29027,7893
17,29438,8613
17,29852,9296
17,30263,8411
17,30675,6986
17,31088,6243
17,31500,7806
17,31912,7178
17,32325,4819
17,32737,5154
17,33148,5765
17,33562,5346
17,33973,5409
17,34385,6950
17,34797,9572
17,35210,14326
17,35622,27693
17,36033,51330
17,36447,96579
17,36858,169909
17,37270,269131
17,37683,411864
17,38095,568811
17,38507,734314
17,38920,880678
17,39332,987527
17,39743,1011706
17,40157,973163
17,40568,876663
17,40980,735004
17,41393,597727
17,41805,470852
17,42217,354673
17,42630,266258
17,43042,200507
17,43453,150778
17,43865,116622
17,44278,93946
17,44690,76963
17,45102,65074
17,45515,55644
17,45927,46954
17,46338,38839
17,46752,36758
17,47163,32774
17,47575,28857
17,47988,28795
17,48400,25178
17,48812,23599
17,49225,23407
17,49637,20473
17,50048,20674
17,50462,18604
17,50873,19759
17,51285,17210
17,51698,17325
17,52110,15319
17,52522,16148
17,52933,14569
17,53347,14466
17,53758,12473
17,54170,10314
17,54583,12209
17,54995,10493
17,55407,10418
17,55820,9581
17,56232,8550
17,56643,10313
17,57057,8542
17,57468,9481
17,57880,9139
17,58293,7137
17,58705,6683
17,59117,6748
17,59530,7440
17,59942,6836
17,60353,6572
17,60767,6874
17,61178,6211
17,61590,5796
17,62002,5875
17,62415,6260
17,62827,5843
17,63238,6003
17,63652,5785
17,64063,6609
17,64475,5378
17,64888,5635
17,65300,7434
17,65712,5045
17,66125,4158
17,66537,4799
17,66948,4990
17,67362,4855
17,67773,4438
17,68185,4741
17,68598,5091
17,69010,4622
17,69422,4309
17,69835,5146
17,70247,3668
17,70658,4925
17,71070,4483
17,71483,3826
17,71895,4344
17,72307,3956
17,72720,4978
17,73132,3962
17,73543,3214
17,73957,3540
17,74368,3567
17,74780,4406
17,75193,3885
17,75605,3452
17,76017,4246
17,76430,4661
17,76842,5129
17,77253,4431
17,77667,3840
17,78078,3740
17,78490,3766
17,78903,4609
17,79315,4393
17,79727,4164
17,80138,5711
17,80552,9356
17,80963,17956
17,81375,34895
17,81788,63693
17,82200,120721
17,82612,202785
17,83025,320478
17,83437,482800
17,83848,671168
17,84262,877432
17,84673,1087817
17,85085,1295053
17,85498,1496635
17,85910,1675256
17,86322,1855505
17,86735,2046665
17,87147,2266903
17,87558,2477147
17,87972,2622915
17,88383,2683279
17,88795,2577664
17,89207,2336963
17,89620,1954583
17,90032,1562079
17,90443,1186426
17,90857,881059
17,91268,652436
17,91680,476674
17,92093,370988
17,92505,291571
17,92917,240609
17,93330,197942
17,93742,166946
17,94153,142968
17,94567,125501
17,94978,106986
17,95390,95889
17,95803,87767
17,96215,80008
17,96627,70038
17,97040,66409
17,97452,59471
17,97863,55543
17,98275,49828
17,98688,45080
17,99100,44448
17,99512,41574
17,99925,38275
18,00337,37147
18,00748,36529
18,01162,36501
18,01573,36619
18,01985,39523
18,02398,38546
18,02810,40889
18,03222,42254
18,03635,42475
18,04047,42352
18,04458,39417
18,04872,37441
18,05283,36247
18,05695,31563
18,06108,27428
18,06520,25021
18,06932,24295
18,07343,22850
18,07757,19562
18,08168,19339
18,08580,20094
18,08993,21284
18,09405,27762
18,09817,39825
18,10230,68443
18,10642,116222
18,11053,184502
18,11467,286119
18,11878,412423
18,12290,554599
18,12703,685185
18,13115,793431
18,13527,866047
18,13940,877002
18,14352,822583
18,14763,739260
18,15177,612961
18,15588,493955
18,16000,385533
18,16413,293747
18,16825,224811
18,17237,171576
18,17648,133762
18,18062,103441
18,18473,86856
18,18885,69848
18,19298,59355
18,19710,50485
18,20122,47120
18,20535,40254
18,20947,36299
18,21358,34640
18,21772,31496
18,22183,32812
18,22595,38447
18,23008,54074
18,23420,73479
18,23832,122304
18,24245,199270
18,24657,300735
18,25068,457706
18,25482,623691
18,25893,811218
18,26305,988600
18,26717,1103472
18,27130,1169694
18,27542,1135828
18,27953,1052250
18,28367,900436
18,28778,733482
18,29190,586714
18,29603,453606
18,30015,346398
18,30427,266085
18,30840,200808
18,31252,160741
18,31663,128364
18,32077,107538
18,32488,89951
18,32900,82129
18,33313,70201
18,33725,60327
18,34137,58825
18,34550,54711
18,34962,53219
18,35373,46625
18,35785,44476
18,36198,41171
18,36610,36720
18,37022,31373
18,37435,27016
18,37847,26281
18,38258,26247
18,38672,23748
18,39083,23706
18,39495,21261
18,39908,19824
18,40320,19936
18,40732,21033
18,41145,18511
18,41557,18623
18,41968,18190
18,42382,17350
18,42793,18063
18,43205,17965
18,43618,15840
18,44030,15498
18,44442,15104
18,44853,13249
18,45267,13596
18,45678,12916
18,46090,12548
18,46503,11803
18,46915,11702
18,47327,11726
18,47740,10431
18,48152,12650
18,48563,8521
18,48977,9163
18,49388,11309
18,49800,10339
18,50213,9836
18,50625,11039
18,51037,9735
18,51450,8619
18,51862,8934
18,52273,9072
18,52687,9611
18,53098,8585
18,53510,8748
18,53922,9144
18,54335,7470
18,54747,11571
18,55158,11389
18,55572,17158
18,55983,27109
18,56395,50105
18,56808,90430
18,57220,154950
18,57632,262062
18,58045,401269
18,58457,585921
18,58868,783687
18,59282,978852
18,59693,1153476
18,60105,1242497
18,60518,1253482
18,60930,1168350
18,61342,1018842
18,61755,823350
18,62167,643777
18,62578,486208
18,62990,365602
18,63403,280672
18,63815,215429
18,64227,174123
18,64640,137301
18,65052,115273
18,65463,98198
18,65877,85058
18,66288,72955
18,66700,66066
18,67113,57884
18,67525,49831
18,67937,44830
18,68350,44733
18,68762,37157
18,69173,36759
18,69587,34833
18,69998,33526
18,70410,31277
18,70823,32078
18,71235,31031
18,71647,30084
18,72058,27417
18,72472,28233
18,72883,26173
18,73295,22628
18,73708,22921
18,74120,22705
18,74532,19341
18,74945,18543
18,75357,17213
18,75768,16672
18,76182,17257
18,76593,15532
18,77005,14600
18,77418,15633
18,77830,13692
18,78242,14604
18,78655,15329
18,79067,13898
18,79478,12707
18,79892,12560
18,80303,13146
18,80715,11983
18,81127,11771
18,81540,11727
18,81952,12098
18,82363,10050
18,82777,11006
18,83188,11545
18,83600,15096
18,84013,23035
18,84425,33683
18,84837,57865
18,85250,102961
18,85662,175725
18,86073,277605
18,86487,413425
18,86898,579413
18,87310,739056
18,87723,901837
18,88135,1016558
18,88547,1047032
18,88960,1012996
18,89372,907881
18,89783,763780
18,90195,622687
18,90608,490580
18,91020,369530
18,91432,292458
18,91845,221669
18,92257,171637
18,92668,136066
18,93082,109353
18,93493,93862
18,93905,76567
18,94318,69065
18,94730,59736
18,95142,54999
18,95555,44717
18,95967,43139
18,96378,38889
18,96792,36608
18,97203,32129
18,97615,32047
18,98028,29255
18,98440,25362
18,98852,24292
18,99263,24427
18,99677,21579
19,00088,23250
19,00500,22589
19,00913,19520
19,01325,19177
19,01737,18827
19,02150,17648
19,02562,17512
19,02973,16672
19,03387,15935
19,03798,14077
19,04210,14852
19,04623,13620
19,05035,12878
19,05447,12877
19,05860,13790
19,06272,13197
19,06683,13339
19,07097,13509
19,07508,11342
19,07920,13179
19,08332,12173
19,08745,11900
19,09157,10230
19,09568,11472
19,09982,10181
19,10393,11086
19,10805,12279
19,11218,11403
19,11630,11112
19,12042,10651
19,12455,10084
19,12867,11838
19,13278,9715
19,13692,9886
19,14103,8225
19,14515,10509
19,14928,10267
19,15340,10162
19,15752,10430
19,16165,10065
19,16577,10199
19,16988,10476
19,17400,10212
19,17813,11263
19,18225,10837
19,18637,11868
19,19050,11420
19,19462,12881
19,19873,11521
19,20287,13007
19,20698,11383
19,21110,10683
19,21523,11143
19,21935,9611
19,22347,10683
19,22760,10000
19,23172,9577
19,23583,9056
19,23997,8866
19,24408,9851
19,24820,9932
19,25233,10469
19,25645,13142
19,26057,18795
19,26468,31568
19,26882,55337
19,27293,100800
19,27705,177447
19,28118,304420
19,28530,482638
19,28942,744645
19,29355,1083439
19,29767,1481061
19,30178,1943173
19,30592,2400949
19,31003,2828402
19,31415,3153879
19,31828,3319431
19,32240,3309389
19,32652,3036368
19,33065,2601626
19,33477,2089011
19,33888,1599518
19,34302,1203467
19,34713,894400
19,35125,672406
19,35537,522655
19,35950,412617
19,36362,332856
19,36773,278846
19,37187,237419
19,37598,205673
19,38010,179707
19,38423,157510
19,38835,142535
19,39247,128890
19,39660,119280
19,40072,109028
19,40483,102171
19,40897,90424
19,41308,89054
19,41720,80790
19,42133,76583
19,42545,69087
19,42957,68364
19,43370,65813
19,43782,61100
19,44193,57043
19,44605,56204
19,45018,50329
19,45430,50108
19,45842,47996
19,46255,44436
19,46667,41068
19,47078,38949
19,47492,39205
19,47903,36990
19,48315,35971
19,48728,35633
19,49140,33327
19,49552,33396
19,49965,32012
19,50377,30386
19,50788,29222
19,51202,29610
19,51613,28217
19,52025,28157
19,52438,26559
19,52850,31367
19,53262,34568
19,53673,45105
19,54087,63695
19,54498,103102
19,54910,166449
19,55323,260249
19,55735,382578
19,56147,528127
19,56560,680050
19,56972,827367
19,57383,928135
19,57797,957572
19,58208,933534
19,58620,838279
19,59033,736241
19,59445,609412
19,59857,513001
19,60270,443168
19,60682,423689
19,61093,448643
19,61507,514021
19,61918,619060
19,62330,724501
19,62742,822800
19,63155,887603
19,63567,925634
19,63978,901767
19,64392,838330
19,64803,774156
19,65215,708567
19,65628,670103
19,66040,688287
19,66452,752872
19,66865,858578
19,67277,988787
19,67688,1109177
19,68102,1193730
19,68513,1216512
19,68925,1164933
19,69338,1065498
19,69750,910854
19,70162,752764
19,70575,601843
19,70987,476851
19,71398,379162
19,71812,304326
19,72223,246401
19,72635,198681
19,73047,172614
19,73460,148042
19,73872,128699
19,74283,115645
19,74697,106164
19,75108,97949
19,75520,88808
19,75933,80489
19,76345,74972
19,76757,67552
19,77170,63338
19,77582,58683
19,77993,56715
19,78407,54066
19,78818,49616
19,79230,47340
19,79643,44748
19,80055,43467
19,80467,38865
19,80880,37777
19,81292,38461
19,81703,36297
19,82115,35235
19,82528,34583
19,82940,32865
19,83352,32545
19,83765,31117
19,84177,29364
19,84588,31377
19,85002,31950
19,85413,33376
19,85825,33854
19,86238,34923
19,86650,32945
19,87062,29479
19,87475,26630
19,87887,25272
19,88298,24461
19,88712,25127
19,89123,23740
19,89535,25211
19,89948,24966
19,90360,23987
19,90772,23988
19,91183,23931
19,91597,22673
19,92008,23463
19,92420,22642
19,92833,23644
19,93245,27819
19,93657,32311
19,94070,46560
19,94482,68308
19,94893,114290
19,95307,181118
19,95718,283509
19,96130,414602
19,96543,583724
19,96955,767601
19,97367,953678
19,97780,1109129
19,98192,1182521
19,98603,1184533
19,99017,1091051
19,99428,957567
19,99840,777083
20,00252,619562
20,00665,475195
20,01077,368711
20,01488,287731
20,01902,230977
20,02313,191787
20,02725,165647
20,03138,138686
20,03550,122335
20,03962,107474
20,04375,99089
20,04787,89500
20,05198,77779
20,05612,71266
20,06023,66736
20,06435,64100
20,06848,57625
20,07260,55253
20,07672,53236
20,08085,52597
20,08497,46648
20,08908,47299
20,09320,45047
20,09733,42323
20,10145,40043
20,10557,40024
20,10970,36366
20,11382,37252
20,11793,35391
20,12207,34697
20,12618,31852
20,13030,32090
20,13443,31390
20,13855,30680
20,14267,29322
20,14680,30765
20,15092,30638
20,15503,29248
20,15917,30042
20,16328,27685
20,16740,26948
20,17153,28268
20,17565,25705
20,17977,24935
20,18388,23912
20,18802,25866
20,19213,23956
20,19625,21920
20,20038,22495
20,20450,21766
20,20862,22430
20,21275,23642
20,21687,30893
20,22098,36286
20,22512,53183
20,22923,83204
20,23335,135848
20,23748,219310
20,24160,326254
20,24572,476231
20,24985,628913
20,25397,783296
20,25808,913115
20,26222,993961
20,26633,995436
20,27045,930807
20,27457,831135
20,27870,711026
20,28282,582306
20,28693,467080
20,29107,364488
20,29518,290298
20,29930,239646
20,30343,199033
20,30755,173473
20,31167,168183
20,31580,178190
20,31992,220352
20,32403,281814
20,32817,369546
20,33228,467909
20,33640,568009
20,34053,669884
20,34465,738861
20,34877,787621
20,35290,761756
20,35702,715333
20,36113,643170
20,36525,548446
20,36938,456495
20,37350,369625
20,37762,301498
20,38175,240275
20,38587,199015
20,38998,158101
20,39412,132498
20,39823,113919
20,40235,97947
20,40648,85700
20,41060,79135
20,41472,72489
20,41885,65547
20,42297,59998
20,42708,58265
20,43122,50918
20,43533,47507
20,43945,46172
20,44358,44397
20,44770,40776
20,45182,39005
20,45593,37309
20,46007,36680
20,46418,33867
20,46830,34918
20,47243,31866
20,47655,32118
20,48067,30339
20,48480,28601
20,48892,29796
20,49303,30818
20,49717,27415
20,50128,26943
20,50540,27756
20,50953,25101
20,51365,25968
20,51777,26370
20,52190,25416
20,52602,24910
20,53013,23704
20,53427,25192
20,53838,23160
20,54250,22250
20,54662,23173
20,55075,22769
20,55487,22586
20,55898,21260
20,56312,20072
20,56723,19679
20,57135,19542
20,57548,20180
20,57960,18331
20,58372,18779
20,58785,19532
20,59197,19562
20,59608,19716
20,60022,20107
20,60433,20850
20,60845,26207
20,61258,34267
20,61670,50522
20,62082,80411
20,62495,121988
20,62907,182708
20,63318,270888
20,63730,393944
20,64143,553405
20,64555,737313
20,64967,949907
20,65380,1178455
20,65792,1429299
20,66203,1660523
20,66617,1884595
20,67028,2047449
20,67440,2071236
20,67853,1987232
20,68265,1781399
20,68677,1501865
20,69090,1195089
20,69502,935328
20,69913,727877
20,70327,570499
20,70738,458867
20,71150,375549
20,71563,315159
20,71975,274090
20,72387,236906
20,72798,206442
20,73212,180991
20,73623,168037
20,74035,153273
20,74448,137532
20,74860,127083
20,75272,112940
20,75685,107575
20,76097,99474
20,76508,95296
20,76922,88955
20,77333,84422
20,77745,78132
20,78158,73280
20,78570,69854
20,78982,70849
20,79395,66358
20,79807,61898
20,80218,59948
20,80632,58641
20,81043,55958
20,81455,53332
20,81867,50711
20,82280,50330
20,82692,45932
20,83103,46759
20,83517,45806
20,83928,43843
20,84340,45023
20,84753,40543
20,85165,40358
20,85577,40315
20,85990,39985
20,86402,38995
20,86813,38930
20,87227,36638
20,87638,39518
20,88050,37708
20,88463,36002
20,88875,34851
20,89287,33758
20,89700,35782
20,90112,34604
20,90523,30692
20,90935,32189
20,91348,31322
20,91760,31547
20,92172,29363
20,92585,27547
20,92997,29109
20,93408,27718
20,93822,25643
20,94233,27286
20,94645,26322
20,95058,25762
20,95470,26787
20,95882,25688
20,96295,25438
20,96707,27125
20,97118,25868
20,97532,23927
20,97943,27683
20,98355,24221
20,98768,27363
20,99180,30878
20,99592,35569
21,00003,49660
21,00417,67290
21,00828,101726
21,01240,150294
21,01653,221242
21,02065,316410
21,02477,428180
21,02890,565287
21,03302,696330
21,03713,822227
21,04127,920708
21,04538,974197
21,04950,983780
21,05363,921284
21,05775,841116
21,06187,728032
21,06600,613614
21,07012,500301
21,07423,410089
21,07837,332574
21,08248,276832
21,08660,225880
21,09072,193777
21,09485,169680
21,09897,149698
21,10308,135334
21,10722,119668
21,11133,107493
21,11545,100364
21,11958,93257
21,12370,83520
21,12782,79514
21,13195,76190
21,13607,70402
21,14018,67586
21,14432,61417
21,14843,56901
21,15255,56429
21,15668,51986
21,16080,48597
21,16492,48927
21,16905,45410
21,17317,42247
21,17728,43520
21,18140,42237
21,18553,42660
21,18965,38699
21,19377,35754
21,19790,37941
21,20202,35833
21,20613,35284
21,21027,35658
21,21438,34573
21,21850,33086
21,22263,33183
21,22675,32091
21,23087,29956
21,23500,29897
21,23912,28260
21,24323,28839
21,24737,28978
21,25148,31205
21,25560,27729
21,25973,27841
21,26385,27071
21,26797,26499
21,27208,24196
21,27622,25821
21,28033,25016
21,28445,25223
21,28858,23833
21,29270,25348
21,29682,23883
21,30095,22816
21,30507,23118
21,30918,24137
21,31332,24509
21,31743,25047
21,32155,23258
21,32568,22462
21,32980,25349
21,33392,26536
21,33805,26887
21,34217,28376
21,34628,27898
21,35042,28310
21,35453,30070
21,35865,30459
21,36278,31952
21,36690,33164
21,37102,34692
21,37513,33816
21,37927,34635
21,38338,31792
21,38750,30484
21,39163,25530
21,39575,25267
21,39987,24144
21,40400,23011
21,40812,21759
21,41223,23692
21,41637,20833
21,42048,19916
21,42460,20286
21,42873,21385
21,43285,19471
21,43697,18845
21,44110,19870
21,44522,17822
21,44933,21610
21,45347,19636
21,45758,20663
21,46170,20486
21,46582,21413
21,46995,19733
21,47407,22652
21,47818,20662
21,48232,20156
21,48643,19610
21,49055,19381
21,49468,18578
21,49880,20353
21,50292,18677
21,50705,19014
21,51117,20054
21,51528,18283
21,51942,18933
21,52353,18734
21,52765,18037
21,53178,18975
21,53590,18921
21,54002,19847
21,54415,19452
21,54827,18202
21,55238,17768
21,55650,20279
21,56063,16905
21,56475,19619
21,56887,18911
21,57300,19686
21,57712,19476
21,58123,19279
21,58537,19163
21,58948,20392
21,59360,20371
21,59773,20440
21,60185,20301
21,60597,20160
21,61010,21822
21,61422,21175
21,61833,20148
21,62247,20857
21,62658,19315
21,63070,19306
21,63483,18688
21,63895,18436
21,64307,19083
21,64718,18448
21,65132,18269
21,65543,16468
21,65955,17835
21,66368,15813
21,66780,18828
21,67192,17245
21,67605,15985
21,68017,16962
21,68428,16941
21,68842,18958
21,69253,19259
21,69665,19548
21,70078,18297
21,70490,17015
21,70902,17315
21,71315,19827
21,71727,19718
21,72138,18489
21,72552,17712
21,72963,16163
21,73375,19145
21,73787,17556
21,74200,18274
21,74612,18098
21,75023,16779
21,75437,16929
21,75848,18444
21,76260,18538
21,76673,17615
21,77085,16616
21,77497,17874
21,77910,17768
21,78322,15806
21,78733,17663
21,79147,16524
21,79558,14477
21,79970,17253
21,80383,16145
21,80795,17005
21,81207,16934
21,81620,14945
21,82032,15277
21,82443,16283
21,82855,16905
21,83268,18680
21,83680,16209
21,84092,17030
21,84505,15215
21,84917,16716
21,85328,15936
21,85742,16910
21,86153,15544
21,86565,15920
21,86978,15935
21,87390,15899
21,87802,16827
21,88215,16385
21,88627,16679
21,89038,17186
21,89452,16716
21,89863,17911
21,90275,17672
21,90688,17205
21,91100,16868
21,91512,16463
21,91923,15915
21,92337,18546
21,92748,17495
21,93160,15821
21,93573,16220
21,93985,15608
21,94397,17774
21,94810,16066
21,95222,15809
21,95633,15217
21,96047,15711
21,96458,15460
21,96870,15319
21,97283,16611
21,97695,15180
21,98107,16328
21,98520,15054
21,98932,15212
21,99343,15220
21,99757,14957
22,00168,14536
22,00580,14807
22,00992,13572
22,01405,13669
22,01817,16069
22,02228,14570
22,02642,14613
22,03053,14137
22,03465,15383
22,03878,15073
22,04290,15621
22,04702,15820
22,05115,15021
22,05527,15021
22,05938,14874
22,06352,17055
22,06763,15062
22,07175,16171
22,07588,15302
22,08000,16944
22,08412,15613
22,08825,14808
22,09237,14084
22,09648,16494
22,10060,14738
22,10473,15796
22,10885,16098
22,11297,15691
22,11710,19027
22,12122,17631
22,12533,18184
22,12947,18777
22,13358,22972
22,13770,27275
22,14183,35826
22,14595,50710
22,15007,72891
22,15420,107651
22,15832,150965
22,16243,206984
22,16657,269809
22,17068,343685
22,17480,408120
22,17893,467543
22,18305,515669
22,18717,535556
22,19128,536878
22,19542,510289
22,19953,480216
22,20365,435776
22,20778,375959
22,21190,325269
22,21602,279593
22,22015,233061
22,22427,203395
22,22838,170336
22,23252,147341
22,23663,127435
22,24075,110022
22,24488,97579
22,24900,88199
22,25312,79867
22,25725,70731
22,26137,63931
22,26548,60724
22,26962,55507
22,27373,51701
22,27785,47533
22,28197,45620
22,28610,45915
22,29022,43200
22,29433,41441
22,29847,40286
22,30258,38626
22,30670,39154
22,31083,36551
22,31495,35639
22,31907,34331
22,32320,33183
22,32732,32212
22,33143,30881
22,33557,29312
22,33968,29277
22,34380,28115
22,34793,27627
22,35205,29588
22,35617,27017
22,36030,26560
22,36442,25733
22,36853,24868
22,37265,24034
22,37678,24563
22,38090,24416
22,38502,24446
22,38915,23487
22,39327,24334
22,39738,23158
22,40152,24046
22,40563,23359
22,40975,22553
22,41388,23620
22,41800,23138
22,42212,23157
22,42625,21357
22,43037,22429
22,43448,21321
22,43862,20596
22,44273,22546
22,44685,20502
22,45098,21579
22,45510,22011
22,45922,20402
22,46333,19242
22,46747,19515
22,47158,19701
22,47570,18184
22,47983,19052
22,48395,20834
22,48807,19192
22,49220,21165
22,49632,21042
22,50043,18324
22,50457,19668
22,50868,17235
22,51280,18550
22,51693,18034
22,52105,20682
22,52517,17362
22,52930,18740
22,53342,18243
22,53753,18509
22,54167,19302
22,54578,19338
22,54990,19973
22,55402,16966
22,55815,16641
22,56227,16236
22,56638,15992
22,57052,19097
22,57463,16547
22,57875,16702
22,58288,15358
22,58700,18779
22,59112,17792
22,59525,18717
22,59937,17472
22,60348,18086
22,60762,18390
22,61173,18410
22,61585,19087
22,61998,18411
22,62410,16959
22,62822,19336
22,63235,18401
22,63647,18033
22,64058,17929
22,64470,17999
22,64883,17327
22,65295,18373
22,65707,17186
22,66120,16563
22,66532,16406
22,66943,17266
22,67357,17179
22,67768,15877
22,68180,16702
22,68593,17654
22,69005,17169
22,69417,16714
22,69830,17178
22,70242,16407
22,70653,15669
22,71067,15993
22,71478,16357
22,71890,16612
22,72303,16810
22,72715,17087
22,73127,16624
22,73538,18038
22,73952,17583
22,74363,15636
22,74775,15397
22,75188,15319
22,75600,17394
22,76012,15493
22,76425,15565
22,76837,16079
22,77248,16629
22,77662,16541
22,78073,15711
22,78485,18412
22,78898,16369
22,79310,17659
22,79722,18146
22,80135,18439
22,80547,16984
22,80958,17790
22,81372,18798
22,81783,16051
22,82195,16601
22,82607,16890
22,83020,16280
22,83432,15855
22,83843,16798
22,84257,17559
22,84668,16303
22,85080,17885
22,85493,17622
22,85905,17470
22,86317,17407
22,86730,16635
22,87142,17687
22,87553,16673
22,87967,16088
22,88378,17442
22,88790,15563
22,89203,16117
22,89615,16042
22,90027,16481
22,90440,15385
22,90852,16786
22,91263,16823
22,91675,15774
22,92088,16700
22,92500,16376
22,92912,16813
22,93325,16800
22,93737,16356
22,94148,17258
22,94562,16580
22,94973,16569
22,95385,18029
22,95798,16304
22,96210,16600
22,96622,15626
22,97035,17710
22,97447,17855
22,97858,15915
22,98272,16843
22,98683,17747
22,99095,16163
22,99508,16020
22,99920,16217
23,00332,16795
23,00743,16056
23,01157,17204
