D:\MassHunter\GCMS\1\data\Amal\Constant flow\130C\130C_1ml-min_3C-min_1.D Mon Jul 29 16:09:14 2024
Start of data points
5,59123,76781
5,59568,77446
5,60012,74003
5,60457,72205
5,60900,73076
5,61345,71709
5,61788,67681
5,62233,66815
5,62677,65533
5,63122,65153
5,63567,63718
5,64010,62031
5,64455,59947
5,64898,60936
5,65343,59293
5,65787,57471
5,66232,57783
5,66675,55290
5,67120,53816
5,67563,53464
5,68008,51258
5,68452,53194
5,68897,50383
5,69340,48712
5,69785,47439
5,70228,47262
5,70673,45931
5,71117,46682
5,71562,44932
5,72005,46238
5,72450,43957
5,72893,44990
5,73338,42289
5,73782,43706
5,74227,42515
5,74670,42991
5,75115,40222
5,75560,39484
5,76003,41661
5,76448,40054
5,76892,40260
5,77337,37643
5,77780,40932
5,78225,38127
5,78668,38408
5,79113,39079
5,79557,38637
5,80002,36571
5,80445,37958
5,80890,38940
5,81333,37621
5,81778,37560
5,82222,39018
5,82667,36010
5,83110,37076
5,83555,37661
5,83998,37408
5,84443,36536
5,84887,37303
5,85332,36444
5,85775,37329
5,86220,37177
5,86663,36444
5,87108,37085
5,87553,36117
5,87997,35489
5,88442,35973
5,88885,35596
5,89330,34820
5,89773,36536
5,90218,34880
5,90662,35201
5,91107,36072
5,91550,34738
5,91995,34960
5,92438,33682
5,92883,34840
5,93327,33767
5,93772,33295
5,94215,34224
5,94660,34564
5,95103,35255
5,95548,34126
5,95992,33661
5,96437,33877
5,96880,34183
5,97325,34181
5,97768,34475
5,98213,33836
5,98657,33829
5,99102,34173
5,99545,34119
5,99990,35445
6,00435,34653
6,00878,33769
6,01323,33873
6,01767,34680
6,02212,33513
6,02655,34694
6,03100,32802
6,03543,33469
6,03988,34107
6,04432,34458
6,04877,35200
6,05320,34308
6,05765,32457
6,06208,34028
6,06653,33518
6,07097,34466
6,07542,33638
6,07985,32745
6,08430,34851
6,08873,32883
6,09318,32548
6,09762,31899
6,10207,33967
6,10650,32964
6,11095,33765
6,11538,32932
6,11983,32461
6,12428,31234
6,12872,32169
6,13317,32107
6,13760,30517
6,14205,30392
6,14648,32591
6,15093,30646
6,15537,29827
6,15982,30095
6,16425,29701
6,16870,32289
6,17313,29999
6,17758,30841
6,18202,30625
6,18647,30561
6,19090,30099
6,19535,30482
6,19978,30180
6,20423,29714
6,20867,30911
6,21312,30123
6,21755,29142
6,22200,29896
6,22643,29116
6,23088,29791
6,23532,27498
6,23977,28244
6,24422,27242
6,24865,29113
6,25310,29114
6,25753,27837
6,26198,27470
6,26642,28745
6,27087,28316
6,27530,27718
6,27975,28257
6,28418,27353
6,28863,28638
6,29307,29521
6,29752,28898
6,30195,27999
6,30640,27986
6,31083,27013
6,31528,28635
6,31972,29263
6,32417,26142
6,32860,28763
6,33305,26826
6,33748,26573
6,34193,28980
6,34637,28315
6,35082,27817
6,35525,27987
6,35970,28080
6,36415,27439
6,36858,26540
6,37303,26005
6,37747,26626
6,38192,26700
6,38635,26795
6,39080,25950
6,39523,26246
6,39968,26269
6,40412,25850
6,40857,26411
6,41300,25116
6,41745,25232
6,42188,24769
6,42633,25084
6,43077,25033
6,43522,23660
6,43965,23992
6,44410,24572
6,44853,25685
6,45298,24962
6,45742,23609
6,46187,24464
6,46630,25803
6,47075,23649
6,47518,25553
6,47963,24875
6,48408,24197
6,48852,23952
6,49297,24432
6,49740,23700
6,50185,23890
6,50628,24465
6,51073,23875
6,51517,23486
6,51962,22776
6,52405,22748
6,52850,23424
6,53293,23128
6,53738,23135
6,54182,21477
6,54627,23689
6,55070,24369
6,55515,23016
6,55958,22622
6,56403,23124
6,56847,23323
6,57292,22971
6,57735,23388
6,58180,23410
6,58623,22725
6,59068,22427
6,59512,22342
6,59957,22758
6,60402,23161
6,60845,22619
6,61290,23788
6,61733,22999
6,62178,21766
6,62622,21666
6,63067,22420
6,63510,22746
6,63955,22432
6,64398,21927
6,64843,22479
6,65287,22548
6,65732,23194
6,66175,23765
6,66620,23178
6,67063,22856
6,67508,22774
6,67952,22026
6,68397,23033
6,68840,22718
6,69285,22626
6,69728,24490
6,70173,24567
6,70617,28618
6,71062,36125
6,71505,47141
6,71950,65008
6,72393,94650
6,72838,132725
6,73283,171180
6,73727,223503
6,74172,271427
6,74615,315547
6,75060,344443
6,75503,369763
6,75948,386279
6,76392,387431
6,76837,386300
6,77280,377143
6,77725,369647
6,78168,351710
6,78613,338786
6,79057,331086
6,79502,321766
6,79945,303511
6,80390,290215
6,80833,280022
6,81278,264855
6,81722,252014
6,82167,243062
6,82610,232378
6,83055,223736
6,83498,213879
6,83943,202895
6,84387,189635
6,84832,180881
6,85277,171341
6,85720,165119
6,86165,153760
6,86608,149827
6,87053,140448
6,87497,136252
6,87942,125425
6,88385,121346
6,88830,117324
6,89273,109825
6,89718,101602
6,90162,95352
6,90607,90782
6,91050,82431
6,91495,76229
6,91938,76524
6,92383,69567
6,92827,64039
6,93272,60609
6,93715,58116
6,94160,53030
6,94603,49484
6,95048,48733
6,95492,43494
6,95937,41929
6,96380,39596
6,96825,39321
6,97270,36912
6,97713,36033
6,98158,33664
6,98602,32004
6,99047,31147
6,99490,30473
6,99935,28100
7,00378,27838
7,00823,25668
7,01267,26445
7,01712,23976
7,02155,25144
7,02600,25859
7,03043,23677
7,03488,24880
7,03932,23165
7,04377,22747
7,04820,22650
7,05265,20957
7,05708,21169
7,06153,20342
7,06597,21109
7,07042,22370
7,07485,21744
7,07930,20935
7,08373,20976
7,08818,19667
7,09263,21528
7,09707,20213
7,10152,19378
7,10595,19442
7,11040,21088
7,11483,20627
7,11928,20063
7,12372,18791
7,12817,19950
7,13260,19531
7,13705,18522
7,14148,20328
7,14593,20184
7,15037,19309
7,15482,19856
7,15925,18704
7,16370,19966
7,16813,19171
7,17258,18891
7,17702,17805
7,18147,18760
7,18590,19285
7,19035,17587
7,19478,18588
7,19923,18642
7,20367,19267
7,20812,18288
7,21257,18978
7,21700,19190
7,22145,19224
7,22588,18764
7,23033,19108
7,23477,18630
7,23922,17713
7,24365,18405
7,24810,18961
7,25253,18469
7,25698,17473
7,26142,17342
7,26587,19488
7,27030,17555
7,27475,18273
7,27918,17667
7,28363,17318
7,28807,18719
7,29252,18502
7,29695,18028
7,30140,17400
7,30583,17927
7,31028,17536
7,31472,19010
7,31917,18536
7,32360,16654
7,32805,18763
7,33250,17365
7,33693,17670
7,34138,17210
7,34582,17746
7,35027,17320
7,35470,17190
7,35915,16351
7,36358,17019
7,36803,17347
7,37247,16692
7,37692,16116
7,38135,16350
7,38580,16558
7,39023,17203
7,39468,16566
7,39912,17754
7,40357,17065
7,40800,16165
7,41245,16465
7,41688,16806
7,42133,17316
7,42577,15943
7,43022,16678
7,43465,16759
7,43910,16893
7,44353,17458
7,44798,17209
7,45242,17122
7,45687,16030
7,46132,16834
7,46575,16312
7,47020,17049
7,47463,15745
7,47908,15456
7,48352,16853
7,48797,16381
7,49240,17013
7,49685,16545
7,50128,16898
7,50573,17010
7,51017,17032
7,51462,16264
7,51905,17288
7,52350,16697
7,52793,17284
7,53238,15359
7,53682,16045
7,54127,16145
7,54570,16509
7,55015,16188
7,55458,15914
7,55903,16403
7,56347,15793
7,56792,16722
7,57235,15676
7,57680,14991
7,58125,15555
7,58568,15293
7,59013,15867
7,59457,16762
7,59902,15654
7,60345,16276
7,60790,16510
7,61233,16219
7,61678,16442
7,62122,17494
7,62567,16607
7,63010,18392
7,63455,18649
7,63898,20911
7,64343,24521
7,64787,31838
7,65232,42904
7,65675,55571
7,66120,75099
7,66563,97422
7,67008,122057
7,67452,150892
7,67897,169619
7,68340,199823
7,68785,215279
7,69228,225683
7,69673,234128
7,70118,232292
7,70562,239112
7,71007,232425
7,71450,228522
7,71895,223161
7,72338,217086
7,72783,205094
7,73227,198794
7,73672,187873
7,74115,180941
7,74560,169123
7,75003,165147
7,75448,153403
7,75892,145456
7,76337,137374
7,76780,134581
7,77225,128927
7,77668,119057
7,78113,117559
7,78557,106670
7,79002,102754
7,79445,98156
7,79890,89193
7,80333,86008
7,80778,78425
7,81222,76045
7,81667,70024
7,82112,64024
7,82555,61219
7,83000,55716
7,83443,54333
7,83888,49045
7,84332,46844
7,84777,44554
7,85220,39445
7,85665,37329
7,86108,35629
7,86553,33512
7,86997,30552
7,87442,30218
7,87885,28134
7,88330,27626
7,88773,24861
7,89218,25699
7,89662,23892
7,90107,23488
7,90550,22020
7,90995,20972
7,91438,20253
7,91883,20523
7,92327,19873
7,92772,19393
7,93215,18376
7,93660,19736
7,94105,17365
7,94548,17050
7,94993,17698
7,95437,17779
7,95882,16068
7,96325,16494
7,96770,16855
7,97213,15682
7,97658,16203
7,98102,15900
7,98547,15421
7,98990,16112
7,99435,16136
7,99878,17041
8,00323,16158
8,00767,16862
8,01212,16231
8,01655,16627
8,02100,15687
8,02543,17675
8,02988,16596
8,03432,16403
8,03877,15496
8,04320,15566
8,04765,14719
8,05208,16436
8,05653,16338
8,06098,15876
8,06542,15200
8,06987,15043
8,07430,15742
8,07875,14555
8,08318,16199
8,08763,15280
8,09207,15168
8,09652,16082
8,10095,16332
8,10540,15837
8,10983,15759
8,11428,15130
8,11872,15058
8,12317,14513
8,12760,14913
8,13205,15196
8,13648,15364
8,14093,14941
8,14537,15642
8,14982,14902
8,15425,14731
8,15870,14543
8,16313,15352
8,16758,13922
8,17202,13250
8,17647,13474
8,18090,13970
8,18535,14484
8,18980,14111
8,19423,13715
8,19868,13178
8,20312,13469
8,20757,13177
8,21200,13422
8,21645,13342
8,22088,13456
8,22533,13315
8,22977,12676
8,23422,13157
8,23865,13384
8,24310,13396
8,24753,12368
8,25198,12943
8,25642,13625
8,26087,14783
8,26530,12765
8,26975,13479
8,27418,13510
8,27863,14576
8,28307,12576
8,28752,13292
8,29195,13222
8,29640,12863
8,30083,13858
8,30528,13188
8,30973,13139
8,31417,12440
8,31862,13149
8,32305,12583
8,32750,12962
8,33193,12028
8,33638,13821
8,34082,13454
8,34527,13084
8,34970,12873
8,35415,12496
8,35858,13377
8,36303,12756
8,36747,13080
8,37192,12231
8,37635,13381
8,38080,12938
8,38523,13873
8,38968,12025
8,39412,13350
8,39857,13203
8,40300,12595
8,40745,12751
8,41188,12646
8,41633,12458
8,42077,12109
8,42522,12880
8,42967,12569
8,43410,13127
8,43855,12938
8,44298,13255
8,44743,12067
8,45187,12398
8,45632,12284
8,46075,13915
8,46520,13876
8,46963,12436
8,47408,13133
8,47852,12936
8,48297,12159
8,48740,12753
8,49185,13424
8,49628,12584
8,50073,13583
8,50517,12118
8,50962,12514
8,51405,13005
8,51850,12647
8,52293,12344
8,52738,13251
8,53182,12320
8,53627,12737
8,54070,13771
8,54515,13158
8,54960,12193
8,55403,12524
8,55848,13227
8,56292,12444
8,56737,11595
8,57180,12171
8,57625,13268
8,58068,13600
8,58513,12083
8,58957,12554
8,59402,12412
8,59845,12905
8,60290,13101
8,60733,13208
8,61178,12511
8,61622,13212
8,62067,12304
8,62510,11705
8,62955,12129
8,63398,11972
8,63843,13371
8,64287,12096
8,64732,12411
8,65175,13313
8,65620,12766
8,66063,12222
8,66508,11511
8,66953,12547
8,67397,12633
8,67842,13191
8,68285,13030
8,68730,11893
8,69173,12332
8,69618,11945
8,70062,11866
8,70507,12413
8,70950,12848
8,71395,12789
8,71838,12912
8,72283,12178
8,72727,12099
8,73172,11997
8,73615,11072
8,74060,11851
8,74503,11512
8,74948,12742
8,75392,12608
8,75837,11854
8,76280,11933
8,76725,12982
8,77168,12307
8,77613,11733
8,78057,12899
8,78502,13427
8,78947,14948
8,79390,16686
8,79835,19031
8,80278,26411
8,80723,34657
8,81167,51473
8,81612,71465
8,82055,102782
8,82500,140482
8,82943,183517
8,83388,241638
8,83832,303385
8,84277,354201
8,84720,408295
8,85165,452828
8,85608,491601
8,86053,515511
8,86497,540365
8,86942,539917
8,87385,537584
8,87830,531857
8,88273,513968
8,88718,501391
8,89162,477906
8,89607,458043
8,90050,432376
8,90495,412713
8,90938,391564
8,91383,366989
8,91828,343601
8,92272,322113
8,92717,304940
8,93160,288766
8,93605,262397
8,94048,247805
8,94493,230263
8,94937,209743
8,95382,194427
8,95825,178568
8,96270,164779
8,96713,152851
8,97158,135901
8,97602,124897
8,98047,112787
8,98490,103071
8,98935,94323
8,99378,83474
8,99823,78886
9,00267,70566
9,00712,63240
9,01155,59524
9,01600,55832
9,02043,46783
9,02488,46373
9,02932,41027
9,03377,40634
9,03822,35727
9,04265,33431
9,04710,31012
9,05153,27625
9,05598,29515
9,06042,26134
9,06487,25005
9,06930,25189
9,07375,24042
9,07818,21390
9,08263,21194
9,08707,20052
9,09152,20454
9,09595,17756
9,10040,18363
9,10483,17928
9,10928,17600
9,11372,17329
9,11817,16646
9,12260,15999
9,12705,15968
9,13148,15863
9,13593,14542
9,14037,16043
9,14482,14360
9,14925,15005
9,15370,14634
9,15815,14686
9,16258,13964
9,16703,14489
9,17147,13764
9,17592,12840
9,18035,14063
9,18480,13977
9,18923,13852
9,19368,13649
9,19812,12059
9,20257,12809
9,20700,13542
9,21145,12904
9,21588,12529
9,22033,13293
9,22477,12352
9,22922,12351
9,23365,12979
9,23810,12109
9,24253,11748
9,24698,12277
9,25142,12381
9,25587,11533
9,26030,11845
9,26475,12376
9,26918,11559
9,27363,12281
9,27808,12000
9,28252,12134
9,28697,11518
9,29140,11286
9,29585,10804
9,30028,10340
9,30473,10674
9,30917,12042
9,31362,11535
9,31805,10837
9,32250,11667
9,32693,11529
9,33138,11405
9,33582,9994
9,34027,11945
9,34470,11101
9,34915,12440
9,35358,11469
9,35803,10567
9,36247,11416
9,36692,11369
9,37135,11008
9,37580,10939
9,38023,11138
9,38468,10468
9,38912,10994
9,39357,11149
9,39802,10988
9,40245,11167
9,40690,10813
9,41133,11196
9,41578,10653
9,42022,10856
9,42467,10186
9,42910,11319
9,43355,10733
9,43798,11297
9,44243,10597
9,44687,11113
9,45132,11037
9,45575,10640
9,46020,11852
9,46463,9840
9,46908,10566
9,47352,11202
9,47797,11638
9,48240,11102
9,48685,10342
9,49128,9830
9,49573,11208
9,50017,11103
9,50462,10252
9,50905,11818
9,51350,11059
9,51795,11129
9,52238,11472
9,52683,11457
9,53127,11573
9,53572,10271
9,54015,12522
9,54460,11088
9,54903,11397
9,55348,10841
9,55792,10456
9,56237,10197
9,56680,10787
9,57125,10536
9,57568,10053
9,58013,9574
9,58457,10694
9,58902,11226
9,59345,10446
9,59790,11459
9,60233,10184
9,60678,9064
9,61122,10361
9,61567,9801
9,62010,9879
9,62455,10558
9,62898,10138
9,63343,11008
9,63787,11658
9,64232,10096
9,64677,10073
9,65120,11376
9,65565,9981
9,66008,10919
9,66453,10346
9,66897,9648
9,67342,10604
9,67785,10542
9,68230,10354
9,68673,10067
9,69118,10590
9,69562,10681
9,70007,10437
9,70450,11052
9,70895,10974
9,71338,11294
9,71783,11548
9,72227,11064
9,72672,10508
9,73115,11129
9,73560,11624
9,74003,13071
9,74448,12787
9,74892,14292
9,75337,13200
9,75780,13628
9,76225,14414
9,76670,12117
9,77113,13640
9,77558,13322
9,78002,13551
9,78447,13625
9,78890,13181
9,79335,13272
9,79778,13348
9,80223,12835
9,80667,12288
9,81112,13168
9,81555,12660
9,82000,10951
9,82443,11533
9,82888,12686
9,83332,12535
9,83777,11552
9,84220,11545
9,84665,11057
9,85108,10927
9,85553,11046
9,85997,12153
9,86442,12370
9,86885,9579
9,87330,9608
9,87773,10505
9,88218,9696
9,88663,10198
9,89107,10451
9,89552,9656
9,89995,11047
9,90440,10007
9,90883,9711
9,91328,10018
9,91772,9889
9,92217,10190
9,92660,10548
9,93105,9874
9,93548,10736
9,93993,10734
9,94437,10359
9,94882,9558
9,95325,10836
9,95770,9978
9,96213,9923
9,96658,9922
9,97102,9413
9,97547,9355
9,97990,9541
9,98435,10367
9,98878,10346
9,99323,10960
9,99767,9199
10,00212,10019
10,00657,10060
10,01100,9948
10,01545,9562
10,01988,8804
10,02433,9758
10,02877,9866
10,03322,9184
10,03765,9524
10,04210,9490
10,04653,9637
10,05098,9562
10,05542,10200
10,05987,10128
10,06430,10175
10,06875,9526
10,07318,9894
10,07763,9512
10,08207,9910
10,08652,9575
10,09095,9556
10,09540,9292
10,09983,9548
10,10428,9977
10,10872,9218
10,11317,9063
10,11760,10129
10,12205,9650
10,12650,9266
10,13093,9277
10,13538,10433
10,13982,9124
10,14427,9799
10,14870,9464
10,15315,9531
10,15758,9503
10,16203,9590
10,16647,9416
10,17092,10604
10,17535,9448
10,17980,10771
10,18423,11421
10,18868,13003
10,19312,16475
10,19757,21504
10,20200,29953
10,20645,41618
10,21088,57974
10,21533,77013
10,21977,98549
10,22422,126807
10,22865,156088
10,23310,185425
10,23753,213122
10,24198,239575
10,24643,264478
10,25087,280263
10,25532,293674
10,25975,304553
10,26420,306197
10,26863,303123
10,27308,298355
10,27752,288933
10,28197,276654
10,28640,265439
10,29085,249001
10,29528,229345
10,29973,216094
10,30417,204107
10,30862,191620
10,31305,179476
10,31750,162064
10,32193,147938
10,32638,136412
10,33082,122814
10,33527,115139
10,33970,103223
10,34415,91796
10,34858,86205
10,35303,75688
10,35747,69955
10,36192,63054
10,36635,56513
10,37080,50868
10,37525,46654
10,37968,41878
10,38413,38720
10,38857,36301
10,39302,31814
10,39745,29079
10,40190,26768
10,40633,25519
10,41078,24425
10,41522,22087
10,41967,20812
10,42410,20080
10,42855,20088
10,43298,19152
10,43743,17557
10,44187,15808
10,44632,14515
10,45075,14979
10,45520,15366
10,45963,14437
10,46408,13866
10,46852,13421
10,47297,12611
10,47740,13996
10,48185,12044
10,48628,14081
10,49073,12105
10,49518,12065
10,49962,11625
10,50407,11166
10,50850,11286
10,51295,10822
10,51738,10927
10,52183,10786
10,52627,11598
10,53072,10506
10,53515,10407
10,53960,11037
10,54403,9908
10,54848,10896
10,55292,10184
10,55737,10651
10,56180,9960
10,56625,10338
10,57068,9462
10,57513,10594
10,57957,10734
10,58402,9113
10,58845,9821
10,59290,10075
10,59733,10939
10,60178,9251
10,60622,10281
10,61067,9221
10,61512,10334
10,61955,10368
10,62400,10371
10,62843,9128
10,63288,8561
10,63732,8508
10,64177,9385
10,64620,10158
10,65065,9172
10,65508,9878
10,65953,9833
10,66397,9798
10,66842,9392
10,67285,8830
10,67730,10087
10,68173,9103
10,68618,9631
10,69062,8782
10,69507,8980
10,69950,9459
10,70395,9035
10,70838,9050
10,71283,8918
10,71727,9248
10,72172,8695
10,72615,9698
10,73060,9228
10,73505,8881
10,73948,8458
10,74393,9198
10,74837,9088
10,75282,9176
10,75725,8880
10,76170,9101
10,76613,9103
10,77058,9919
10,77502,8252
10,77947,9147
10,78390,9302
10,78835,9044
10,79278,8778
10,79723,8740
10,80167,8711
10,80612,8626
10,81055,7851
10,81500,8864
10,81943,8596
10,82388,9027
10,82832,8891
10,83277,8608
10,83720,8924
10,84165,9755
10,84608,8308
10,85053,8490
10,85498,8977
10,85942,8746
10,86387,7810
10,86830,8715
10,87275,7812
10,87718,9335
10,88163,8278
10,88607,8711
10,89052,8853
10,89495,8571
10,89940,8702
10,90383,8494
10,90828,9049
10,91272,8834
10,91717,9141
10,92160,8472
10,92605,8530
10,93048,8547
10,93493,7371
10,93937,8424
10,94382,9368
10,94825,9356
10,95270,8525
10,95713,8288
10,96158,8815
10,96602,9352
10,97047,8429
10,97492,8739
10,97935,8627
10,98380,8459
10,98823,8651
10,99268,8894
10,99712,9048
11,00157,9096
11,00600,8945
11,01045,9434
11,01488,9823
11,01933,9064
11,02377,9190
11,02822,9589
11,03265,9831
11,03710,9706
11,04153,9231
11,04598,9642
11,05042,10148
11,05487,9674
11,05930,9584
11,06375,9432
11,06818,9420
11,07263,9360
11,07707,9284
11,08152,9087
11,08595,8611
11,09040,9372
11,09485,9407
11,09928,8947
11,10373,8862
11,10817,9039
11,11262,9301
11,11705,8576
11,12150,9353
11,12593,7750
11,13038,8423
11,13482,8694
11,13927,8097
11,14370,8271
11,14815,8169
11,15258,8023
11,15703,8157
11,16147,8533
11,16592,9337
11,17035,8414
11,17480,8127
11,17923,8934
11,18368,8476
11,18812,8773
11,19257,8663
11,19700,9447
11,20145,9683
11,20588,8945
11,21033,9927
11,21477,9607
11,21922,8950
11,22367,9532
11,22810,9118
11,23255,9575
11,23698,9300
11,24143,8241
11,24587,9256
11,25032,8192
11,25475,9014
11,25920,9382
11,26363,9608
11,26808,8144
11,27252,8986
11,27697,8228
11,28140,9522
11,28585,9013
11,29028,8719
11,29473,8227
11,29917,9327
11,30362,9212
11,30805,8067
11,31250,8414
11,31693,9146
11,32138,8591
11,32582,8598
11,33027,7594
11,33470,9016
11,33915,8313
11,34360,8291
11,34803,7440
11,35248,8149
11,35692,8328
11,36137,8703
11,36580,8086
11,37025,9230
11,37468,8286
11,37913,8534
11,38357,8119
11,38802,8024
11,39245,8195
11,39690,8867
11,40133,8255
11,40578,8550
11,41022,7890
11,41467,8460
11,41910,8169
11,42355,7999
11,42798,8926
11,43243,7802
11,43687,8772
11,44132,8445
11,44575,8216
11,45020,7875
11,45463,7611
11,45908,8357
11,46353,8543
11,46797,8924
11,47242,8134
11,47685,7149
11,48130,8276
11,48573,8787
11,49018,8914
11,49462,8786
11,49907,8688
11,50350,8207
11,50795,8997
11,51238,7429
11,51683,8319
11,52127,8513
11,52572,8568
11,53015,7625
11,53460,8053
11,53903,7817
11,54348,8354
11,54792,7841
11,55237,8140
11,55680,8381
11,56125,9064
11,56568,8764
11,57013,8276
11,57457,8117
11,57902,7629
11,58347,7957
11,58790,7798
11,59235,9111
11,59678,8556
11,60123,8142
11,60567,8516
11,61012,7357
11,61455,8046
11,61900,7880
11,62343,8320
11,62788,7893
11,63232,8562
11,63677,8193
11,64120,7705
11,64565,7818
11,65008,7721
11,65453,8569
11,65897,7899
11,66342,7816
11,66785,8584
11,67230,7782
11,67673,7400
11,68118,8547
11,68562,8547
11,69007,8797
11,69450,8330
11,69895,7599
11,70340,8032
11,70783,8403
11,71228,8521
11,71672,8310
11,72117,8172
11,72560,9340
11,73005,8187
11,73448,8570
11,73893,8220
11,74337,8082
11,74782,9290
11,75225,8550
11,75670,9193
11,76113,9592
11,76558,10259
11,77002,11520
11,77447,13578
11,77890,18025
11,78335,23863
11,78778,32467
11,79223,45612
11,79667,67243
11,80112,90005
11,80555,124052
11,81000,166374
11,81443,212213
11,81888,273002
11,82333,338291
11,82777,395039
11,83222,458131
11,83665,522994
11,84110,572970
11,84553,630552
11,84998,668573
11,85442,690506
11,85887,704998
11,86330,687338
11,86775,680185
11,87218,657393
11,87663,632643
11,88107,598169
11,88552,561962
11,88995,514108
11,89440,477239
11,89883,430374
11,90328,402412
11,90772,357440
11,91217,321461
11,91660,285182
11,92105,253567
11,92548,224379
11,92993,197244
11,93437,177181
11,93882,156876
11,94325,137019
11,94770,120920
11,95215,108257
11,95658,95050
11,96103,85081
11,96547,75324
11,96992,71104
11,97435,62322
11,97880,55884
11,98323,53158
11,98768,45678
11,99212,44129
11,99657,40775
12,00100,34679
12,00545,35079
12,00988,32873
12,01433,30332
12,01877,28611
12,02322,26702
12,02765,25541
12,03210,25527
12,03653,25400
12,04098,23970
12,04542,22155
12,04987,21389
12,05430,21681
12,05875,20045
12,06318,18807
12,06763,19795
12,07208,18171
12,07652,16995
12,08097,16851
12,08540,16851
12,08985,15153
12,09428,15289
12,09873,15551
12,10317,15552
12,10762,14940
12,11205,14047
12,11650,13610
12,12093,12843
12,12538,13986
12,12982,11995
12,13427,11087
12,13870,12325
12,14315,11072
12,14758,10801
12,15203,11293
12,15647,11210
12,16092,11770
12,16535,11059
12,16980,10412
12,17423,9766
12,17868,10516
12,18312,9709
12,18757,10323
12,19202,9818
12,19645,10519
12,20090,9931
12,20533,9814
12,20978,9847
12,21422,10010
12,21867,9293
12,22310,9603
12,22755,8938
12,23198,9102
12,23643,9475
12,24087,8626
12,24532,9199
12,24975,9006
12,25420,8570
12,25863,9582
12,26308,8544
12,26752,8522
12,27197,8505
12,27640,8932
12,28085,7729
12,28528,8959
12,28973,8427
12,29417,8542
12,29862,7939
12,30305,8014
12,30750,7714
12,31195,9024
12,31638,8743
12,32083,8036
12,32527,7340
12,32972,9216
12,33415,7851
12,33860,8387
12,34303,8431
12,34748,8809
12,35192,7659
12,35637,8296
12,36080,8396
12,36525,7970
12,36968,8342
12,37413,8236
12,37857,7167
12,38302,8428
12,38745,7611
12,39190,7418
12,39633,8030
12,40078,7458
12,40522,8155
12,40967,8460
12,41410,8061
12,41855,7927
12,42298,7721
12,42743,7774
12,43188,7794
12,43632,7352
12,44077,7567
12,44520,8014
12,44965,8226
12,45408,7963
12,45853,7508
12,46297,7917
12,46742,7324
12,47185,8331
12,47630,8010
12,48073,7646
12,48518,7369
12,48962,7263
12,49407,7040
12,49850,8003
12,50295,7540
12,50738,7593
12,51183,7436
12,51627,7339
12,52072,6830
12,52515,8503
12,52960,7600
12,53403,7978
12,53848,7753
12,54292,7261
12,54737,7227
12,55182,6951
12,55625,7202
12,56070,7762
12,56513,7451
12,56958,7317
12,57402,7361
12,57847,7767
12,58290,7548
12,58735,8010
12,59178,7320
12,59623,7319
12,60067,8033
12,60512,7469
12,60955,7346
12,61400,7503
12,61843,7778
12,62288,8095
12,62732,7364
12,63177,7379
12,63620,8260
12,64065,8671
12,64508,7064
12,64953,8000
12,65397,7826
12,65842,7288
12,66285,7667
12,66730,7264
12,67173,8718
12,67618,7261
12,68063,7862
12,68507,7657
12,68952,7853
12,69395,8295
12,69840,7583
12,70283,8210
12,70728,7712
12,71172,8280
12,71617,8311
12,72060,8529
12,72505,7522
12,72948,8092
12,73393,7451
12,73837,7242
12,74282,8186
12,74725,7114
12,75170,7433
12,75613,7594
12,76058,7733
12,76502,8011
12,76947,7663
12,77390,7861
12,77835,7501
12,78278,6945
12,78723,7103
12,79167,7990
12,79612,7328
12,80057,7503
12,80500,7503
12,80945,7423
12,81388,7166
12,81833,7148
12,82277,7621
12,82722,7402
12,83165,7703
12,83610,6683
12,84053,7616
12,84498,7246
12,84942,7403
12,85387,6803
12,85830,7284
12,86275,7115
12,86718,7655
12,87163,8176
12,87607,7003
12,88052,6863
12,88495,7118
12,88940,7962
12,89383,7320
12,89828,7626
12,90272,7667
12,90717,7658
12,91160,6923
12,91605,7666
12,92050,7475
12,92493,8325
12,92938,8436
12,93382,7520
12,93827,7567
12,94270,7243
12,94715,7615
12,95158,7641
12,95603,7625
12,96047,7777
12,96492,7296
12,96935,7490
12,97380,7822
12,97823,7624
12,98268,8307
12,98712,8351
12,99157,9268
12,99600,12113
13,00045,17295
13,00488,22397
13,00933,33194
13,01377,44222
13,01822,60630
13,02265,78038
13,02710,101853
13,03153,126601
13,03598,154688
13,04043,182600
13,04487,209168
13,04932,239680
13,05375,263344
13,05820,288128
13,06263,308219
13,06708,319529
13,07152,321894
13,07597,319661
13,08040,319677
13,08485,306761
13,08928,292663
13,09373,276813
13,09817,259766
13,10262,240700
13,10705,221836
13,11150,202255
13,11593,182868
13,12038,163360
13,12482,147479
13,12927,130309
13,13370,117841
13,13815,104832
13,14258,93840
13,14703,82038
13,15147,72625
13,15592,64268
13,16037,57593
13,16480,51719
13,16925,47654
13,17368,42486
13,17813,37632
13,18257,33735
13,18702,30024
13,19145,28969
13,19590,25657
13,20033,24163
13,20478,21521
13,20922,22228
13,21367,21464
13,21810,19025
13,22255,18777
13,22698,17080
13,23143,18026
13,23587,15543
13,24032,15874
13,24475,15918
13,24920,14363
13,25363,12351
13,25808,13685
13,26252,11197
13,26697,12615
13,27140,11455
13,27585,10481
13,28030,10273
13,28473,10588
13,28918,9767
13,29362,10809
13,29807,10514
13,30250,8975
13,30695,9198
13,31138,9121
13,31583,9611
13,32027,8670
13,32472,8538
13,32915,7928
13,33360,7757
13,33803,7388
13,34248,8315
13,34692,8058
13,35137,8251
13,35580,7596
13,36025,7934
13,36468,7810
13,36913,8533
13,37357,7629
13,37802,7855
13,38245,7459
13,38690,7830
13,39133,8909
13,39578,7059
13,40022,6909
13,40467,8454
13,40912,7592
13,41355,7563
13,41800,7677
13,42243,6685
13,42688,7822
13,43132,6739
13,43577,7403
13,44020,6817
13,44465,7582
13,44908,7374
13,45353,7515
13,45797,7578
13,46242,6095
13,46685,6390
13,47130,7666
13,47573,7208
13,48018,7520
13,48462,6848
13,48907,6710
13,49350,6608
13,49795,6779
13,50238,6977
13,50683,7612
13,51127,7733
13,51572,7708
13,52015,7631
13,52460,8189
13,52905,10527
13,53348,11440
13,53793,15009
13,54237,21664
13,54682,28277
13,55125,37705
13,55570,49928
13,56013,69850
13,56458,93290
13,56902,117811
13,57347,149102
13,57790,181158
13,58235,211468
13,58678,249904
13,59123,283522
13,59567,314331
13,60012,332475
13,60455,357164
13,60900,364408
13,61343,372999
13,61788,360346
13,62232,359295
13,62677,347597
13,63120,326791
13,63565,305442
13,64008,281718
13,64453,258508
13,64898,236185
13,65342,205885
13,65787,186151
13,66230,163584
13,66675,145621
13,67118,125349
13,67563,113699
13,68007,100193
13,68452,85790
13,68895,78443
13,69340,71366
13,69783,61025
13,70228,54591
13,70672,48405
13,71117,42437
13,71560,38672
13,72005,35948
13,72448,33298
13,72893,29169
13,73337,26696
13,73782,26158
13,74225,23476
13,74670,22857
13,75113,18888
13,75558,18639
13,76002,18567
13,76447,17682
13,76892,15271
13,77335,16712
13,77780,16202
13,78223,14743
13,78668,14306
13,79112,12879
13,79557,11822
13,80000,12428
13,80445,11560
13,80888,10884
13,81333,12157
13,81777,11018
13,82222,10713
13,82665,10853
13,83110,10053
13,83553,9153
13,83998,10171
13,84442,9695
13,84887,9249
13,85330,9631
13,85775,9774
13,86218,9083
13,86663,8317
13,87107,9613
13,87552,8241
13,87995,9132
13,88440,8355
13,88885,8267
13,89328,7981
13,89773,7569
13,90217,7457
13,90662,8361
13,91105,7982
13,91550,8974
13,91993,7869
13,92438,7205
13,92882,7552
13,93327,7011
13,93770,8822
13,94215,7641
13,94658,7706
13,95103,7951
13,95547,7172
13,95992,8494
13,96435,6716
13,96880,7680
13,97323,6886
13,97768,7451
13,98212,7476
13,98657,7664
13,99100,7032
13,99545,6784
13,99988,7144
14,00433,7035
14,00878,7640
14,01322,7200
14,01767,6816
14,02210,7511
14,02655,6822
14,03098,7206
14,03543,7097
14,03987,6498
14,04432,7267
14,04875,7334
14,05320,7703
14,05763,7403
14,06208,6925
14,06652,7375
14,07097,7085
14,07540,7396
14,07985,7227
14,08428,7816
14,08873,6952
14,09317,6994
14,09762,7258
14,10205,7294
14,10650,7357
14,11093,7071
14,11538,7530
14,11982,7027
14,12427,6524
14,12870,7196
14,13315,6556
14,13760,7172
14,14203,7139
14,14648,7295
14,15092,7040
14,15537,6749
14,15980,7405
14,16425,5963
14,16868,7070
14,17313,6664
14,17757,6874
14,18202,6985
14,18645,7095
14,19090,7058
14,19533,6189
14,19978,7080
14,20422,6559
14,20867,6735
14,21310,6737
14,21755,6991
14,22198,6960
14,22643,6435
14,23087,7074
14,23532,6974
14,23975,6669
14,24420,6801
14,24863,7289
14,25308,6460
14,25753,6963
14,26197,6786
14,26642,6686
14,27085,6643
14,27530,7675
14,27973,6918
14,28418,6944
14,28862,6449
14,29307,6658
14,29750,6526
14,30195,7243
14,30638,6703
14,31083,7577
14,31527,6400
14,31972,6938
14,32415,6762
14,32860,6721
14,33303,7611
14,33748,7762
14,34192,6508
14,34637,7313
14,35080,6273
14,35525,6719
14,35968,6672
14,36413,6975
14,36857,6515
14,37302,7016
14,37747,6807
14,38190,7155
14,38635,7116
14,39078,6307
14,39523,6530
14,39967,6357
14,40412,6386
14,40855,6286
14,41300,6677
14,41743,6681
14,42188,7002
14,42632,6608
14,43077,6573
14,43520,6230
14,43965,6136
14,44408,6476
14,44853,6946
14,45297,6443
14,45742,6574
14,46185,6342
14,46630,7057
14,47073,6225
14,47518,6218
14,47962,6208
14,48407,6816
14,48850,6799
14,49295,6602
14,49740,6715
14,50183,6729
14,50628,5982
14,51072,6895
14,51517,6517
14,51960,6915
14,52405,6855
14,52848,6647
14,53293,6794
14,53737,7323
14,54182,6423
14,54625,6908
14,55070,6263
14,55513,6320
14,55958,6073
14,56402,6145
14,56847,6701
14,57290,6597
14,57735,6750
14,58178,6409
14,58623,5886
14,59067,6904
14,59512,6103
14,59955,6484
14,60400,6859
14,60843,6742
14,61288,6459
14,61733,6451
14,62177,7039
14,62622,7078
14,63065,6411
14,63510,6449
14,63953,6203
14,64398,6465
14,64842,7085
14,65287,6994
14,65730,6270
14,66175,5932
14,66618,6798
14,67063,6984
14,67507,6258
14,67952,6224
14,68395,6994
14,68840,6760
14,69283,6544
14,69728,6674
14,70172,6926
14,70617,6825
14,71060,6102
14,71505,5790
14,71948,6429
14,72393,6659
14,72837,7061
14,73282,6804
14,73727,7187
14,74170,7118
14,74615,6492
14,75058,6771
14,75503,7443
14,75947,6625
14,76392,7582
14,76835,6589
14,77280,7595
14,77723,7012
14,78168,6339
14,78612,7030
14,79057,6719
14,79500,6105
14,79945,6599
14,80388,7143
14,80833,6398
14,81277,6406
14,81722,6180
14,82165,6828
14,82610,7726
14,83053,9056
14,83498,10809
14,83942,13802
14,84387,18992
14,84830,25374
14,85275,33626
14,85720,46550
14,86163,60932
14,86608,83220
14,87052,107054
14,87497,136296
14,87940,161527
14,88385,196702
14,88828,228982
14,89273,263444
14,89717,293896
14,90162,318192
14,90605,334700
14,91050,350695
14,91493,348312
14,91938,353368
14,92382,343703
14,92827,328226
14,93270,317255
14,93715,289223
14,94158,266586
14,94603,252611
14,95047,220917
14,95492,203876
14,95935,177763
14,96380,156794
14,96823,139818
14,97268,121051
14,97712,107952
14,98157,94008
14,98602,81017
14,99045,76077
14,99490,65214
14,99933,59133
15,00378,51610
15,00822,46098
15,01267,42436
15,01710,39191
15,02155,33351
15,02598,29185
15,03043,28175
15,03487,24176
15,03932,23326
15,04375,22525
15,04820,20177
15,05263,19732
15,05708,18939
15,06152,17796
15,06597,15439
15,07040,15790
15,07485,14918
15,07928,14194
15,08373,12612
15,08817,13189
15,09262,12925
15,09705,11484
15,10150,12304
15,10595,11099
15,11038,10019
15,11483,10525
15,11927,9894
15,12372,10393
15,12815,9471
15,13260,9795
15,13703,9893
15,14148,9615
15,14592,8929
15,15037,8262
15,15480,8360
15,15925,7575
15,16368,8185
15,16813,8339
15,17257,7365
15,17702,6621
15,18145,8236
15,18590,7744
15,19033,6837
15,19478,7643
15,19922,7504
15,20367,6379
15,20810,7562
15,21255,7924
15,21698,6871
15,22143,7180
15,22588,6210
15,23032,7558
15,23477,6471
15,23920,6044
15,24365,7240
15,24808,6944
15,25253,5950
15,25697,6483
15,26142,6906
15,26585,6164
15,27030,6277
15,27473,6565
15,27918,6985
15,28362,6568
15,28807,6689
15,29250,6764
15,29695,7284
15,30138,6731
15,30583,6456
15,31027,6953
15,31472,7006
15,31915,7095
15,32360,6871
15,32803,6305
15,33248,7021
15,33692,6148
15,34137,5833
15,34582,6551
15,35025,6333
15,35470,6990
15,35913,6559
15,36358,6494
15,36802,6647
15,37247,7657
15,37690,6946
15,38135,8813
15,38578,8527
15,39023,11017
15,39467,13899
15,39912,20267
15,40355,28407
15,40800,40711
15,41243,58439
15,41688,86888
15,42132,119244
15,42577,159576
15,43020,212321
15,43465,276595
15,43908,348079
15,44353,442881
15,44797,529147
15,45242,630715
15,45685,742606
15,46130,838952
15,46575,945103
15,47018,1039523
15,47463,1121839
15,47907,1179523
15,48352,1219941
15,48795,1225847
15,49240,1228360
15,49683,1187033
15,50128,1122218
15,50572,1054552
15,51017,961173
15,51460,849654
15,51905,750894
15,52348,660046
15,52793,576562
15,53237,503590
15,53682,434982
15,54125,373512
15,54570,320566
15,55013,273655
15,55458,238843
15,55902,206213
15,56347,186113
15,56790,163314
15,57235,144522
15,57678,125489
15,58123,114569
15,58568,102455
15,59012,93790
15,59457,83045
15,59900,77950
15,60345,71544
15,60788,64820
15,61233,60710
15,61677,54584
15,62122,51642
15,62565,47083
15,63010,42772
15,63453,43344
15,63898,40273
15,64342,37222
15,64787,34116
15,65230,33387
15,65675,31992
15,66118,31997
15,66563,28597
15,67007,28187
15,67452,26416
15,67895,24441
15,68340,23024
15,68783,23510
15,69228,21231
15,69672,21053
15,70117,19490
15,70560,19755
15,71005,18733
15,71450,16736
15,71893,17759
15,72338,15801
15,72782,16283
15,73227,16049
15,73670,15712
15,74115,15655
15,74558,14146
15,75003,14547
15,75447,13143
15,75892,12802
15,76335,12362
15,76780,13432
15,77223,12371
15,77668,12784
15,78112,11239
15,78557,11227
15,79000,10820
15,79445,10174
15,79888,10990
15,80333,10417
15,80777,9852
15,81222,9607
15,81665,9512
15,82110,9997
15,82553,10175
15,82998,10281
15,83443,9296
15,83887,9309
15,84332,8480
15,84775,9458
15,85220,9427
15,85663,8640
15,86108,9292
15,86552,9333
15,86997,8364
15,87440,8397
15,87885,8709
15,88328,8955
15,88773,8202
15,89217,7627
15,89662,7012
15,90105,8030
15,90550,8635
15,90993,8038
15,91438,8143
15,91882,7916
15,92327,7196
15,92770,7381
15,93215,8125
15,93658,8265
15,94103,7807
15,94547,7656
15,94992,7356
15,95437,7843
15,95880,7476
15,96325,7034
15,96768,6886
15,97213,7006
15,97657,6614
15,98102,6533
15,98545,6725
15,98990,7021
15,99433,6708
15,99878,6734
16,00322,7329
16,00767,7553
16,01210,7352
16,01655,6852
16,02098,6876
16,02543,6216
16,02987,7471
16,03432,7556
16,03875,6399
16,04320,7372
16,04763,6844
16,05208,7800
16,05652,6204
16,06097,6043
16,06540,8029
16,06985,7132
16,07430,6466
16,07873,6378
16,08318,6853
16,08762,6776
16,09207,6205
16,09650,6215
16,10095,6180
16,10538,6689
16,10983,6734
16,11427,6131
16,11872,6877
16,12315,5550
16,12760,6410
16,13203,6796
16,13648,6656
16,14092,6635
16,14537,6446
16,14980,6057
16,15425,6154
16,15868,6379
16,16313,7522
16,16757,6396
16,17202,5987
16,17645,7209
16,18090,6533
16,18533,7267
16,18978,6758
16,19423,6560
16,19867,6330
16,20312,6448
16,20755,7173
16,21200,6309
16,21643,6898
16,22088,7268
16,22532,7252
16,22977,6422
16,23420,7091
16,23865,7061
16,24308,7778
16,24753,7098
16,25197,8401
16,25642,8313
16,26085,8697
16,26530,8683
16,26973,9022
16,27418,8728
16,27862,9129
16,28307,9873
16,28750,9167
16,29195,9381
16,29638,8893
16,30083,9437
16,30527,9082
16,30972,9068
16,31417,9706
16,31860,9037
16,32305,9167
16,32748,8714
16,33193,8149
16,33637,7274
16,34082,8661
16,34525,8439
16,34970,8158
16,35413,7973
16,35858,7361
16,36302,8018
16,36747,7460
16,37190,7551
16,37635,7562
16,38078,7104
16,38523,7991
16,38967,6706
16,39412,6767
16,39855,7288
16,40300,7712
16,40743,6882
16,41188,6901
16,41632,6813
16,42077,6700
16,42520,7123
16,42965,6062
16,43408,6510
16,43853,6583
16,44298,6972
16,44742,7468
16,45187,6421
16,45630,7147
16,46075,6438
16,46518,6753
16,46963,5509
16,47407,6037
16,47852,6684
16,48295,6787
16,48740,8026
16,49183,9048
16,49628,9609
16,50072,13154
16,50517,16855
16,50960,24301
16,51405,32839
16,51848,44741
16,52293,62747
16,52737,82930
16,53182,105507
16,53625,133025
16,54070,164590
16,54513,195421
16,54958,234444
16,55402,268055
16,55847,301153
16,56292,324801
16,56735,347198
16,57180,354230
16,57623,362471
16,58068,369799
16,58512,358800
16,58957,349841
16,59400,332044
16,59845,303240
16,60288,283019
16,60733,257425
16,61177,232481
16,61622,206579
16,62065,183814
16,62510,162416
16,62953,143571
16,63398,123479
16,63842,106314
16,64287,95577
16,64730,83508
16,65175,73185
16,65618,64547
16,66063,56574
16,66507,51654
16,66952,45226
16,67395,41584
16,67840,40358
16,68285,34170
16,68728,31172
16,69173,29526
16,69617,25135
16,70062,24183
16,70505,22221
16,70950,21762
16,71393,19045
16,71838,18765
16,72282,18126
16,72727,17154
16,73170,16765
16,73615,14942
16,74058,14514
16,74503,14920
16,74947,13598
16,75392,12039
16,75835,12197
16,76280,11957
16,76723,11775
16,77168,11447
16,77612,10124
16,78057,10261
16,78500,10192
16,78945,9774
16,79388,10111
16,79833,10113
16,80278,10972
16,80722,9844
16,81167,10315
16,81610,9404
16,82055,10036
16,82498,9805
16,82943,10367
16,83387,9350
16,83832,9943
16,84275,9163
16,84720,8658
16,85163,8928
16,85608,9264
16,86052,8795
16,86497,9205
16,86940,8030
16,87385,8176
16,87828,8791
16,88273,8136
16,88717,7943
16,89162,8702
16,89605,7658
16,90050,6978
16,90493,7564
16,90938,7163
16,91382,6281
16,91827,6529
16,92272,7488
16,92715,7250
16,93160,6650
16,93603,6726
16,94048,7531
16,94492,7393
16,94937,6786
16,95380,7089
16,95825,6480
16,96268,7127
16,96713,6188
16,97157,6788
16,97602,7064
16,98045,6042
16,98490,6920
16,98933,6168
16,99378,6290
16,99822,5913
17,00267,6693
17,00710,6433
17,01155,6416
17,01598,5500
17,02043,6554
17,02487,5791
17,02932,6671
17,03375,6993
17,03820,5979
17,04265,7240
17,04708,5575
17,05153,6547
17,05597,6247
17,06042,6276
17,06485,6436
17,06930,6558
17,07373,5921
17,07818,6268
17,08262,5752
17,08707,6277
17,09150,5616
17,09595,6326
17,10038,6126
17,10483,6636
17,10927,6859
17,11372,5569
17,11815,5506
17,12260,6768
17,12703,5796
17,13148,5515
17,13592,6104
17,14037,5822
17,14480,6020
17,14925,5250
17,15368,6496
17,15813,6433
17,16257,6298
17,16702,6086
17,17147,6290
17,17590,6229
17,18035,6632
17,18478,6150
17,18923,6480
17,19367,5454
17,19812,6990
17,20255,6286
17,20700,6249
17,21143,6346
17,21588,6193
17,22032,6229
17,22477,6647
17,22920,6284
17,23365,5785
17,23808,5987
17,24253,6300
17,24697,6065
17,25142,5700
17,25585,6157
17,26030,6385
17,26473,6155
17,26918,6292
17,27362,6775
17,27807,5961
17,28250,5765
17,28695,6206
17,29140,6337
17,29583,5744
17,30028,6485
17,30472,7344
17,30917,6794
17,31360,6848
17,31805,8014
17,32248,8583
17,32693,10453
17,33137,12326
17,33582,18414
17,34025,23830
17,34470,33073
17,34913,44780
17,35358,62192
17,35802,83287
17,36247,111675
17,36690,143483
17,37135,172512
17,37578,211079
17,38023,252868
17,38467,290309
17,38912,322685
17,39355,365364
17,39800,393102
17,40243,407946
17,40688,421005
17,41133,427598
17,41577,421471
17,42022,414966
17,42465,378191
17,42910,354811
17,43353,324421
17,43798,296104
17,44242,263703
17,44687,235076
17,45130,210616
17,45575,177115
17,46018,160390
17,46463,137985
17,46907,120422
17,47352,103692
17,47795,91153
17,48240,80990
17,48683,72317
17,49128,62587
17,49572,58731
17,50017,52582
17,50460,47222
17,50905,44231
17,51348,38875
17,51793,36411
17,52237,30328
17,52682,31994
17,53127,25906
17,53570,26167
17,54015,24082
17,54458,22123
17,54903,21318
17,55347,19510
17,55792,18580
17,56235,18615
17,56680,17020
17,57123,15838
17,57568,15020
17,58012,14081
17,58457,13775
17,58900,13710
17,59345,13168
17,59788,12214
17,60233,11958
17,60677,10890
17,61122,10465
17,61565,11090
17,62010,10887
17,62453,9411
17,62898,10509
17,63342,9534
17,63787,9419
17,64230,8955
17,64675,9116
17,65120,8945
17,65563,7885
17,66008,8415
17,66452,8548
17,66897,9209
17,67340,7848
17,67785,8167
17,68228,6583
17,68673,7416
17,69117,7993
17,69562,8019
17,70005,7982
17,70450,7253
17,70893,7498
17,71338,6740
17,71782,6762
17,72227,7593
17,72670,6353
17,73115,6252
17,73558,7275
17,74003,7670
17,74447,7180
17,74892,6834
17,75335,6969
17,75780,6955
17,76223,6449
17,76668,7106
17,77113,6871
17,77557,6645
17,78002,6424
17,78445,7465
17,78890,6843
17,79333,7074
17,79778,6601
17,80222,6654
17,80667,6583
17,81110,7317
17,81555,6285
17,81998,6918
17,82443,6075
17,82887,6213
17,83332,6612
17,83775,6005
17,84220,6828
17,84663,6682
17,85108,5672
17,85552,6395
17,85997,5730
17,86440,6632
17,86885,5985
17,87328,6194
17,87773,7005
17,88217,5868
17,88662,6415
17,89105,6155
17,89550,6073
17,89995,5630
17,90438,5929
17,90883,6114
17,91327,5991
17,91772,6875
17,92215,5746
17,92660,5936
17,93103,5856
17,93548,5933
17,93992,6297
17,94437,6060
17,94880,6494
17,95325,6439
17,95768,6955
17,96213,5977
17,96657,6803
17,97102,7279
17,97545,6263
17,97990,5735
17,98433,5667
17,98878,5736
17,99322,6048
17,99767,5131
18,00210,6419
18,00655,5662
18,01098,6238
18,01543,6495
18,01988,6245
18,02432,6061
18,02877,6319
18,03320,6004
18,03765,5894
18,04208,6424
18,04653,6296
18,05097,5515
18,05542,6163
18,05985,6247
18,06430,5576
18,06873,6553
18,07318,6377
18,07762,6500
18,08207,5799
18,08650,5497
18,09095,5868
18,09538,6093
18,09983,5773
18,10427,6592
18,10872,5671
18,11315,6491
18,11760,5774
18,12203,6483
18,12648,5976
18,13092,5954
18,13537,6148
18,13982,6464
18,14425,5806
18,14870,6145
18,15313,6744
18,15758,6427
18,16202,5676
18,16647,6108
18,17090,6175
18,17535,6450
18,17978,6453
18,18423,6377
18,18867,6050
18,19312,5381
18,19755,6658
18,20200,5672
18,20643,6580
18,21088,5617
18,21532,5905
18,21977,6029
18,22420,5936
18,22865,6377
18,23308,6351
18,23753,6259
18,24197,6265
18,24642,5349
18,25085,5913
18,25530,6487
18,25975,5437
18,26418,5580
18,26863,5862
18,27307,5719
18,27752,6164
18,28195,5818
18,28640,5998
18,29083,5695
18,29528,5942
18,29972,6087
18,30417,5698
18,30860,5573
18,31305,5978
18,31748,6472
18,32193,6247
18,32637,6192
18,33082,6545
18,33525,6357
18,33970,5587
18,34413,6463
18,34858,5439
18,35302,6297
18,35747,5843
18,36190,6564
18,36635,6589
18,37078,5785
18,37523,5819
18,37968,5377
18,38412,7287
18,38857,6131
18,39300,5481
18,39745,6508
18,40188,6182
18,40633,5738
18,41077,6465
18,41522,5781
18,41965,6383
18,42410,6689
18,42853,6324
18,43298,8319
18,43742,9285
18,44187,9412
18,44630,11909
18,45075,16109
18,45518,20187
18,45963,27485
18,46407,37356
18,46852,51700
18,47295,68076
18,47740,91536
18,48183,118483
18,48628,146979
18,49072,183995
18,49517,222064
18,49962,256373
18,50405,291983
18,50850,326724
18,51293,357200
18,51738,382842
18,52182,393480
18,52627,405878
18,53070,402480
18,53515,397326
18,53958,383692
18,54403,361421
18,54847,335108
18,55292,307853
18,55735,278231
18,56180,250077
18,56623,223476
18,57068,192431
18,57512,174733
18,57957,150021
18,58400,130123
18,58845,114252
18,59288,100205
18,59733,88749
18,60177,78382
18,60622,67369
18,61065,63068
18,61510,55325
18,61953,48412
18,62398,42548
18,62843,37413
18,63287,36625
18,63732,35029
18,64175,29430
18,64620,27525
18,65063,24639
18,65508,24919
18,65952,23091
18,66397,20493
18,66840,20387
18,67285,17876
18,67728,17540
18,68173,17413
18,68617,14720
18,69062,14869
18,69505,14755
18,69950,13438
18,70393,13220
18,70838,13290
18,71282,12751
18,71727,12764
18,72170,12340
18,72615,11225
18,73058,9693
18,73503,10208
18,73947,9656
18,74392,9273
18,74837,8936
18,75280,9158
18,75725,9607
18,76168,9875
18,76613,8519
18,77057,8113
18,77502,8638
18,77945,8953
18,78390,7522
18,78833,8613
18,79278,7404
18,79722,7827
18,80167,8007
18,80610,7621
18,81055,6050
18,81498,7076
18,81943,7148
18,82387,6715
18,82832,6860
18,83275,7572
18,83720,6661
18,84163,6909
18,84608,7511
18,85052,7566
18,85497,8230
18,85940,6113
18,86385,6917
18,86830,6649
18,87273,6557
18,87718,6855
18,88162,6322
18,88607,7384
18,89050,6061
18,89495,5766
18,89938,5984
18,90383,6298
18,90827,6505
18,91272,6607
18,91715,6241
18,92160,5936
18,92603,6352
18,93048,6408
18,93492,6390
18,93937,6099
18,94380,5796
18,94825,6347
18,95268,6071
18,95713,7117
18,96157,6040
18,96602,6813
18,97045,6282
18,97490,5970
18,97933,6178
18,98378,6578
18,98823,6720
18,99267,6601
18,99712,6333
19,00155,6493
19,00600,6667
19,01043,5895
19,01488,6133
19,01932,6209
19,02377,6232
19,02820,6134
19,03265,6152
19,03708,6717
19,04153,6249
19,04597,6259
19,05042,5716
19,05485,6080
19,05930,5838
19,06373,5461
19,06818,6522
19,07262,6078
19,07707,6171
19,08150,5918
19,08595,5747
19,09038,5518
19,09483,5737
19,09927,5278
19,10372,4987
19,10817,5957
19,11260,6075
19,11705,7066
19,12148,5119
19,12593,6080
19,13037,6370
19,13482,5952
19,13925,5600
19,14370,5673
19,14813,5846
19,15258,6336
19,15702,5170
19,16147,6709
19,16590,6368
19,17035,5489
19,17478,5543
19,17923,6287
19,18367,5323
19,18812,6100
19,19255,6334
19,19700,6398
19,20143,5689
19,20588,6302
19,21032,6724
19,21477,5968
19,21920,5438
19,22365,6957
19,22810,6330
19,23253,6440
19,23698,6588
19,24142,6138
19,24587,5749
19,25030,5732
19,25475,6142
19,25918,6758
19,26363,6952
19,26807,7198
19,27252,7986
19,27695,9566
19,28140,11198
19,28583,13995
19,29028,19766
19,29472,29645
19,29917,41249
19,30360,55808
19,30805,78904
19,31248,106409
19,31693,144514
19,32137,187756
19,32582,239939
19,33025,292006
19,33470,365264
19,33913,427457
19,34358,506064
19,34802,581126
19,35247,656130
19,35692,737608
19,36135,800637
19,36580,857060
19,37023,914776
19,37468,929100
19,37912,934913
19,38357,928597
19,38800,883132
19,39245,827306
19,39688,764242
19,40133,690260
19,40577,612112
19,41022,546340
19,41465,469066
19,41910,411134
19,42353,355389
19,42798,302951
19,43242,260280
19,43687,229314
19,44130,198440
19,44575,170851
19,45018,150907
19,45463,133051
19,45907,119208
19,46352,108629
19,46795,95669
19,47240,87052
19,47685,75298
19,48128,72258
19,48573,64328
19,49017,58195
19,49462,53907
19,49905,50637
19,50350,47920
19,50793,44356
19,51238,41953
19,51682,38471
19,52127,35174
19,52570,35208
19,53015,31802
19,53458,29858
19,53903,27212
19,54347,27548
19,54792,25644
19,55235,24385
19,55680,21812
19,56123,21378
19,56568,21587
19,57012,19285
19,57457,17967
19,57900,19542
19,58345,19159
19,58788,17417
19,59233,16829
19,59678,15854
19,60122,16534
19,60567,15844
19,61010,13441
19,61455,14335
19,61898,13099
19,62343,12210
19,62787,11643
19,63232,12131
19,63675,11610
19,64120,11384
19,64563,10986
19,65008,10844
19,65452,10959
19,65897,10067
19,66340,9720
19,66785,9841
19,67228,9758
19,67673,9247
19,68117,10288
19,68562,9490
19,69005,8572
19,69450,8489
19,69893,8352
19,70338,8174
19,70782,8378
19,71227,8336
19,71672,8472
19,72115,7279
19,72560,7865
19,73003,8145
19,73448,7980
19,73892,7684
19,74337,7481
19,74780,6801
19,75225,6868
19,75668,7304
19,76113,6972
19,76557,7723
19,77002,7309
19,77445,6786
19,77890,6407
19,78333,7157
19,78778,7973
19,79222,7597
19,79667,7129
19,80110,6557
19,80555,6536
19,80998,7293
19,81443,6409
19,81887,6584
19,82332,6973
19,82775,7057
19,83220,7215
19,83665,7371
19,84108,6912
19,84553,7281
19,84997,6292
19,85442,7616
19,85885,7136
19,86330,6546
19,86773,6691
19,87218,6190
19,87662,6616
19,88107,6184
19,88550,6069
19,88995,6463
19,89438,7112
19,89883,5748
19,90327,6273
19,90772,6742
19,91215,7009
19,91660,7027
19,92103,8221
19,92548,8481
19,92992,12837
19,93437,15616
19,93880,18833
19,94325,28603
19,94768,37627
19,95213,53376
19,95658,70930
19,96102,92446
19,96547,117848
19,96990,154080
19,97435,186772
19,97878,222081
19,98323,257631
19,98767,304617
19,99212,331686
19,99655,366247
20,00100,390883
20,00543,412074
20,00988,419010
20,01432,425225
20,01877,420908
20,02320,396054
20,02765,379209
20,03208,352765
20,03653,320612
20,04097,299857
20,04542,263477
20,04985,233740
20,05430,210328
20,05873,185827
20,06318,158234
20,06762,141699
20,07207,123343
20,07650,103761
20,08095,95408
20,08540,82290
20,08983,72206
20,09428,63067
20,09872,56855
20,10317,52642
20,10760,46060
20,11205,45054
20,11648,39286
20,12093,36760
20,12537,32841
20,12982,30198
20,13425,27353
20,13870,25925
20,14313,23771
20,14758,23116
20,15202,20935
20,15647,20088
20,16090,19022
20,16535,16376
20,16978,15221
20,17423,17283
20,17867,16069
20,18312,14480
20,18755,13928
20,19200,13601
20,19643,12539
20,20088,12184
20,20533,12273
20,20977,11501
20,21422,12222
20,21865,10280
20,22310,12676
20,22753,13993
20,23198,13061
20,23642,15553
20,24087,19396
20,24530,24413
20,24975,31037
20,25418,43214
20,25863,56676
20,26307,79469
20,26752,106044
20,27195,135697
20,27640,179045
20,28083,226144
20,28528,279176
20,28972,340948
20,29417,416362
20,29860,484737
20,30305,564898
20,30748,631746
20,31193,705876
20,31637,748782
20,32082,807309
20,32527,830670
20,32970,848174
20,33415,845508
20,33858,822119
20,34303,788980
20,34747,732959
20,35192,669780
20,35635,611511
20,36080,541118
20,36523,475140
20,36968,424094
20,37412,369059
20,37857,322221
20,38300,276184
20,38745,246052
20,39188,210360
20,39633,184432
20,40077,162162
20,40522,144860
20,40965,126861
20,41410,115159
20,41853,100687
20,42298,94359
20,42742,83591
20,43187,75888
20,43630,71650
20,44075,61845
20,44520,58439
20,44963,53088
20,45408,48700
20,45852,46637
20,46297,42713
20,46740,39126
20,47185,37134
20,47628,36164
20,48073,32602
20,48517,31857
20,48962,30578
20,49405,28365
20,49850,27417
20,50293,25509
20,50738,22811
20,51182,22504
20,51627,21525
20,52070,21030
20,52515,19718
20,52958,17439
20,53403,18422
20,53847,16123
20,54292,17087
20,54735,15914
20,55180,15657
20,55623,15552
20,56068,13674
20,56513,13374
20,56957,13277
20,57402,13159
20,57845,13092
20,58290,11774
20,58733,12093
20,59178,11373
20,59622,12127
20,60067,11043
20,60510,11462
20,60955,10562
20,61398,10460
20,61843,10921
20,62287,10050
20,62732,10729
20,63175,9335
20,63620,10139
20,64063,9229
20,64508,9171
20,64952,8788
20,65397,10126
20,65840,10461
20,66285,8842
20,66728,8685
20,67173,9045
20,67617,9010
20,68062,8070
20,68507,7906
20,68950,9009
20,69395,8948
20,69838,8353
20,70283,6633
20,70727,7711
20,71172,7870
20,71615,8289
20,72060,8577
20,72503,7632
20,72948,8148
20,73392,6939
20,73837,6957
20,74280,6675
20,74725,7796
20,75168,5548
20,75613,7468
20,76057,7360
20,76502,6700
20,76945,7885
20,77390,7295
20,77833,6847
20,78278,6524
20,78722,7315
20,79167,6077
20,79610,7432
20,80055,7401
20,80498,7028
20,80943,7449
20,81388,6324
20,81832,6740
20,82277,5898
20,82720,6710
20,83165,7038
20,83608,7068
20,84053,6253
20,84497,5764
20,84942,6195
20,85385,6984
20,85830,5552
20,86273,6501
20,86718,5958
20,87162,6232
20,87607,6617
20,88050,7065
20,88495,6048
20,88938,6281
20,89383,5860
20,89827,5894
20,90272,6056
20,90715,6682
20,91160,5812
20,91603,6064
20,92048,6298
20,92492,6298
20,92937,6173
20,93382,5678
20,93825,6465
20,94270,6943
20,94713,7271
20,95158,6489
20,95602,6254
20,96047,6874
20,96490,6255
20,96935,6429
20,97378,7079
20,97823,7626
20,98267,6185
20,98712,6083
20,99155,6272
20,99600,6852
21,00043,7012
21,00488,6633
21,00932,6604
21,01377,6381
21,01820,6403
21,02265,6417
21,02708,5416
21,03153,5815
21,03597,6008
21,04042,6606
21,04485,5947
21,04930,6546
21,05375,7465
21,05818,8635
21,06263,9883
21,06707,10409
21,07152,14501
21,07595,18766
21,08040,26715
21,08483,36678
21,08928,48364
21,09372,66066
21,09817,89165
21,10260,114504
21,10705,142345
21,11148,179424
21,11593,213904
21,12037,249814
21,12482,284758
21,12925,318541
21,13370,346743
21,13813,373181
21,14258,383503
21,14702,391260
21,15147,387415
21,15590,379592
21,16035,356559
21,16478,339235
21,16923,306378
21,17368,282826
21,17812,251269
21,18257,223358
21,18700,199082
21,19145,176049
21,19588,154538
21,20033,132796
21,20477,115864
21,20922,105421
21,21365,92295
21,21810,78999
21,22253,68781
21,22698,62785
21,23142,53551
21,23587,52397
21,24030,45855
21,24475,43808
21,24918,38749
21,25363,35090
21,25807,33181
21,26252,30655
21,26695,27830
21,27140,26082
21,27583,24088
21,28028,23641
21,28472,21915
21,28917,21383
21,29362,21566
21,29805,19307
21,30250,17942
21,30693,17981
21,31138,16809
21,31582,17331
21,32027,16647
21,32470,15769
21,32915,14893
21,33358,13815
21,33803,12779
21,34247,12732
21,34692,11013
21,35135,11956
21,35580,11342
21,36023,10466
21,36468,10229
21,36912,9076
21,37357,9693
21,37800,9842
21,38245,9968
21,38688,10773
21,39133,9013
21,39577,8997
21,40022,8078
21,40465,9027
21,40910,7415
21,41355,8122
21,41798,7580
21,42243,7378
21,42687,7485
21,43132,7836
21,43575,7718
21,44020,8319
21,44463,7604
21,44908,7796
21,45352,7441
21,45797,7410
21,46240,7726
21,46685,6790
21,47128,7350
21,47573,6585
21,48017,6389
21,48462,7309
21,48905,7614
21,49350,7030
21,49793,6849
21,50238,7642
21,50682,7241
21,51127,7175
21,51570,7014
21,52015,6308
21,52458,6019
21,52903,7231
21,53347,6297
21,53792,5983
21,54237,6245
21,54680,6325
21,55125,7249
21,55568,6552
21,56013,6764
21,56457,6322
21,56902,6247
21,57345,6714
21,57790,6004
21,58233,6293
21,58678,6051
21,59122,6018
21,59567,6333
21,60010,6435
21,60455,6541
21,60898,6475
21,61343,7158
21,61787,6051
21,62232,7437
21,62675,7737
21,63120,7280
21,63563,6286
21,64008,6104
21,64452,6041
21,64897,6354
21,65340,6214
21,65785,6781
21,66230,7197
21,66673,6551
21,67118,6078
21,67562,6309
21,68007,6262
21,68450,6098
21,68895,6828
21,69338,7114
21,69783,7315
21,70227,6250
21,70672,6054
21,71115,6319
21,71560,5790
21,72003,6307
21,72448,5921
21,72892,6123
21,73337,6137
21,73780,5751
21,74225,6011
21,74668,6080
21,75113,6584
21,75557,5928
21,76002,6017
21,76445,5802
21,76890,6939
21,77333,8335
21,77778,7216
21,78223,9501
21,78667,10667
21,79112,14590
21,79555,20030
21,80000,26203
21,80443,35872
21,80888,48904
21,81332,67590
21,81777,87912
21,82220,113312
21,82665,143774
21,83108,174882
21,83553,205779
21,83997,236920
21,84442,266745
21,84885,301551
21,85330,333715
21,85773,345929
21,86218,360518
21,86662,371283
21,87107,361204
21,87550,353341
21,87995,339489
21,88438,322605
21,88883,299644
21,89327,270388
21,89772,242043
21,90217,217808
21,90660,195108
21,91105,169626
21,91548,154921
21,91993,134651
21,92437,119035
21,92882,106718
21,93325,86513
21,93770,78688
21,94213,71452
21,94658,65315
21,95102,55755
21,95547,52221
21,95990,44885
21,96435,41610
21,96878,38021
21,97323,36137
21,97767,31874
21,98212,30060
21,98655,26751
21,99100,25331
21,99543,23199
21,99988,22182
22,00432,20448
22,00877,19405
22,01320,17998
22,01765,18617
22,02210,16493
22,02653,15122
22,03098,14415
22,03542,14237
22,03987,12479
22,04430,13341
22,04875,12039
22,05318,12466
22,05763,11622
22,06207,11411
22,06652,11154
22,07095,11382
22,07540,10654
22,07983,9436
22,08428,10048
22,08872,9333
22,09317,9051
22,09760,8516
22,10205,8219
22,10648,8789
22,11093,8450
22,11537,7636
22,11982,8089
22,12425,7947
22,12870,8075
22,13313,7594
22,13758,7514
22,14203,6796
22,14647,7721
22,15092,7802
22,15535,7742
22,15980,6471
22,16423,6767
22,16868,7058
22,17312,6596
22,17757,7744
22,18200,7397
22,18645,5911
22,19088,6339
22,19533,7528
22,19977,6777
22,20422,6224
22,20865,7279
22,21310,6947
22,21753,6704
22,22198,7489
22,22642,6735
22,23087,7160
22,23530,7349
22,23975,6507
22,24418,7857
22,24863,6961
22,25307,6399
22,25752,6329
22,26195,6577
22,26640,6662
22,27085,6661
22,27528,6878
22,27973,6708
22,28417,6274
22,28862,7179
22,29305,6970
22,29750,6621
22,30193,5822
22,30638,6082
22,31082,5878
22,31527,6124
22,31970,6729
22,32415,6448
22,32858,5775
22,33303,6497
22,33747,6420
22,34192,6638
22,34635,5801
22,35080,5933
22,35523,5527
22,35968,5834
22,36412,6184
22,36857,6655
22,37300,5984
22,37745,5378
22,38188,5742
22,38633,5467
22,39078,6534
22,39522,5403
22,39967,5938
22,40410,6172
22,40855,6022
22,41298,6316
22,41743,5728
22,42187,6731
22,42632,6445
22,43075,6346
22,43520,7385
22,43963,5999
22,44408,5793
22,44852,5408
22,45297,5241
22,45740,5699
22,46185,6257
22,46628,5579
22,47073,5575
22,47517,5704
22,47962,5512
22,48405,4984
22,48850,5966
22,49293,6046
22,49738,5336
22,50182,5616
22,50627,6357
22,51072,5576
22,51515,5921
22,51960,5071
22,52403,5402
22,52848,5483
22,53292,6639
22,53737,6049
22,54180,5911
22,54625,5878
22,55068,6044
22,55513,5594
22,55957,5336
22,56402,6532
22,56845,6391
22,57290,5586
22,57733,5473
22,58178,5389
22,58622,4904
22,59067,6190
22,59510,6248
22,59955,5643
22,60398,6294
22,60843,6335
22,61287,5329
22,61732,6000
22,62175,5818
22,62620,5794
22,63065,5428
22,63508,6022
22,63953,5610
22,64397,6325
22,64842,6170
22,65285,5780
22,65730,6529
22,66173,6108
22,66618,5927
22,67062,5817
22,67507,5238
22,67950,6309
22,68395,6190
22,68838,5828
22,69283,6359
22,69727,5124
22,70172,5683
22,70615,5779
22,71060,5355
22,71503,6094
22,71948,5757
22,72392,5880
22,72837,5874
22,73280,6197
22,73725,5705
22,74168,5842
22,74613,5474
22,75058,6539
22,75502,6161
22,75947,5964
22,76390,5698
22,76835,6769
22,77278,5970
22,77723,7913
22,78167,7253
22,78612,7608
22,79055,8305
22,79500,8679
22,79943,9729
22,80388,9866
22,80832,9271
22,81277,10269
22,81720,10584
22,82165,10943
22,82608,10534
22,83053,11051
22,83497,11631
22,83942,12316
22,84385,11320
22,84830,10596
22,85273,10844
22,85718,10365
22,86162,11700
22,86607,10931
22,87052,12881
22,87495,14858
22,87940,17945
22,88383,22627
22,88828,29129
22,89272,40919
22,89717,51485
22,90160,68426
22,90605,89506
22,91048,114810
22,91493,137252
22,91937,163127
22,92382,195431
22,92825,220653
22,93270,250000
22,93713,279374
22,94158,302624
22,94602,316316
22,95047,325391
22,95490,329935
22,95935,325305
22,96378,315479
22,96823,301776
22,97267,284948
22,97712,262654
22,98155,235448
22,98600,215209
22,99043,194132
22,99488,171574
22,99933,151352
23,00377,136917
23,00822,120700
23,01265,102298
23,01710,91060
23,02153,81087
23,02598,71689
23,03042,64187
23,03487,56817
23,03930,50085
23,04375,44413
23,04818,41467
23,05263,38264
23,05707,33862
23,06152,31227
23,06595,27029
23,07040,27831
23,07483,25742
23,07928,22179
23,08372,21729
23,08817,20690
23,09260,20579
23,09705,18110
23,10148,17300
23,10593,16744
23,11037,14463
23,11482,14945
23,11927,14869
23,12370,13930
23,12815,13979
23,13258,12778
23,13703,13145
23,14147,12245
23,14592,12996
23,15035,12210
23,15480,13754
23,15923,15792
23,16368,18947
23,16812,23581
23,17257,28941
23,17700,39589
23,18145,50145
23,18588,67351
23,19033,87397
23,19477,113609
23,19922,151153
23,20365,189740
23,20810,231468
23,21253,282277
23,21698,341092
23,22142,406617
23,22587,466644
23,23030,539974
23,23475,619829
23,23920,703591
23,24363,766261
23,24808,858099
23,25252,917484
23,25697,971096
23,26140,1005398
23,26585,1013568
23,27028,1012328
23,27473,999863
23,27917,925732
23,28362,861352
23,28805,777598
23,29250,686420
23,29693,603333
23,30138,536993
23,30582,467731
23,31027,399729
23,31470,347179
23,31915,301311
23,32358,262474
23,32803,226300
23,33247,195784
23,33692,174355
23,34135,157708
23,34580,138826
23,35023,127942
23,35468,115967
23,35913,100862
23,36357,91951
23,36802,86870
23,37245,79750
23,37690,71793
23,38133,66770
23,38578,61233
23,39022,58025
23,39467,52913
23,39910,49110
23,40355,47038
23,40798,44710
23,41243,40923
23,41687,40093
23,42132,37037
23,42575,33875
23,43020,33670
23,43463,31660
23,43908,30939
23,44352,29772
23,44797,28571
23,45240,24756
23,45685,25640
23,46128,24755
23,46573,23552
23,47017,22131
23,47462,20317
23,47907,20860
23,48350,20015
23,48795,18408
23,49238,19195
23,49683,17061
23,50127,15904
23,50572,16154
23,51015,14377
23,51460,14468
23,51903,14428
23,52348,13449
23,52792,14137
23,53237,13988
23,53680,12548
23,54125,12975
23,54568,13167
23,55013,12010
23,55457,11835
23,55902,12116
23,56345,10906
23,56790,10666
23,57233,9798
23,57678,11841
23,58122,10786
23,58567,12004
23,59010,12097
23,59455,13459
23,59900,16348
23,60343,20869
23,60788,25426
23,61232,30913
23,61677,39935
23,62120,50639
23,62565,67597
23,63008,83715
23,63453,106780
23,63897,129224
23,64342,158372
23,64785,182314
23,65230,207156
23,65673,242440
23,66118,262638
23,66562,287043
23,67007,300660
23,67450,312512
23,67895,314734
23,68338,313309
23,68783,306586
23,69227,293940
23,69672,284560
23,70115,265098
23,70560,236702
23,71003,215929
23,71448,190592
23,71892,168789
23,72337,154310
23,72782,135084
23,73225,120416
23,73670,107480
23,74113,92930
23,74558,81984
23,75002,73882
23,75447,65191
23,75890,57376
23,76335,53845
23,76778,45483
23,77223,46038
23,77667,41142
23,78112,35024
23,78555,33938
23,79000,32043
23,79443,29580
23,79888,26713
23,80332,25231
23,80777,25117
23,81220,22739
23,81665,20715
23,82108,19001
23,82553,17499
23,82997,18470
23,83442,18821
23,83885,17846
23,84330,17835
23,84775,16365
23,85218,15300
23,85663,13651
23,86107,13837
23,86552,14541
23,86995,13662
23,87440,12387
23,87883,13128
23,88328,11523
23,88772,11284
23,89217,11704
23,89660,10686
23,90105,10146
23,90548,9756
23,90993,10022
23,91437,10542
23,91882,11136
23,92325,8535
23,92770,9272
23,93213,8864
23,93658,9793
23,94102,9777
23,94547,9817
23,94990,8282
23,95435,8444
23,95878,8314
23,96323,8882
23,96768,8464
23,97212,9876
23,97657,7733
23,98100,8460
23,98545,9118
23,98988,8000
23,99433,7903
23,99877,7265
24,00322,7194
24,00765,7618
24,01210,7932
24,01653,7974
24,02098,6836
24,02542,7785
24,02987,8183
24,03430,6673
24,03875,6581
24,04318,7560
24,04763,6965
24,05207,7654
24,05652,7667
24,06095,7326
24,06540,7913
24,06983,7329
24,07428,8326
24,07872,9256
24,08317,11215
24,08762,12323
24,09205,14850
24,09650,19223
24,10093,26667
24,10538,36536
24,10982,48687
24,11427,68015
24,11870,85992
24,12315,111413
24,12758,140051
24,13203,177986
24,13647,215131
24,14092,250349
24,14535,286474
24,14980,326154
24,15423,364302
24,15868,397453
24,16312,424897
24,16757,442425
24,17200,448581
24,17645,450488
24,18088,440645
24,18533,427009
24,18977,405005
24,19422,378284
24,19865,346068
24,20310,312457
24,20755,280568
24,21198,248933
24,21643,218851
24,22087,191563
24,22532,171347
24,22975,146523
24,23420,131782
24,23863,116249
24,24308,100075
24,24752,89477
24,25197,81000
24,25640,71317
24,26085,64922
24,26528,55328
24,26973,52216
24,27417,47986
24,27862,43596
24,28305,40317
24,28750,38746
24,29193,33475
24,29638,31267
24,30082,30176
24,30527,28275
24,30970,25820
24,31415,23505
24,31858,23395
24,32303,22289
24,32747,20035
24,33192,19171
24,33637,18803
24,34080,18192
24,34525,16576
24,34968,15660
24,35413,15625
24,35857,13841
24,36302,14783
24,36745,13325
24,37190,13655
24,37633,13832
24,38078,13132
24,38522,11654
24,38967,12095
24,39410,11916
24,39855,11081
24,40298,10800
24,40743,11296
24,41187,10806
24,41632,10245
24,42075,11590
24,42520,9883
24,42963,9182
24,43408,9776
24,43852,9446
24,44297,7808
24,44740,9552
24,45185,8845
24,45630,8869
24,46073,7935
24,46518,9348
24,46962,7402
24,47407,7646
24,47850,6825
24,48295,8508
24,48738,7060
24,49183,8753
24,49627,7874
24,50072,7904
24,50515,6939
24,50960,7052
24,51403,6737
24,51848,6192
24,52292,7691
24,52737,6649
24,53180,7116
24,53625,6827
24,54068,5963
24,54513,7141
24,54957,6915
24,55402,6632
24,55845,6910
24,56290,6121
24,56733,6209
24,57178,7080
24,57623,7229
24,58067,7019
24,58512,6931
24,58955,6507
24,59400,5213
24,59843,6039
24,60288,5921
24,60732,6121
24,61177,7579
24,61620,6516
24,62065,5423
24,62508,6829
24,62953,6990
24,63397,6899
24,63842,6381
24,64285,6936
24,64730,6238
24,65173,6855
24,65618,5299
24,66062,6526
24,66507,5739
24,66950,6148
24,67395,6105
24,67838,6101
24,68283,6452
24,68727,6365
24,69172,6524
24,69617,6161
24,70060,6245
24,70505,5455
24,70948,6138
24,71393,6782
24,71837,6200
24,72282,6954
24,72725,6437
24,73170,6886
24,73613,5678
24,74058,5979
24,74502,6062
24,74947,6238
24,75390,5611
24,75835,5610
24,76278,6473
24,76723,6318
24,77167,6108
24,77612,6250
24,78055,5864
24,78500,5772
24,78943,5000
24,79388,6068
24,79832,6388
24,80277,6789
24,80720,6383
24,81165,6519
24,81610,5860
24,82053,6389
24,82498,6653
24,82942,6430
24,83387,6223
24,83830,6616
24,84275,6875
24,84718,6054
24,85163,6197
24,85607,6267
24,86052,6251
24,86495,5952
24,86940,6212
24,87383,6581
24,87828,6418
24,88272,6404
24,88717,5941
24,89160,6578
24,89605,6333
24,90048,7041
24,90493,5867
24,90937,6876
24,91382,6304
24,91825,6461
24,92270,6612
24,92713,6086
24,93158,5708
24,93603,6386
24,94047,6856
24,94492,6977
24,94935,5856
24,95380,6914
24,95823,6215
24,96268,6123
24,96712,6928
24,97157,6601
24,97600,5395
24,98045,5750
24,98488,7132
24,98933,6088
24,99377,5788
24,99822,5988
25,00265,6194
25,00710,6131
25,01153,6673
25,01598,6120
25,02042,6019
25,02487,5790
25,02930,6203
25,03375,7112
25,03818,7212
25,04263,7556
25,04707,8766
25,05152,10298
25,05595,12229
25,06040,15657
25,06485,20844
25,06928,26129
25,07373,34811
25,07817,49128
25,08262,66493
25,08705,92035
25,09150,117339
25,09593,147083
25,10038,183286
25,10482,225368
25,10927,269766
25,11370,320359
25,11815,370614
25,12258,410998
25,12703,451747
25,13147,494288
25,13592,523607
25,14035,530418
25,14480,542954
25,14923,535174
25,15368,513243
25,15812,486530
25,16257,458326
25,16700,407953
25,17145,365605
25,17588,327147
25,18033,289116
25,18478,256119
25,18922,220324
25,19367,190222
25,19810,167662
25,20255,149465
25,20698,130675
25,21143,115843
25,21587,100794
25,22032,92381
25,22475,78245
25,22920,72848
25,23363,67918
25,23808,60268
25,24252,54928
25,24697,49925
25,25140,47985
25,25585,43949
25,26028,41517
25,26473,37591
25,26917,34695
25,27362,34987
25,27805,30528
25,28250,28896
25,28693,27419
25,29138,27738
25,29582,26466
25,30027,25143
25,30472,24583
25,30915,21968
25,31360,20300
25,31803,19836
25,32248,17739
25,32692,18466
25,33137,16977
25,33580,17256
25,34025,16229
25,34468,15630
25,34913,14031
25,35357,13941
25,35802,13087
25,36245,13312
25,36690,13300
25,37133,12009
25,37578,11758
25,38022,12087
25,38467,11538
25,38910,11240
25,39355,11819
25,39798,11674
25,40243,10186
25,40687,10737
25,41132,10346
25,41575,9491
25,42020,8521
25,42465,9989
25,42908,9528
25,43353,9086
25,43797,8722
25,44242,8438
25,44685,8273
25,45130,8628
25,45573,8506
25,46018,8851
25,46462,9570
25,46907,9066
25,47350,8426
25,47795,7658
25,48238,8320
25,48683,8296
25,49127,8409
25,49572,7649
25,50015,7732
25,50460,7935
25,50903,7700
25,51348,7967
25,51792,7862
25,52237,7428
25,52680,8239
25,53125,7746
25,53568,7861
25,54013,7216
25,54458,7668
25,54902,6687
25,55347,7589
25,55790,7133
25,56235,7169
25,56678,7476
25,57123,6619
25,57567,7309
25,58012,7859
25,58455,7556
25,58900,9036
25,59343,9398
25,59788,10088
25,60232,12818
25,60677,16039
25,61120,19002
25,61565,28089
25,62008,32996
25,62453,45182
25,62897,64248
25,63342,80637
25,63785,103354
25,64230,130506
25,64673,158916
25,65118,197573
25,65562,232247
25,66007,267009
25,66452,297422
25,66895,339099
25,67340,357768
25,67783,383545
25,68228,394513
25,68672,398716
25,69117,392938
25,69560,381017
25,70005,365528
25,70448,343249
25,70893,314204
25,71337,281461
25,71782,256958
25,72225,230710
25,72670,204157
25,73113,183631
25,73558,160062
25,74002,139148
25,74447,122588
25,74890,108887
25,75335,93779
25,75778,80923
25,76223,77285
25,76667,68394
25,77112,62506
25,77555,54714
25,78000,49597
25,78443,45541
25,78888,42262
25,79333,40755
25,79777,36553
25,80222,34349
25,80665,29322
25,81110,28957
25,81553,27324
25,81998,24755
25,82442,25706
25,82887,24679
25,83330,21865
25,83775,19608
25,84218,18140
25,84663,20460
25,85107,17183
25,85552,18127
25,85995,16029
25,86440,15760
25,86883,14765
25,87328,14811
25,87772,14354
25,88217,12995
25,88660,13085
25,89105,12391
25,89548,12796
25,89993,11798
25,90437,11176
25,90882,12069
25,91327,11224
25,91770,10334
25,92215,10857
25,92658,11013
25,93103,11242
25,93547,9281
25,93992,9504
25,94435,9230
25,94880,10063
25,95323,8265
25,95768,8963
25,96212,9176
25,96657,9201
25,97100,10276
25,97545,8070
25,97988,9428
25,98433,8033
25,98877,8564
25,99322,9632
25,99765,8811
26,00210,10441
26,00653,10092
26,01098,10021
26,01542,11468
26,01987,10660
26,02430,11685
26,02875,10487
26,03320,10431
26,03763,10504
26,04208,9728
26,04652,10842
26,05097,9605
26,05540,8996
26,05985,7582
26,06428,6924
26,06873,7804
26,07317,7073
26,07762,8385
26,08205,7689
26,08650,7771
26,09093,8201
26,09538,8291
26,09982,7152
26,10427,6424
26,10870,7099
26,11315,7590
26,11758,6649
26,12203,6422
26,12647,6449
26,13092,6980
26,13535,6920
26,13980,7077
26,14423,6763
26,14868,6842
26,15313,6936
26,15757,7779
26,16202,5916
26,16645,7248
26,17090,6509
26,17533,6509
26,17978,7411
26,18422,5743
26,18867,6936
26,19310,5991
26,19755,6047
26,20198,6802
26,20643,7362
26,21087,5762
26,21532,6766
26,21975,6250
26,22420,6181
26,22863,6804
26,23308,6363
26,23752,6260
26,24197,6490
26,24640,5731
26,25085,6374
26,25528,6362
26,25973,5909
26,26417,6083
26,26862,5909
26,27307,5673
26,27750,6002
26,28195,6096
26,28638,6648
26,29083,6516
26,29527,6566
26,29972,6117
26,30415,6477
26,30860,5538
26,31303,5843
26,31748,6117
26,32192,6192
26,32637,6255
26,33080,5362
26,33525,7069
26,33968,6347
26,34413,6038
26,34857,6162
26,35302,5948
26,35745,5512
26,36190,6393
26,36633,6404
26,37078,6086
26,37522,7065
26,37967,6699
26,38410,5999
26,38855,6510
26,39300,6234
26,39743,7483
26,40188,6237
26,40632,6391
26,41077,6956
26,41520,6255
26,41965,6725
26,42408,6622
26,42853,6296
26,43297,5933
26,43742,7195
26,44185,5766
26,44630,6080
26,45073,6759
26,45518,4779
26,45962,5547
26,46407,6530
26,46850,5640
26,47295,6450
26,47738,6865
26,48183,6460
26,48627,6742
26,49072,5287
26,49515,6044
26,49960,6079
26,50403,6632
26,50848,5593
26,51292,6591
26,51737,6830
26,52182,5793
26,52625,5949
26,53070,6869
26,53513,5980
26,53958,5936
26,54402,6638
26,54847,5428
26,55290,6389
26,55735,6406
26,56178,6393
26,56623,6785
26,57067,6245
26,57512,6129
26,57955,6301
26,58400,6673
26,58843,5913
26,59288,7249
26,59732,6867
26,60177,6893
26,60620,6597
26,61065,6680
26,61508,5989
26,61953,6421
26,62397,6805
26,62842,6574
26,63285,8042
26,63730,9012
26,64175,10433
26,64618,12063
26,65063,15499
26,65507,23490
26,65952,30229
26,66395,39201
26,66840,51889
26,67283,67909
26,67728,91178
26,68172,111068
26,68617,139444
26,69060,170927
26,69505,201241
26,69948,236559
26,70393,263028
26,70837,299220
26,71282,319647
26,71725,343681
26,72170,346774
26,72613,360799
26,73058,351939
26,73502,343668
26,73947,328567
26,74390,309122
26,74835,288369
26,75278,263726
26,75723,238906
26,76168,220891
26,76612,193760
26,77057,169525
26,77500,150635
26,77945,136190
26,78388,124232
26,78833,103961
26,79277,92148
26,79722,84225
26,80165,73124
26,80610,68324
26,81053,59346
26,81498,54724
26,81942,48261
26,82387,45341
26,82830,40832
26,83275,38786
26,83718,35756
26,84163,32373
26,84607,29713
26,85052,28120
26,85495,25222
26,85940,25366
26,86383,23722
26,86828,24298
26,87272,20632
26,87717,20982
26,88162,20412
26,88605,20361
26,89050,18042
26,89493,20547
26,89938,21114
26,90382,21524
26,90827,24582
26,91270,31024
26,91715,38125
26,92158,47593
26,92603,58901
26,93047,75730
26,93492,96626
26,93935,121998
26,94380,150780
26,94823,192221
26,95268,230305
26,95712,275443
26,96157,327587
26,96600,387356
26,97045,445182
26,97488,505008
26,97933,578703
26,98377,643936
26,98822,720070
26,99265,800596
26,99710,871074
27,00155,935100
27,00598,985832
27,01043,1031398
27,01487,1064887
27,01932,1067754
27,02375,1052436
27,02820,1014611
27,03263,956811
27,03708,872128
27,04152,792714
27,04597,694519
27,05040,608929
27,05485,539793
27,05928,470327
27,06373,407517
27,06817,358283
27,07262,309669
27,07705,272459
27,08150,238757
27,08593,212410
27,09038,189865
27,09482,168303
27,09927,151891
27,10370,138392
27,10815,128948
27,11258,114894
27,11703,109657
27,12148,99094
27,12592,90280
27,13037,84097
27,13480,78464
27,13925,71132
27,14368,70511
27,14813,64150
27,15257,60275
27,15702,58556
27,16145,54070
27,16590,50316
27,17033,50265
27,17478,45303
27,17922,43411
27,18367,41707
27,18810,41885
27,19255,36929
27,19698,35200
27,20143,33032
27,20587,32041
27,21032,31873
27,21475,32208
27,21920,30484
27,22363,27618
27,22808,27793
27,23252,26572
27,23697,25865
27,24142,24705
27,24585,23371
27,25030,22069
27,25473,21215
27,25918,21785
27,26362,20633
27,26807,20526
27,27250,20452
27,27695,19527
27,28138,17718
27,28583,18421
27,29027,17723
27,29472,17843
27,29915,16563
27,30360,16536
27,30803,15269
27,31248,15397
27,31692,13952
27,32137,16665
27,32580,14488
27,33025,13994
27,33468,16221
27,33913,15817
27,34357,17253
27,34802,20078
27,35245,22837
27,35690,27661
27,36133,34957
27,36578,42892
27,37023,55659
27,37467,69180
27,37912,91183
27,38355,113555
27,38800,135703
27,39243,165998
27,39688,202225
27,40132,238363
27,40577,268975
27,41020,295014
27,41465,329039
27,41908,363565
27,42353,379200
27,42797,397904
27,43242,420564
27,43685,427201
27,44130,428925
27,44573,429802
27,45018,440328
27,45462,437735
27,45907,443157
27,46350,448012
27,46795,454130
27,47238,454121
27,47683,441300
27,48127,441625
27,48572,432383
27,49017,428888
27,49460,412022
27,49905,388092
27,50348,374715
27,50793,348624
27,51237,318864
27,51682,294915
27,52125,266014
27,52570,244562
27,53013,219147
27,53458,197813
27,53902,177740
27,54347,155025
27,54790,137222
27,55235,124517
27,55678,114355
27,56123,101641
27,56567,93680
27,57012,81748
27,57455,77640
27,57900,68318
27,58343,64728
27,58788,58630
27,59232,56714
27,59677,49725
27,60120,47231
27,60565,45587
27,61010,41208
27,61453,39368
27,61898,36968
27,62342,33040
27,62787,31952
27,63230,30994
27,63675,31350
27,64118,30049
27,64563,27013
27,65007,26012
27,65452,23552
27,65895,22818
27,66340,24038
27,66783,21953
27,67228,20320
27,67672,19844
27,68117,18534
27,68560,18468
27,69005,17036
27,69448,17768
27,69893,16755
27,70337,17517
27,70782,15919
27,71225,17286
27,71670,15150
27,72113,15174
27,72558,12997
27,73003,13495
27,73447,13182
27,73892,11765
27,74335,13736
27,74780,13708
27,75223,13024
27,75668,12986
27,76112,12444
27,76557,13309
27,77000,14432
27,77445,13274
27,77888,14180
27,78333,14635
27,78777,15394
27,79222,18766
27,79665,23690
27,80110,29084
27,80553,36512
27,80998,45680
27,81442,60061
27,81887,79068
27,82330,96169
27,82775,123331
27,83218,153467
27,83663,186886
27,84107,222880
27,84552,266611
27,84997,302780
27,85440,347188
27,85885,383798
27,86328,416382
27,86773,446772
27,87217,459853
27,87662,475752
27,88105,487184
27,88550,494275
27,88993,470071
27,89438,447814
27,89882,417469
27,90327,382902
27,90770,347677
27,91215,311532
27,91658,281649
27,92103,250010
27,92547,219531
27,92992,192262
27,93435,172917
27,93880,153120
27,94323,134116
27,94768,120741
27,95212,109150
27,95657,99863
27,96100,89038
27,96545,81168
27,96990,74830
27,97433,67056
27,97878,63366
27,98322,58686
27,98767,53005
27,99210,48972
27,99655,45908
28,00098,41933
28,00543,39055
28,00987,38612
28,01432,35225
28,01875,33769
28,02320,33113
28,02763,31987
28,03208,29830
28,03652,28212
28,04097,26255
28,04540,24746
28,04985,25149
28,05428,24380
28,05873,23686
28,06317,21091
28,06762,21868
28,07205,20670
28,07650,20528
28,08093,19725
28,08538,19358
28,08982,18089
28,09427,16820
28,09872,16522
28,10315,16288
28,10760,16464
28,11203,15713
28,11648,14310
28,12092,13862
28,12537,15283
28,12980,13348
28,13425,12976
28,13868,13920
28,14313,13980
28,14757,12456
28,15202,12995
28,15645,13350
28,16090,12187
28,16533,12227
28,16978,13001
28,17422,12355
28,17867,12702
28,18310,12078
28,18755,10276
28,19198,12664
28,19643,12890
28,20087,10766
28,20532,12336
28,20975,9936
28,21420,11462
28,21865,10358
28,22308,11010
28,22753,9732
28,23197,10654
28,23642,8662
28,24085,9190
28,24530,8652
28,24973,9275
28,25418,8632
28,25862,7623
28,26307,8554
28,26750,8779
28,27195,7915
28,27638,8967
28,28083,8332
28,28527,8175
28,28972,8458
28,29415,9181
28,29860,9389
28,30303,7335
28,30748,8135
28,31192,8826
28,31637,7987
28,32080,8615
28,32525,7968
28,32968,8964
28,33413,7950
28,33858,8076
28,34302,8156
28,34747,8278
28,35190,7884
28,35635,8851
28,36078,7549
28,36523,7628
28,36967,7842
28,37412,7965
28,37855,7160
28,38300,7567
28,38743,6307
28,39188,7963
28,39632,6804
28,40077,7701
28,40520,7481
28,40965,6940
28,41408,7775
28,41853,7632
28,42297,8167
28,42742,7494
28,43185,7245
28,43630,7503
28,44073,6635
28,44518,6183
28,44962,7148
28,45407,7708
28,45852,8219
28,46295,7077
28,46740,7510
28,47183,7578
28,47628,7002
28,48072,7228
28,48517,7311
28,48960,7207
28,49405,6667
28,49848,7945
28,50293,6619
28,50737,6319
28,51182,8153
28,51625,6676
28,52070,7527
28,52513,7514
28,52958,6966
28,53402,7667
28,53847,8242
28,54290,7594
28,54735,7244
28,55178,7887
28,55623,7427
28,56067,7748
28,56512,7507
28,56955,8243
28,57400,8557
28,57845,7412
28,58288,7709
28,58733,7835
28,59177,8140
28,59622,7825
28,60065,7642
28,60510,7918
28,60953,8289
28,61398,6869
28,61842,7565
28,62287,7479
28,62730,7410
28,63175,7645
28,63618,7302
28,64063,7516
28,64507,7851
28,64952,6459
28,65395,8361
28,65840,6946
28,66283,7608
28,66728,7403
28,67172,9811
28,67617,8059
28,68060,8183
28,68505,8584
28,68948,9472
28,69393,12068
28,69838,16673
28,70282,18061
28,70727,24397
28,71170,32580
28,71615,42280
28,72058,56412
28,72503,72551
28,72947,91641
28,73392,117528
28,73835,146588
28,74280,181361
28,74723,220381
28,75168,257425
28,75612,302933
28,76057,349923
28,76500,392160
28,76945,430025
28,77388,469122
28,77833,505583
28,78277,535542
28,78722,547523
28,79165,556552
28,79610,546273
28,80053,531121
28,80498,503797
28,80942,464043
28,81387,419353
28,81830,379123
28,82275,335903
28,82720,299794
28,83163,260765
28,83608,233791
28,84052,207664
28,84497,180367
28,84940,160770
28,85385,142649
28,85828,127251
28,86273,112392
28,86717,102579
28,87162,90620
28,87605,84506
28,88050,77841
28,88493,74034
28,88938,66284
28,89382,59102
28,89827,58118
28,90270,53527
28,90715,48908
28,91158,47239
28,91603,45026
28,92047,41751
28,92492,39427
28,92935,37592
28,93380,37960
28,93823,34406
28,94268,32310
28,94713,31501
28,95157,28429
28,95602,28370
28,96045,27319
28,96490,27332
28,96933,25155
28,97378,26192
28,97822,24354
28,98267,21580
28,98710,21546
28,99155,20576
28,99598,20212
29,00043,20163
29,00487,18606
29,00932,18037
29,01375,19149
29,01820,17063
29,02263,16501
29,02708,17636
29,03152,15767
29,03597,15138
29,04040,14962
29,04485,16212
29,04928,13330
29,05373,15026
29,05817,13151
29,06262,14061
29,06707,13503
29,07150,12963
29,07595,12200
29,08038,12027
29,08483,12029
29,08927,11293
29,09372,12337
29,09815,11367
29,10260,10981
29,10703,11701
29,11148,10682
29,11592,10153
29,12037,12103
29,12480,10490
29,12925,11112
29,13368,9857
29,13813,10742
29,14257,10476
29,14702,10856
29,15145,10416
29,15590,11053
29,16033,8994
29,16478,10195
29,16922,10353
29,17367,10807
29,17810,10027
29,18255,11808
29,18700,11679
29,19143,12323
29,19588,15026
29,20032,18796
29,20477,22003
29,20920,26035
29,21365,33692
29,21808,45581
29,22253,59451
29,22697,75008
29,23142,91493
29,23585,115451
29,24030,141666
29,24473,172924
29,24918,201321
29,25362,236084
29,25807,270648
29,26250,301552
29,26695,336312
29,27138,368403
29,27583,410330
29,28027,434835
29,28472,461840
29,28915,486487
29,29360,513906
29,29803,529063
29,30248,552147
29,30693,568799
29,31137,576568
29,31582,576683
29,32025,582777
29,32470,564637
29,32913,553567
29,33358,528148
29,33802,498558
29,34247,455383
29,34690,425453
29,35135,391772
29,35578,349285
29,36023,315412
29,36467,285537
29,36912,257378
29,37355,224929
29,37800,201233
29,38243,172654
29,38688,157532
29,39132,143474
29,39577,132472
29,40020,114064
29,40465,109059
29,40908,94881
29,41353,88990
29,41797,78824
29,42242,71649
29,42687,65618
29,43130,64092
29,43575,59320
29,44018,54423
29,44463,51212
29,44907,47688
29,45352,44336
29,45795,42405
29,46240,40398
29,46683,40030
29,47128,38230
29,47572,36381
29,48017,32479
29,48460,30982
29,48905,28662
29,49348,28986
29,49793,28557
29,50237,25242
29,50682,25338
29,51125,23066
29,51570,22680
29,52013,21841
29,52458,23880
29,52902,21300
29,53347,21157
29,53790,19895
29,54235,19162
29,54678,17547
29,55123,19660
29,55568,18480
29,56012,16812
29,56457,17451
29,56900,16142
29,57345,15810
29,57788,14300
29,58233,15774
29,58677,14822
29,59122,14678
29,59565,14108
29,60010,13817
29,60453,12177
29,60898,14135
29,61342,13215
29,61787,12114
29,62230,12431
29,62675,12429
29,63118,12781
29,63563,12105
29,64007,11273
29,64452,12038
29,64895,11607
29,65340,11299
29,65783,12271
29,66228,12100
29,66672,10788
29,67117,10805
29,67562,10684
29,68005,10729
29,68450,11023
29,68893,10041
29,69338,10879
29,69782,10963
29,70227,10799
29,70670,10463
29,71115,9612
29,71558,9703
29,72003,9616
29,72447,8984
29,72892,8817
29,73335,10037
29,73780,9603
29,74223,8716
29,74668,9601
29,75112,8793
29,75557,10392
29,76000,9953
29,76445,9073
29,76888,8813
29,77333,9990
29,77777,10111
29,78222,9024
29,78665,8865
29,79110,7616
29,79555,9864
29,79998,9072
29,80443,9436
29,80887,8232
29,81332,9589
29,81775,9268
29,82220,8543
29,82663,9817
29,83108,9877
29,83552,9421
29,83997,9715
29,84440,8992
29,84885,9021
29,85328,7756
29,85773,8408
29,86217,9074
29,86662,9898
29,87105,7798
29,87550,9113
29,87993,9347
29,88438,8421
29,88882,8142
29,89327,9509
29,89770,8944
29,90215,7869
29,90658,7160
29,91103,8541
29,91548,8289
29,91992,7808
29,92437,9103
29,92880,8002
29,93325,8758
29,93768,8379
29,94213,7988
29,94657,8662
29,95102,7743
29,95545,7489
29,95990,7464
29,96433,8217
29,96878,7682
29,97322,7643
29,97767,7303
29,98210,7673
29,98655,8359
29,99098,7380
29,99543,7758
29,99987,8490
30,00432,8470
30,00875,8163
30,01320,8071
30,01763,7036
30,02208,8720
30,02652,7931
30,03097,6972
30,03542,9154
30,03985,9513
30,04430,9132
30,04873,9820
30,05318,10004
30,05762,9823
30,06207,10906
30,06650,8843
30,07095,9423
30,07538,8952
30,07983,10857
30,08427,8475
30,08872,8845
30,09315,7931
30,09760,8290
30,10203,7389
30,10648,8963
30,11092,8451
30,11537,7965
30,11980,8615
30,12425,8105
30,12868,7722
30,13313,7935
30,13757,8823
30,14202,8185
30,14645,7663
30,15090,9488
30,15535,8178
30,15978,7966
30,16423,8392
30,16867,8029
30,17312,9594
30,17755,9064
30,18200,8876
30,18643,8934
30,19088,8035
30,19532,8493
30,19977,8483
30,20420,9624
30,20865,8409
30,21308,9430
30,21753,9011
30,22197,7242
30,22642,8324
30,23085,7927
30,23530,8152
30,23973,8443
30,24418,7681
30,24862,7896
30,25307,8850
30,25750,9038
30,26195,8753
30,26638,8056
30,27083,7587
30,27527,9436
30,27972,7382
30,28417,8758
30,28860,7567
30,29305,8453
30,29748,8290
30,30193,6722
30,30637,7352
30,31082,8342
30,31525,7533
30,31970,8045
30,32413,7689
30,32858,8127
30,33302,7787
30,33747,7391
30,34190,7612
30,34635,6995
30,35078,7342
30,35523,7754
30,35967,7682
30,36412,7094
30,36855,7329
30,37300,7343
30,37743,7098
30,38188,7847
30,38632,7473
30,39077,7475
30,39520,8011
30,39965,7974
30,40410,8910
30,40853,7690
30,41298,8052
30,41742,7937
30,42187,8360
30,42630,8215
30,43075,9238
30,43518,9416
30,43963,11331
30,44407,11893
30,44852,14187
30,45295,17367
30,45740,21433
30,46183,28267
30,46628,36800
30,47072,47999
30,47517,58514
30,47960,76238
30,48405,98779
30,48848,124345
30,49293,156234
30,49737,186891
30,50182,226508
30,50625,273659
30,51070,319299
30,51513,368950
30,51958,428749
30,52403,493101
30,52847,545833
30,53292,614959
30,53735,673542
30,54180,749357
30,54623,822282
30,55068,878312
30,55512,946473
30,55957,1005218
30,56400,1047652
30,56845,1053928
30,57288,1061067
30,57733,1042681
30,58177,999451
30,58622,942372
30,59065,873407
30,59510,777629
30,59953,687410
30,60398,605138
30,60842,529391
30,61287,455512
30,61730,403290
30,62175,359380
30,62618,312252
30,63063,281112
30,63507,250412
30,63952,224406
30,64397,203461
30,64840,182940
30,65285,166076
30,65728,150012
30,66173,138738
30,66617,129184
30,67062,117411
30,67505,111886
30,67950,102035
30,68393,96670
30,68838,89989
30,69282,82857
30,69727,80791
30,70170,72725
30,70615,70163
30,71058,66400
30,71503,62321
30,71947,61574
30,72392,56569
30,72835,53871
30,73280,51025
30,73723,51766
30,74168,46888
30,74612,43567
30,75057,43670
30,75500,42639
30,75945,40572
30,76390,37815
30,76833,38086
30,77278,36012
30,77722,34727
30,78167,34303
30,78610,31457
30,79055,29505
30,79498,30851
30,79943,28928
30,80387,27903
30,80832,28296
30,81275,26529
30,81720,27527
30,82163,26101
30,82608,24807
30,83052,24366
30,83497,23654
30,83940,23016
30,84385,22176
30,84828,22026
30,85273,21760
30,85717,20900
30,86162,20952
30,86605,21326
30,87050,17338
30,87493,20410
30,87938,20389
30,88383,19689
30,88827,20185
30,89272,18530
30,89715,16269
30,90160,17587
30,90603,17645
30,91048,17292
30,91492,16682
30,91937,16202
30,92380,16350
30,92825,16266
30,93268,16132
30,93713,14664
30,94157,14883
30,94602,14618
30,95045,15520
30,95490,14694
30,95933,15358
30,96378,15353
30,96822,13973
30,97267,13477
30,97710,14283
30,98155,14594
30,98598,13530
30,99043,13556
30,99487,13610
30,99932,13106
31,00375,11393
31,00820,12695
31,01265,12691
31,01708,12487
31,02153,12956
31,02597,12653
31,03042,11866
31,03485,12867
31,03930,11898
31,04373,13047
31,04818,12275
31,05262,11639
31,05707,12630
31,06150,13201
31,06595,11719
31,07038,11892
31,07483,10923
31,07927,11907
31,08372,12161
31,08815,12191
31,09260,10874
31,09703,11323
31,10148,10923
31,10592,11299
31,11037,10686
31,11480,10304
31,11925,11402
31,12368,11433
31,12813,11644
31,13258,11507
31,13702,11336
31,14147,11360
31,14590,10425
31,15035,11837
31,15478,10480
31,15923,9938
31,16367,11385
31,16812,10101
31,17255,10264
31,17700,10726
31,18143,11797
31,18588,8937
31,19032,10320
31,19477,9838
31,19920,10733
31,20365,10662
31,20808,10020
31,21253,11121
31,21697,10443
31,22142,9628
31,22585,10952
31,23030,10435
31,23473,9603
31,23918,10895
31,24362,8992
31,24807,9590
31,25252,9004
31,25695,10198
31,26140,10163
31,26583,10133
31,27028,10450
31,27472,11308
31,27917,10944
31,28360,12278
31,28805,13093
31,29248,14475
31,29693,18884
31,30137,21467
31,30582,25338
31,31025,34435
31,31470,42646
31,31913,56266
31,32358,70941
31,32802,89666
31,33247,118489
31,33690,145257
31,34135,175125
31,34578,212611
31,35023,250172
31,35467,292037
31,35912,332183
31,36355,375748
31,36800,416981
31,37245,453891
31,37688,476436
31,38133,495624
31,38577,512500
31,39022,516097
31,39465,508417
31,39910,485930
31,40353,468117
31,40798,428592
31,41242,395440
31,41687,362474
31,42130,322610
31,42575,286246
31,43018,256689
31,43463,231976
31,43907,199737
31,44352,179993
31,44795,162622
31,45240,146086
31,45683,132543
31,46128,114550
31,46572,107546
31,47017,96459
31,47460,88247
31,47905,83795
31,48348,75469
31,48793,71838
31,49238,65694
31,49682,59776
31,50127,57807
31,50570,52263
31,51015,50354
31,51458,48831
31,51903,44790
31,52347,42162
31,52792,41005
31,53235,37783
31,53680,36109
31,54123,34193
31,54568,33163
31,55012,32352
31,55457,32020
31,55900,30674
31,56345,28969
31,56788,27200
31,57233,26760
31,57677,26079
31,58122,25398
31,58565,25289
31,59010,23562
31,59453,21369
31,59898,20935
31,60342,22097
31,60787,21584
31,61232,20823
31,61675,19909
31,62120,20201
31,62563,19708
31,63008,20838
31,63452,19369
31,63897,19784
31,64340,20137
31,64785,18446
31,65228,17868
31,65673,17700
31,66117,16535
31,66562,16861
31,67005,16301
31,67450,16611
31,67893,16131
31,68338,14015
31,68782,14527
31,69227,14778
31,69670,15426
31,70115,14959
31,70558,14843
31,71003,14981
31,71447,12816
31,71892,12303
31,72335,13503
31,72780,12082
31,73223,12833
31,73668,12116
31,74113,12932
31,74557,12285
31,75002,13100
31,75445,13043
31,75890,12450
31,76333,11679
31,76778,12565
31,77222,10492
31,77667,11262
31,78110,11547
31,78555,10910
31,78998,11536
31,79443,12105
31,79887,11397
31,80332,10089
31,80775,11226
31,81220,11018
31,81663,10824
31,82108,10362
31,82552,9141
31,82997,10950
31,83440,11847
31,83885,11586
31,84328,10620
31,84773,10840
31,85217,11539
31,85662,9531
31,86107,10618
31,86550,11016
31,86995,10336
31,87438,9893
31,87883,11293
31,88327,10044
31,88772,11028
31,89215,9747
31,89660,11016
31,90103,10534
31,90548,8550
31,90992,10377
31,91437,10924
31,91880,10239
31,92325,10793
31,92768,9096
31,93213,9110
31,93657,10175
31,94102,9748
31,94545,10548
31,94990,9123
31,95433,9849
31,95878,9425
31,96322,9896
31,96767,10436
31,97210,10643
31,97655,10421
31,98100,10525
31,98543,8797
31,98988,9826
31,99432,10454
31,99877,9761
32,00320,10319
32,00765,10332
32,01208,9654
32,01653,9930
32,02097,9498
32,02542,11009
32,02985,9609
32,03430,9630
32,03873,9244
32,04318,10225
32,04762,9696
32,05207,10431
32,05650,8374
32,06095,10723
32,06538,10510
32,06983,10265
32,07427,10373
32,07872,10433
32,08315,10168
32,08760,9970
32,09203,9231
32,09648,9579
32,10093,9275
32,10537,10279
32,10982,10021
32,11425,9209
32,11870,9407
32,12313,10317
32,12758,8762
32,13202,9954
32,13647,10454
32,14090,9925
32,14535,10416
32,14978,11450
32,15423,10780
32,15867,11399
32,16312,11328
32,16755,9996
32,17200,9662
32,17643,11113
32,18088,9598
32,18532,10609
32,18977,10549
32,19420,11481
32,19865,10922
32,20308,9481
32,20753,10154
32,21197,11265
32,21642,10841
32,22087,9835
32,22530,8990
32,22975,10265
32,23418,10647
32,23863,9861
32,24307,9557
32,24752,9392
32,25195,8766
32,25640,9683
32,26083,9660
32,26528,9792
32,26972,8542
32,27417,10401
32,27860,9670
32,28305,10035
32,28748,9809
32,29193,10258
32,29637,8993
32,30082,9026
32,30525,9345
32,30970,10414
32,31413,9418
32,31858,9733
32,32302,10219
32,32747,10125
32,33190,9964
32,33635,9241
32,34080,9145
32,34523,9369
32,34968,8882
32,35412,10150
32,35857,8386
32,36300,8715
32,36745,10319
32,37188,9236
32,37633,9024
32,38077,9793
32,38522,8905
32,38965,9208
32,39410,9196
32,39853,8872
32,40298,9437
32,40742,9159
32,41187,9048
32,41630,8615
32,42075,8484
32,42518,9200
32,42963,8844
32,43407,8635
32,43852,8926
32,44295,9336
32,44740,9368
32,45183,9799
32,45628,8901
32,46072,9087
32,46517,9552
32,46962,9058
32,47405,8859
32,47850,8189
32,48293,9176
32,48738,8666
32,49182,8705
32,49627,9010
32,50070,8171
32,50515,8377
32,50958,8826
32,51403,8065
32,51847,7787
32,52292,7230
32,52735,9462
32,53180,9104
32,53623,8175
32,54068,8957
32,54512,9845
32,54957,8593
32,55400,9097
32,55845,8560
32,56288,7787
32,56733,8139
32,57177,8565
32,57622,7939
32,58065,8255
32,58510,9529
32,58955,9353
32,59398,8883
32,59843,8366
32,60287,9145
32,60732,8972
32,61175,9916
32,61620,10133
32,62063,8979
32,62508,9566
32,62952,8862
32,63397,9168
32,63840,8524
32,64285,9460
32,64728,9773
32,65173,9563
32,65617,9064
32,66062,9528
32,66505,8802
32,66950,9719
32,67393,9624
32,67838,9486
32,68282,8619
32,68727,9303
32,69170,9396
32,69615,9661
32,70058,8954
32,70503,8733
32,70948,8971
32,71392,9506
32,71837,8704
32,72280,7986
32,72725,8224
32,73168,9877
32,73613,9196
32,74057,9176
32,74502,9477
32,74945,8919
32,75390,9264
32,75833,8937
32,76278,8778
32,76722,8960
32,77167,9650
32,77610,9160
32,78055,9618
32,78498,8801
32,78943,9402
32,79387,9677
32,79832,8906
32,80275,9968
32,80720,9584
32,81163,9966
32,81608,9228
32,82052,9667
32,82497,8139
32,82942,8827
32,83385,9285
32,83830,9748
32,84273,9235
32,84718,9116
32,85162,9682
32,85607,9166
32,86050,8681
32,86495,8747
32,86938,9500
32,87383,8634
32,87827,8889
32,88272,8739
32,88715,9307
32,89160,9532
32,89603,8950
32,90048,10031
32,90492,9264
32,90937,8741
32,91380,8359
32,91825,8323
32,92268,10806
32,92713,10181
32,93157,9226
32,93602,9949
32,94045,9779
32,94490,8814
32,94935,10086
32,95378,9434
32,95823,9471
32,96267,9408
32,96712,9170
32,97155,9388
32,97600,8225
32,98043,9797
32,98488,9562
32,98932,9953
32,99377,8142
32,99820,9281
33,00265,9324
33,00708,8881
33,01153,9439
33,01597,8781
33,02042,9051
33,02485,8903
33,02930,9626
33,03373,9052
33,03818,9971
33,04262,8800
33,04707,8238
33,05150,9732
33,05595,10063
33,06038,10008
33,06483,9132
33,06928,8966
33,07372,8256
33,07817,8990
33,08260,9549
33,08705,8469
33,09148,9118
33,09593,9168
33,10037,9597
33,10482,8977
33,10925,9455
33,11370,10067
33,11813,9501
33,12258,9953
33,12702,9214
33,13147,8997
33,13590,8894
33,14035,9875
33,14478,9545
33,14923,7891
33,15367,9578
33,15812,9268
33,16255,9069
33,16700,9172
33,17143,9067
33,17588,8437
33,18032,9040
33,18477,9716
33,18920,10547
33,19365,8727
33,19810,10032
33,20253,9752
33,20698,9579
33,21142,9235
33,21587,9738
33,22030,9429
33,22475,9000
33,22918,9551
33,23363,10362
33,23807,9508
33,24252,8962
33,24695,9418
33,25140,9210
33,25583,9292
33,26028,10764
33,26472,9049
33,26917,8699
33,27360,9070
33,27805,9851
33,28248,10795
33,28693,9504
33,29137,8831
33,29582,8648
33,30025,9260
33,30470,10222
33,30913,8484
33,31358,9584
33,31803,9586
33,32247,9383
33,32692,9121
33,33135,9014
33,33580,9220
33,34023,9168
33,34468,8732
33,34912,10255
33,35357,8460
33,35800,9410
33,36245,9244
33,36688,9449
33,37133,9503
33,37577,8024
33,38022,10592
33,38465,10898
33,38910,8295
33,39353,10140
33,39798,8999
33,40242,9750
33,40687,8963
33,41130,10153
33,41575,10203
33,42018,9022
33,42463,10109
33,42907,10897
33,43352,8349
33,43797,8994
33,44240,9944
33,44685,9643
33,45128,10625
33,45573,10380
33,46017,9808
33,46462,10038
33,46905,9825
33,47350,9704
33,47793,9405
33,48238,9141
33,48682,9331
33,49127,10255
33,49570,10801
33,50015,12045
33,50458,13467
33,50903,15916
33,51347,21418
33,51792,26086
33,52235,32751
33,52680,42016
33,53123,52994
33,53568,63426
33,54012,81566
33,54457,99063
33,54900,120338
33,55345,143945
33,55790,168927
33,56233,199862
33,56678,215707
33,57122,243449
33,57567,261474
33,58010,276256
33,58455,285192
33,58898,283780
33,59343,282274
33,59787,279436
33,60232,271322
33,60675,255263
33,61120,236564
33,61563,217237
33,62008,200430
33,62452,179966
33,62897,163039
33,63340,146103
33,63785,132375
33,64228,117019
33,64673,107861
33,65117,95345
33,65562,87148
33,66005,80823
33,66450,69619
33,66893,65203
33,67338,57856
33,67783,53508
33,68227,50059
33,68672,46801
33,69115,41509
33,69560,41153
33,70003,36823
33,70448,35377
33,70892,31806
33,71337,31725
33,71780,28738
33,72225,25413
33,72668,26730
33,73113,26794
33,73557,22068
33,74002,25025
33,74445,23113
33,74890,21776
33,75333,21209
33,75778,20831
33,76222,19224
33,76667,17397
33,77110,18950
33,77555,18897
33,77998,16071
33,78443,17131
33,78887,16509
33,79332,16255
33,79777,15548
33,80220,15465
33,80665,14347
33,81108,15112
33,81553,15423
33,81997,14504
33,82442,16158
33,82885,14913
33,83330,14297
33,83773,14122
33,84218,15065
33,84662,15810
33,85107,15635
33,85550,15082
33,85995,15141
33,86438,14131
33,86883,14328
33,87327,14442
33,87772,14932
33,88215,14630
33,88660,13781
33,89103,13466
33,89548,14500
33,89992,12957
33,90437,12680
33,90880,13319
33,91325,13057
33,91768,11473
33,92213,13517
33,92658,12505
33,93102,11658
33,93547,12240
33,93990,11188
33,94435,12036
33,94878,11639
33,95323,11626
33,95767,9476
33,96212,11479
33,96655,10108
33,97100,11376
33,97543,11103
33,97988,11851
33,98432,12300
33,98877,9993
33,99320,10207
33,99765,10464
34,00208,10845
34,00653,9927
34,01097,10565
34,01542,11293
34,01985,11349
34,02430,10720
34,02873,10627
34,03318,10494
34,03762,12414
34,04207,10967
34,04652,10957
34,05095,10493
34,05540,11565
34,05983,11366
34,06428,12332
34,06872,9807
34,07317,12421
34,07760,11705
34,08205,10454
34,08648,11674
34,09093,10327
34,09537,11487
34,09982,12217
34,10425,10843
34,10870,10573
34,11313,11875
34,11758,9687
34,12202,10304
34,12647,10736
34,13090,11306
34,13535,11424
34,13978,10774
34,14423,10354
34,14867,11356
34,15312,9733
34,15755,11098
34,16200,10683
