D:\MassHunter\GCMS\1\data\Amal\Constant flow\120C\120C_1ml-min_5C-min_1.D Tue Jul 30 14:13:11 2024
Start of data points
5,29450	53539
5,29862	52318
5,30275	51111
5,30687	50335
5,31098	47724
5,31512	47063
5,31923	46613
5,32335	45705
5,32748	43959
5,33160	40522
5,33572	41196
5,33985	40442
5,34397	39160
5,34808	36614
5,35220	37874
5,35633	38113
5,36045	34973
5,36457	36401
5,36870	33928
5,37282	35085
5,37693	33886
5,38107	31897
5,38518	32480
5,38930	30883
5,39343	31121
5,39755	31634
5,40167	29153
5,40580	29936
5,40992	29258
5,41403	28869
5,41817	30188
5,42228	29534
5,42640	27276
5,43053	25887
5,43465	28139
5,43877	27231
5,44288	27462
5,44702	28614
5,45113	24849
5,45525	27201
5,45938	26121
5,46350	27412
5,46762	25775
5,47175	23887
5,47587	24732
5,47998	24866
5,48412	25575
5,48823	22957
5,49235	23793
5,49648	25126
5,50060	23853
5,50472	23680
5,50885	24459
5,51297	22837
5,51708	24704
5,52122	24827
5,52533	22467
5,52945	23688
5,53357	24427
5,53770	23166
5,54182	24283
5,54593	24622
5,55007	23248
5,55418	23193
5,55830	22057
5,56243	22039
5,56655	22757
5,57067	22193
5,57480	21785
5,57892	21439
5,58303	22207
5,58717	22280
5,59128	22114
5,59540	20878
5,59953	22470
5,60365	20838
5,60777	20750
5,61190	20620
5,61602	22618
5,62013	20486
5,62425	21519
5,62838	21655
5,63250	20734
5,63662	20473
5,64075	20687
5,64487	20725
5,64898	20694
5,65312	20144
5,65723	19756
5,66135	19947
5,66548	21004
5,66960	19167
5,67372	18510
5,67785	19074
5,68197	20624
5,68608	21726
5,69022	25863
5,69433	30340
5,69845	39246
5,70258	49451
5,70670	62541
5,71082	73221
5,71493	82328
5,71907	87833
5,72318	96807
5,72730	95368
5,73143	93739
5,73555	89864
5,73967	93119
5,74380	86903
5,74792	85585
5,75203	81349
5,75617	78707
5,76028	74084
5,76440	72330
5,76853	71207
5,77265	68649
5,77677	64990
5,78090	64293
5,78502	61266
5,78913	59538
5,79327	56295
5,79738	55699
5,80150	52271
5,80562	51223
5,80975	48557
5,81387	48788
5,81798	46734
5,82212	43300
5,82623	42702
5,83035	41580
5,83448	41874
5,83860	38256
5,84272	37186
5,84685	36246
5,85097	37579
5,85508	34849
5,85922	31787
5,86333	31847
5,86745	31788
5,87158	29652
5,87570	29086
5,87982	29027
5,88395	25785
5,88807	28615
5,89218	26555
5,89630	24545
5,90043	23582
5,90455	23609
5,90867	22550
5,91280	21004
5,91692	21319
5,92103	21969
5,92517	19571
5,92928	20071
5,93340	18415
5,93753	18965
5,94165	17863
5,94577	18228
5,94990	18512
5,95402	18123
5,95813	18484
5,96227	17535
5,96638	16852
5,97050	17996
5,97463	16309
5,97875	17017
5,98287	17093
5,98698	16395
5,99112	15526
5,99523	15472
5,99935	15362
6,00348	16315
6,00760	15575
6,01172	14894
6,01585	16180
6,01997	15452
6,02408	15081
6,02822	15418
6,03233	15205
6,03645	14455
6,04058	14916
6,04470	15912
6,04882	14675
6,05295	13538
6,05707	13556
6,06118	15276
6,06532	14003
6,06943	14117
6,07355	15429
6,07767	14220
6,08180	13939
6,08592	14315
6,09003	14486
6,09417	14975
6,09828	14765
6,10240	13790
6,10653	15066
6,11065	13773
6,11477	13951
6,11890	13822
6,12302	14154
6,12713	13617
6,13127	13862
6,13538	13299
6,13950	14268
6,14363	14017
6,14775	13470
6,15187	13425
6,15600	12625
6,16012	14747
6,16423	13657
6,16835	13860
6,17248	13251
6,17660	12952
6,18072	14267
6,18485	13135
6,18897	14083
6,19308	13951
6,19722	12139
6,20133	14693
6,20545	14042
6,20958	13752
6,21370	13232
6,21782	13710
6,22195	12808
6,22607	13737
6,23018	13343
6,23432	13037
6,23843	12840
6,24255	12923
6,24668	13288
6,25080	13089
6,25492	12790
6,25903	13001
6,26317	13865
6,26728	13244
6,27140	12057
6,27553	12072
6,27965	12252
6,28377	11491
6,28790	12472
6,29202	12225
6,29613	11959
6,30027	11286
6,30438	12075
6,30850	12248
6,31263	12518
6,31675	12546
6,32087	12645
6,32500	13536
6,32912	12412
6,33323	11954
6,33737	12730
6,34148	12745
6,34560	12648
6,34972	13224
6,35385	12492
6,35797	12191
6,36208	13045
6,36622	11600
6,37033	12691
6,37445	11003
6,37858	11954
6,38270	11953
6,38682	11724
6,39095	11502
6,39507	11704
6,39918	11517
6,40332	11050
6,40743	12217
6,41155	11442
6,41568	11731
6,41980	10900
6,42392	11696
6,42805	11480
6,43217	11949
6,43628	11520
6,44042	10196
6,44453	10396
6,44865	10778
6,45277	10762
6,45690	11313
6,46102	10771
6,46513	10242
6,46927	10410
6,47338	10216
6,47750	10214
6,48163	10555
6,48575	10227
6,48987	9798
6,49400	9834
6,49812	10206
6,50223	10154
6,50637	10293
6,51048	10216
6,51460	10272
6,51873	10116
6,52285	9904
6,52697	10074
6,53110	10254
6,53522	10228
6,53933	10783
6,54345	9754
6,54758	10519
6,55170	10989
6,55582	11409
6,55995	11126
6,56407	12363
6,56818	11036
6,57232	10572
6,57643	11410
6,58055	10820
6,58468	11361
6,58880	10537
6,59292	11343
6,59705	10210
6,60117	9491
6,60528	10906
6,60942	10239
6,61353	10268
6,61765	10510
6,62178	10421
6,62590	9307
6,63002	9273
6,63413	9656
6,63827	10302
6,64238	8768
6,64650	9960
6,65063	9660
6,65475	9778
6,65887	9018
6,66300	9763
6,66712	9682
6,67123	10147
6,67537	10051
6,67948	9996
6,68360	9741
6,68773	9586
6,69185	10060
6,69597	9862
6,70010	9172
6,70422	9610
6,70833	10104
6,71247	9439
6,71658	9632
6,72070	9468
6,72482	9744
6,72895	9542
6,73307	9017
6,73718	9726
6,74132	9474
6,74543	9109
6,74955	8757
6,75368	9879
6,75780	8650
6,76192	9272
6,76605	8529
6,77017	9071
6,77428	9639
6,77842	9233
6,78253	8880
6,78665	8373
6,79078	9094
6,79490	9040
6,79902	9170
6,80315	8315
6,80727	7753
6,81138	8575
6,81550	9031
6,81963	8691
6,82375	8678
6,82787	9439
6,83200	8868
6,83612	8373
6,84023	8663
6,84437	7971
6,84848	8792
6,85260	8786
6,85673	8461
6,86085	7769
6,86497	8467
6,86910	8419
6,87322	8685
6,87733	7940
6,88147	8418
6,88558	8232
6,88970	8173
6,89383	8439
6,89795	8075
6,90207	7984
6,90618	7790
6,91032	8431
6,91443	8070
6,91855	8203
6,92268	7484
6,92680	8307
6,93092	8369
6,93505	8577
6,93917	9317
6,94328	8613
6,94742	8646
6,95153	9116
6,95565	8337
6,95978	8580
6,96390	7806
6,96802	8685
6,97215	8198
6,97627	8569
6,98038	8887
6,98452	9192
6,98863	7996
6,99275	8086
6,99687	8350
7,00100	7917
7,00512	7919
7,00923	8332
7,01337	8967
7,01748	10564
7,02160	15207
7,02573	20817
7,02985	34114
7,03397	51291
7,03810	80807
7,04222	115225
7,04633	161372
7,05047	207786
7,05458	258521
7,05870	298201
7,06283	345128
7,06695	363410
7,07107	375347
7,07520	387429
7,07932	376848
7,08343	374123
7,08755	361944
7,09168	344384
7,09580	333353
7,09992	319808
7,10405	299728
7,10817	281345
7,11228	276430
7,11642	252211
7,12053	239321
7,12465	221997
7,12878	211489
7,13290	201157
7,13702	189716
7,14115	178988
7,14527	167438
7,14938	155478
7,15352	142980
7,15763	135745
7,16175	124252
7,16588	121767
7,17000	109436
7,17412	102695
7,17823	91254
7,18237	87061
7,18648	78232
7,19060	71381
7,19473	63120
7,19885	58610
7,20297	55682
7,20710	49279
7,21122	45062
7,21533	40585
7,21947	36603
7,22358	33714
7,22770	30574
7,23183	29199
7,23595	27917
7,24007	23790
7,24420	22233
7,24832	20014
7,25243	19013
7,25657	16894
7,26068	17243
7,26480	15377
7,26892	13942
7,27305	14854
7,27717	13853
7,28128	13296
7,28542	12041
7,28953	11556
7,29365	12195
7,29778	11052
7,30190	10364
7,30602	10328
7,31015	9250
7,31427	9176
7,31838	9055
7,32252	9202
7,32663	10138
7,33075	8856
7,33488	8670
7,33900	8043
7,34312	9058
7,34725	9414
7,35137	7830
7,35548	7730
7,35960	7902
7,36373	7904
7,36785	7909
7,37197	7917
7,37610	7246
7,38022	7855
7,38433	7454
7,38847	8096
7,39258	7894
7,39670	7500
7,40083	8002
7,40495	7697
7,40907	7199
7,41320	7905
7,41732	7347
7,42143	7516
7,42557	7407
7,42968	7749
7,43380	7179
7,43793	7483
7,44205	7114
7,44617	7152
7,45028	6948
7,45442	7263
7,45853	7204
7,46265	7301
7,46678	7122
7,47090	7868
7,47502	6797
7,47915	7117
7,48327	7328
7,48738	6554
7,49152	6360
7,49563	7001
7,49975	7560
7,50388	7044
7,50800	7645
7,51212	7038
7,51625	7188
7,52037	7375
7,52448	7723
7,52862	7419
7,53273	6741
7,53685	7163
7,54097	6580
7,54510	6774
7,54922	6976
7,55333	6143
7,55747	6688
7,56158	6128
7,56570	6739
7,56983	6715
7,57395	6381
7,57807	6013
7,58220	6283
7,58632	6742
7,59043	5894
7,59457	6617
7,59868	6448
7,60280	6870
7,60693	6868
7,61105	6875
7,61517	5597
7,61930	6802
7,62342	6594
7,62753	5705
7,63165	5737
7,63578	5994
7,63990	6399
7,64402	5772
7,64815	6363
7,65227	5407
7,65638	5694
7,66052	6429
7,66463	5550
7,66875	5768
7,67288	5371
7,67700	6136
7,68112	6419
7,68525	5120
7,68937	5788
7,69348	6181
7,69762	6356
7,70173	5616
7,70585	6055
7,70998	5843
7,71410	5643
7,71822	6087
7,72233	5650
7,72647	6100
7,73058	6675
7,73470	5984
7,73883	5990
7,74295	6177
7,74707	5880
7,75120	5009
7,75532	6232
7,75943	6179
7,76357	5328
7,76768	5319
7,77180	5790
7,77593	5811
7,78005	6562
7,78417	5627
7,78830	5739
7,79242	4866
7,79653	5992
7,80067	5562
7,80478	5895
7,80890	6076
7,81302	5575
7,81715	6116
7,82127	5765
7,82538	5562
7,82952	5348
7,83363	5525
7,83775	4944
7,84188	5878
7,84600	5353
7,85012	4714
7,85425	5398
7,85837	5198
7,86248	5549
7,86662	4868
7,87073	5360
7,87485	6234
7,87898	5641
7,88310	4848
7,88722	6147
7,89135	4851
7,89547	4877
7,89958	4934
7,90370	5030
7,90783	5876
7,91195	5454
7,91607	5311
7,92020	5776
7,92432	6610
7,92843	7307
7,93257	9767
7,93668	14868
7,94080	22707
7,94493	33450
7,94905	47837
7,95317	69847
7,95730	94380
7,96142	123724
7,96553	155038
7,96967	183748
7,97378	208846
7,97790	228670
7,98203	244721
7,98615	254064
7,99027	252975
7,99440	245329
7,99852	246023
8,00263	239682
8,00675	224217
8,01088	213634
8,01500	203417
8,01912	190971
8,02325	179890
8,02737	170916
8,03148	157924
8,03562	146698
8,03973	134057
8,04385	123458
8,04798	118866
8,05210	110588
8,05622	97717
8,06035	88696
8,06447	81233
8,06858	73249
8,07272	68210
8,07683	61206
8,08095	52412
8,08508	49477
8,08920	43129
8,09332	38971
8,09743	35552
8,10157	30708
8,10568	28329
8,10980	25173
8,11393	22426
8,11805	21202
8,12217	20105
8,12630	18387
8,13042	14698
8,13453	14192
8,13867	13953
8,14278	12864
8,14690	11977
8,15103	10470
8,15515	11029
8,15927	9915
8,16340	9110
8,16752	8863
8,17163	8730
8,17577	7631
8,17988	7881
8,18400	7661
8,18812	6908
8,19225	7178
8,19637	7491
8,20048	7637
8,20462	6698
8,20873	7046
8,21285	6483
8,21698	7442
8,22110	6127
8,22522	6915
8,22935	7632
8,23347	6965
8,23758	7988
8,24172	6619
8,24583	7343
8,24995	7692
8,25408	6774
8,25820	7383
8,26232	7092
8,26645	6597
8,27057	7032
8,27468	7063
8,27880	6652
8,28293	6795
8,28705	6317
8,29117	5644
8,29530	5656
8,29942	5726
8,30353	5526
8,30767	5770
8,31178	5982
8,31590	5735
8,32003	5311
8,32415	6643
8,32827	6496
8,33240	6295
8,33652	5601
8,34063	5723
8,34477	5874
8,34888	6067
8,35300	6266
8,35713	5733
8,36125	5698
8,36537	5752
8,36948	5942
8,37362	4840
8,37773	5418
8,38185	5729
8,38598	5485
8,39010	5467
8,39422	5437
8,39835	5507
8,40247	4511
8,40658	6078
8,41072	5303
8,41483	4980
8,41895	4791
8,42308	4894
8,42720	4478
8,43132	4381
8,43545	4060
8,43957	4621
8,44368	4223
8,44782	4715
8,45193	4330
8,45605	4151
8,46017	4135
8,46430	5360
8,46842	4669
8,47253	3862
8,47667	3894
8,48078	4706
8,48490	5138
8,48903	4848
8,49315	4339
8,49727	4071
8,50140	4449
8,50552	4545
8,50963	4361
8,51377	4174
8,51788	4234
8,52200	4170
8,52613	3980
8,53025	4392
8,53437	4209
8,53850	4277
8,54262	4202
8,54673	4157
8,55085	4237
8,55498	3965
8,55910	4373
8,56322	4319
8,56735	3906
8,57147	4217
8,57558	4338
8,57972	3570
8,58383	4492
8,58795	4262
8,59208	3952
8,59620	4663
8,60032	4260
8,60445	3884
8,60857	4322
8,61268	4152
8,61682	4022
8,62093	3936
8,62505	3598
8,62918	4338
8,63330	4154
8,63742	3525
8,64153	3753
8,64567	3964
8,64978	4050
8,65390	4150
8,65803	4166
8,66215	3927
8,66627	4509
8,67040	3892
8,67452	4075
8,67863	3706
8,68277	4255
8,68688	4099
8,69100	4230
8,69513	3867
8,69925	4891
8,70337	4303
8,70750	3769
8,71162	3686
8,71573	4048
8,71987	3972
8,72398	3296
8,72810	4418
8,73222	3926
8,73635	3331
8,74047	4283
8,74458	3984
8,74872	4340
8,75283	3943
8,75695	3810
8,76108	4050
8,76520	3747
8,76932	3899
8,77345	3773
8,77757	3922
8,78168	3919
8,78582	3544
8,78993	3437
8,79405	3716
8,79818	4082
8,80230	3726
8,80642	4019
8,81055	3661
8,81467	3094
8,81878	3721
8,82290	3223
8,82703	3619
8,83115	3531
8,83527	3240
8,83940	3678
8,84352	3736
8,84763	4138
8,85177	4632
8,85588	3772
8,86000	3826
8,86413	4071
8,86825	4000
8,87237	4165
8,87650	3381
8,88062	3432
8,88473	3661
8,88887	3786
8,89298	4195
8,89710	3870
8,90123	3517
8,90535	3519
8,90947	4275
8,91358	3681
8,91772	3560
8,92183	3611
8,92595	3466
8,93008	3344
8,93420	3426
8,93832	4008
8,94245	3499
8,94657	3636
8,95068	3448
8,95482	3702
8,95893	3475
8,96305	3595
8,96718	3563
8,97130	3529
8,97542	5652
8,97955	7674
8,98367	10262
8,98778	16738
8,99192	29514
8,99603	48604
9,00015	77873
9,00427	113086
9,00840	167280
9,01252	226331
9,01663	307764
9,02077	379137
9,02488	447501
9,02900	520514
9,03313	573088
9,03725	606322
9,04137	636912
9,04550	649171
9,04962	649206
9,05373	635170
9,05787	606785
9,06198	575041
9,06610	542854
9,07023	513629
9,07435	470162
9,07847	428909
9,08260	399150
9,08672	355860
9,09083	325850
9,09495	288487
9,09908	257395
9,10320	229872
9,10732	202495
9,11145	178568
9,11557	158292
9,11968	132157
9,12382	117955
9,12793	100051
9,13205	88775
9,13618	77337
9,14030	67563
9,14442	58401
9,14855	49238
9,15267	44992
9,15678	40513
9,16092	34019
9,16503	31823
9,16915	28393
9,17328	26992
9,17740	23633
9,18152	21278
9,18563	19242
9,18977	18892
9,19388	16683
9,19800	16040
9,20213	15423
9,20625	14590
9,21037	12884
9,21450	13018
9,21862	10865
9,22273	10399
9,22687	10413
9,23098	9165
9,23510	9380
9,23923	9056
9,24335	8648
9,24747	7966
9,25160	8507
9,25572	7178
9,25983	8000
9,26397	7798
9,26808	7051
9,27220	7208
9,27632	6219
9,28045	6811
9,28457	6994
9,28868	6241
9,29282	5612
9,29693	5702
9,30105	5075
9,30518	6000
9,30930	5895
9,31342	6168
9,31755	5143
9,32167	5565
9,32578	4892
9,32992	4868
9,33403	5064
9,33815	5012
9,34228	5229
9,34640	4542
9,35052	4639
9,35465	4933
9,35877	4423
9,36288	5022
9,36700	4827
9,37113	4775
9,37525	3867
9,37937	4835
9,38350	4776
9,38762	4481
9,39173	4098
9,39587	4306
9,39998	4267
9,40410	3995
9,40823	4192
9,41235	3916
9,41647	4311
9,42060	3609
9,42472	3541
9,42883	3897
9,43297	4169
9,43708	4105
9,44120	3759
9,44533	3580
9,44945	4030
9,45357	3610
9,45768	3642
9,46182	3472
9,46593	3755
9,47005	3697
9,47418	3841
9,47830	3703
9,48242	3955
9,48655	3312
9,49067	3310
9,49478	2934
9,49892	3511
9,50303	3292
9,50715	3513
9,51128	3410
9,51540	3743
9,51952	3265
9,52365	3485
9,52777	3362
9,53188	3319
9,53602	3853
9,54013	4335
9,54425	4438
9,54837	4045
9,55250	4374
9,55662	4269
9,56073	4951
9,56487	5122
9,56898	4205
9,57310	3454
9,57723	3748
9,58135	3964
9,58547	3376
9,58960	2856
9,59372	3390
9,59783	3475
9,60197	3892
9,60608	2944
9,61020	3897
9,61433	2930
9,61845	3896
9,62257	3292
9,62670	2805
9,63082	2897
9,63493	3088
9,63905	3038
9,64318	2807
9,64730	3219
9,65142	2864
9,65555	3603
9,65967	3550
9,66378	3358
9,66792	2865
9,67203	3406
9,67615	3044
9,68028	3156
9,68440	2871
9,68852	2882
9,69265	3552
9,69677	3016
9,70088	2786
9,70502	2775
9,70913	2586
9,71325	3307
9,71738	3007
9,72150	2663
9,72562	3211
9,72975	2775
9,73387	2722
9,73798	3344
9,74210	2937
9,74623	2935
9,75035	2761
9,75447	2669
9,75860	2957
9,76272	3231
9,76683	3016
9,77097	3695
9,77508	3912
9,77920	4249
9,78333	4996
9,78745	4790
9,79157	5424
9,79570	6026
9,79982	5846
9,80393	6170
9,80807	5726
9,81218	6257
9,81630	5581
9,82043	5479
9,82455	5555
9,82867	5408
9,83278	5272
9,83692	5000
9,84103	5865
9,84515	3984
9,84928	4646
9,85340	4952
9,85752	4389
9,86165	4220
9,86577	2710
9,86988	4104
9,87402	3809
9,87813	3200
9,88225	3380
9,88638	3391
9,89050	3167
9,89462	3133
9,89875	3696
9,90287	3020
9,90698	3049
9,91112	3012
9,91523	2780
9,91935	3373
9,92347	2951
9,92760	2565
9,93172	2634
9,93583	2386
9,93997	2696
9,94408	2517
9,94820	2912
9,95233	3372
9,95645	3057
9,96057	3212
9,96470	2621
9,96882	2423
9,97293	2707
9,97707	3020
9,98118	2844
9,98530	2191
9,98943	2526
9,99355	2212
9,99767	2303
10,00180	2710
10,00592	2817
10,01003	2237
10,01415	2845
10,01828	2720
10,02240	2415
10,02652	2550
10,03065	2692
10,03477	2165
10,03888	2958
10,04302	2318
10,04713	2476
10,05125	2317
10,05538	2507
10,05950	2720
10,06362	2945
10,06775	2501
10,07187	2330
10,07598	3221
10,08012	2820
10,08423	2014
10,08835	2122
10,09248	2468
10,09660	2738
10,10072	2508
10,10483	2498
10,10897	2617
10,11308	2258
10,11720	2207
10,12133	2468
10,12545	2509
10,12957	2090
10,13370	2588
10,13782	2807
10,14193	3240
10,14607	4064
10,15018	6355
10,15430	10242
10,15843	17385
10,16255	27891
10,16667	44986
10,17080	71187
10,17492	97780
10,17903	136574
10,18317	182301
10,18728	233308
10,19140	276363
10,19552	314907
10,19965	349445
10,20377	375467
10,20788	387995
10,21202	395073
10,21613	397190
10,22025	377805
10,22438	364719
10,22850	339915
10,23262	315138
10,23675	288230
10,24087	252133
10,24498	230466
10,24912	201064
10,25323	171961
10,25735	152240
10,26148	132491
10,26560	112236
10,26972	95814
10,27385	80916
10,27797	70275
10,28208	58531
10,28620	51085
10,29033	43547
10,29445	36536
10,29857	32513
10,30270	26718
10,30682	24747
10,31093	20474
10,31507	18423
10,31918	17703
10,32330	16070
10,32743	14477
10,33155	13349
10,33567	11837
10,33980	11635
10,34392	9869
10,34803	9226
10,35217	9414
10,35628	7813
10,36040	7799
10,36453	6725
10,36865	6657
10,37277	6360
10,37688	6200
10,38102	6058
10,38513	5683
10,38925	6167
10,39338	5476
10,39750	5656
10,40162	4842
10,40575	4744
10,40987	5140
10,41398	4078
10,41812	4526
10,42223	3570
10,42635	3836
10,43048	4370
10,43460	4498
10,43872	3745
10,44285	3684
10,44697	3567
10,45108	3838
10,45522	3289
10,45933	3252
10,46345	3031
10,46757	3242
10,47170	3282
10,47582	3529
10,47993	3350
10,48407	2889
10,48818	3312
10,49230	3284
10,49643	3351
10,50055	2944
10,50467	2842
10,50880	2401
10,51292	3075
10,51703	2592
10,52117	3126
10,52528	2430
10,52940	2927
10,53353	2996
10,53765	2844
10,54177	2690
10,54590	2710
10,55002	2432
10,55413	2696
10,55825	2790
10,56238	2278
10,56650	2592
10,57062	3289
10,57475	2856
10,57887	2567
10,58298	2418
10,58712	2221
10,59123	2420
10,59535	2403
10,59948	3191
10,60360	2094
10,60772	2405
10,61185	2370
10,61597	2595
10,62008	2436
10,62422	2307
10,62833	1842
10,63245	1938
10,63658	2157
10,64070	2668
10,64482	2727
10,64893	2406
10,65307	2427
10,65718	2098
10,66130	2349
10,66543	2154
10,66955	1778
10,67367	2672
10,67780	2021
10,68192	2354
10,68603	2250
10,69017	2105
10,69428	2128
10,69840	2227
10,70253	2008
10,70665	2190
10,71077	2069
10,71490	2061
10,71902	2448
10,72313	2064
10,72727	1901
10,73138	2164
10,73550	2172
10,73962	2008
10,74375	2072
10,74787	2113
10,75198	1891
10,75612	1944
10,76023	1940
10,76435	1950
10,76848	1933
10,77260	1653
10,77672	2397
10,78085	2429
10,78497	2464
10,78908	2351
10,79322	2561
10,79733	3026
10,80145	3350
10,80558	2832
10,80970	3811
10,81382	3217
10,81795	4159
10,82207	3123
10,82618	3051
10,83030	3094
10,83443	3348
10,83855	3341
10,84267	3000
10,84680	3385
10,85092	2646
10,85503	3340
10,85917	2314
10,86328	2716
10,86740	2502
10,87153	2329
10,87565	1862
10,87977	2185
10,88390	1996
10,88802	1947
10,89213	2174
10,89627	2057
10,90038	1976
10,90450	2198
10,90863	2203
10,91275	1806
10,91687	1841
10,92098	2021
10,92512	1665
10,92923	1789
10,93335	1945
10,93748	1696
10,94160	2344
10,94572	1931
10,94985	1764
10,95397	1953
10,95808	2355
10,96222	2345
10,96633	2095
10,97045	2788
10,97458	2220
10,97870	2212
10,98282	2610
10,98695	2875
10,99107	2909
10,99518	2601
10,99932	2974
11,00343	2594
11,00755	2260
11,01167	2504
11,01580	2951
11,01992	2462
11,02403	3087
11,02817	2591
11,03228	2585
11,03640	1980
11,04053	2228
11,04465	2313
11,04877	2297
11,05290	2262
11,05702	1688
11,06113	2374
11,06527	1880
11,06938	1486
11,07350	1933
11,07763	2002
11,08175	2077
11,08587	1597
11,09000	2008
11,09412	1967
11,09823	1569
11,10235	1956
11,10648	1719
11,11060	1614
11,11472	1643
11,11885	1634
11,12297	1499
11,12708	2031
11,13122	1735
11,13533	2060
11,13945	1590
11,14358	1741
11,14770	1873
11,15182	1483
11,15595	2252
11,16007	1639
11,16418	1985
11,16832	2040
11,17243	1563
11,17655	1690
11,18068	1956
11,18480	1814
11,18892	1806
11,19303	1745
11,19717	1990
11,20128	2244
11,20540	1844
11,20953	2108
11,21365	1743
11,21777	1959
11,22190	1295
11,22602	1852
11,23013	1546
11,23427	1969
11,23838	1796
11,24250	1994
11,24663	1677
11,25075	1513
11,25487	1968
11,25900	1817
11,26312	1717
11,26723	1872
11,27137	1814
11,27548	2049
11,27960	1832
11,28373	1572
11,28785	1956
11,29197	1442
11,29608	1773
11,30022	2071
11,30433	1841
11,30845	1600
11,31258	1938
11,31670	1471
11,32082	1556
11,32495	1747
11,32907	1470
11,33318	1902
11,33732	1590
11,34143	1515
11,34555	1761
11,34968	2045
11,35380	1552
11,35792	1591
11,36205	2337
11,36617	2014
11,37028	1958
11,37442	1745
11,37853	2934
11,38265	3540
11,38677	4562
11,39090	8979
11,39502	17938
11,39913	29483
11,40327	50352
11,40738	81999
11,41150	128356
11,41563	188811
11,41975	269617
11,42387	363184
11,42800	471723
11,43212	582382
11,43623	690214
11,44037	775962
11,44448	873661
11,44860	918631
11,45273	953675
11,45685	953091
11,46097	934870
11,46510	904276
11,46922	830782
11,47333	749645
11,47745	660526
11,48158	578006
11,48570	495308
11,48982	422893
11,49395	354963
11,49807	294320
11,50218	244652
11,50632	203072
11,51043	168840
11,51455	141208
11,51868	117711
11,52280	99952
11,52692	83990
11,53105	71034
11,53517	60524
11,53928	51940
11,54342	48772
11,54753	42064
11,55165	36295
11,55578	33770
11,55990	31159
11,56402	27929
11,56813	26239
11,57227	23555
11,57638	21932
11,58050	21214
11,58463	18962
11,58875	19112
11,59287	15848
11,59700	15366
11,60112	14198
11,60523	13730
11,60937	13132
11,61348	12167
11,61760	11411
11,62173	10950
11,62585	10437
11,62997	9642
11,63410	10559
11,63822	10090
11,64233	8863
11,64647	10323
11,65058	8485
11,65470	9472
11,65882	9086
11,66295	8373
11,66707	8816
11,67118	8355
11,67532	7720
11,67943	7402
11,68355	7716
11,68768	6310
11,69180	5458
11,69592	6193
11,70005	5766
11,70417	4437
11,70828	4948
11,71242	4472
11,71653	4764
11,72065	4293
11,72478	5002
11,72890	4575
11,73302	4435
11,73715	4216
11,74127	3857
11,74538	3641
11,74950	3093
11,75363	3326
11,75775	3341
11,76187	2836
11,76600	3192
11,77012	3994
11,77423	2837
11,77837	3102
11,78248	2868
11,78660	2830
11,79073	2658
11,79485	2868
11,79897	2834
11,80310	2086
11,80722	2597
11,81133	2932
11,81547	2303
11,81958	2456
11,82370	2472
11,82783	2914
11,83195	2410
11,83607	2275
11,84018	2507
11,84432	2307
11,84843	2036
11,85255	1551
11,85668	1847
11,86080	1979
11,86492	1593
11,86905	2005
11,87317	1782
11,87728	2147
11,88142	2284
11,88553	1933
11,88965	2100
11,89378	2118
11,89790	2002
11,90202	2017
11,90615	2500
11,91027	2603
11,91438	1493
11,91852	2553
11,92263	2279
11,92675	2139
11,93087	2175
11,93500	1895
11,93912	1542
11,94323	1716
11,94737	2411
11,95148	1717
11,95560	2108
11,95973	1696
11,96385	1845
11,96797	1626
11,97210	1954
11,97622	1793
11,98033	1821
11,98447	1746
11,98858	1343
11,99270	1440
11,99683	1637
12,00095	1623
12,00507	1967
12,00920	2151
12,01332	1644
12,01743	1704
12,02155	1956
12,02568	1432
12,02980	1747
12,03392	1797
12,03805	1708
12,04217	1893
12,04628	1786
12,05042	2268
12,05453	1769
12,05865	1901
12,06278	1448
12,06690	2379
12,07102	2541
12,07515	2582
12,07927	3018
12,08338	2722
12,08752	3040
12,09163	2523
12,09575	2466
12,09988	2073
12,10400	2443
12,10812	2314
12,11223	2250
12,11637	2079
12,12048	1928
12,12460	1979
12,12873	2074
12,13285	2164
12,13697	2007
12,14110	2002
12,14522	1487
12,14933	1738
12,15347	1631
12,15758	1500
12,16170	1770
12,16583	1526
12,16995	1934
12,17407	1470
12,17820	1351
12,18232	1715
12,18643	1162
12,19057	1468
12,19468	1437
12,19880	1822
12,20292	1281
12,20705	1328
12,21117	1520
12,21528	1345
12,21942	1202
12,22353	1302
12,22765	1402
12,23178	1288
12,23590	1891
12,24002	1517
12,24415	2449
12,24827	3084
12,25238	3581
12,25652	2917
12,26063	3111
12,26475	3399
12,26888	2820
12,27300	1604
12,27712	1915
12,28125	1714
12,28537	2198
12,28948	2099
12,29360	2956
12,29773	5873
12,30185	10823
12,30597	20770
12,31010	34107
12,31422	52112
12,31833	82206
12,32247	120055
12,32658	163165
12,33070	212764
12,33483	267813
12,33895	321929
12,34307	367245
12,34720	410576
12,35132	440688
12,35543	456191
12,35957	453746
12,36368	451848
12,36780	425555
12,37193	395842
12,37605	350475
12,38017	318962
12,38428	276785
12,38842	237901
12,39253	196575
12,39665	166500
12,40078	139406
12,40490	115870
12,40902	95127
12,41315	79419
12,41727	66128
12,42138	58645
12,42552	49225
12,42963	44240
12,43375	35536
12,43788	30759
12,44200	26939
12,44612	23420
12,45025	21426
12,45437	19206
12,45848	17631
12,46262	15566
12,46673	14874
12,47085	14599
12,47497	12342
12,47910	10437
12,48322	10193
12,48733	8669
12,49147	7786
12,49558	8528
12,49970	7322
12,50383	5511
12,50795	5093
12,51207	5485
12,51620	5360
12,52032	5138
12,52443	5435
12,52857	4874
12,53268	5642
12,53680	4320
12,54093	3772
12,54505	3818
12,54917	3674
12,55330	3917
12,55742	3092
12,56153	3038
12,56565	2932
12,56978	3163
12,57390	2875
12,57802	3365
12,58215	2371
12,58627	2229
12,59038	2532
12,59452	2706
12,59863	2438
12,60275	2265
12,60688	1792
12,61100	1752
12,61512	2649
12,61925	1929
12,62337	1884
12,62748	2215
12,63162	1372
12,63573	1588
12,63985	2259
12,64398	1954
12,64810	1134
12,65222	1841
12,65633	2458
12,66047	2246
12,66458	2890
12,66870	3426
12,67283	5758
12,67695	10221
12,68107	17070
12,68520	31839
12,68932	48380
12,69343	73857
12,69757	107921
12,70168	150379
12,70580	206223
12,70993	268360
12,71405	329237
12,71817	386866
12,72230	439187
12,72642	483661
12,73053	514686
12,73467	523266
12,73878	521670
12,74290	496247
12,74702	454854
12,75115	414467
12,75527	357221
12,75938	317694
12,76352	261565
12,76763	219272
12,77175	181776
12,77588	151754
12,78000	127005
12,78412	102746
12,78825	85253
12,79237	70174
12,79648	58972
12,80062	49297
12,80473	42929
12,80885	37450
12,81298	31923
12,81710	28302
12,82122	23743
12,82535	22873
12,82947	20366
12,83358	17264
12,83770	16945
12,84183	16182
12,84595	13846
12,85007	13551
12,85420	12499
12,85832	10936
12,86243	9657
12,86657	8045
12,87068	8668
12,87480	7661
12,87893	8125
12,88305	7263
12,88717	6514
12,89130	6458
12,89542	6751
12,89953	5907
12,90367	6032
12,90778	3942
12,91190	4207
12,91603	5194
12,92015	4207
12,92427	3431
12,92840	3919
12,93252	3598
12,93663	4158
12,94075	3690
12,94488	3604
12,94900	3740
12,95312	3625
12,95725	2720
12,96137	2494
12,96548	3453
12,96962	2848
12,97373	2603
12,97785	2379
12,98198	2578
12,98610	2800
12,99022	2918
12,99435	2914
12,99847	1931
13,00258	1762
13,00672	2694
13,01083	2265
13,01495	2274
13,01908	2268
13,02320	2490
13,02732	2395
13,03143	1736
13,03557	1696
13,03968	1781
13,04380	1978
13,04793	2051
13,05205	2409
13,05617	1313
13,06030	1422
13,06442	2270
13,06853	1807
13,07267	1638
13,07678	1872
13,08090	1893
13,08503	1767
13,08915	1768
13,09327	2169
13,09740	1447
13,10152	1621
13,10563	1535
13,10977	1409
13,11388	2061
13,11800	1593
13,12212	1857
13,12625	1594
13,13037	1633
13,13448	1683
13,13862	1866
13,14273	1270
13,14685	1390
13,15098	1276
13,15510	1700
13,15922	1664
13,16335	1717
13,16747	1538
13,17158	1689
13,17572	1709
13,17983	1374
13,18395	1735
13,18808	1285
13,19220	1683
13,19632	1365
13,20045	1988
13,20457	1688
13,20868	1771
13,21280	1697
13,21693	1690
13,22105	1604
13,22517	1649
13,22930	1380
13,23342	1560
13,23753	1507
13,24167	1259
13,24578	1912
13,24990	2066
13,25403	837
13,25815	1219
13,26227	1522
13,26640	1846
13,27052	909
13,27463	1130
13,27877	1004
13,28288	1308
13,28700	1690
13,29113	1191
13,29525	1588
13,29937	1723
13,30348	1232
13,30762	1143
13,31173	1535
13,31585	1012
13,31998	812
13,32410	1178
13,32822	1203
13,33235	1466
13,33647	979
13,34058	1585
13,34472	1610
13,34883	1703
13,35295	1208
13,35708	1340
13,36120	1425
13,36532	1567
13,36945	1242
13,37357	1027
13,37768	1580
13,38182	1254
13,38593	998
13,39005	1128
13,39417	1643
13,39830	1053
13,40242	1213
13,40653	790
13,41067	1881
13,41478	1155
13,41890	1549
13,42303	1088
13,42715	1129
13,43127	1435
13,43540	1143
13,43952	973
13,44363	885
13,44777	924
13,45188	1241
13,45600	1179
13,46013	1051
13,46425	1229
13,46837	1015
13,47250	1696
13,47662	1040
13,48073	1701
13,48485	964
13,48898	1334
13,49310	1496
13,49722	1051
13,50135	1140
13,50547	1031
13,50958	1315
13,51372	982
13,51783	1527
13,52195	527
13,52608	1223
13,53020	1595
13,53432	1597
13,53845	842
13,54257	1007
13,54668	710
13,55082	1109
13,55493	1176
13,55905	1255
13,56318	1169
13,56730	1127
13,57142	838
13,57553	875
13,57967	954
13,58378	1433
13,58790	1468
13,59203	1929
13,59615	3889
13,60027	6418
13,60440	13399
13,60852	23220
13,61263	36997
13,61677	60259
13,62088	91185
13,62500	135243
13,62913	182421
13,63325	242460
13,63737	300214
13,64150	359677
13,64562	414838
13,64973	460844
13,65387	502981
13,65798	512457
13,66210	509772
13,66622	490612
13,67035	455536
13,67447	412361
13,67858	358705
13,68272	310669
13,68683	265337
13,69095	223685
13,69508	186078
13,69920	154232
13,70332	127040
13,70745	102741
13,71157	84299
13,71568	71268
13,71982	62083
13,72393	50371
13,72805	42225
13,73218	37048
13,73630	32662
13,74042	28902
13,74455	24379
13,74867	21593
13,75278	19709
13,75690	17465
13,76103	15152
13,76515	14193
13,76927	12983
13,77340	11155
13,77752	10710
13,78163	9819
13,78577	9278
13,78988	8904
13,79400	7899
13,79813	6666
13,80225	6552
13,80637	5929
13,81050	5744
13,81462	5648
13,81873	6135
13,82287	4606
13,82698	4826
13,83110	4126
13,83523	3874
13,83935	4081
13,84347	3815
13,84758	3378
13,85172	3828
13,85583	3227
13,85995	2873
13,86408	3121
13,86820	2716
13,87232	2491
13,87645	2510
13,88057	2470
13,88468	1949
13,88882	1971
13,89293	1866
13,89705	2058
13,90118	1878
13,90530	2028
13,90942	2024
13,91355	1698
13,91767	1795
13,92178	1978
13,92592	1745
13,93003	1858
13,93415	2050
13,93827	1277
13,94240	1955
13,94652	1448
13,95063	2059
13,95477	2022
13,95888	3537
13,96300	6504
13,96713	13055
13,97125	22414
13,97537	39188
13,97950	68669
13,98362	108530
13,98773	169551
13,99187	249320
13,99598	352637
14,00010	488022
14,00423	641226
14,00835	815583
14,01247	1000342
14,01660	1187696
14,02072	1380912
14,02483	1531792
14,02895	1655655
14,03308	1725412
14,03720	1738930
14,04132	1638766
14,04545	1544842
14,04957	1377784
14,05368	1178365
14,05782	1001611
14,06193	808101
14,06605	659665
14,07018	526250
14,07430	426435
14,07842	349064
14,08255	282022
14,08667	226850
14,09078	191196
14,09492	159526
14,09903	137782
14,10315	120089
14,10728	101113
14,11140	91137
14,11552	81496
14,11963	70492
14,12377	62948
14,12788	59996
14,13200	50555
14,13613	48112
14,14025	43132
14,14437	40401
14,14850	36825
14,15262	33204
14,15673	30669
14,16087	31551
14,16498	28799
14,16910	26075
14,17323	24632
14,17735	20962
14,18147	21174
14,18560	18859
14,18972	18582
14,19383	18799
14,19797	16702
14,20208	14982
14,20620	16035
14,21032	15124
14,21445	14145
14,21857	12574
14,22268	12184
14,22682	11934
14,23093	11475
14,23505	10932
14,23918	9529
14,24330	9732
14,24742	8442
14,25155	8697
14,25567	7418
14,25978	8329
14,26392	6531
14,26803	6227
14,27215	7033
14,27628	6385
14,28040	6912
14,28452	5851
14,28865	4922
14,29277	5473
14,29688	5247
14,30100	5175
14,30513	4575
14,30925	4450
14,31337	3991
14,31750	4520
14,32162	4083
14,32573	3932
14,32987	4107
14,33398	3880
14,33810	3310
14,34223	3861
14,34635	3089
14,35047	3188
14,35460	3187
14,35872	4080
14,36283	3004
14,36697	2812
14,37108	3098
14,37520	2822
14,37933	3061
14,38345	2825
14,38757	2492
14,39168	1841
14,39582	2634
14,39993	2159
14,40405	1946
14,40818	3242
14,41230	2487
14,41642	2071
14,42055	2969
14,42467	2055
14,42878	2018
14,43292	2354
14,43703	1954
14,44115	1896
14,44528	1913
14,44940	2016
14,45352	2246
14,45765	1874
14,46177	1830
14,46588	1500
14,47002	2116
14,47413	2162
14,47825	1663
14,48237	1650
14,48650	1544
14,49062	2431
14,49473	2306
14,49887	1351
14,50298	2445
14,50710	2179
14,51123	2099
14,51535	1427
14,51947	2113
14,52360	2068
14,52772	2042
14,53183	1693
14,53597	2023
14,54008	1848
14,54420	1629
14,54833	1791
14,55245	2077
14,55657	1324
14,56070	2118
14,56482	1233
14,56893	1356
14,57307	1008
14,57718	1324
14,58130	1616
14,58542	1367
14,58955	1530
14,59367	1576
14,59778	1815
14,60192	1146
14,60603	1757
14,61015	1342
14,61428	1904
14,61840	1502
14,62252	1468
14,62665	1587
14,63077	1255
14,63488	1424
14,63902	1382
14,64313	1777
14,64725	1680
14,65138	1993
14,65550	2095
14,65962	2103
14,66375	1996
14,66787	2021
14,67198	1710
14,67610	1372
14,68023	1773
14,68435	1418
14,68847	1712
14,69260	829
14,69672	1952
14,70083	2254
14,70497	2485
14,70908	3085
14,71320	2898
14,71733	4256
14,72145	5891
14,72557	7974
14,72970	14645
14,73382	23020
14,73793	36322
14,74207	58062
14,74618	89082
14,75030	123589
14,75443	172740
14,75855	233941
14,76267	297940
14,76678	361243
14,77092	420606
14,77503	475956
14,77915	516326
14,78328	537989
14,78740	526636
14,79152	510432
14,79565	483575
14,79977	428079
14,80388	385328
14,80802	325699
14,81213	278118
14,81625	228460
14,82038	192193
14,82450	154691
14,82862	127004
14,83275	102560
14,83687	86304
14,84098	73473
14,84512	58444
14,84923	51825
14,85335	44929
14,85747	38516
14,86160	33548
14,86572	30084
14,86983	24999
14,87397	21918
14,87808	21448
14,88220	18335
14,88633	15800
14,89045	15506
14,89457	13655
14,89870	12444
14,90282	10891
14,90693	10718
14,91107	10373
14,91518	9357
14,91930	9108
14,92343	9142
14,92755	8849
14,93167	8506
14,93580	9619
14,93992	7055
14,94403	9622
14,94815	8459
14,95228	8722
14,95640	8305
14,96052	8834
14,96465	7374
14,96877	8302
14,97288	7077
14,97702	6485
14,98113	5838
14,98525	4793
14,98938	4894
14,99350	4606
14,99762	4469
15,00175	5544
15,00587	5044
15,00998	5652
15,01412	6272
15,01823	5061
15,02235	5120
15,02648	4365
15,03060	2238
15,03472	3080
15,03883	2877
15,04297	2317
15,04708	2111
15,05120	2303
15,05533	2499
15,05945	1927
15,06357	1868
15,06770	1467
15,07182	1592
15,07593	1677
15,08007	1749
15,08418	641
15,08830	1587
15,09243	1792
15,09655	1724
15,10067	1753
15,10480	1198
15,10892	1573
15,11303	1361
15,11717	1150
15,12128	1481
15,12540	1692
15,12952	1330
15,13365	1576
15,13777	1618
15,14188	1244
15,14602	1398
15,15013	1454
15,15425	1511
15,15838	1666
15,16250	1334
15,16662	1050
15,17075	1134
15,17487	1287
15,17898	918
15,18312	859
15,18723	1376
15,19135	993
15,19548	1189
15,19960	451
15,20372	1066
15,20785	1222
15,21197	1134
15,21608	1304
15,22020	1284
15,22433	1014
15,22845	1504
15,23257	1302
15,23670	1704
15,24082	1728
15,24493	2381
15,24907	4348
15,25318	6562
15,25730	12766
15,26143	21450
15,26555	35866
15,26967	59094
15,27380	94061
15,27792	136965
15,28203	191414
15,28617	249158
15,29028	316223
15,29440	396566
15,29853	457722
15,30265	509411
15,30677	561435
15,31088	582282
15,31502	592061
15,31913	571144
15,32325	525288
15,32738	474098
15,33150	410223
15,33562	351065
15,33975	288754
15,34387	237920
15,34798	190874
15,35212	159391
15,35623	127603
15,36035	102111
15,36448	83955
15,36860	73952
15,37272	60506
15,37685	51791
15,38097	42776
15,38508	37450
15,38922	32912
15,39333	29700
15,39745	25304
15,40157	23628
15,40570	21929
15,40982	20986
15,41393	17068
15,41807	15811
15,42218	14364
15,42630	13590
15,43043	13001
15,43455	11349
15,43867	11400
15,44280	10006
15,44692	9073
15,45103	8662
15,45517	8394
15,45928	6844
15,46340	7141
15,46753	6511
15,47165	7087
15,47577	6675
15,47990	5806
15,48402	6410
15,48813	5198
15,49225	5551
15,49638	5550
15,50050	4802
15,50462	5528
15,50875	4269
15,51287	4537
15,51698	3307
15,52112	3624
15,52523	4016
15,52935	3124
15,53348	3367
15,53760	3830
15,54172	3827
15,54585	3121
15,54997	2860
15,55408	3103
15,55822	2775
15,56233	2595
15,56645	2033
15,57058	2114
15,57470	1804
15,57882	2015
15,58293	1842
15,58707	1975
15,59118	1949
15,59530	1738
15,59943	1951
15,60355	1756
15,60767	2218
15,61180	1898
15,61592	1871
15,62003	1588
15,62417	1291
15,62828	2118
15,63240	1788
15,63653	2074
15,64065	1817
15,64477	1269
15,64890	2203
15,65302	1969
15,65713	1407
15,66127	1641
15,66538	1707
15,66950	1831
15,67362	1386
15,67775	1868
15,68187	1570
15,68598	1809
15,69012	1412
15,69423	1901
15,69835	1863
15,70248	1742
15,70660	1229
15,71072	1442
15,71485	1295
15,71897	2146
15,72308	1887
15,72722	688
15,73133	1887
15,73545	1014
15,73958	1416
15,74370	822
15,74782	773
15,75195	1556
15,75607	1465
15,76018	1132
15,76430	1413
15,76843	1662
15,77255	1832
15,77667	965
15,78080	1139
15,78492	1473
15,78903	777
15,79317	1005
15,79728	1188
15,80140	1064
15,80553	709
15,80965	1218
15,81377	1093
15,81790	996
15,82202	1629
15,82613	1204
15,83027	1289
15,83438	1403
15,83850	1179
15,84263	928
15,84675	925
15,85087	821
15,85498	1400
15,85912	1016
15,86323	785
15,86735	759
15,87148	969
15,87560	1386
15,87972	1297
15,88385	858
15,88797	1332
15,89208	743
15,89622	785
15,90033	1156
15,90445	447
15,90858	983
15,91270	866
15,91682	544
15,92095	937
15,92507	1269
15,92918	587
15,93332	1246
15,93743	1139
15,94155	771
15,94567	993
15,94980	824
15,95392	1096
15,95803	1196
15,96217	1184
15,96628	727
15,97040	1134
15,97453	736
15,97865	1371
15,98277	1336
15,98690	981
15,99102	799
15,99513	1513
15,99927	2926
16,00338	6120
16,00750	9656
16,01163	16811
16,01575	31529
16,01987	52676
16,02400	82730
16,02812	120129
16,03223	172726
16,03635	234591
16,04048	297940
16,04460	372521
16,04872	446710
16,05285	507982
16,05697	542655
16,06108	569440
16,06522	569203
16,06933	556383
16,07345	522717
16,07758	463578
16,08170	409401
16,08582	349729
16,08995	292817
16,09407	242928
16,09818	200081
16,10232	160766
16,10643	134055
16,11055	108463
16,11468	88373
16,11880	76514
16,12292	62888
16,12703	54332
16,13117	45533
16,13528	41585
16,13940	36117
16,14353	29781
16,14765	26382
16,15177	23346
16,15590	20845
16,16002	19346
16,16413	17483
16,16827	15906
16,17238	15126
16,17650	13980
16,18063	12034
16,18475	11499
16,18887	11614
16,19300	11310
16,19712	11230
16,20123	12368
16,20537	13535
16,20948	13148
16,21360	13811
16,21773	14461
16,22185	14315
16,22597	14806
16,23008	13495
16,23422	14146
16,23833	12899
16,24245	12761
16,24658	11786
16,25070	11395
16,25482	11035
16,25895	9538
16,26307	8631
16,26718	7201
16,27132	5584
16,27543	7333
16,27955	5782
16,28368	4969
16,28780	3919
16,29192	3510
16,29605	3596
16,30017	3936
16,30428	3252
16,30842	2564
16,31253	2448
16,31665	2631
16,32077	2604
16,32490	2557
16,32902	2451
16,33313	2452
16,33727	2306
16,34138	2092
16,34550	2407
16,34963	1904
16,35375	2026
16,35787	2378
16,36200	2028
16,36612	1722
16,37023	1252
16,37437	1974
16,37848	1976
16,38260	1617
16,38673	1975
16,39085	1871
16,39497	1137
16,39910	1833
16,40322	1774
16,40733	1212
16,41145	1537
16,41558	1675
16,41970	1651
16,42382	1972
16,42795	1220
16,43207	1735
16,43618	1304
16,44032	1380
16,44443	1084
16,44855	840
16,45268	1656
16,45680	1095
16,46092	1197
16,46505	1233
16,46917	1176
16,47328	880
16,47742	698
16,48153	1307
16,48565	1416
16,48978	1282
16,49390	1773
16,49802	1563
16,50213	1307
16,50627	2459
16,51038	4069
16,51450	7422
16,51863	11501
16,52275	22174
16,52687	36425
16,53100	61311
16,53512	97094
16,53923	147109
16,54337	219661
16,54748	305023
16,55160	410635
16,55573	533479
16,55985	660416
16,56397	809265
16,56810	947049
16,57222	1078605
16,57633	1186636
16,58047	1250868
16,58458	1281467
16,58870	1241496
16,59282	1164632
16,59695	1060296
16,60107	920008
16,60518	778958
16,60932	646004
16,61343	520556
16,61755	429176
16,62168	341845
16,62580	275935
16,62992	226310
16,63405	182611
16,63817	155262
16,64228	129753
16,64642	110545
16,65053	97150
16,65465	83576
16,65878	74529
16,66290	65461
16,66702	58336
16,67115	51841
16,67527	47850
16,67938	42209
16,68350	40174
16,68763	35640
16,69175	32301
16,69587	31018
16,70000	28790
16,70412	25663
16,70823	23877
16,71237	23483
16,71648	21063
16,72060	20108
16,72473	18676
16,72885	18274
16,73297	16702
16,73710	15843
16,74122	13850
16,74533	12768
16,74947	12535
16,75358	12945
16,75770	10513
16,76183	11129
16,76595	9611
16,77007	10148
16,77418	8716
16,77832	9216
16,78243	8574
16,78655	7606
16,79068	8467
16,79480	7770
16,79892	6954
16,80305	7479
16,80717	7237
16,81128	6361
16,81542	6523
16,81953	5271
16,82365	5199
16,82778	5046
16,83190	4746
16,83602	4858
16,84015	4798
16,84427	4350
16,84838	4703
16,85252	4313
16,85663	3648
16,86075	3779
16,86487	3190
16,86900	3555
16,87312	4018
16,87723	3703
16,88137	4100
16,88548	2417
16,88960	3493
16,89373	2826
16,89785	2996
16,90197	3173
16,90610	1924
16,91022	3209
16,91433	2465
16,91847	2609
16,92258	3167
16,92670	2858
16,93083	3495
16,93495	3991
16,93907	5988
16,94320	10142
16,94732	17231
16,95143	29295
16,95555	46362
16,95968	72076
16,96380	109201
16,96792	155562
16,97205	210707
16,97617	269417
16,98028	349896
16,98442	418967
16,98853	483504
16,99265	543308
16,99678	572643
17,00090	596722
17,00502	583201
17,00915	560338
17,01327	522675
17,01738	467431
17,02152	408373
17,02563	343062
17,02975	288553
17,03388	241398
17,03800	200402
17,04212	161859
17,04623	135510
17,05037	109894
17,05448	92780
17,05860	77987
17,06273	65372
17,06685	55113
17,07097	46908
17,07510	40024
17,07922	38895
17,08333	34502
17,08747	29443
17,09158	27177
17,09570	22823
17,09983	22014
17,10395	19250
17,10807	18085
17,11220	15419
17,11632	13962
17,12043	13675
17,12457	13427
17,12868	13009
17,13280	11701
17,13692	11082
17,14105	11051
17,14517	12913
17,14928	14819
17,15342	19640
17,15753	29623
17,16165	44717
17,16578	68283
17,16990	105104
17,17402	158768
17,17815	227262
17,18227	312291
17,18638	419789
17,19052	539714
17,19463	672960
17,19875	812383
17,20288	942234
17,20700	1058157
17,21112	1148880
17,21525	1194466
17,21937	1202106
17,22348	1142378
17,22760	1054714
17,23173	960403
17,23585	832349
17,23997	689317
17,24410	568760
17,24822	471912
17,25233	377451
17,25647	307456
17,26058	256351
17,26470	208480
17,26883	171658
17,27295	144649
17,27707	123338
17,28120	108585
17,28532	92509
17,28943	81983
17,29357	72585
17,29768	64309
17,30180	59036
17,30593	52982
17,31005	46912
17,31417	43749
17,31828	39571
17,32242	36625
17,32653	34884
17,33065	31003
17,33478	30252
17,33890	26993
17,34302	24404
17,34715	21421
17,35127	22682
17,35538	20796
17,35952	18461
17,36363	17842
17,36775	17865
17,37188	15930
17,37600	14393
17,38012	13669
17,38425	12296
17,38837	12943
17,39248	12677
17,39662	12434
17,40073	9942
17,40485	9076
17,40897	9148
17,41310	9221
17,41722	8934
17,42133	9204
17,42547	8160
17,42958	7142
17,43370	6972
17,43783	6957
17,44195	7558
17,44607	6931
17,45020	6077
17,45432	5975
17,45843	5459
17,46257	5620
17,46668	5335
17,47080	5438
17,47493	4645
17,47905	4429
17,48317	4863
17,48730	5300
17,49142	4047
17,49553	4301
17,49965	4150
17,50378	4001
17,50790	4301
17,51202	3825
17,51615	3120
17,52027	3006
17,52438	2979
17,52852	3245
17,53263	2767
17,53675	3069
17,54088	3220
17,54500	2897
17,54912	2321
17,55325	2163
17,55737	2948
17,56148	3348
17,56562	2585
17,56973	3074
17,57385	2631
17,57798	2076
17,58210	3013
17,58622	2146
17,59033	2729
17,59447	2032
17,59858	2015
17,60270	2603
17,60683	1890
17,61095	2386
17,61507	1877
17,61920	2441
17,62332	1630
17,62743	3153
17,63157	2244
17,63568	2728
17,63980	2866
17,64393	2452
17,64805	2995
17,65217	3515
17,65630	4825
17,66042	6733
17,66453	10705
17,66867	17867
17,67278	28674
17,67690	50199
17,68102	77013
17,68515	116786
17,68927	165041
17,69338	226784
17,69752	287726
17,70163	364700
17,70575	431652
17,70988	491140
17,71400	535900
17,71812	557521
17,72225	561215
17,72637	543839
17,73048	503633
17,73462	452625
17,73873	396513
17,74285	339671
17,74698	284478
17,75110	235741
17,75522	190551
17,75935	155698
17,76347	129057
17,76758	111274
17,77172	87766
17,77583	74711
17,77995	65050
17,78407	56336
17,78820	52468
17,79232	44223
17,79643	38493
17,80057	35807
17,80468	32855
17,80880	28469
17,81293	26323
17,81705	23896
17,82117	20431
17,82530	19393
17,82942	19274
17,83353	17143
17,83767	15972
17,84178	13853
17,84590	11726
17,85003	11500
17,85415	11415
17,85827	10723
17,86240	9703
17,86652	7980
17,87063	9728
17,87475	8589
17,87888	7303
17,88300	7284
17,88712	5959
17,89125	6704
17,89537	6187
17,89948	6024
17,90362	6500
17,90773	5365
17,91185	6159
17,91598	4380
17,92010	5201
17,92422	4242
17,92835	4233
17,93247	3701
17,93658	4232
17,94072	3605
17,94483	4457
17,94895	4718
17,95308	2826
17,95720	4271
17,96132	3715
17,96543	3943
17,96957	5073
17,97368	4189
17,97780	4132
17,98193	3950
17,98605	4205
17,99017	3625
17,99430	3294
17,99842	3081
18,00253	3715
18,00667	3944
18,01078	2315
18,01490	3111
18,01903	2945
18,02315	2699
18,02727	3374
18,03140	2973
18,03552	3083
18,03963	3219
18,04377	2141
18,04788	2561
18,05200	2340
18,05612	2533
18,06025	3116
18,06437	2227
18,06848	2376
18,07262	3042
18,07673	2907
18,08085	2114
18,08498	2762
18,08910	2561
18,09322	2252
18,09735	1827
18,10147	2270
18,10558	2251
18,10972	2025
18,11383	2341
18,11795	2147
18,12208	2425
18,12620	1753
18,13032	2349
18,13445	2457
18,13857	3258
18,14268	5503
18,14680	8834
18,15093	14561
18,15505	25911
18,15917	41178
18,16330	64923
18,16742	98724
18,17153	141785
18,17567	198630
18,17978	259327
18,18390	324394
18,18803	390463
18,19215	447997
18,19627	500200
18,20040	524616
18,20452	531738
18,20863	522710
18,21277	491068
18,21688	453045
18,22100	396990
18,22513	347011
18,22925	293191
18,23337	245824
18,23748	203484
18,24162	164412
18,24573	136390
18,24985	107806
18,25398	91114
18,25810	76955
18,26222	66489
18,26635	55136
18,27047	49236
18,27458	41338
18,27872	36069
18,28283	31664
18,28695	28793
18,29108	25062
18,29520	23515
18,29932	22272
18,30345	19137
18,30757	18465
18,31168	16737
18,31582	15170
18,31993	15462
18,32405	12930
18,32817	12337
18,33230	11451
18,33642	10574
18,34053	9430
18,34467	9193
18,34878	8137
18,35290	8429
18,35703	7152
18,36115	7192
18,36527	7155
18,36940	6746
18,37352	5705
18,37763	5660
18,38177	7102
18,38588	5758
18,39000	5234
18,39413	5755
18,39825	5774
18,40237	5795
18,40650	5507
18,41062	5125
18,41473	5385
18,41885	5348
18,42298	3891
18,42710	3552
18,43122	3871
18,43535	3916
18,43947	3736
18,44358	3848
18,44772	3862
18,45183	3826
18,45595	3691
18,46008	2749
18,46420	4126
18,46832	2681
18,47245	2313
18,47657	3201
18,48068	2222
18,48482	2247
18,48893	2205
18,49305	3007
18,49718	2345
18,50130	2739
18,50542	2744
18,50953	2241
18,51367	1673
18,51778	2151
18,52190	2419
18,52603	1844
18,53015	1761
18,53427	1767
18,53840	1319
18,54252	1973
18,54663	1454
18,55077	1356
18,55488	1775
18,55900	1293
18,56313	2003
18,56725	2108
18,57137	1714
18,57550	1249
18,57962	2206
18,58373	1495
18,58787	962
18,59198	1608
18,59610	986
18,60022	1379
18,60435	2289
18,60847	1313
18,61258	1753
18,61672	1168
18,62083	1473
18,62495	1812
18,62908	1690
18,63320	1818
18,63732	1207
18,64145	1135
18,64557	1592
18,64968	1320
18,65382	1394
18,65793	1340
18,66205	1254
18,66618	1230
18,67030	1079
18,67442	804
18,67855	1200
18,68267	1442
18,68678	1211
18,69090	1107
18,69503	868
18,69915	1959
18,70327	1132
18,70740	863
18,71152	1401
18,71563	1124
18,71977	1084
18,72388	1480
18,72800	1461
18,73213	1421
18,73625	1510
18,74037	1378
18,74450	1247
18,74862	1312
18,75273	1157
18,75687	1294
18,76098	1245
18,76510	1730
18,76923	878
18,77335	1391
18,77747	866
18,78158	1646
18,78572	1373
18,78983	1239
18,79395	1219
18,79808	1078
18,80220	1238
18,80632	1486
18,81045	1026
18,81457	1032
18,81868	1239
18,82282	1014
18,82693	1385
18,83105	1736
18,83518	1857
18,83930	3560
18,84342	5657
18,84755	9874
18,85167	18205
18,85578	32962
18,85992	51213
18,86403	76665
18,86815	116875
18,87227	160214
18,87640	218286
18,88052	278433
18,88463	333351
18,88877	387106
18,89288	439454
18,89700	464920
18,90113	475852
18,90525	468510
18,90937	452471
18,91350	419683
18,91762	370622
18,92173	324269
18,92587	285117
18,92998	235909
18,93410	198157
18,93823	165033
18,94235	139923
18,94647	121391
18,95060	110483
18,95472	112878
18,95883	123314
18,96295	144486
18,96708	182249
18,97120	236749
18,97532	298148
18,97945	388316
18,98357	490368
18,98768	617734
18,99182	752446
18,99593	889148
19,00005	1028264
19,00418	1163056
19,00830	1283048
19,01242	1352209
19,01655	1396138
19,02067	1362268
19,02478	1273841
19,02892	1140780
19,03303	1003216
19,03715	839578
19,04128	689834
19,04540	570698
19,04952	456333
19,05363	368273
19,05777	298514
19,06188	240226
19,06600	205604
19,07013	176748
19,07425	153353
19,07837	129613
19,08250	114328
19,08662	100007
19,09073	89636
19,09487	79273
19,09898	71917
19,10310	66073
19,10723	62810
19,11135	54181
19,11547	52285
19,11960	46210
19,12372	42971
19,12783	40634
19,13197	38501
19,13608	35906
19,14020	34301
19,14432	31454
19,14845	31125
19,15257	25829
19,15668	24864
19,16082	23703
19,16493	23144
19,16905	22044
19,17318	21162
19,17730	19157
19,18142	17913
19,18555	16894
19,18967	15340
19,19378	16378
19,19792	15803
19,20203	14051
19,20615	13237
19,21028	13044
19,21440	13859
19,21852	10814
19,22265	11520
19,22677	11478
19,23088	11653
19,23500	9884
19,23913	9251
19,24325	9117
19,24737	9288
19,25150	9687
19,25562	8861
19,25973	7040
19,26387	8343
19,26798	7775
19,27210	7293
19,27623	7725
19,28035	7295
19,28447	8370
19,28860	10345
19,29272	12713
19,29683	17749
19,30097	26758
19,30508	37280
19,30920	55485
19,31333	81616
19,31745	114192
19,32157	157917
19,32568	209322
19,32982	265687
19,33393	320162
19,33805	375483
19,34218	420720
19,34630	443047
19,35042	462755
19,35455	453737
19,35867	441537
19,36278	404377
19,36692	369053
19,37103	322389
19,37515	275157
19,37928	232665
19,38340	195864
19,38752	158904
19,39165	132666
19,39577	110708
19,39988	90450
19,40402	77266
19,40813	64108
19,41225	56656
19,41638	47677
19,42050	42784
19,42462	37957
19,42873	33170
19,43287	31718
19,43698	27430
19,44110	24017
19,44523	22353
19,44935	19687
19,45347	18571
19,45760	17999
19,46172	16553
19,46583	16215
19,46997	15092
19,47408	13192
19,47820	12633
19,48233	11684
19,48645	10644
19,49057	10504
19,49470	9519
19,49882	9257
19,50293	9047
19,50707	9471
19,51118	8327
19,51530	7635
19,51942	7346
19,52355	8145
19,52767	7614
19,53178	6974
19,53592	9047
19,54003	8499
19,54415	10580
19,54828	14184
19,55240	20348
19,55652	30687
19,56065	48767
19,56477	73111
19,56888	104194
19,57302	149311
19,57713	202422
19,58125	272655
19,58538	344596
19,58950	415442
19,59362	486692
19,59775	545184
19,60187	594875
19,60598	624618
19,61010	632259
19,61423	598201
19,61835	557340
19,62247	504046
19,62660	444525
19,63072	376375
19,63483	316858
19,63897	262451
19,64308	221192
19,64720	180914
19,65133	151366
19,65545	125758
19,65957	104608
19,66370	88218
19,66782	78715
19,67193	66506
19,67607	58509
19,68018	52515
19,68430	44879
19,68843	42428
19,69255	36392
19,69667	34437
19,70078	30478
19,70492	28767
19,70903	26223
19,71315	24106
19,71728	24117
19,72140	19764
19,72552	20207
19,72965	19193
19,73377	17860
19,73788	17429
19,74202	15866
19,74613	15188
19,75025	13358
19,75438	12770
19,75850	11852
19,76262	10502
19,76675	9110
19,77087	10515
19,77498	10128
19,77912	9751
19,78323	8799
19,78735	8143
19,79147	7585
19,79560	6144
19,79972	7529
19,80383	7185
19,80797	6777
19,81208	7982
19,81620	5884
19,82033	5814
19,82445	6141
19,82857	5722
19,83270	5777
19,83682	5951
19,84093	4995
19,84507	4851
19,84918	4815
19,85330	4877
19,85743	4657
19,86155	4476
19,86567	4957
19,86980	4593
19,87392	4880
19,87803	3969
19,88215	3702
19,88628	3260
19,89040	3277
19,89452	2917
19,89865	3576
19,90277	3328
19,90688	3335
19,91102	3290
19,91513	2832
19,91925	3152
19,92338	3278
19,92750	3018
19,93162	3856
19,93575	3960
19,93987	2860
19,94398	3677
19,94812	3002
19,95223	3174
19,95635	3868
19,96048	2666
19,96460	2508
19,96872	2911
19,97283	2396
19,97697	2755
19,98108	2425
19,98520	2300
19,98933	2969
19,99345	2047
19,99757	2002
20,00170	2511
20,00582	2026
20,00993	2417
20,01407	2048
20,01818	1123
20,02230	2751
20,02643	3119
20,03055	1847
20,03467	2155
20,03880	2186
20,04292	2284
20,04703	1971
20,05117	2075
20,05528	2135
20,05940	3056
20,06352	2242
20,06765	2485
20,07177	2070
20,07588	2025
20,08002	2135
20,08413	2647
20,08825	2762
20,09238	2496
20,09650	2803
20,10062	5048
20,10475	8820
20,10887	14831
20,11298	22898
20,11712	39544
20,12123	62668
20,12535	96937
20,12948	138328
20,13360	193555
20,13772	257494
20,14185	334999
20,14597	420300
20,15008	506677
20,15420	583955
20,15833	636824
20,16245	684283
20,16657	698028
20,17070	684705
20,17482	642807
20,17893	582200
20,18307	514369
20,18718	435975
20,19130	363776
20,19543	296963
20,19955	243848
20,20367	201888
20,20780	163683
20,21192	136264
20,21603	116421
20,22017	97077
20,22428	85860
20,22840	74090
20,23253	68841
20,23665	60013
20,24077	52874
20,24488	49319
20,24902	45026
20,25313	40730
20,25725	37069
20,26138	33343
20,26550	29271
20,26962	27479
20,27375	25963
20,27787	25021
20,28198	21072
20,28612	20662
20,29023	19952
20,29435	18969
20,29848	18440
20,30260	17713
20,30672	16616
20,31085	15852
20,31497	15615
20,31908	15257
20,32322	14528
20,32733	13015
20,33145	12905
20,33557	12397
20,33970	11489
20,34382	10630
20,34793	10489
20,35207	10151
20,35618	9051
20,36030	9511
20,36443	8107
20,36855	7713
20,37267	8254
20,37680	7019
20,38092	7021
20,38503	6405
20,38917	6714
20,39328	6800
20,39740	6613
20,40153	5861
20,40565	7243
20,40977	6174
20,41390	6339
20,41802	4439
20,42213	5691
20,42625	5933
20,43038	5749
20,43450	5715
20,43862	5624
20,44275	5863
20,44687	4999
20,45098	5313
20,45512	5764
20,45923	5741
20,46335	5471
20,46748	5908
20,47160	5852
20,47572	5325
20,47985	5795
20,48397	5178
20,48808	5228
20,49222	6516
20,49633	9658
20,50045	11200
20,50458	18346
20,50870	26797
20,51282	41844
20,51693	66342
20,52107	98112
20,52518	141510
20,52930	189206
20,53343	244744
20,53755	315480
20,54167	385147
20,54580	446328
20,54992	500770
20,55403	543711
20,55817	551661
20,56228	551055
20,56640	526162
20,57053	486392
20,57465	429183
20,57877	374780
20,58290	315289
20,58702	268066
20,59113	222072
20,59527	187810
20,59938	151808
20,60350	126106
20,60762	105970
20,61175	92334
20,61587	76323
20,61998	65484
20,62412	58975
20,62823	50349
20,63235	45326
20,63648	41293
20,64060	36461
20,64472	31808
20,64885	28405
20,65297	28669
20,65708	24915
20,66122	24365
20,66533	22553
20,66945	20895
20,67358	19380
20,67770	18364
20,68182	16846
20,68595	15178
20,69007	14719
20,69418	13693
20,69830	13619
20,70243	13590
20,70655	12601
20,71067	12172
20,71480	10693
20,71892	10147
20,72303	10332
20,72717	8620
20,73128	9126
20,73540	8048
20,73953	7858
20,74365	7193
20,74777	7751
20,75190	7374
20,75602	8274
20,76013	7202
20,76427	6337
20,76838	7044
20,77250	5549
20,77663	6371
20,78075	5264
20,78487	5675
20,78898	5105
20,79312	4674
20,79723	4777
20,80135	5281
20,80548	5897
20,80960	4645
20,81372	4574
20,81785	4699
20,82197	4570
20,82608	4261
20,83022	4941
20,83433	4371
20,83845	4866
20,84258	5523
20,84670	3157
20,85082	3914
20,85495	4633
20,85907	4625
20,86318	4436
20,86732	4132
20,87143	3546
20,87555	2855
20,87967	4069
20,88380	4155
20,88792	4204
20,89203	3146
20,89617	4299
20,90028	3247
20,90440	5014
20,90853	3809
20,91265	4123
20,91677	3145
20,92090	4333
20,92502	3681
20,92913	3715
20,93327	3284
20,93738	3794
20,94150	2385
20,94563	3930
20,94975	4135
20,95387	3358
20,95800	3592
20,96212	3716
20,96623	2053
20,97035	3629
20,97448	3714
20,97860	3440
20,98272	2982
20,98685	2928
20,99097	3581
20,99508	3437
20,99922	3780
21,00333	3553
21,00745	3477
21,01158	3726
21,01570	4227
21,01982	4021
21,02395	4376
21,02807	4084
21,03218	2692
21,03632	3451
21,04043	3185
21,04455	3151
21,04868	3908
21,05280	3806
21,05692	3670
21,06105	3466
21,06517	3016
21,06928	4034
21,07340	4479
21,07753	4695
21,08165	5186
21,08577	5098
21,08990	4624
21,09402	6048
21,09813	5074
21,10227	3962
21,10638	4379
21,11050	4786
21,11463	4702
21,11875	3653
21,12287	3401
21,12700	3821
21,13112	3244
21,13523	3210
21,13937	2407
21,14348	3516
21,14760	3403
21,15173	4087
21,15585	4510
21,15997	6571
21,16408	11051
21,16822	17361
21,17233	28715
21,17645	47676
21,18058	69525
21,18470	102290
21,18882	145336
21,19295	197452
21,19707	256084
21,20118	317609
21,20532	381962
21,20943	431724
21,21355	470848
21,21768	500266
21,22180	502147
21,22592	500065
21,23005	472401
21,23417	440105
21,23828	405353
21,24242	376746
21,24653	353311
21,25065	341054
21,25477	348885
21,25890	368881
21,26302	419236
21,26713	481645
21,27127	560216
21,27538	653327
21,27950	776200
21,28363	916704
21,28775	1044260
21,29187	1159829
21,29600	1286807
21,30012	1390673
21,30423	1430584
21,30837	1423837
21,31248	1357824
21,31660	1251056
21,32073	1107543
21,32485	944253
21,32897	776968
21,33310	640183
21,33722	522683
21,34133	425888
21,34545	352385
21,34958	294253
21,35370	247905
21,35782	218368
21,36195	185178
21,36607	166810
21,37018	144845
21,37432	131493
21,37843	120390
21,38255	106400
21,38668	97097
21,39080	90512
21,39492	82907
21,39905	74990
21,40317	67363
21,40728	65279
21,41142	58071
21,41553	57335
21,41965	53025
21,42378	49187
21,42790	45113
21,43202	43773
21,43613	40129
21,44027	40234
21,44438	38530
21,44850	37416
21,45263	35205
21,45675	32647
21,46087	30993
21,46500	30610
21,46912	27325
21,47323	27033
21,47737	25966
21,48148	25009
21,48560	22789
21,48973	22217
21,49385	21493
21,49797	20447
21,50210	19549
21,50622	19187
21,51033	18646
21,51447	16496
21,51858	17564
21,52270	17242
21,52682	16177
21,53095	15429
21,53507	13902
21,53918	13790
21,54332	13842
21,54743	14445
21,55155	14993
21,55568	13478
21,55980	15003
21,56392	15080
21,56805	13176
21,57217	14371
21,57628	15904
21,58042	15788
21,58453	18469
21,58865	23470
21,59278	29202
21,59690	40777
21,60102	58805
21,60515	83212
21,60927	117734
21,61338	164366
21,61750	220299
21,62163	278287
21,62575	345354
21,62987	398911
21,63400	457536
21,63812	490486
21,64223	505005
21,64637	513167
21,65048	494711
21,65460	467517
21,65873	441256
21,66285	400364
21,66697	365791
21,67110	353858
21,67522	342316
21,67933	355731
21,68347	371314
21,68758	395712
21,69170	422905
21,69583	453830
21,69995	483671
21,70407	495601
21,70818	510493
21,71232	506245
21,71643	484109
21,72055	450388
21,72468	400056
21,72880	357681
21,73292	310212
21,73705	261854
21,74117	221761
21,74528	190327
21,74942	159599
21,75353	135784
21,75765	115955
21,76178	101150
21,76590	87543
21,77002	75164
21,77415	68809
21,77827	60995
21,78238	57277
21,78652	49530
21,79063	47720
21,79475	47619
21,79887	42931
21,80300	46133
21,80712	51137
21,81123	58329
21,81537	73072
21,81948	92666
21,82360	122511
21,82773	162994
21,83185	213647
21,83597	278533
21,84010	348773
21,84422	417391
21,84833	500793
21,85247	563664
21,85658	636493
21,86070	659525
21,86483	676293
21,86895	650905
21,87307	606445
21,87720	554395
21,88132	490461
21,88543	419274
21,88955	362822
21,89368	305690
21,89780	253988
21,90192	211969
21,90605	179896
21,91017	151546
21,91428	131356
21,91842	111524
21,92253	102716
21,92665	87528
21,93078	77858
21,93490	72051
21,93902	65166
21,94315	61510
21,94727	56085
21,95138	48225
21,95552	46205
21,95963	44789
21,96375	40242
21,96788	37885
21,97200	37744
21,97612	35082
21,98023	31186
21,98437	31994
21,98848	31141
21,99260	28665
21,99673	26591
22,00085	23863
22,00497	23394
22,00910	21209
22,01322	22556
22,01733	20346
22,02147	18471
22,02558	17662
22,02970	17215
22,03383	16271
22,03795	17158
22,04207	16536
22,04620	15468
22,05032	15177
22,05443	16247
22,05857	14118
22,06268	14949
22,06680	12391
22,07092	14127
22,07505	14059
22,07917	13883
22,08328	11778
22,08742	12584
22,09153	12397
22,09565	12334
22,09978	10325
22,10390	10747
22,10802	10682
22,11215	9806
22,11627	10028
22,12038	8744
22,12452	10927
22,12863	9153
22,13275	10448
22,13688	8829
22,14100	9071
22,14512	7980
22,14925	9193
22,15337	9317
22,15748	8770
22,16160	8220
22,16573	7951
22,16985	7317
22,17397	7714
22,17810	7338
22,18222	7430
22,18633	6701
22,19047	5927
22,19458	6693
22,19870	6329
22,20283	5673
22,20695	6582
22,21107	7183
22,21520	6791
22,21932	6180
22,22343	6409
22,22757	7385
22,23168	6062
22,23580	5340
22,23993	6645
22,24405	6970
22,24817	5954
22,25228	5658
22,25642	6214
22,26053	4669
22,26465	5631
22,26878	4527
22,27290	5440
22,27702	5239
22,28115	5793
22,28527	5575
22,28938	6430
22,29352	5765
22,29763	7493
22,30175	7441
22,30588	10725
22,31000	11717
22,31412	16522
22,31825	23825
22,32237	33426
22,32648	53221
22,33062	81456
22,33473	112119
22,33885	155980
22,34297	211967
22,34710	280100
22,35122	354911
22,35533	442434
22,35947	519676
22,36358	599347
22,36770	652819
22,37183	694540
22,37595	711730
22,38007	688011
22,38420	649786
22,38832	575040
22,39243	511085
22,39657	432721
22,40068	361671
22,40480	302342
22,40893	256947
22,41305	208047
22,41717	175715
22,42130	155936
22,42542	132604
22,42953	116845
22,43365	100542
22,43778	88611
22,44190	83823
22,44602	73306
22,45015	65820
22,45427	62540
22,45838	55107
22,46252	50683
22,46663	45629
22,47075	44069
22,47488	41692
22,47900	40813
22,48312	34915
22,48725	36473
22,49137	32160
22,49548	31007
22,49962	29881
22,50373	26229
22,50785	28169
22,51198	25890
22,51610	23867
22,52022	23548
22,52433	23386
22,52847	23370
22,53258	20019
22,53670	20779
22,54083	17447
22,54495	18654
22,54907	17031
22,55320	16096
22,55732	16682
22,56143	14992
22,56557	14773
22,56968	16571
22,57380	12967
22,57793	12047
22,58205	12906
22,58617	13090
22,59030	12483
22,59442	11616
22,59853	11800
22,60267	13097
22,60678	11560
22,61090	11358
22,61503	11186
22,61915	10305
22,62327	10074
22,62738	10449
22,63152	9717
22,63563	10496
22,63975	10633
22,64388	10533
22,64800	11734
22,65212	11978
22,65625	12343
22,66037	12265
22,66448	12790
22,66862	12068
22,67273	10963
22,67685	9937
22,68098	9819
22,68510	9996
22,68922	10781
22,69335	8409
22,69747	11096
22,70158	12639
22,70572	16163
22,70983	23638
22,71395	32782
22,71807	50908
22,72220	72554
22,72632	104912
22,73043	151106
22,73457	205306
22,73868	266912
22,74280	330130
22,74693	395231
22,75105	465130
22,75517	519778
22,75930	559831
22,76342	583975
22,76753	595703
22,77167	580378
22,77578	559963
22,77990	525884
22,78403	499967
22,78815	490490
22,79227	485911
22,79640	483240
22,80052	492570
22,80463	509545
22,80875	525019
22,81288	523352
22,81700	516145
22,82112	505167
22,82525	479649
22,82937	442073
22,83348	391509
22,83762	354651
22,84173	303394
22,84585	266535
22,84998	234074
22,85410	190967
22,85822	164243
22,86235	142372
22,86647	124156
22,87058	105377
22,87472	94104
22,87883	80188
22,88295	75735
22,88708	65639
22,89120	60854
22,89532	53911
22,89943	50691
22,90357	47707
22,90768	43674
22,91180	39324
22,91593	39835
22,92005	35884
22,92417	33300
22,92830	32442
22,93242	29147
22,93653	27763
22,94067	27926
22,94478	26162
22,94890	24313
22,95303	22678
22,95715	21405
22,96127	20878
22,96540	20954
22,96952	19394
22,97363	19403
22,97777	17702
22,98188	18523
22,98600	18702
22,99012	15621
22,99425	15831
22,99837	15881
23,00248	15980
23,00662	15268
23,01073	14871
23,01485	13469
23,01898	11838
23,02310	14186
23,02722	12752
23,03135	13585
23,03547	12984
23,03958	12692
23,04372	12201
23,04783	11588
23,05195	10465
23,05608	9602
23,06020	10141
23,06432	11594
23,06845	10337
23,07257	10109
23,07668	10125
23,08080	10181
23,08493	10417
23,08905	10986
23,09317	9940
23,09730	8637
23,10142	9269
23,10553	9061
23,10967	8960
23,11378	9535
23,11790	9779
23,12203	9223
23,12615	10421
23,13027	9521
23,13440	10693
23,13852	8705
23,14263	9354
23,14677	9991
23,15088	8335
23,15500	7261
23,15913	8411
23,16325	8245
23,16737	8233
23,17148	7221
23,17562	7748
23,17973	8167
23,18385	7152
23,18798	7861
23,19210	7545
23,19622	8132
23,20035	8229
23,20447	8026
23,20858	7980
23,21272	7986
23,21683	6971
23,22095	8356
23,22508	7091
23,22920	6754
23,23332	7179
23,23745	7242
23,24157	7632
23,24568	7569
23,24982	6646
23,25393	6217
23,25805	5490
23,26217	6454
23,26630	7409
23,27042	7369
23,27453	6193
23,27867	6872
23,28278	6841
23,28690	6479
23,29103	6353
23,29515	6021
23,29927	6513
23,30340	8357
23,30752	6389
23,31163	6430
23,31577	6937
23,31988	6913
23,32400	6337
23,32813	7490
23,33225	6040
23,33637	6120
23,34050	4248
23,34462	7107
23,34873	8051
23,35285	8024
23,35698	8420
23,36110	10043
23,36522	11928
23,36935	16593
23,37347	23926
23,37758	33158
23,38172	51681
23,38583	74881
23,38995	106853
23,39408	153191
23,39820	209200
23,40232	279929
23,40645	364127
23,41057	458772
23,41468	555400
23,41882	682260
23,42293	812204
23,42705	939735
23,43118	1059571
23,43530	1174487
23,43942	1275872
23,44353	1339491
23,44767	1344661
23,45178	1292261
23,45590	1188911
23,46003	1069530
23,46415	921952
23,46827	764813
23,47240	636603
23,47652	529040
23,48063	433529
23,48477	365278
23,48888	306601
23,49300	260618
23,49713	223079
23,50125	202583
23,50537	176572
23,50950	160859
23,51362	142487
23,51773	133671
23,52187	117305
23,52598	111172
23,53010	102117
23,53422	93013
23,53835	85717
23,54247	80633
23,54658	77767
23,55072	70532
23,55483	67853
23,55895	64569
23,56308	59307
23,56720	56466
23,57132	55606
23,57545	52394
23,57957	48211
23,58368	47322
23,58782	44055
23,59193	41588
23,59605	40413
23,60018	38271
23,60430	38713
23,60842	37449
23,61255	33771
23,61667	31854
23,62078	33288
23,62490	32529
23,62903	31770
23,63315	30710
23,63727	29011
23,64140	28477
23,64552	27518
23,64963	28433
23,65377	25740
23,65788	25246
23,66200	25334
23,66613	23549
23,67025	23609
23,67437	22422
23,67850	22686
23,68262	19989
23,68673	22374
23,69087	20047
23,69498	17448
23,69910	19581
23,70323	19903
23,70735	18354
23,71147	19329
23,71558	18180
23,71972	16846
23,72383	17041
23,72795	16127
23,73208	16512
23,73620	15630
23,74032	15758
23,74445	15064
23,74857	13619
23,75268	15201
23,75682	15290
23,76093	14179
23,76505	13651
23,76918	13337
23,77330	15382
23,77742	13908
23,78155	13927
23,78567	12308
23,78978	13992
23,79392	14010
23,79803	13325
23,80215	13300
23,80627	14038
23,81040	12580
23,81452	11292
23,81863	12856
23,82277	11039
23,82688	11917
23,83100	11844
23,83513	10692
23,83925	11152
23,84337	10349
23,84750	11871
23,85162	9839
23,85573	9899
23,85987	10910
23,86398	8928
23,86810	9427
23,87223	9699
23,87635	9831
23,88047	9720
23,88460	11186
23,88872	10357
23,89283	8093
23,89695	10672
23,90108	10460
23,90520	11857
23,90932	14649
23,91345	17457
23,91757	24564
23,92168	31731
23,92582	48771
23,92993	68723
23,93405	98722
23,93818	139616
23,94230	193766
23,94642	253852
23,95055	322515
23,95467	402898
23,95878	473368
23,96292	536801
23,96703	601882
23,97115	634502
23,97528	649532
23,97940	642003
23,98352	612360
23,98763	559861
23,99177	498249
23,99588	439439
24,00000	373427
24,00413	320834
24,00825	273448
24,01237	228776
24,01650	193287
24,02062	172029
24,02473	145244
24,02887	128542
24,03298	113991
24,03710	102454
24,04123	90832
24,04535	82659
24,04947	75212
24,05360	69102
24,05772	63996
24,06183	59879
24,06597	53565
24,07008	51302
24,07420	47243
24,07832	45251
24,08245	41258
24,08657	40074
24,09068	36503
24,09482	37512
24,09893	34169
24,10305	33309
24,10718	30995
24,11130	30833
24,11542	28568
24,11955	27159
24,12367	26274
24,12778	24967
24,13192	24269
24,13603	23176
24,14015	22409
24,14428	22639
24,14840	23415
24,15252	20352
24,15665	21391
24,16077	19095
24,16488	19505
24,16900	18669
24,17313	17823
24,17725	16779
24,18137	18452
24,18550	16949
24,18962	16351
24,19373	15520
24,19787	17543
24,20198	15291
24,20610	14860
24,21023	14797
24,21435	14237
24,21847	13645
24,22260	13434
24,22672	12941
24,23083	12656
24,23497	13206
24,23908	12862
24,24320	13479
24,24733	12629
24,25145	13767
24,25557	14586
24,25970	13033
24,26382	15482
24,26793	15328
24,27205	16286
24,27618	14614
24,28030	17441
24,28442	14040
24,28855	15967
24,29267	14333
24,29678	14973
24,30092	14624
24,30503	13114
24,30915	14405
24,31328	14884
24,31740	12341
24,32152	12198
24,32565	11598
24,32977	12037
24,33388	11978
24,33802	10324
24,34213	10016
24,34625	10780
24,35038	10668
24,35450	10598
24,35862	10501
24,36273	10381
24,36687	10330
24,37098	10538
24,37510	10141
24,37923	9819
24,38335	10006
24,38747	10470
24,39160	11319
24,39572	8998
24,39983	9317
24,40397	9014
24,40808	8616
24,41220	9716
24,41633	9904
24,42045	10959
24,42457	10519
24,42870	9874
24,43282	10127
24,43693	10399
24,44107	10212
24,44518	10318
24,44930	9138
24,45342	9041
24,45755	9239
24,46167	8820
24,46578	8100
24,46992	9417
24,47403	9098
24,47815	9677
24,48228	8892
24,48640	8196
24,49052	8174
24,49465	8803
24,49877	7850
24,50288	8395
24,50702	9220
24,51113	8996
24,51525	10551
24,51938	8677
24,52350	7278
24,52762	8947
24,53175	7973
24,53587	8623
24,53998	8095
24,54410	9300
24,54823	9547
24,55235	9190
24,55647	9229
24,56060	8708
24,56472	10250
24,56883	8883
24,57297	9763
24,57708	9811
24,58120	8520
24,58533	8878
24,58945	8720
24,59357	9395
24,59770	8816
24,60182	9366
24,60593	9358
24,61007	9643
24,61418	8360
24,61830	9932
24,62243	10806
24,62655	9902
24,63067	9724
24,63478	8557
24,63892	7729
24,64303	8401
24,64715	8838
24,65128	8948
24,65540	8966
24,65952	8004
24,66365	8684
24,66777	7792
24,67188	7536
24,67602	7717
24,68013	8476
24,68425	7673
24,68838	6946
24,69250	8652
24,69662	7372
24,70075	7655
24,70487	9523
24,70898	8154
24,71312	7222
24,71723	8070
24,72135	7343
24,72547	7764
24,72960	8342
24,73372	8155
24,73783	8075
24,74197	8162
24,74608	8353
24,75020	8780
24,75433	7907
24,75845	8565
24,76257	8498
24,76670	7676
24,77082	7278
24,77493	7860
24,77907	8432
24,78318	8171
24,78730	8913
24,79143	8471
24,79555	8101
24,79967	8559
24,80380	8465
24,80792	8251
24,81203	8634
24,81615	8801
24,82028	9677
24,82440	8901
24,82852	9533
24,83265	8986
24,83677	9122
24,84088	8553
24,84502	8364
24,84913	8128
24,85325	9574
24,85738	8978
24,86150	8932
24,86562	8153
24,86975	9623
24,87387	7874
24,87798	8680
24,88212	7375
24,88623	7233
24,89035	8847
24,89448	8283
24,89860	7479
24,90272	8541
24,90683	9109
24,91097	7688
24,91508	8963
24,91920	8231
24,92333	8477
24,92745	8385
24,93157	8752
24,93570	8997
24,93982	9866
24,94393	9110
24,94807	10230
24,95218	10924
24,95630	9987
24,96043	10537
24,96455	10497
24,96867	10253
24,97280	9472
24,97692	8686
24,98103	8837
24,98517	7997
24,98928	9513
24,99340	8322
24,99752	8659
25,00165	8098
25,00577	8441
25,00988	8909
25,01402	8255
25,01813	7444
25,02225	9024
25,02638	7124
25,03050	8425
25,03462	8368
25,03875	7629
25,04287	8057
25,04698	7163
25,05112	7797
25,05523	8179
25,05935	8547
25,06348	7731
25,06760	7745
25,07172	8224
25,07585	8140
25,07997	8106
25,08408	8667
25,08820	6938
25,09233	7963
25,09645	6934
25,10057	8029
25,10470	7273
25,10882	7064
25,11293	8302
25,11707	7352
25,12118	7477
25,12530	8146
25,12943	8242
25,13355	9185
25,13767	7621
25,14180	7957
25,14592	7738
25,15003	7515
25,15417	7889
25,15828	7925
25,16240	8248
25,16653	9503
25,17065	8569
25,17477	8073
25,17888	8407
25,18302	8676
25,18713	7099
25,19125	9450
25,19538	9249
25,19950	8398
25,20362	8915
25,20775	7321
25,21187	7679
25,21598	7416
25,22012	7830
25,22423	9248
25,22835	7144
25,23248	8734
25,23660	7455
25,24072	9326
25,24485	7511
25,24897	9430
25,25308	7245
25,25722	8149
25,26133	9663
25,26545	7150
25,26957	9019
25,27370	8675
25,27782	9456
25,28193	8626
25,28607	7774
25,29018	9375
25,29430	7968
25,29843	8135
25,30255	9042
25,30667	9581
25,31080	9222
25,31492	9201
25,31903	7747
25,32317	9008
25,32728	8262
25,33140	9056
25,33553	8543
25,33965	7754
25,34377	6824
25,34790	8825
25,35202	10495
25,35613	10032
25,36025	9585
25,36438	12332
25,36850	15559
25,37262	18864
25,37675	24816
25,38087	38257
25,38498	53891
25,38912	78018
25,39323	106622
25,39735	144625
25,40148	187960
25,40560	233864
25,40972	282406
25,41385	323666
25,41797	350762
25,42208	378591
25,42622	390074
25,43033	390242
25,43445	371406
25,43858	343639
25,44270	315854
25,44682	278734
25,45093	245568
25,45507	209858
25,45918	182103
25,46330	155047
25,46743	130313
25,47155	112503
25,47567	96905
25,47980	85851
25,48392	75095
25,48803	66850
25,49217	60241
25,49628	54815
25,50040	50162
25,50453	46289
25,50865	43153
25,51277	39641
25,51690	36385
25,52102	34187
25,52513	32138
25,52927	29153
25,53338	29538
25,53750	26084
25,54162	26715
25,54575	25181
25,54987	23441
25,55398	23093
25,55812	22737
25,56223	21737
25,56635	21324
25,57048	20653
25,57460	22370
25,57872	21665
25,58285	19354
25,58697	19942
25,59108	18287
25,59522	17537
25,59933	17826
25,60345	17078
25,60758	15512
25,61170	15909
25,61582	15721
25,61995	16580
25,62407	14759
25,62818	16254
25,63230	16528
25,63643	15768
25,64055	14071
25,64467	14257
25,64880	14816
25,65292	14305
25,65703	13201
25,66117	13658
25,66528	15202
25,66940	13026
25,67353	13821
25,67765	13961
25,68177	13704
25,68590	14242
25,69002	12680
25,69413	12860
25,69827	12996
25,70238	13487
25,70650	12682
25,71063	11716
25,71475	12042
25,71887	12861
25,72298	11281
25,72712	11327
25,73123	12607
25,73535	12099
25,73948	11876
25,74360	12485
25,74772	12942
25,75185	14026
25,75597	11506
25,76008	12853
