D:\MassHunter\GCMS\1\data\Amal\Constant flow\120C\120C_1ml-min_5C-min_2.D Tue Sep 03 14:54:38 2024
Start of data points
5,19090	307505
5,19502	300840
5,19913	286465
5,20327	281250
5,20738	271424
5,21150	264878
5,21562	253664
5,21975	245574
5,22387	241308
5,22798	230519
5,23212	226004
5,23623	218705
5,24035	212663
5,24448	210150
5,24860	205473
5,25272	197428
5,25685	197396
5,26097	191759
5,26508	183748
5,26922	181116
5,27333	178515
5,27745	178102
5,28158	171110
5,28570	170216
5,28982	161042
5,29395	160403
5,29807	158892
5,30218	156935
5,30632	154210
5,31043	151695
5,31455	149583
5,31867	144997
5,32280	140257
5,32692	139776
5,33103	137857
5,33517	136475
5,33928	133415
5,34340	136278
5,34753	132019
5,35165	129001
5,35577	126513
5,35990	125203
5,36402	122206
5,36813	126072
5,37227	122221
5,37638	122876
5,38050	123200
5,38463	118376
5,38875	118429
5,39287	114552
5,39700	116914
5,40112	114616
5,40523	112445
5,40935	110613
5,41348	113813
5,41760	111036
5,42172	109708
5,42585	107703
5,42997	108559
5,43408	106849
5,43822	106415
5,44233	106329
5,44645	106095
5,45058	107811
5,45470	102100
5,45882	101956
5,46295	102177
5,46707	103966
5,47118	101067
5,47532	100138
5,47943	104656
5,48355	106545
5,48768	103105
5,49180	102600
5,49592	101975
5,50003	104864
5,50417	105788
5,50828	102737
5,51240	102931
5,51653	103971
5,52065	101342
5,52477	101706
5,52890	101840
5,53302	101382
5,53713	105058
5,54127	103501
5,54538	105772
5,54950	105339
5,55363	105203
5,55775	106129
5,56187	110038
5,56600	104674
5,57012	107091
5,57423	103795
5,57837	106539
5,58248	105511
5,58660	104352
5,59072	101585
5,59485	104485
5,59897	104281
5,60308	104052
5,60722	103378
5,61133	98283
5,61545	101296
5,61958	101677
5,62370	98261
5,62782	98741
5,63195	95230
5,63607	96326
5,64018	93991
5,64432	95306
5,64843	92585
5,65255	92015
5,65668	93295
5,66080	92864
5,66492	92562
5,66905	99317
5,67317	111975
5,67728	139695
5,68140	188272
5,68553	264950
5,68965	364118
5,69377	490495
5,69790	624815
5,70202	753723
5,70613	838858
5,71027	902638
5,71438	947321
5,71850	963455
5,72263	948165
5,72675	928096
5,73087	906022
5,73500	873050
5,73912	845539
5,74323	815438
5,74737	773776
5,75148	750076
5,75560	722624
5,75973	686236
5,76385	658084
5,76797	630076
5,77208	606274
5,77622	579947
5,78033	560467
5,78445	533168
5,78858	498726
5,79270	481861
5,79682	461634
5,80095	445192
5,80507	426381
5,80918	404485
5,81332	390408
5,81743	372666
5,82155	357843
5,82568	342575
5,82980	325941
5,83392	307618
5,83805	296948
5,84217	278826
5,84628	270349
5,85042	251831
5,85453	239093
5,85865	229264
5,86277	217628
5,86690	202808
5,87102	193833
5,87513	179732
5,87927	171054
5,88338	161035
5,88750	153238
5,89163	145063
5,89575	137047
5,89987	133386
5,90400	122447
5,90812	119923
5,91223	115825
5,91637	104481
5,92048	105465
5,92460	99161
5,92873	95764
5,93285	92396
5,93697	92436
5,94110	92731
5,94522	83298
5,94933	83641
5,95345	81739
5,95758	80096
5,96170	77759
5,96582	77789
5,96995	77467
5,97407	77579
5,97818	73120
5,98232	74280
5,98643	73239
5,99055	69236
5,99468	71667
5,99880	69791
6,00292	69680
6,00705	67103
6,01117	66676
6,01528	67320
6,01942	64898
6,02353	65900
6,02765	63930
6,03178	66437
6,03590	64820
6,04002	65360
6,04413	63841
6,04827	64236
6,05238	63247
6,05650	63380
6,06063	63736
6,06475	64343
6,06887	60084
6,07300	60091
6,07712	63629
6,08123	62172
6,08537	62953
6,08948	59389
6,09360	59362
6,09773	57590
6,10185	59389
6,10597	58510
6,11010	57591
6,11422	57966
6,11833	57208
6,12247	58467
6,12658	57189
6,13070	58131
6,13482	56714
6,13895	59427
6,14307	55760
6,14718	58256
6,15132	58130
6,15543	57492
6,15955	57027
6,16368	56550
6,16780	57142
6,17192	56643
6,17605	55945
6,18017	56012
6,18428	55956
6,18842	56925
6,19253	57140
6,19665	57181
6,20078	56569
6,20490	53529
6,20902	53652
6,21315	55404
6,21727	54551
6,22138	55129
6,22550	53937
6,22963	54938
6,23375	55023
6,23787	53235
6,24200	55284
6,24612	55131
6,25023	51306
6,25437	53236
6,25848	54452
6,26260	53570
6,26673	52321
6,27085	52542
6,27497	53604
6,27910	53608
6,28322	52272
6,28733	51303
6,29147	51733
6,29558	53219
6,29970	50973
6,30383	52524
6,30795	53271
6,31207	53257
6,31618	51954
6,32032	53790
6,32443	54046
6,32855	51783
6,33268	52862
6,33680	51187
6,34092	51763
6,34505	50431
6,34917	51212
6,35328	52467
6,35742	49066
6,36153	49922
6,36565	50281
6,36978	49608
6,37390	49570
6,37802	48572
6,38215	50950
6,38627	47842
6,39038	50055
6,39452	48191
6,39863	48550
6,40275	47001
6,40687	50100
6,41100	48064
6,41512	48433
6,41923	46763
6,42337	47472
6,42748	46716
6,43160	45074
6,43573	47060
6,43985	44639
6,44397	45503
6,44810	46110
6,45222	44247
6,45633	45302
6,46047	46387
6,46458	45158
6,46870	46730
6,47283	45565
6,47695	44191
6,48107	44626
6,48520	45602
6,48932	42018
6,49343	43588
6,49755	44446
6,50168	42509
6,50580	42204
6,50992	42410
6,51405	41956
6,51817	43563
6,52228	44333
6,52642	45607
6,53053	44040
6,53465	45104
6,53878	42923
6,54290	43240
6,54702	45059
6,55115	46185
6,55527	43693
6,55938	44298
6,56352	45441
6,56763	45061
6,57175	43185
6,57588	44837
6,58000	44703
6,58412	46290
6,58823	44511
6,59237	43830
6,59648	43540
6,60060	44736
6,60473	42003
6,60885	44469
6,61297	41470
6,61710	43009
6,62122	41605
6,62533	42472
6,62947	41182
6,63358	41243
6,63770	40389
6,64183	42601
6,64595	39346
6,65007	40435
6,65420	42208
6,65832	40044
6,66243	39229
6,66657	38003
6,67068	41319
6,67480	39691
6,67892	41755
6,68305	39376
6,68717	40125
6,69128	39625
6,69542	40768
6,69953	40178
6,70365	39899
6,70778	38504
6,71190	39833
6,71602	39132
6,72015	38460
6,72427	40478
6,72838	38042
6,73252	38238
6,73663	38837
6,74075	38236
6,74488	41196
6,74900	39291
6,75312	38670
6,75725	39891
6,76137	39459
6,76548	37371
6,76960	37691
6,77373	38672
6,77785	37955
6,78197	37408
6,78610	36533
6,79022	38663
6,79433	38512
6,79847	36296
6,80258	37452
6,80670	35618
6,81083	38363
6,81495	38159
6,81907	37780
6,82320	37021
6,82732	36294
6,83143	37661
6,83557	36821
6,83968	35839
6,84380	36196
6,84793	37236
6,85205	36712
6,85617	36633
6,86028	37060
6,86442	34724
6,86853	36172
6,87265	36461
6,87678	35968
6,88090	35662
6,88502	35960
6,88915	35059
6,89327	34810
6,89738	35009
6,90152	35030
6,90563	37257
6,90975	35482
6,91388	34983
6,91800	35648
6,92212	37039
6,92625	35995
6,93037	32639
6,93448	35239
6,93862	35142
6,94273	35386
6,94685	34674
6,95098	36390
6,95510	36025
6,95922	36213
6,96333	36579
6,96747	33952
6,97158	35993
6,97570	34963
6,97983	34808
6,98395	35579
6,98807	35172
6,99220	35901
6,99632	37977
7,00043	43601
7,00457	54311
7,00868	72733
7,01280	105027
7,01693	157462
7,02105	231317
7,02517	339174
7,02930	467336
7,03342	612675
7,03753	758741
7,04167	907470
7,04578	1028277
7,04990	1114165
7,05402	1178046
7,05815	1211922
7,06227	1220924
7,06638	1208108
7,07052	1173308
7,07463	1142743
7,07875	1093256
7,08288	1053688
7,08700	1004436
7,09112	951994
7,09525	901745
7,09937	850422
7,10348	798860
7,10762	762941
7,11173	720666
7,11585	678311
7,11998	634867
7,12410	593772
7,12822	555290
7,13235	518765
7,13647	484016
7,14058	451933
7,14470	420691
7,14883	386401
7,15295	364827
7,15707	324413
7,16120	299133
7,16532	277801
7,16943	252193
7,17357	226870
7,17768	210690
7,18180	188283
7,18593	175560
7,19005	156821
7,19417	141284
7,19830	132542
7,20242	121116
7,20653	111367
7,21067	106498
7,21478	98382
7,21890	89579
7,22303	86266
7,22715	79568
7,23127	71789
7,23538	70640
7,23952	68945
7,24363	63479
7,24775	62033
7,25188	59846
7,25600	57721
7,26012	54698
7,26425	51323
7,26837	53031
7,27248	50324
7,27662	49656
7,28073	47456
7,28485	47045
7,28898	46666
7,29310	44146
7,29722	42390
7,30135	41968
7,30547	42329
7,30958	42875
7,31372	42042
7,31783	41514
7,32195	38194
7,32607	40118
7,33020	38753
7,33432	39199
7,33843	38236
7,34257	37892
7,34668	37549
7,35080	37034
7,35493	36154
7,35905	36299
7,36317	34980
7,36730	36068
7,37142	34155
7,37553	34317
7,37967	34297
7,38378	33672
7,38790	33763
7,39203	33897
7,39615	35213
7,40027	33523
7,40440	33598
7,40852	31683
7,41263	33018
7,41675	31703
7,42088	31423
7,42500	31626
7,42912	32625
7,43325	32760
7,43737	33578
7,44148	31275
7,44562	32494
7,44973	32458
7,45385	32001
7,45798	30525
7,46210	32289
7,46622	31275
7,47035	32493
7,47447	32331
7,47858	31770
7,48272	32039
7,48683	31246
7,49095	31048
7,49508	32174
7,49920	31225
7,50332	32146
7,50743	31918
7,51157	31493
7,51568	32145
7,51980	30976
7,52393	30412
7,52805	29458
7,53217	31478
7,53630	30015
7,54042	30204
7,54453	30126
7,54867	30999
7,55278	30102
7,55690	30243
7,56103	31932
7,56515	30368
7,56927	29613
7,57340	28914
7,57752	31074
7,58163	29454
7,58577	30140
7,58988	28997
7,59400	29520
7,59812	29002
7,60225	29686
7,60637	29159
7,61048	27366
7,61462	29114
7,61873	26720
7,62285	27437
7,62698	28211
7,63110	26652
7,63522	26957
7,63935	27044
7,64347	26411
7,64758	26718
7,65172	26592
7,65583	28007
7,65995	27638
7,66408	27755
7,66820	28078
7,67232	24671
7,67645	27591
7,68057	25365
7,68468	26594
7,68880	27698
7,69293	27420
7,69705	27701
7,70117	27549
7,70530	26919
7,70942	26577
7,71353	26166
7,71767	26600
7,72178	26912
7,72590	27293
7,73003	26437
7,73415	26503
7,73827	25502
7,74240	27776
7,74652	26495
7,75063	25641
7,75477	25688
7,75888	25862
7,76300	25173
7,76713	24595
7,77125	27072
7,77537	25202
7,77948	26241
7,78362	26580
7,78773	26156
7,79185	25852
7,79598	25069
7,80010	25543
7,80422	26124
7,80835	24892
7,81247	24918
7,81658	24694
7,82072	25515
7,82483	24385
7,82895	24247
7,83308	24354
7,83720	24444
7,84132	23877
7,84545	23934
7,84957	24081
7,85368	24552
7,85782	25467
7,86193	24140
7,86605	24229
7,87017	24489
7,87430	24898
7,87842	24751
7,88253	24984
7,88667	25533
7,89078	24571
7,89490	24194
7,89903	24938
7,90315	25958
7,90727	29242
7,91140	32427
7,91552	43632
7,91963	57276
7,92377	80735
7,92788	119577
7,93200	165694
7,93613	229682
7,94025	299343
7,94437	381188
7,94850	458978
7,95262	542142
7,95673	599505
7,96085	648845
7,96498	680127
7,96910	695058
7,97322	701749
7,97735	698615
7,98147	676134
7,98558	660888
7,98972	631247
7,99383	595930
7,99795	561642
8,00208	534625
8,00620	495372
8,01032	467999
8,01445	441139
8,01857	411959
8,02268	378830
8,02682	350893
8,03093	321644
8,03505	289673
8,03918	269203
8,04330	241642
8,04742	221904
8,05153	199728
8,05567	182554
8,05978	166995
8,06390	146562
8,06803	133158
8,07215	121105
8,07627	109753
8,08040	102761
8,08452	90175
8,08863	83450
8,09277	78754
8,09688	69849
8,10100	62890
8,10513	60305
8,10925	56050
8,11337	55236
8,11750	50351
8,12162	48438
8,12573	48393
8,12987	45941
8,13398	41585
8,13810	41073
8,14222	37780
8,14635	38404
8,15047	37437
8,15458	35893
8,15872	33977
8,16283	34772
8,16695	31897
8,17108	33078
8,17520	32255
8,17932	29980
8,18345	29530
8,18757	30063
8,19168	29877
8,19582	29316
8,19993	29547
8,20405	28713
8,20818	29481
8,21230	28858
8,21642	29882
8,22055	27818
8,22467	29222
8,22878	27465
8,23290	28472
8,23703	26948
8,24115	26887
8,24527	27235
8,24940	27542
8,25352	26172
8,25763	26444
8,26177	27450
8,26588	26259
8,27000	24123
8,27413	25767
8,27825	25226
8,28237	25942
8,28650	25466
8,29062	24695
8,29473	25488
8,29887	25277
8,30298	23982
8,30710	23587
8,31123	24353
8,31535	25929
8,31947	25750
8,32358	27021
8,32772	23545
8,33183	26106
8,33595	25484
8,34008	25588
8,34420	27047
8,34832	26857
8,35245	25462
8,35657	26352
8,36068	25496
8,36482	26563
8,36893	24287
8,37305	25179
8,37718	24085
8,38130	22855
8,38542	23427
8,38955	24240
8,39367	22712
8,39778	22986
8,40192	21813
8,40603	22905
8,41015	20973
8,41427	21004
8,41840	22431
8,42252	20696
8,42663	21166
8,43077	20918
8,43488	21678
8,43900	20615
8,44313	20435
8,44725	20514
8,45137	21552
8,45550	21313
8,45962	20969
8,46373	21607
8,46787	19455
8,47198	20738
8,47610	19035
8,48023	19681
8,48435	20186
8,48847	19533
8,49260	19994
8,49672	20054
8,50083	19001
8,50497	20156
8,50908	19546
8,51320	20097
8,51732	20229
8,52145	20484
8,52557	18769
8,52968	19369
8,53382	19517
8,53793	19671
8,54205	18384
8,54618	18477
8,55030	18196
8,55442	18861
8,55855	20042
8,56267	20064
8,56678	18639
8,57092	19257
8,57503	19602
8,57915	18088
8,58328	21490
8,58740	19065
8,59152	18342
8,59565	19440
8,59977	19575
8,60388	18325
8,60800	18449
8,61213	18948
8,61625	16930
8,62037	19313
8,62450	20366
8,62862	17622
8,63273	19127
8,63687	18805
8,64098	19454
8,64510	17847
8,64923	17959
8,65335	17870
8,65747	17818
8,66160	19436
8,66572	18443
8,66983	18694
8,67397	18646
8,67808	18116
8,68220	18801
8,68633	17747
8,69045	17239
8,69457	18389
8,69868	18657
8,70282	19105
8,70693	18665
8,71105	17738
8,71518	18782
8,71930	17175
8,72342	18727
8,72755	17385
8,73167	18193
8,73578	18355
8,73992	18244
8,74403	19196
8,74815	18004
8,75228	16942
8,75640	18269
8,76052	17314
8,76465	17892
8,76877	18078
8,77288	17917
8,77702	17495
8,78113	17964
8,78525	18184
8,78937	17727
8,79350	17752
8,79762	17331
8,80173	17822
8,80587	18386
8,80998	18136
8,81410	17483
8,81823	18111
8,82235	19180
8,82647	18737
8,83060	18135
8,83472	19215
8,83883	17903
8,84297	17222
8,84708	18001
8,85120	17981
8,85533	17973
8,85945	18031
8,86357	18090
8,86770	17651
8,87182	17674
8,87593	16371
8,88005	16857
8,88418	17282
8,88830	18139
8,89242	16001
8,89655	17505
8,90067	16295
8,90478	17620
8,90892	16089
8,91303	16139
8,91715	16628
8,92128	15540
8,92540	17707
8,92952	17523
8,93365	17534
8,93777	16980
8,94188	17222
8,94602	18052
8,95013	20536
8,95425	22193
8,95838	29889
8,96250	39430
8,96662	62713
8,97073	93100
8,97487	143663
8,97898	226570
8,98310	325920
8,98723	462458
8,99135	619125
8,99547	790852
8,99960	995133
9,00372	1164898
9,00783	1333348
9,01197	1461711
9,01608	1559300
9,02020	1608600
9,02433	1644306
9,02845	1629364
9,03257	1597187
9,03670	1536793
9,04082	1464825
9,04493	1381053
9,04907	1289498
9,05318	1194078
9,05730	1103676
9,06142	1007746
9,06555	913637
9,06967	825094
9,07378	746373
9,07792	662610
9,08203	594739
9,08615	526261
9,09028	457112
9,09440	397519
9,09852	351617
9,10265	310346
9,10677	270576
9,11088	240687
9,11502	212341
9,11913	186576
9,12325	168727
9,12738	151080
9,13150	138293
9,13562	123252
9,13975	111595
9,14387	102063
9,14798	97227
9,15210	86705
9,15623	78061
9,16035	73354
9,16447	70545
9,16860	65008
9,17272	60473
9,17683	57666
9,18097	55486
9,18508	51660
9,18920	49585
9,19333	48663
9,19745	45338
9,20157	42571
9,20570	41291
9,20982	42343
9,21393	38709
9,21807	37628
9,22218	38351
9,22630	37377
9,23043	35060
9,23455	35024
9,23867	33619
9,24278	32440
9,24692	32150
9,25103	32535
9,25515	30058
9,25928	27421
9,26340	27079
9,26752	29350
9,27165	26981
9,27577	27251
9,27988	27278
9,28402	26850
9,28813	24592
9,29225	26056
9,29638	25034
9,30050	23182
9,30462	23300
9,30875	23542
9,31287	23019
9,31698	22299
9,32112	22345
9,32523	22877
9,32935	21408
9,33347	20865
9,33760	21768
9,34172	23627
9,34583	20970
9,34997	21074
9,35408	20905
9,35820	20794
9,36233	19723
9,36645	19417
9,37057	20121
9,37470	20494
9,37882	17814
9,38293	19506
9,38707	20031
9,39118	19427
9,39530	18826
9,39943	18989
9,40355	18157
9,40767	19735
9,41180	18724
9,41592	18365
9,42003	18214
9,42415	18071
9,42828	17535
9,43240	18329
9,43652	18596
9,44065	16702
9,44477	16999
9,44888	17756
9,45302	17154
9,45713	17023
9,46125	17282
9,46538	17403
9,46950	16608
9,47362	17036
9,47775	16542
9,48187	16520
9,48598	18785
9,49012	17432
9,49423	17386
9,49835	16525
9,50248	17036
9,50660	17302
9,51072	15900
9,51483	16078
9,51897	16257
9,52308	17117
9,52720	16804
9,53133	16918
9,53545	16342
9,53957	16910
9,54370	16217
9,54782	15385
9,55193	15318
9,55607	16114
9,56018	16191
9,56430	15937
9,56843	15572
9,57255	15655
9,57667	15360
9,58080	16795
9,58492	15034
9,58903	14662
9,59317	14816
9,59728	15905
9,60140	15782
9,60552	14776
9,60965	15183
9,61377	15440
9,61788	15465
9,62202	15691
9,62613	14603
9,63025	14598
9,63438	15316
9,63850	16104
9,64262	15320
9,64675	14598
9,65087	14431
9,65498	15281
9,65912	15017
9,66323	15359
9,66735	14921
9,67148	14840
9,67560	14861
9,67972	16106
9,68385	14667
9,68797	14034
9,69208	15853
9,69620	15322
9,70033	15511
9,70445	14368
9,70857	15474
9,71270	14311
9,71682	15615
9,72093	15606
9,72507	15461
9,72918	15777
9,73330	14621
9,73743	15054
9,74155	15378
9,74567	15475
9,74980	15169
9,75392	15949
9,75803	16618
9,76217	17382
9,76628	17223
9,77040	16508
9,77453	17603
9,77865	17740
9,78277	17750
9,78688	19047
9,79102	17940
9,79513	19708
9,79925	18423
9,80338	20029
9,80750	19208
9,81162	18031
9,81575	17454
9,81987	18725
9,82398	18543
9,82812	17327
9,83223	17693
9,83635	18292
9,84048	17674
9,84460	18178
9,84872	17394
9,85285	15732
9,85697	16710
9,86108	16998
9,86522	16095
9,86933	16076
9,87345	15747
9,87757	14961
9,88170	14819
9,88582	15236
9,88993	13628
9,89407	14699
9,89818	13578
9,90230	13827
9,90643	13842
9,91055	13583
9,91467	14447
9,91880	13104
9,92292	14572
9,92703	13398
9,93117	13489
9,93528	14709
9,93940	12597
9,94353	12990
9,94765	12903
9,95177	12565
9,95590	12587
9,96002	13336
9,96413	12531
9,96825	13450
9,97238	13256
9,97650	11743
9,98062	12937
9,98475	12248
9,98887	11740
9,99298	13209
9,99712	13226
10,00123	12996
10,00535	12486
10,00948	13007
10,01360	13602
10,01772	11232
10,02185	12586
10,02597	12662
10,03008	12564
10,03422	11928
10,03833	12085
10,04245	13025
10,04658	12515
10,05070	14359
10,05482	12655
10,05893	12521
10,06307	12976
10,06718	12770
10,07130	11975
10,07543	13204
10,07955	12796
10,08367	12273
10,08780	12674
10,09192	12776
10,09603	12832
10,10017	12238
10,10428	12449
10,10840	13095
10,11253	13570
10,11665	14949
10,12077	19338
10,12490	22972
10,12902	34377
10,13313	51499
10,13727	75992
10,14138	113523
10,14550	166760
10,14963	232109
10,15375	320627
10,15787	422828
10,16198	522836
10,16612	628452
10,17023	730387
10,17435	811256
10,17848	882812
10,18260	926637
10,18672	939270
10,19085	937520
10,19497	918420
10,19908	886446
10,20322	831658
10,20733	777719
10,21145	719518
10,21558	648450
10,21970	597929
10,22382	526876
10,22795	468327
10,23207	407451
10,23618	357968
10,24032	311571
10,24443	268973
10,24855	236776
10,25267	202638
10,25680	184280
10,26092	153584
10,26503	137476
10,26917	120984
10,27328	106703
10,27740	94299
10,28153	84438
10,28565	76779
10,28977	71548
10,29390	65269
10,29802	57359
10,30213	55161
10,30627	50476
10,31038	47491
10,31450	43979
10,31863	40456
10,32275	39736
10,32687	38379
10,33100	35193
10,33512	32592
10,33923	31050
10,34335	30345
10,34748	30280
10,35160	29418
10,35572	29428
10,35985	26545
10,36397	26437
10,36808	24492
10,37222	22763
10,37633	23019
10,38045	22903
10,38458	21851
10,38870	23051
10,39282	22265
10,39695	21678
10,40107	20585
10,40518	19875
10,40932	19202
10,41343	20684
10,41755	19602
10,42168	19067
10,42580	16896
10,42992	19154
10,43403	18214
10,43817	18563
10,44228	16799
10,44640	17823
10,45053	16705
10,45465	18320
10,45877	18293
10,46290	18360
10,46702	16201
10,47113	16704
10,47527	15759
10,47938	17047
10,48350	16206
10,48763	15583
10,49175	15676
10,49587	14376
10,50000	14676
10,50412	14153
10,50823	14426
10,51237	15193
10,51648	13481
10,52060	14541
10,52472	13980
10,52885	13735
10,53297	12663
10,53708	12409
10,54122	14178
10,54533	13688
10,54945	14081
10,55358	12486
10,55770	14247
10,56182	13774
10,56595	14823
10,57007	13767
10,57418	13175
10,57832	13080
10,58243	13501
10,58655	13326
10,59068	13612
10,59480	12548
10,59892	13152
10,60305	12909
10,60717	12280
10,61128	11912
10,61540	14058
10,61953	12706
10,62365	12756
10,62777	11891
10,63190	12082
10,63602	12519
10,64013	12671
10,64427	12876
10,64838	12093
10,65250	11750
10,65663	11661
10,66075	12181
10,66487	12323
10,66900	12413
10,67312	12856
10,67723	12033
10,68137	11790
10,68548	12100
10,68960	11210
10,69373	11673
10,69785	10907
10,70197	11837
10,70608	11819
10,71022	11607
10,71433	11794
10,71845	11999
10,72258	10837
10,72670	10455
10,73082	10512
10,73495	10853
10,73907	12015
10,74318	10352
10,74732	11514
10,75143	10993
10,75555	11639
10,75968	12499
10,76380	11918
10,76792	13554
10,77205	12509
10,77617	13480
10,78028	13609
10,78442	14928
10,78853	14323
10,79265	14629
10,79677	15607
10,80090	15392
10,80502	15098
10,80913	15199
10,81327	14852
10,81738	15790
10,82150	15206
10,82563	14723
10,82975	15443
10,83387	13873
10,83800	13719
10,84212	12322
10,84623	12854
10,85037	12050
10,85448	12399
10,85860	10505
10,86273	11889
10,86685	11542
10,87097	11084
10,87510	11940
10,87922	12399
10,88333	11639
10,88745	10439
10,89158	11507
10,89570	10998
10,89982	11342
10,90395	10409
10,90807	11218
10,91218	12006
10,91632	11470
10,92043	10509
10,92455	12052
10,92868	11493
10,93280	12210
10,93692	13392
10,94105	12281
10,94517	13558
10,94928	13778
10,95342	15118
10,95753	15039
10,96165	14193
10,96578	15514
10,96990	15692
10,97402	16469
10,97813	16311
10,98227	16351
10,98638	16198
10,99050	14387
10,99463	15698
10,99875	14168
11,00287	15224
11,00700	15008
11,01112	13691
11,01523	13886
11,01937	13497
11,02348	13062
11,02760	12409
11,03173	12787
11,03585	13400
11,03997	12112
11,04410	11813
11,04822	13298
11,05233	11736
11,05647	12271
11,06058	11397
11,06470	10508
11,06882	10785
11,07295	12002
11,07707	10535
11,08118	11367
11,08532	10299
11,08943	11149
11,09355	9615
11,09768	11491
11,10180	10797
11,10592	10868
11,11005	10362
11,11417	10362
11,11828	10745
11,12242	11571
11,12653	10065
11,13065	10264
11,13478	10832
11,13890	10997
11,14302	10654
11,14715	10962
11,15127	10343
11,15538	10876
11,15950	11745
11,16363	11329
11,16775	10793
11,17187	10035
11,17600	10305
11,18012	11719
11,18423	11021
11,18837	9971
11,19248	10894
11,19660	10320
11,20073	8665
11,20485	9546
11,20897	10091
11,21310	10439
11,21722	9727
11,22133	10684
11,22547	10298
11,22958	8969
11,23370	10084
11,23783	10768
11,24195	10126
11,24607	10969
11,25018	10222
11,25432	8936
11,25843	9648
11,26255	9871
11,26668	9353
11,27080	11392
11,27492	9561
11,27905	9881
11,28317	10331
11,28728	9049
11,29142	9567
11,29553	10039
11,29965	9633
11,30378	11196
11,30790	9536
11,31202	9376
11,31615	10276
11,32027	8932
11,32438	9452
11,32852	9851
11,33263	9096
11,33675	9794
11,34087	8792
11,34500	10457
11,34912	10804
11,35323	14205
11,35737	18730
11,36148	25044
11,36560	39079
11,36973	64945
11,37385	103218
11,37797	167948
11,38210	257239
11,38622	381407
11,39033	542576
11,39447	742935
11,39858	968566
11,40270	1213040
11,40683	1451360
11,41095	1699015
11,41507	1905190
11,41920	2042817
11,42332	2174879
11,42743	2225634
11,43155	2197036
11,43568	2136453
11,43980	2020501
11,44392	1850233
11,44805	1668161
11,45217	1493849
11,45628	1318590
11,46042	1153889
11,46453	982474
11,46865	848250
11,47278	730753
11,47690	622907
11,48102	541674
11,48515	458673
11,48927	394926
11,49338	340808
11,49752	296097
11,50163	257033
11,50575	221628
11,50988	197001
11,51400	175395
11,51812	158970
11,52223	142073
11,52637	131181
11,53048	118472
11,53460	108814
11,53873	102185
11,54285	92239
11,54697	86854
11,55110	82070
11,55522	77355
11,55933	71788
11,56347	65679
11,56758	65846
11,57170	58602
11,57583	56678
11,57995	52827
11,58407	50697
11,58820	48317
11,59232	45457
11,59643	44098
11,60057	41953
11,60468	40053
11,60880	39402
11,61292	40390
11,61705	38676
11,62117	37673
11,62528	34604
11,62942	34276
11,63353	34441
11,63765	34268
11,64178	31632
11,64590	30823
11,65002	31892
11,65415	29188
11,65827	31135
11,66238	28293
11,66652	25646
11,67063	27235
11,67475	25017
11,67888	26837
11,68300	24623
11,68712	24203
11,69125	22617
11,69537	20741
11,69948	22720
11,70360	21077
11,70773	20458
11,71185	19841
11,71597	19003
11,72010	17786
11,72422	17793
11,72833	17552
11,73247	17002
11,73658	17724
11,74070	16596
11,74483	16586
11,74895	16441
11,75307	14892
11,75720	15166
11,76132	14796
11,76543	14595
11,76957	14983
11,77368	14336
11,77780	14232
11,78193	14823
11,78605	14263
11,79017	14516
11,79428	13558
11,79842	13475
11,80253	14228
11,80665	13515
11,81078	12769
11,81490	12520
11,81902	12554
11,82315	13274
11,82727	12856
11,83138	13628
11,83552	12184
11,83963	11526
11,84375	12734
11,84788	12004
11,85200	13666
11,85612	12192
11,86025	11765
11,86437	11444
11,86848	11978
11,87262	13139
11,87673	12812
11,88085	12752
11,88498	11009
11,88910	11946
11,89322	12940
11,89733	12453
11,90147	12649
11,90558	12381
11,90970	11958
11,91383	11712
11,91795	12244
11,92207	12039
11,92620	12224
11,93032	11818
11,93443	11517
11,93857	11817
11,94268	11267
11,94680	11145
11,95093	10101
11,95505	10404
11,95917	10228
11,96330	9982
11,96742	10180
11,97153	9531
11,97567	9839
11,97978	10156
11,98390	10383
11,98802	9474
11,99215	10575
11,99627	10735
12,00038	9731
12,00452	9596
12,00863	9554
12,01275	10901
12,01688	9259
12,02100	9525
12,02512	10691
12,02925	10200
12,03337	9765
12,03748	12326
12,04162	12529
12,04573	11834
12,04985	12342
12,05398	11230
12,05810	12715
12,06222	12541
12,06635	11908
12,07047	13520
12,07458	12084
12,07870	11816
12,08283	12666
12,08695	10744
12,09107	10625
12,09520	10128
12,09932	11684
12,10343	10438
12,10757	10439
12,11168	9899
12,11580	10007
12,11993	10855
12,12405	10005
12,12817	10588
12,13230	9252
12,13642	8770
12,14053	9187
12,14467	9178
12,14878	9832
12,15290	9842
12,15703	9302
12,16115	9364
12,16527	8353
12,16938	9280
12,17352	8267
12,17763	9282
12,18175	9207
12,18588	8854
12,19000	8983
12,19412	9311
12,19825	9588
12,20237	9327
12,20648	9524
12,21062	8181
12,21473	8719
12,21885	9481
12,22298	8800
12,22710	8752
12,23122	9232
12,23535	8838
12,23947	9163
12,24358	9178
12,24772	8800
12,25183	8927
12,25595	9379
12,26007	12855
12,26420	15581
12,26832	22641
12,27243	31866
12,27657	48417
12,28068	72782
12,28480	109595
12,28893	166994
12,29305	237284
12,29717	327832
12,30130	428369
12,30542	546079
12,30953	653854
12,31367	766590
12,31778	880281
12,32190	954936
12,32603	1000128
12,33015	1044846
12,33427	1027692
12,33840	997297
12,34252	946709
12,34663	885130
12,35075	798771
12,35488	707467
12,35900	621547
12,36312	547831
12,36725	472095
12,37137	410631
12,37548	343989
12,37962	293103
12,38373	256296
12,38785	214419
12,39198	193957
12,39610	164884
12,40022	146166
12,40435	132345
12,40847	114141
12,41258	105390
12,41672	95473
12,42083	83676
12,42495	77339
12,42908	73057
12,43320	68250
12,43732	62694
12,44143	59773
12,44557	58109
12,44968	55327
12,45380	53495
12,45793	51657
12,46205	51027
12,46617	47505
12,47030	46380
12,47442	45634
12,47853	41887
12,48267	40483
12,48678	36468
12,49090	36939
12,49503	33403
12,49915	32639
12,50327	31825
12,50740	28667
12,51152	27838
12,51563	26614
12,51977	24074
12,52388	23693
12,52800	23583
12,53212	19898
12,53625	20521
12,54037	18964
12,54448	19869
12,54862	19112
12,55273	18137
12,55685	18111
12,56098	16459
12,56510	15729
12,56922	16532
12,57335	15631
12,57747	13819
12,58158	16420
12,58572	15474
12,58983	14644
12,59395	13960
12,59808	14031
12,60220	13107
12,60632	12430
12,61045	13341
12,61457	15156
12,61868	13800
12,62280	12989
12,62693	13628
12,63105	14736
12,63517	15788
12,63930	18970
12,64342	23685
12,64753	36043
12,65167	52771
12,65578	82012
12,65990	122713
12,66403	185807
12,66815	268125
12,67227	366569
12,67640	491126
12,68052	625332
12,68463	754354
12,68877	890982
12,69288	1014522
12,69700	1097776
12,70113	1161356
12,70525	1184356
12,70937	1186760
12,71348	1138650
12,71762	1067842
12,72173	983505
12,72585	885954
12,72998	784666
12,73410	680306
12,73822	584341
12,74235	506607
12,74647	432574
12,75058	364565
12,75472	316324
12,75883	267688
12,76295	228069
12,76708	194827
12,77120	166252
12,77532	149668
12,77945	134085
12,78357	116609
12,78768	103550
12,79182	93359
12,79593	85000
12,80005	77394
12,80417	72144
12,80830	65988
12,81242	58440
12,81653	55505
12,82067	51631
12,82478	48951
12,82890	44314
12,83303	42389
12,83715	39180
12,84127	38254
12,84540	37232
12,84952	33599
12,85363	33437
12,85777	30437
12,86188	29037
12,86600	28315
12,87013	26052
12,87425	26854
12,87837	25202
12,88250	24955
12,88662	23299
12,89073	22659
12,89485	21928
12,89898	22595
12,90310	20873
12,90722	20147
12,91135	20487
12,91547	20484
12,91958	17812
12,92372	17766
12,92783	16729
12,93195	15960
12,93608	17261
12,94020	16548
12,94432	17247
12,94845	15605
12,95257	16007
12,95668	15015
12,96082	14447
12,96493	14221
12,96905	15295
12,97318	13150
12,97730	12906
12,98142	12781
12,98553	12659
12,98967	12190
12,99378	12008
12,99790	12226
13,00203	13076
13,00615	11876
13,01027	11515
13,01440	12471
13,01852	11186
13,02263	12545
13,02677	11329
13,03088	10907
13,03500	10459
13,03913	10874
13,04325	10281
13,04737	10215
13,05150	10676
13,05562	11138
13,05973	10621
13,06387	10527
13,06798	10964
13,07210	10178
13,07622	9231
13,08035	10023
13,08447	9168
13,08858	9962
13,09272	9745
13,09683	9332
13,10095	9637
13,10508	8407
13,10920	9656
13,11332	9602
13,11745	9900
13,12157	9194
13,12568	9400
13,12982	8980
13,13393	8835
13,13805	8140
13,14218	8249
13,14630	9700
13,15042	8987
13,15455	9646
13,15867	10409
13,16278	9185
13,16690	8864
13,17103	9955
13,17515	9431
13,17927	9736
13,18340	9345
13,18752	9285
13,19163	8843
13,19577	8376
13,19988	9841
13,20400	9148
13,20813	10417
13,21225	9592
13,21637	8675
13,22050	9556
13,22462	9625
13,22873	9135
13,23287	8995
13,23698	10253
13,24110	8620
13,24523	8712
13,24935	8174
13,25347	8767
13,25758	8041
13,26172	8260
13,26583	8529
13,26995	7403
13,27408	9021
13,27820	7792
13,28232	9340
13,28645	7533
13,29057	8230
13,29468	8183
13,29882	7982
13,30293	7447
13,30705	7783
13,31118	9690
13,31530	8521
13,31942	9363
13,32355	7697
13,32767	8182
13,33178	8914
13,33592	9019
13,34003	7225
13,34415	7976
13,34827	9027
13,35240	8342
13,35652	9187
13,36063	7566
13,36477	7705
13,36888	7813
13,37300	7814
13,37713	8161
13,38125	8128
13,38537	7993
13,38950	8449
13,39362	8575
13,39773	7924
13,40187	6954
13,40598	7640
13,41010	8387
13,41423	8674
13,41835	7878
13,42247	7694
13,42660	8453
13,43072	8348
13,43483	8197
13,43895	7778
13,44308	8337
13,44720	7850
13,45132	8548
13,45545	8390
13,45957	7323
13,46368	7064
13,46782	7278
13,47193	7563
13,47605	7531
13,48018	7273
13,48430	7877
13,48842	7530
13,49255	6660
13,49667	8382
13,50078	7149
13,50492	7740
13,50903	6624
13,51315	7491
13,51728	6729
13,52140	8519
13,52552	7496
13,52965	8191
13,53377	8154
13,53788	7373
13,54200	7415
13,54613	7280
13,55025	8201
13,55437	9572
13,55850	9351
13,56262	13368
13,56673	19436
13,57087	25472
13,57498	41262
13,57910	65203
13,58323	99418
13,58735	154444
13,59147	218811
13,59560	312322
13,59972	415402
13,60383	544787
13,60797	671218
13,61208	805202
13,61620	923172
13,62033	1015088
13,62445	1083486
13,62857	1126549
13,63268	1134842
13,63682	1091539
13,64093	1033691
13,64505	961191
13,64918	858524
13,65330	769282
13,65742	663179
13,66155	580008
13,66567	492600
13,66978	418238
13,67392	359151
13,67803	306021
13,68215	262403
13,68628	224834
13,69040	202542
13,69452	170892
13,69865	150639
13,70277	134454
13,70688	117138
13,71102	107211
13,71513	96687
13,71925	86391
13,72337	77621
13,72750	70826
13,73162	65787
13,73573	60137
13,73987	55868
13,74398	51572
13,74810	47895
13,75223	43157
13,75635	43415
13,76047	39994
13,76460	36994
13,76872	37470
13,77283	32372
13,77697	32519
13,78108	30675
13,78520	29494
13,78933	27625
13,79345	25639
13,79757	24371
13,80170	25453
13,80582	22230
13,80993	22900
13,81405	21773
13,81818	21614
13,82230	20642
13,82642	19140
13,83055	18071
13,83467	18986
13,83878	18075
13,84292	17887
13,84703	16930
13,85115	17285
13,85528	16424
13,85940	15545
13,86352	15889
13,86765	15054
13,87177	12963
13,87588	13343
13,88002	13455
13,88413	13020
13,88825	13084
13,89238	12361
13,89650	11972
13,90062	12750
13,90473	13097
13,90887	11537
13,91298	11326
13,91710	11236
13,92123	13082
13,92535	16163
13,92947	23732
13,93360	34444
13,93772	53766
13,94183	90721
13,94597	145724
13,95008	228156
13,95420	346775
13,95833	531810
13,96245	762003
13,96657	1062968
13,97070	1405194
13,97482	1797899
13,97893	2225635
13,98307	2659302
13,98718	3069923
13,99130	3445352
13,99542	3703033
13,99955	3883443
14,00367	3921978
14,00778	3857004
14,01192	3609376
14,01603	3284128
14,02015	2924033
14,02428	2541259
14,02840	2188210
14,03252	1837730
14,03665	1551817
14,04077	1303030
14,04488	1103625
14,04902	926263
14,05313	788605
14,05725	676337
14,06138	574564
14,06550	503805
14,06962	437286
14,07375	380243
14,07787	340010
14,08198	310173
14,08610	273775
14,09023	249035
14,09435	222279
14,09847	203820
14,10260	186922
14,10672	171846
14,11083	156909
14,11497	142906
14,11908	136487
14,12320	125333
14,12733	117818
14,13145	105371
14,13557	102431
14,13970	96363
14,14382	92180
14,14793	84317
14,15207	82311
14,15618	78683
14,16030	73742
14,16443	67594
14,16855	63321
14,17267	61131
14,17678	57869
14,18092	55029
14,18503	53609
14,18915	50881
14,19328	49393
14,19740	46445
14,20152	44869
14,20565	41820
14,20977	40793
14,21388	39147
14,21802	38362
14,22213	37562
14,22625	35472
14,23038	34848
14,23450	33093
14,23862	31355
14,24275	31386
14,24687	28925
14,25098	26319
14,25512	28425
14,25923	27636
14,26335	24973
14,26747	24954
14,27160	25676
14,27572	24224
14,27983	23074
14,28397	22846
14,28808	22886
14,29220	22162
14,29633	21643
14,30045	21186
14,30457	19876
14,30870	19955
14,31282	18803
14,31693	19280
14,32107	18865
14,32518	18500
14,32930	16918
14,33343	16258
14,33755	17116
14,34167	17525
14,34580	15872
14,34992	15581
14,35403	16503
14,35815	15528
14,36228	15695
14,36640	14295
14,37052	16498
14,37465	12562
14,37877	13695
14,38288	13056
14,38702	13131
14,39113	13552
14,39525	12339
14,39938	13318
14,40350	12314
14,40762	12739
14,41175	12273
14,41587	12033
14,41998	11812
14,42412	12143
14,42823	11592
14,43235	11434
14,43648	12216
14,44060	11681
14,44472	10499
14,44883	11107
14,45297	11739
14,45708	11974
14,46120	9770
14,46533	10473
14,46945	10973
14,47357	11849
14,47770	11708
14,48182	10744
14,48593	11445
14,49007	11619
14,49418	12263
14,49830	10700
14,50243	11856
14,50655	11543
14,51067	11192
14,51480	10498
14,51892	10817
14,52303	11192
14,52717	9467
14,53128	10101
14,53540	10550
14,53952	11093
14,54365	10326
14,54777	10147
14,55188	9576
14,55602	9315
14,56013	9761
14,56425	9116
14,56838	8924
14,57250	9069
14,57662	9727
14,58075	10578
14,58487	9452
14,58898	9811
14,59312	8614
14,59723	10352
14,60135	9698
14,60548	9485
14,60960	10498
14,61372	10905
14,61785	10081
14,62197	10051
14,62608	11247
14,63020	12283
14,63433	10776
14,63845	11913
14,64257	10660
14,64670	9959
14,65082	11376
14,65493	9738
14,65907	10983
14,66318	9764
14,66730	10011
14,67143	10951
14,67555	10592
14,67967	12843
14,68380	14001
14,68792	18697
14,69203	25799
14,69617	33348
14,70028	50803
14,70440	75302
14,70853	116187
14,71265	170131
14,71677	250533
14,72088	353068
14,72502	470997
14,72913	612831
14,73325	753158
14,73738	886846
14,74150	1012218
14,74562	1114986
14,74975	1162236
14,75387	1184241
14,75798	1164950
14,76212	1116052
14,76623	1040551
14,77035	945361
14,77448	851779
14,77860	744800
14,78272	651080
14,78685	560237
14,79097	475009
14,79508	406587
14,79922	342449
14,80333	294013
14,80745	255205
14,81157	221264
14,81570	190787
14,81982	171561
14,82393	150199
14,82807	129573
14,83218	119661
14,83630	105882
14,84043	97886
14,84455	87236
14,84867	79183
14,85280	73192
14,85692	64829
14,86103	62372
14,86517	59725
14,86928	55535
14,87340	51294
14,87753	50655
14,88165	46368
14,88577	46445
14,88990	43925
14,89402	41793
14,89813	40014
14,90225	40803
14,90638	40242
14,91050	40277
14,91462	38122
14,91875	37608
14,92287	34982
14,92698	33444
14,93112	34061
14,93523	32874
14,93935	28993
14,94348	30953
14,94760	26740
14,95172	26482
14,95585	23408
14,95997	23753
14,96408	21704
14,96822	22833
14,97233	22677
14,97645	19550
14,98058	19759
14,98470	18130
14,98882	17956
14,99293	16873
14,99707	17402
15,00118	16161
15,00530	15618
15,00943	15518
15,01355	14378
15,01767	15201
15,02180	13766
15,02592	14280
15,03003	14074
15,03417	13351
15,03828	12309
15,04240	13152
15,04653	12570
15,05065	11524
15,05477	11470
15,05890	12365
15,06302	10421
15,06713	12823
15,07127	11518
15,07538	11171
15,07950	12124
15,08362	10247
15,08775	11341
15,09187	11580
15,09598	9921
15,10012	11115
15,10423	10733
15,10835	10859
15,11248	10230
15,11660	9925
15,12072	10324
15,12485	10557
15,12897	9743
15,13308	8579
15,13722	10454
15,14133	8501
15,14545	9801
15,14958	8791
15,15370	9926
15,15782	10006
15,16195	9724
15,16607	8849
15,17018	8588
15,17432	9915
15,17843	8237
15,18255	9552
15,18667	8139
15,19080	9484
15,19492	9326
15,19903	8111
15,20317	9081
15,20728	9457
15,21140	13160
15,21553	16947
15,21965	24403
15,22377	36517
15,22790	56246
15,23202	91947
15,23613	142989
15,24027	212137
15,24438	313262
15,24850	428907
15,25263	573352
15,25675	731910
15,26087	894607
15,26500	1040242
15,26912	1191963
15,27323	1276917
15,27735	1335626
15,28148	1353232
15,28560	1302765
15,28972	1226154
15,29385	1118267
15,29797	1006707
15,30208	872273
15,30622	765331
15,31033	647979
15,31445	545475
15,31858	460189
15,32270	397997
15,32682	339628
15,33095	287853
15,33507	249490
15,33918	216436
15,34332	185272
15,34743	162249
15,35155	141817
15,35568	130447
15,35980	114753
15,36392	103294
15,36803	93752
15,37217	84413
15,37628	76122
15,38040	72675
15,38453	66338
15,38865	63270
15,39277	56354
15,39690	53764
15,40102	48803
15,40513	45125
15,40927	42501
15,41338	40994
15,41750	38703
15,42163	38044
15,42575	33401
15,42987	34323
15,43400	32935
15,43812	31109
15,44223	26650
15,44637	29476
15,45048	27041
15,45460	27494
15,45872	26337
15,46285	23594
15,46697	24606
15,47108	24772
15,47522	22584
15,47933	21401
15,48345	20297
15,48758	20170
15,49170	19392
15,49582	19030
15,49995	18457
15,50407	17626
15,50818	16916
15,51232	18091
15,51643	17649
15,52055	15836
15,52468	16434
15,52880	15803
15,53292	14041
15,53705	14684
15,54117	13464
15,54528	14246
15,54940	13055
15,55353	13962
15,55765	14648
15,56177	13212
15,56590	11729
15,57002	11050
15,57413	11894
15,57827	11497
15,58238	11194
15,58650	11134
15,59063	12619
15,59475	10948
15,59887	10027
15,60300	10765
15,60712	9542
15,61123	10638
15,61537	9737
15,61948	9993
15,62360	10472
15,62773	10127
15,63185	10010
15,63597	10285
15,64008	10199
15,64422	10429
15,64833	9891
15,65245	10189
15,65658	9234
15,66070	9462
15,66482	9400
15,66895	8725
15,67307	9477
15,67718	9223
15,68132	9030
15,68543	8980
15,68955	6570
15,69368	10045
15,69780	8487
15,70192	8999
15,70605	9546
15,71017	8746
15,71428	9561
15,71842	8556
15,72253	8322
15,72665	9021
15,73077	7888
15,73490	8283
15,73902	8554
15,74313	7783
15,74727	8026
15,75138	8660
15,75550	9013
15,75963	8747
15,76375	8215
15,76787	8791
15,77200	8434
15,77612	8793
15,78023	9204
15,78437	9775
15,78848	9736
15,79260	9237
15,79673	9672
15,80085	10961
15,80497	8000
15,80910	7793
15,81322	9798
15,81733	9095
15,82145	8213
15,82558	8822
15,82970	8137
15,83382	7867
15,83795	9232
15,84207	7709
15,84618	8876
15,85032	7490
15,85443	7384
15,85855	7928
15,86268	7866
15,86680	6718
15,87092	7985
15,87505	7204
15,87917	6125
15,88328	8350
15,88742	6907
15,89153	7408
15,89565	6593
15,89978	7316
15,90390	7078
15,90802	7928
15,91213	6218
15,91627	7543
15,92038	7727
15,92450	7633
15,92863	8799
15,93275	7553
15,93687	7437
15,94100	7730
15,94512	7889
15,94923	8837
15,95337	7776
15,95748	10244
15,96160	11077
15,96573	15477
15,96985	20919
15,97397	31745
15,97810	51183
15,98222	80974
15,98633	123250
15,99047	185229
15,99458	271010
15,99870	376717
16,00282	507346
16,00695	657614
16,01107	815980
16,01518	961357
16,01932	1099566
16,02343	1195447
16,02755	1256214
16,03168	1276956
16,03580	1254755
16,03992	1199757
16,04405	1102903
16,04817	999251
16,05228	889915
16,05642	775957
16,06053	673070
16,06465	579107
16,06878	497183
16,07290	421043
16,07702	354601
16,08115	308015
16,08527	266554
16,08938	225650
16,09350	194923
16,09763	171617
16,10175	153682
16,10587	137773
16,11000	119416
16,11412	109215
16,11823	99239
16,12237	88946
16,12648	82630
16,13060	75848
16,13473	69344
16,13885	67531
16,14297	59349
16,14710	57905
16,15122	55532
16,15533	50243
16,15947	47484
16,16358	44817
16,16770	42855
16,17183	43119
16,17595	43627
16,18007	42298
16,18418	43411
16,18832	41721
16,19243	42730
16,19655	44420
16,20068	42354
16,20480	41529
16,20892	39328
16,21305	37807
16,21717	37968
16,22128	35693
16,22542	34460
16,22953	33292
16,23365	30827
16,23778	28630
16,24190	27455
16,24602	25069
16,25015	23569
16,25427	22377
16,25838	21819
16,26252	20487
16,26663	20254
16,27075	19016
16,27487	17818
16,27900	17642
16,28312	16299
16,28723	17027
16,29137	15703
16,29548	16281
16,29960	15517
16,30373	16071
16,30785	13985
16,31197	13773
16,31610	14332
16,32022	13420
16,32433	13042
16,32847	13536
16,33258	12333
16,33670	13064
16,34083	11991
16,34495	11850
16,34907	10903
16,35320	11884
16,35732	12399
16,36143	11567
16,36555	11250
16,36968	10878
16,37380	10159
16,37792	10163
16,38205	9804
16,38617	10755
16,39028	10476
16,39442	10207
16,39853	10188
16,40265	10442
16,40678	8717
16,41090	10481
16,41502	9677
16,41915	11056
16,42327	9181
16,42738	8900
16,43152	9652
16,43563	8759
16,43975	9281
16,44388	10180
16,44800	9504
16,45212	9941
16,45623	9901
16,46037	10412
16,46448	10452
16,46860	11431
16,47273	14527
16,47685	20158
16,48097	30874
16,48510	48817
16,48922	83367
16,49333	130938
16,49747	208216
16,50158	312040
16,50570	457397
16,50983	655139
16,51395	886014
16,51807	1154594
16,52220	1459753
16,52632	1799097
16,53043	2119969
16,53457	2406898
16,53868	2665330
16,54280	2831800
16,54692	2903323
16,55105	2879076
16,55517	2756346
16,55928	2591362
16,56342	2286183
16,56753	2040196
16,57165	1755929
16,57578	1479474
16,57990	1250198
16,58402	1059383
16,58815	892420
16,59227	751863
16,59638	643004
16,60052	554582
16,60463	482333
16,60875	410954
16,61288	361411
16,61700	320166
16,62112	283644
16,62525	253932
16,62937	231406
16,63348	208243
16,63760	187954
16,64173	175388
16,64585	156613
16,64997	146619
16,65410	135344
16,65822	123695
16,66233	115646
16,66647	109180
16,67058	100016
16,67470	93944
16,67883	87137
16,68295	82071
16,68707	76225
16,69120	75646
16,69532	66913
16,69943	65284
16,70357	60395
16,70768	59849
16,71180	55914
16,71593	53785
16,72005	52093
16,72417	48856
16,72828	47435
16,73242	43089
16,73653	43418
16,74065	41898
16,74478	38530
16,74890	37887
16,75302	34837
16,75715	34299
16,76127	35028
16,76538	30532
16,76952	30668
16,77363	28775
16,77775	28392
16,78188	28264
16,78600	28337
16,79012	26475
16,79425	26385
16,79837	25301
16,80248	25365
16,80662	23486
16,81073	23826
16,81485	21504
16,81898	20466
16,82310	20498
16,82722	20375
16,83133	19710
16,83547	19328
16,83958	18653
16,84370	18509
16,84783	18191
16,85195	16926
16,85607	17714
16,86020	16550
16,86432	18476
16,86843	16016
16,87257	16625
16,87668	15013
16,88080	15164
16,88493	16089
16,88905	14907
16,89317	16532
16,89730	19849
16,90142	23141
16,90553	27709
16,90967	38956
16,91378	62571
16,91790	93818
16,92202	136017
16,92615	201254
16,93027	288954
16,93438	399071
16,93852	540572
16,94263	694354
16,94675	862203
16,95088	1022363
16,95500	1159617
16,95912	1276832
16,96325	1341997
16,96737	1355343
16,97148	1334032
16,97562	1265186
16,97973	1185575
16,98385	1066417
16,98798	949265
16,99210	840235
16,99622	719059
17,00035	623609
17,00447	530003
17,00858	449398
17,01270	385053
17,01683	330493
17,02095	286666
17,02507	244931
17,02920	219309
17,03332	193179
17,03743	174467
17,04157	155221
17,04568	135781
17,04980	122362
17,05393	112137
17,05805	100388
17,06217	94889
17,06630	85531
17,07042	80795
17,07453	74604
17,07867	69509
17,08278	65859
17,08690	59651
17,09103	55729
17,09515	54266
17,09927	52023
17,10338	50184
17,10752	47658
17,11163	52598
17,11575	62684
17,11988	75737
17,12400	105962
17,12812	143944
17,13225	214167
17,13637	308788
17,14048	454991
17,14462	642407
17,14873	872680
17,15285	1133995
17,15698	1430794
17,16110	1749341
17,16522	2066354
17,16935	2356930
17,17347	2572084
17,17758	2712109
17,18172	2769563
17,18583	2737905
17,18995	2595232
17,19407	2394608
17,19820	2141935
17,20232	1917892
17,20643	1646359
17,21057	1420524
17,21468	1199703
17,21880	1022694
17,22293	868558
17,22705	732252
17,23117	630543
17,23530	553749
17,23942	477569
17,24353	415292
17,24767	367551
17,25178	326949
17,25590	294967
17,26003	258488
17,26415	237963
17,26827	211473
17,27240	200639
17,27652	180223
17,28063	166671
17,28475	152553
17,28888	141377
17,29300	130628
17,29712	122247
17,30125	113726
17,30537	106756
17,30948	98498
17,31362	96682
17,31773	90352
17,32185	84737
17,32598	80578
17,33010	75801
17,33422	69230
17,33835	65750
17,34247	65191
17,34658	61063
17,35072	55547
17,35483	56721
17,35895	52931
17,36308	54187
17,36720	48687
17,37132	46207
17,37543	44112
17,37957	43330
17,38368	40402
17,38780	39371
17,39193	36684
17,39605	36634
17,40017	37171
17,40430	33747
17,40842	33633
17,41253	32098
17,41667	31194
17,42078	30873
17,42490	29027
17,42903	29246
17,43315	27575
17,43727	26315
17,44140	26067
17,44552	25713
17,44963	25375
17,45377	24862
17,45788	23090
17,46200	22516
17,46612	22249
17,47025	21544
17,47437	20744
17,47848	20830
17,48262	19830
17,48673	21551
17,49085	20096
17,49498	17782
17,49910	19549
17,50322	18226
17,50735	18608
17,51147	17500
17,51558	17072
17,51972	16568
17,52383	15806
17,52795	16235
17,53208	18533
17,53620	15388
17,54032	14617
17,54445	17020
17,54857	15086
17,55268	15295
17,55680	15085
17,56093	12921
17,56505	14040
17,56917	13489
17,57330	13055
17,57742	14044
17,58153	13723
17,58567	15360
17,58978	15747
17,59390	13587
17,59803	14477
17,60215	14340
17,60627	14111
17,61040	13883
17,61452	15917
17,61863	17631
17,62277	21379
17,62688	30370
17,63100	39513
17,63513	58618
17,63925	89760
17,64337	138717
17,64748	200786
17,65162	295394
17,65573	404606
17,65985	538892
17,66398	685757
17,66810	831432
17,67222	974508
17,67635	1094823
17,68047	1168669
17,68458	1216262
17,68872	1232181
17,69283	1202788
17,69695	1128929
17,70108	1034823
17,70520	953044
17,70932	846465
17,71345	755787
17,71757	680257
17,72168	636150
17,72582	626637
17,72993	653296
17,73405	740561
17,73817	857340
17,74230	1036116
17,74642	1248222
17,75053	1530214
17,75467	1829059
17,75878	2131829
17,76290	2430804
17,76703	2704483
17,77115	2898248
17,77527	2986401
17,77940	2957256
17,78352	2841801
17,78763	2645060
17,79177	2391678
17,79588	2107997
17,80000	1827809
17,80413	1557873
17,80825	1316410
17,81237	1123226
17,81650	954095
17,82062	814345
17,82473	692407
17,82885	606308
17,83298	524339
17,83710	455027
17,84122	399458
17,84535	363624
17,84947	326084
17,85358	297436
17,85772	267465
17,86183	242834
17,86595	218134
17,87008	205877
17,87420	187650
17,87832	176210
17,88245	158927
17,88657	150642
17,89068	137516
17,89482	133324
17,89893	123727
17,90305	114326
17,90718	107534
17,91130	105020
17,91542	97031
17,91953	91878
17,92367	89197
17,92778	82582
17,93190	81239
17,93603	76459
17,94015	75713
17,94427	67263
17,94840	67419
17,95252	66551
17,95663	60962
17,96077	58859
17,96488	56129
17,96900	51149
17,97313	51880
17,97725	49951
17,98137	48322
17,98550	47067
17,98962	45668
17,99373	40938
17,99787	41966
18,00198	39543
18,00610	37405
18,01022	37808
18,01435	36696
18,01847	36538
18,02258	34335
18,02672	36033
18,03083	34028
18,03495	31542
18,03908	32472
18,04320	31023
18,04732	29347
18,05145	29788
18,05557	28900
18,05968	28099
18,06382	28923
18,06793	27008
18,07205	26794
18,07618	26327
18,08030	24695
18,08442	23393
18,08855	22722
18,09267	25274
18,09678	22809
18,10090	24740
18,10503	27873
18,10915	31778
18,11327	41485
18,11740	53928
18,12152	79365
18,12563	115667
18,12977	167650
18,13388	237948
18,13800	335828
18,14213	452820
18,14625	583524
18,15037	732401
18,15450	870528
18,15862	999908
18,16273	1090813
18,16687	1165111
18,17098	1190712
18,17510	1191854
18,17923	1136124
18,18335	1061918
18,18747	966069
18,19158	869349
18,19572	761834
18,19983	663580
18,20395	570577
18,20808	493083
18,21220	420544
18,21632	365728
18,22045	316653
18,22457	270416
18,22868	239392
18,23282	205206
18,23693	187301
18,24105	160540
18,24518	146787
18,24930	132773
18,25342	119759
18,25755	106813
18,26167	98491
18,26578	92239
18,26992	84857
18,27403	78189
18,27815	70752
18,28227	70153
18,28640	61954
18,29052	60934
18,29463	54584
18,29877	52687
18,30288	50904
18,30700	45950
18,31113	44103
18,31525	42486
18,31937	43138
18,32350	40188
18,32762	40247
18,33173	37283
18,33587	34532
18,33998	33961
18,34410	32220
18,34823	32381
18,35235	30422
18,35647	30171
18,36060	30631
18,36472	29360
18,36883	29764
18,37297	26880
18,37708	28380
18,38120	27399
18,38532	25310
18,38945	25222
18,39357	24198
18,39768	23789
18,40182	23840
18,40593	23143
18,41005	22231
18,41418	20893
18,41830	20611
18,42242	21704
18,42655	21029
18,43067	19471
18,43478	18237
18,43892	17495
18,44303	17933
18,44715	17844
18,45128	17663
18,45540	17209
18,45952	16890
18,46365	17568
18,46777	16000
18,47188	16859
18,47600	15728
18,48013	16271
18,48425	15481
18,48837	14931
18,49250	15120
18,49662	14485
18,50073	14946
18,50487	13852
18,50898	13575
18,51310	13424
18,51723	12371
18,52135	13891
18,52547	12102
18,52960	12958
18,53372	12849
18,53783	12253
18,54197	12779
18,54608	11133
18,55020	13873
18,55433	12968
18,55845	10801
18,56257	12190
18,56668	12223
18,57082	14153
18,57493	12977
18,57905	13968
18,58318	12735
18,58730	12358
18,59142	12212
18,59555	11546
18,59967	11004
18,60378	12803
18,60792	12568
18,61203	11706
18,61615	11194
18,62028	11610
18,62440	12378
18,62852	11775
18,63265	12596
18,63677	10790
18,64088	10383
18,64502	11585
18,64913	10684
18,65325	9952
18,65737	11176
18,66150	10539
18,66562	11874
18,66973	10242
18,67387	10480
18,67798	10697
18,68210	11203
18,68623	12010
18,69035	10450
18,69447	10107
18,69860	10386
18,70272	11049
18,70683	9208
18,71097	11001
18,71508	10703
18,71920	9965
18,72333	9208
18,72745	10085
18,73157	9734
18,73570	9355
18,73982	10126
18,74393	10632
18,74805	9990
18,75218	10746
18,75630	9783
18,76042	9483
18,76455	9539
18,76867	9548
18,77278	9205
18,77692	8537
18,78103	7591
18,78515	9878
18,78928	9328
18,79340	11003
18,79752	11336
18,80165	13899
18,80577	16937
18,80988	21740
18,81402	34314
18,81813	52601
18,82225	77258
18,82638	121537
18,83050	171399
18,83462	253700
18,83873	350371
18,84287	459864
18,84698	585134
18,85110	722101
18,85523	832868
18,85935	925236
18,86347	1005886
18,86760	1046657
18,87172	1043278
18,87583	1019035
18,87997	954574
18,88408	882625
18,88820	797491
18,89233	721875
18,89645	631050
18,90057	558980
18,90470	485218
18,90882	433368
18,91293	407640
18,91707	402404
18,92118	420116
18,92530	477816
18,92942	565194
18,93355	693142
18,93767	879924
18,94178	1106816
18,94592	1382752
18,95003	1701300
18,95415	2040426
18,95828	2373208
18,96240	2659407
18,96652	2924288
18,97065	3104205
18,97477	3209364
18,97888	3195874
18,98302	3017810
18,98713	2766119
18,99125	2502565
18,99538	2209513
18,99950	1889108
19,00362	1618727
19,00775	1365450
19,01187	1174252
19,01598	995158
19,02010	849312
19,02423	738671
19,02835	639521
19,03247	559154
19,03660	492903
19,04072	443258
19,04483	390099
19,04897	352065
19,05308	321051
19,05720	290653
19,06133	263903
19,06545	243531
19,06957	221134
19,07370	206352
19,07782	188480
19,08193	175836
19,08607	166244
19,09018	156703
19,09430	144476
19,09843	137330
19,10255	125419
19,10667	120265
19,11078	114143
19,11492	107149
19,11903	104175
19,12315	95985
19,12728	90783
19,13140	85910
19,13552	83412
19,13965	79153
19,14377	75065
19,14788	71280
19,15202	69735
19,15613	67135
19,16025	62457
19,16438	62537
19,16850	57775
19,17262	56864
19,17675	53486
19,18087	53961
19,18498	50089
19,18912	51193
19,19323	48336
19,19735	45222
19,20147	46097
19,20560	41788
19,20972	40411
19,21383	41017
19,21797	39338
19,22208	39704
19,22620	36311
19,23033	38220
19,23445	34822
19,23857	35085
19,24270	34837
19,24682	35746
19,25093	35710
19,25507	37799
19,25918	43784
19,26330	54783
19,26743	74166
19,27155	99852
19,27567	136011
19,27980	199536
19,28392	269770
19,28803	368154
19,29215	476599
19,29628	592890
19,30040	720122
19,30452	831542
19,30865	929738
19,31277	998775
19,31688	1029844
19,32102	1041503
19,32513	1012678
19,32925	951216
19,33338	891095
19,33750	810362
19,34162	723301
19,34575	621602
19,34987	547305
19,35398	471515
19,35812	406871
19,36223	354445
19,36635	306735
19,37048	270241
19,37460	231168
19,37872	203523
19,38283	182009
19,38697	161407
19,39108	147291
19,39520	130147
19,39933	119892
19,40345	110784
19,40757	103303
19,41170	94565
19,41582	85825
19,41993	80397
19,42407	73625
19,42818	68750
19,43230	65933
19,43643	61837
19,44055	59595
19,44467	56442
19,44880	52386
19,45292	48299
19,45703	47052
19,46117	44746
19,46528	42981
19,46940	40878
19,47352	41130
19,47765	39522
19,48177	37932
19,48588	37588
19,49002	35628
19,49413	34822
19,49825	35801
19,50238	35858
19,50650	41737
19,51062	49155
19,51475	61767
19,51887	88252
19,52298	126686
19,52712	179874
19,53123	252091
19,53535	356395
19,53948	478807
19,54360	622468
19,54772	786601
19,55185	961089
19,55597	1123088
19,56008	1256871
19,56420	1367457
19,56833	1424870
19,57245	1437524
19,57657	1377312
19,58070	1299597
19,58482	1195336
19,58893	1067557
19,59307	955576
19,59718	833928
19,60130	722545
19,60543	620434
19,60955	529958
19,61367	462522
19,61780	401312
19,62192	354347
19,62603	307116
19,63017	277408
19,63428	243050
19,63840	214220
19,64253	194615
19,64665	178364
19,65077	162245
19,65488	145162
19,65902	133193
19,66313	122011
19,66725	117369
19,67138	108382
19,67550	100714
19,67962	94063
19,68375	87412
19,68787	85213
19,69198	77543
19,69612	72374
19,70023	70186
19,70435	65975
19,70848	62852
19,71260	62247
19,71672	55512
19,72085	54702
19,72497	51099
19,72908	49009
19,73322	46042
19,73733	44329
19,74145	45590
19,74557	42824
19,74970	41594
19,75382	38765
19,75793	37770
19,76207	36606
19,76618	36612
19,77030	35914
19,77443	33806
19,77855	32575
19,78267	33420
19,78680	30080
19,79092	30406
19,79503	30875
19,79917	28758
19,80328	28338
19,80740	27288
19,81153	28378
19,81565	26349
19,81977	25218
19,82390	24674
19,82802	23702
19,83213	24031
19,83625	23076
19,84038	21867
19,84450	22082
19,84862	21801
19,85275	22457
19,85687	21947
19,86098	23297
19,86512	20894
19,86923	21119
19,87335	20410
19,87748	21300
19,88160	18600
19,88572	18971
19,88985	19417
19,89397	19800
19,89808	18055
19,90222	17721
19,90633	17328
19,91045	16532
19,91458	16055
19,91870	16759
19,92282	16856
19,92693	16249
19,93107	16599
19,93518	16360
19,93930	16623
19,94343	16997
19,94755	17133
19,95167	16120
19,95580	15152
19,95992	16226
19,96403	14582
19,96817	15455
19,97228	14623
19,97640	15119
19,98053	15525
19,98465	15284
19,98877	15324
19,99290	14969
19,99702	14244
20,00113	14383
20,00527	15181
20,00938	14661
20,01350	15015
20,01762	15650
20,02175	12319
20,02587	14727
20,02998	14077
20,03412	15870
20,03823	13572
20,04235	13727
20,04648	14480
20,05060	15089
20,05472	17500
20,05885	20665
20,06297	26818
20,06708	36822
20,07122	53676
20,07533	81687
20,07945	128017
20,08358	193590
20,08770	282854
20,09182	411475
20,09595	549947
20,10007	729038
20,10418	913387
20,10832	1100450
20,11243	1271382
20,11655	1414857
20,12067	1522119
20,12480	1545330
20,12892	1544590
20,13303	1474438
20,13717	1364511
20,14128	1242023
20,14540	1110188
20,14953	963586
20,15365	836764
20,15777	717335
20,16190	617517
20,16602	534533
20,17013	457225
20,17427	402208
20,17838	352592
20,18250	309531
20,18663	272860
20,19075	244520
20,19487	220928
20,19900	197778
20,20312	181881
20,20723	166210
20,21135	152555
20,21548	141659
20,21960	127572
20,22372	123588
20,22785	111956
20,23197	106952
20,23608	99894
20,24022	93116
20,24433	88545
20,24845	83949
20,25258	80149
20,25670	73752
20,26082	74204
20,26495	66931
20,26907	65308
20,27318	63676
20,27732	60119
20,28143	59413
20,28555	57286
20,28968	55733
20,29380	51591
20,29792	49954
20,30203	48686
20,30617	46829
20,31028	43272
20,31440	42558
20,31853	39856
20,32265	40106
20,32677	37969
20,33090	34679
20,33502	35387
20,33913	32121
20,34327	33662
20,34738	34182
20,35150	32440
20,35563	31414
20,35975	30356
20,36387	31155
20,36800	27998
20,37212	26578
20,37623	28911
20,38037	29726
20,38448	28376
20,38860	27435
20,39272	24271
20,39685	26147
20,40097	24172
20,40508	25635
20,40922	24793
20,41333	24095
20,41745	24019
20,42158	23190
20,42570	23262
20,42982	23095
20,43395	22690
20,43807	22144
20,44218	22677
20,44632	22627
20,45043	24351
20,45455	27001
20,45868	31021
20,46280	39328
20,46692	48745
20,47105	70990
20,47517	105752
20,47928	156525
20,48340	229625
20,48753	320073
20,49165	437918
20,49577	567515
20,49990	714349
20,50402	873072
20,50813	1023584
20,51227	1122544
20,51638	1208516
20,52050	1240259
20,52463	1247198
20,52875	1206142
20,53287	1122596
20,53700	1020950
20,54112	922094
20,54523	816305
20,54937	717062
20,55348	614837
20,55760	540342
20,56173	466155
20,56585	405740
20,56997	352822
20,57408	310120
20,57822	268538
20,58233	244075
20,58645	212736
20,59058	191874
20,59470	172162
20,59882	160017
20,60295	141766
20,60707	130430
20,61118	120514
20,61532	111878
20,61943	102130
20,62355	95738
20,62768	88690
20,63180	83919
20,63592	77451
20,64005	74207
20,64417	70483
20,64828	67155
20,65242	61893
20,65653	59432
20,66065	55761
20,66477	53862
20,66890	51639
20,67302	50647
20,67713	47257
20,68127	45993
20,68538	44522
20,68950	41317
20,69363	41391
20,69775	39213
20,70187	37814
20,70600	37566
20,71012	35972
20,71423	33523
20,71837	32878
20,72248	33196
20,72660	32493
20,73073	29170
20,73485	29078
20,73897	29367
20,74310	29487
20,74722	28423
20,75133	27503
20,75545	26804
20,75958	27132
20,76370	26532
20,76782	25781
20,77195	26742
20,77607	25330
20,78018	23866
20,78432	22842
20,78843	21620
20,79255	22801
20,79668	23833
20,80080	23002
20,80492	20627
20,80905	21502
20,81317	23431
20,81728	21414
20,82142	19874
20,82553	19522
20,82965	20427
20,83378	18237
20,83790	21322
20,84202	19541
20,84613	20344
20,85027	19247
20,85438	19244
20,85850	19026
20,86263	19398
20,86675	17847
20,87087	18185
20,87500	16963
20,87912	18277
20,88323	18132
20,88737	18649
20,89148	16923
20,89560	18387
20,89973	17566
20,90385	16149
20,90797	18464
20,91210	16909
20,91622	17838
20,92033	17348
20,92447	15779
20,92858	17345
20,93270	16754
20,93682	16138
20,94095	16765
20,94507	17713
20,94918	16909
20,95332	16216
20,95743	16613
20,96155	17922
20,96568	17891
20,96980	17347
20,97392	15039
20,97805	16300
20,98217	16497
20,98628	17439
20,99042	17086
20,99453	15701
20,99865	16987
21,00278	16848
21,00690	15516
21,01102	15841
21,01515	17202
21,01927	15270
21,02338	16214
21,02750	16090
21,03163	16982
21,03575	16641
21,03987	16638
21,04400	14752
21,04812	16550
21,05223	17735
21,05637	16031
21,06048	15513
21,06460	16431
21,06873	17707
21,07285	16074
21,07697	15730
21,08110	16683
21,08522	15984
21,08933	14790
21,09347	15901
21,09758	16910
21,10170	15821
21,10583	15104
21,10995	16510
21,11407	17852
21,11818	19636
21,12232	24075
21,12643	34994
21,13055	45464
21,13468	68264
21,13880	100100
21,14292	148645
21,14705	216519
21,15117	296664
21,15528	398019
21,15942	526746
21,16353	655486
21,16765	798845
21,17178	925780
21,17590	1028783
21,18002	1102246
21,18415	1114125
21,18827	1132314
21,19238	1114229
21,19652	1087698
21,20063	1040756
21,20475	1016607
21,20887	1010344
21,21300	1044034
21,21712	1115127
21,22123	1234110
21,22537	1392903
21,22948	1599238
21,23360	1862144
21,23773	2157893
21,24185	2475728
21,24597	2764388
21,25010	3006021
21,25422	3224819
21,25833	3310205
21,26247	3310717
21,26658	3166685
21,27070	2961996
21,27483	2664698
21,27895	2373795
21,28307	2072901
21,28720	1785270
21,29132	1533020
21,29543	1322067
21,29955	1137606
21,30368	988878
21,30780	864355
21,31192	761324
21,31605	673805
21,32017	602617
21,32428	529011
21,32842	486233
21,33253	440606
21,33665	402823
21,34078	368772
21,34490	339479
21,34902	315831
21,35315	290270
21,35727	278662
21,36138	254418
21,36552	236687
21,36963	222000
21,37375	211180
21,37788	195367
21,38200	190152
21,38612	173979
21,39023	163933
21,39437	159991
21,39848	149726
21,40260	142735
21,40673	136410
21,41085	132352
21,41497	123910
21,41910	120237
21,42322	115801
21,42733	108148
21,43147	107092
21,43558	102151
21,43970	98907
21,44383	96722
21,44795	90326
21,45207	90684
21,45620	85866
21,46032	80831
21,46443	82107
21,46857	80094
21,47268	72197
21,47680	71811
21,48092	69190
21,48505	67671
21,48917	65052
21,49328	65319
21,49742	61232
21,50153	58838
21,50565	59057
21,50978	55172
21,51390	55552
21,51802	54584
21,52215	53959
21,52627	52028
21,53038	50724
21,53452	53925
21,53863	54417
21,54275	57967
21,54688	61342
21,55100	68864
21,55512	86292
21,55925	114135
21,56337	149685
21,56748	206524
21,57160	283661
21,57573	373550
21,57985	490176
21,58397	618543
21,58810	762466
21,59222	888050
21,59633	991206
21,60047	1100559
21,60458	1136441
21,60870	1162356
21,61283	1158126
21,61695	1112673
21,62107	1064288
21,62520	1009740
21,62932	961334
21,63343	932956
21,63757	909750
21,64168	922311
21,64580	967942
21,64993	1014729
21,65405	1072911
21,65817	1144042
21,66228	1193462
21,66642	1234658
21,67053	1232549
21,67465	1244104
21,67878	1206772
21,68290	1129553
21,68702	1045776
21,69115	962720
21,69527	863850
21,69938	770339
21,70352	681014
21,70763	602010
21,71175	521322
21,71588	460953
21,72000	409608
21,72412	361945
21,72825	320553
21,73237	287610
21,73648	259359
21,74062	234053
21,74473	217210
21,74885	198815
21,75298	186378
21,75710	174491
21,76122	174163
21,76533	176076
21,76947	192442
21,77358	218109
21,77770	259368
21,78183	316307
21,78595	402311
21,79007	513968
21,79420	652567
21,79832	805884
21,80243	968819
21,80657	1140220
21,81068	1273942
21,81480	1390028
21,81893	1474490
21,82305	1508559
21,82717	1481332
21,83130	1412004
21,83542	1316408
21,83953	1203832
21,84367	1087846
21,84778	954224
21,85190	843932
21,85602	740789
21,86015	645801
21,86427	568877
21,86838	496801
21,87252	445118
21,87663	393811
21,88075	354720
21,88488	319513
21,88900	292905
21,89312	271622
21,89725	247628
21,90137	226576
21,90548	208479
21,90962	194786
21,91373	184334
21,91785	170504
21,92198	161078
21,92610	156032
21,93022	146059
21,93435	139702
21,93847	127266
21,94258	121947
21,94670	119824
21,95083	111980
21,95495	106501
21,95907	102839
21,96320	96257
21,96732	93818
21,97143	88431
21,97557	86034
21,97968	81798
21,98380	80804
21,98793	77332
21,99205	74734
21,99617	70347
22,00030	68284
22,00442	66658
22,00853	64050
22,01267	62721
22,01678	61558
22,02090	58927
22,02503	55224
22,02915	56074
22,03327	55168
22,03738	54663
22,04152	53569
22,04563	50542
22,04975	50520
22,05388	48265
22,05800	48240
22,06212	45208
22,06625	43524
22,07037	42334
22,07448	43735
22,07862	44670
22,08273	43355
22,08685	42907
22,09098	39903
22,09510	40719
22,09922	41773
22,10335	39839
22,10747	41265
22,11158	39370
22,11572	42537
22,11983	39558
22,12395	39948
22,12807	39758
22,13220	38856
22,13632	39181
22,14043	37894
22,14457	36068
22,14868	36418
22,15280	35835
22,15693	34176
22,16105	34117
22,16517	32728
22,16930	33624
22,17342	32031
22,17753	32063
22,18167	31571
22,18578	29170
22,18990	28896
22,19403	29362
22,19815	27704
22,20227	29453
22,20640	28799
22,21052	29197
22,21463	28192
22,21875	26634
22,22288	27026
22,22700	27038
22,23112	27425
22,23525	28867
22,23937	26833
22,24348	26262
22,24762	28367
22,25173	30274
22,25585	29176
22,25998	30960
22,26410	36618
22,26822	40754
22,27235	52009
22,27647	75019
22,28058	104572
22,28472	145095
22,28883	209347
22,29295	293922
22,29708	404056
22,30120	547803
22,30532	719543
22,30943	891595
22,31357	1066174
22,31768	1239615
22,32180	1388446
22,32593	1486959
22,33005	1540567
22,33417	1521484
22,33830	1459881
22,34242	1357813
22,34653	1230270
22,35067	1104104
22,35478	968679
22,35890	864689
22,36303	747498
22,36715	660193
22,37127	572626
22,37540	509780
22,37952	450614
22,38363	400751
22,38777	363924
22,39188	325345
22,39600	299568
22,40012	271628
22,40425	252579
22,40837	226666
22,41248	209928
22,41662	199952
22,42073	186453
22,42485	173100
22,42898	161026
22,43310	153052
22,43722	140287
22,44135	136869
22,44547	129058
22,44958	125137
22,45372	118592
22,45783	114239
22,46195	105979
22,46608	104044
22,47020	98032
22,47432	94524
22,47845	90594
22,48257	87754
22,48668	82054
22,49080	80839
22,49493	76568
22,49905	74043
22,50317	75791
22,50730	68855
22,51142	68143
22,51553	67795
22,51967	63467
22,52378	63155
22,52790	61777
22,53203	59667
22,53615	57895
22,54027	57711
22,54440	53539
22,54852	53731
22,55263	52962
22,55677	51139
22,56088	50243
22,56500	49446
22,56913	49279
22,57325	47963
22,57737	46303
22,58148	47007
22,58562	42897
22,58973	42885
22,59385	43238
22,59798	42853
22,60210	40133
22,60622	40435
22,61035	42551
22,61447	39780
22,61858	38849
22,62272	38736
22,62683	38596
22,63095	37673
22,63508	36845
22,63920	37048
22,64332	37173
22,64745	36989
22,65157	37510
22,65568	39103
22,65982	46654
22,66393	51511
22,66805	62444
22,67217	83748
22,67630	109827
22,68042	155383
22,68453	224864
22,68867	309206
22,69278	407421
22,69690	536677
22,70103	689412
22,70515	832350
22,70927	982311
22,71340	1117985
22,71752	1218708
22,72163	1268031
22,72577	1287080
22,72988	1297788
22,73400	1252562
22,73813	1212865
22,74225	1170037
22,74637	1120546
22,75050	1103985
22,75462	1118143
22,75873	1136032
22,76285	1173039
22,76698	1215548
22,77110	1248566
22,77522	1269139
22,77935	1266900
22,78347	1244927
22,78758	1197548
22,79172	1122545
22,79583	1034666
22,79995	955339
22,80408	871628
22,80820	776343
22,81232	689431
22,81645	608388
22,82057	537674
22,82468	480692
22,82882	426183
22,83293	376094
22,83705	337982
22,84118	308643
22,84530	280503
22,84942	257311
22,85353	234349
22,85767	216052
22,86178	199513
22,86590	185340
22,87003	171084
22,87415	164963
22,87827	149291
22,88240	145198
22,88652	134686
22,89063	128998
22,89477	116686
22,89888	116106
22,90300	106764
22,90713	104801
22,91125	101469
22,91537	95628
22,91950	91282
22,92362	91004
22,92773	83601
22,93187	82624
22,93598	76425
22,94010	76516
22,94422	71829
22,94835	70882
22,95247	70581
22,95658	66457
22,96072	65596
22,96483	59340
22,96895	61551
22,97308	60186
22,97720	57525
22,98132	57370
22,98545	56575
22,98957	53946
22,99368	51683
22,99782	50479
23,00193	50056
23,00605	47928
23,01018	49381
23,01430	48110
23,01842	47224
23,02255	46418
23,02667	44574
23,03078	44267
23,03490	43314
23,03903	42582
23,04315	41087
23,04727	41222
23,05140	40670
23,05552	40829
23,05963	40906
23,06377	39766
23,06788	38600
23,07200	37489
23,07613	37823
23,08025	35907
23,08437	36485
23,08850	36136
23,09262	35316
23,09673	35155
23,10087	35231
23,10498	33108
23,10910	36572
23,11323	33549
23,11735	34839
23,12147	33950
23,12558	32486
23,12972	32249
23,13383	32861
23,13795	33260
23,14208	31013
23,14620	31277
23,15032	32536
23,15445	30802
23,15857	31159
23,16268	31509
23,16682	31126
23,17093	31666
23,17505	29768
23,17918	29229
23,18330	32869
23,18742	29169
23,19155	29589
23,19567	31690
23,19978	29202
23,20392	28452
23,20803	29343
23,21215	28486
23,21627	28905
23,22040	28162
23,22452	28330
23,22863	28504
23,23277	29532
23,23688	28914
23,24100	26992
23,24513	28344
23,24925	29222
23,25337	28048
23,25750	30919
23,26162	29271
23,26573	28669
23,26987	27617
23,27398	27153
23,27810	28063
23,28223	28845
23,28635	30737
23,29047	30299
23,29460	30393
23,29872	29294
23,30283	30099
23,30695	30409
23,31108	32957
23,31520	33669
23,31932	42260
23,32345	49817
23,32757	63199
23,33168	88305
23,33582	119603
23,33993	174495
23,34405	241642
23,34818	333215
23,35230	460323
23,35642	619324
23,36055	817445
23,36467	1061842
23,36878	1331592
23,37292	1617011
23,37703	1913111
23,38115	2205926
23,38528	2480549
23,38940	2705939
23,39352	2863186
23,39765	2914457
23,40177	2882185
23,40588	2714898
23,41000	2475477
23,41413	2233095
23,41825	1966127
23,42237	1711159
23,42650	1491206
23,43062	1301123
23,43473	1118109
23,43887	971096
23,44298	860436
23,44710	776477
23,45123	698384
23,45535	627598
23,45947	569258
23,46360	516114
23,46772	472322
23,47183	429972
23,47597	395917
23,48008	368096
23,48420	342917
23,48833	317242
23,49245	298019
23,49657	283139
23,50068	260760
23,50482	251954
23,50893	235444
23,51305	223646
23,51718	209916
23,52130	203169
23,52542	194508
23,52955	182025
23,53367	177014
23,53778	170856
23,54192	163369
23,54603	155043
23,55015	151099
23,55428	147664
23,55840	138315
23,56252	134612
23,56665	126865
23,57077	123834
23,57488	118577
23,57902	116857
23,58313	111087
23,58725	110817
23,59137	106927
23,59550	107203
23,59962	101950
23,60373	100737
23,60787	94248
23,61198	94131
23,61610	93967
23,62023	89738
23,62435	87881
23,62847	85995
23,63260	86469
23,63672	82991
23,64083	80396
23,64497	78760
23,64908	74555
23,65320	76376
23,65733	73375
23,66145	73019
23,66557	69506
23,66970	70749
23,67382	67715
23,67793	67140
23,68205	66168
23,68618	63874
23,69030	64754
23,69442	62724
23,69855	61412
23,70267	60034
23,70678	58853
23,71092	57807
23,71503	56333
23,71915	56187
23,72328	56152
23,72740	55366
23,73152	53033
23,73565	54517
23,73977	55374
23,74388	53603
23,74802	53801
23,75213	51736
23,75625	48435
23,76038	47716
23,76450	51054
23,76862	51766
23,77273	49789
23,77687	46190
23,78098	49625
23,78510	46388
23,78923	47088
23,79335	44546
23,79747	47299
23,80160	45583
23,80572	45935
23,80983	44692
23,81397	43451
23,81808	43594
23,82220	44710
23,82633	43001
23,83045	42964
23,83457	42394
23,83870	41338
23,84282	42295
23,84693	41957
23,85107	41673
23,85518	41752
23,85930	42424
23,86342	45538
23,86755	52307
23,87167	65571
23,87578	76826
23,87992	104822
23,88403	135574
23,88815	192461
23,89228	258102
23,89640	350508
23,90052	467141
23,90465	602816
23,90877	762754
23,91288	921787
23,91702	1093609
23,92113	1222100
23,92525	1317368
23,92938	1364599
23,93350	1380526
23,93762	1342336
23,94175	1276945
23,94587	1190107
23,94998	1074119
23,95410	954918
23,95823	855245
23,96235	762155
23,96647	675125
23,97060	591479
23,97472	535665
23,97883	475167
23,98297	426238
23,98708	386340
23,99120	352977
23,99533	326052
23,99945	301741
24,00357	279736
24,00770	252206
24,01182	238432
24,01593	223693
24,02007	211695
24,02418	195146
24,02830	187846
24,03243	181478
24,03655	167652
24,04067	160192
24,04478	152111
24,04892	144192
24,05303	137703
24,05715	130735
24,06128	124786
24,06540	123148
24,06952	118927
24,07365	113505
24,07777	104953
24,08188	107045
24,08602	101651
24,09013	101685
24,09425	93660
24,09838	92143
24,10250	87673
24,10662	89149
24,11075	86063
24,11487	81381
24,11898	86405
24,12312	77102
24,12723	75119
24,13135	77759
24,13547	72226
24,13960	72317
24,14372	73445
24,14783	69773
24,15197	70444
24,15608	66055
24,16020	64926
24,16433	61424
24,16845	61073
24,17257	63921
24,17670	64078
24,18082	58866
24,18493	57609
24,18907	55555
24,19318	55561
24,19730	54590
24,20143	57506
24,20555	59548
24,20967	58841
24,21380	63490
24,21792	70089
24,22203	77789
24,22615	80927
24,23028	85396
24,23440	94830
24,23852	103369
24,24265	104544
24,24677	112672
24,25088	113119
24,25502	114236
24,25913	113153
24,26325	115977
24,26738	109443
24,27150	103012
24,27562	100032
24,27975	94211
24,28387	88286
24,28798	82638
24,29212	79969
24,29623	74458
24,30035	68270
24,30448	70450
24,30860	65125
24,31272	61206
24,31683	56364
24,32097	56091
24,32508	55664
24,32920	52303
24,33333	49378
24,33745	49629
24,34157	48055
24,34570	48012
24,34982	48170
24,35393	45196
24,35807	45518
24,36218	43750
24,36630	41456
24,37043	42106
24,37455	43609
24,37867	42451
24,38280	41173
24,38692	45190
24,39103	41058
24,39517	40649
24,39928	39446
24,40340	39311
24,40752	37720
24,41165	37467
24,41577	39853
24,41988	38822
24,42402	38003
24,42813	38730
24,43225	37999
24,43638	38278
24,44050	37622
24,44462	37812
24,44875	35457
24,45287	37881
24,45698	36531
24,46112	34669
24,46523	37195
24,46935	36136
24,47348	36131
24,47760	35621
24,48172	36200
24,48585	36824
24,48997	35355
24,49408	36639
24,49820	34646
24,50233	36945
24,50645	33481
24,51057	34801
24,51470	35557
24,51882	36694
24,52293	36434
24,52707	32099
24,53118	35482
24,53530	34515
24,53943	33636
24,54355	32827
24,54767	33355
24,55180	33491
24,55592	34113
24,56003	33506
24,56417	34471
24,56828	35602
24,57240	35840
24,57653	34806
24,58065	35532
24,58477	33515
24,58888	34725
24,59302	32833
24,59713	34158
24,60125	34363
24,60538	34898
24,60950	32648
24,61362	31124
24,61775	32610
24,62187	31379
24,62598	30955
24,63012	32009
24,63423	32505
24,63835	32562
24,64248	32395
24,64660	30357
24,65072	35418
24,65485	33080
24,65897	31056
24,66308	33959
24,66722	31886
24,67133	32999
24,67545	31141
24,67957	29986
24,68370	32271
24,68782	32885
24,69193	33239
24,69607	33064
24,70018	31008
24,70430	32789
24,70843	32772
24,71255	34368
24,71667	32009
24,72080	31947
24,72492	33157
24,72903	33085
24,73317	33402
24,73728	32955
24,74140	32281
24,74553	30427
24,74965	28904
24,75377	33186
24,75790	32856
24,76202	32358
24,76613	33767
24,77025	34327
24,77438	32808
24,77850	35336
24,78262	33704
24,78675	33469
24,79087	34142
24,79498	32968
24,79912	32668
24,80323	33928
24,80735	31872
24,81148	35030
24,81560	34631
24,81972	33082
24,82385	33241
24,82797	32241
24,83208	32733
24,83622	32888
24,84033	31035
24,84445	31189
24,84858	33553
24,85270	33141
24,85682	34177
24,86093	33739
24,86507	30648
24,86918	34125
24,87330	33792
24,87743	32849
24,88155	33466
24,88567	33587
24,88980	32002
24,89392	32937
24,89803	33186
24,90217	34218
24,90628	33122
24,91040	33361
24,91453	33078
24,91865	33564
24,92277	32276
24,92690	33992
24,93102	32149
24,93513	31898
24,93927	31763
24,94338	31279
24,94750	32800
24,95162	31307
24,95575	31962
24,95987	33876
24,96398	32426
24,96812	31373
24,97223	32053
24,97635	31560
24,98048	30793
24,98460	32743
24,98872	35556
24,99285	32746
24,99697	33286
25,00108	31344
25,00522	32807
25,00933	33543
25,01345	34131
25,01758	32750
25,02170	32209
25,02582	34598
25,02995	34577
25,03407	35204
25,03818	31580
25,04232	34268
25,04643	34435
25,05055	32692
25,05467	33062
25,05880	31506
25,06292	32696
25,06703	32888
25,07117	34432
25,07528	32195
25,07940	33943
25,08353	32026
25,08765	31935
25,09177	30171
25,09590	32520
25,10002	34646
25,10413	31783
25,10827	33469
25,11238	32177
25,11650	31896
25,12063	33172
25,12475	35152
25,12887	31699
25,13300	33433
25,13712	35143
25,14123	33197
25,14535	33741
25,14948	34412
25,15360	34121
25,15772	34662
25,16185	34111
25,16597	35260
25,17008	31806
25,17422	33440
25,17833	33069
25,18245	32420
25,18658	33367
25,19070	33998
25,19482	33938
25,19895	32505
25,20307	30667
25,20718	32425
25,21132	34357
25,21543	32118
25,21955	34033
25,22368	32503
25,22780	32721
25,23192	33051
25,23603	34030
25,24017	33324
25,24428	29751
25,24840	33189
25,25253	33520
25,25665	32319
25,26077	32850
25,26490	32613
25,26902	33920
25,27313	35582
25,27727	35233
25,28138	32645
25,28550	33322
25,28963	33977
25,29375	32877
25,29787	34003
25,30200	34100
25,30612	36553
25,31023	33447
25,31437	33620
25,31848	38971
25,32260	39017
25,32672	43831
25,33085	49371
25,33497	61493
25,33908	77536
25,34322	100408
25,34733	133051
25,35145	183355
25,35558	243762
25,35970	311917
25,36382	393158
25,36795	487856
25,37207	579344
25,37618	659188
25,38032	731828
25,38443	781572
25,38855	810467
25,39268	816320
25,39680	796517
25,40092	761766
25,40505	714827
25,40917	651042
25,41328	595321
25,41740	522194
25,42153	474973
25,42565	418964
25,42977	380203
25,43390	332746
25,43802	305760
25,44213	269611
25,44627	242605
25,45038	221449
25,45450	201394
25,45863	184329
25,46275	171239
25,46687	159669
25,47100	147955
25,47512	134703
25,47923	132551
25,48337	121364
25,48748	115125
25,49160	108806
25,49573	106949
25,49985	99983
25,50397	96701
25,50808	91425
25,51222	87197
25,51633	87777
25,52045	81586
25,52458	76604
25,52870	77594
25,53282	77885
25,53695	73528
25,54107	72425
25,54518	71742
25,54932	69124
25,55343	66865
25,55755	69335
25,56168	65310
25,56580	62454
25,56992	63652
25,57405	62556
25,57817	63411
25,58228	59248
25,58642	56724
25,59053	58232
25,59465	55486
25,59877	58524
25,60290	53886
25,60702	53593
25,61113	51802
25,61527	52865
25,61938	50228
25,62350	54192
25,62763	53015
25,63175	48253
25,63587	50718
25,64000	49631
25,64412	48168
25,64823	51971
25,65237	47473
25,65648	48580
25,66060	46794
25,66473	48220
25,66885	46212
25,67297	47959
25,67710	45609
25,68122	47242
25,68533	48498
25,68945	48844
25,69358	45397
25,69770	46399
25,70182	47938
25,70595	47383
25,71007	47278
25,71418	46816
25,71832	45397
25,72243	47273
25,72655	46793
25,73068	45251
25,73480	45776
25,73892	46674
25,74305	45587
25,74717	45321
25,75128	44771
25,75542	43909
25,75953	45730
25,76365	43799
25,76778	47074
25,77190	43210
25,77602	43667
25,78013	45905
25,78427	45161
25,78838	45343
25,79250	42418
25,79663	43318
25,80075	44862
25,80487	41886
25,80900	43791
25,81312	41544
25,81723	43051
25,82137	43535
25,82548	41156
25,82960	44531
25,83373	43854
25,83785	42398
25,84197	42041
25,84610	43029
25,85022	42628
25,85433	43594
25,85847	42337
25,86258	44110
25,86670	42320
25,87082	41859
25,87495	42212
25,87907	45566
25,88318	44331
25,88732	43229
25,89143	42004
25,89555	44619
25,89968	42014
25,90380	40158
25,90792	41872
25,91205	41936
25,91617	44943
25,92028	43949
25,92442	41712
25,92853	42786
25,93265	42983
25,93678	42747
25,94090	43755
25,94502	45085
25,94915	44415
25,95327	41019
25,95738	43781
25,96150	40284
25,96563	42902
25,96975	43641
25,97387	42187
25,97800	43401
25,98212	42915
25,98623	40093
25,99037	41399
25,99448	43493
25,99860	44071
26,00273	40538
26,00685	42018
26,01097	43618
26,01510	42336
26,01922	43293
26,02333	38909
26,02747	40896
26,03158	41408
26,03570	38249
26,03983	41718
26,04395	43190
26,04807	41693
26,05218	43231
26,05632	42291
26,06043	41400
26,06455	40134
26,06868	40936
26,07280	41054
26,07692	41007
26,08105	41457
26,08517	43244
26,08928	42447
26,09342	42942
26,09753	40145
26,10165	43386
26,10578	41986
26,10990	40859
26,11402	43322
26,11815	40859
26,12227	43464
26,12638	44505
26,13052	46315
26,13463	44563
26,13875	43807
26,14287	45317
26,14700	42921
26,15112	43494
26,15523	44652
26,15937	42487
26,16348	42607
26,16760	45118
26,17173	46806
26,17585	41410
26,17997	43619
26,18410	44132
26,18822	45725
26,19233	47428
26,19647	43631
26,20058	43763
26,20470	45952
26,20883	43167
26,21295	46556
26,21707	43790
26,22120	45034
26,22532	44408
26,22943	42349
26,23355	42602
26,23768	43911
26,24180	44822
26,24592	42707
26,25005	44834
26,25417	42893
26,25828	44016
26,26242	42143
26,26653	42318
26,27065	45081
26,27478	44638
26,27890	44099
26,28302	43486
26,28715	44858
26,29127	42430
26,29538	42125
26,29952	44394
26,30363	45029
26,30775	44095
26,31188	45751
26,31600	42705
26,32012	44680
26,32423	42578
26,32837	43857
26,33248	42545
26,33660	44757
26,34073	44732
26,34485	44998
26,34897	43481
26,35310	44210
26,35722	43858
26,36133	44043
26,36547	43074
26,36958	44647
26,37370	42542
26,37783	43910
26,38195	43057
26,38607	42128
26,39020	46589
26,39432	45383
26,39843	45629
26,40257	45815
26,40668	46810
26,41080	44805
26,41492	48313
26,41905	43543
26,42317	45511
26,42728	44681
26,43142	44750
26,43553	42317
26,43965	42341
