D:\MassHunter\GCMS\1\data\Amal\Constant flow\150C\150C_1ml-min_7C-min_3.D Thu Sep 12 16:55:43 2024
Start of data points
4,99082	391581
4,99495	381183
4,99907	362863
5,00318	354703
5,00732	342303
5,01143	330844
5,01555	318873
5,01968	311698
5,02380	303099
5,02792	292107
5,03203	285133
5,03617	276058
5,04028	265396
5,04440	264574
5,04853	261603
5,05265	251601
5,05677	243990
5,06090	235902
5,06502	232703
5,06913	225998
5,07327	223731
5,07738	220769
5,08150	212337
5,08563	209525
5,08975	205579
5,09387	217503
5,09800	249179
5,10212	322509
5,10623	442475
5,11037	610812
5,11448	810106
5,11860	982281
5,12272	1103995
5,12685	1173079
5,13097	1204526
5,13508	1204607
5,13922	1177125
5,14333	1147797
5,14745	1101879
5,15158	1073442
5,15570	1031151
5,15982	991302
5,16395	943149
5,16807	916614
5,17218	890704
5,17632	851560
5,18043	827479
5,18455	794942
5,18868	764970
5,19280	738040
5,19692	707773
5,20105	687039
5,20517	666190
5,20928	637868
5,21340	609230
5,21753	586406
5,22165	574000
5,22577	551338
5,22990	525112
5,23402	510935
5,23813	495721
5,24227	477021
5,24638	456152
5,25050	435751
5,25463	420859
5,25875	409668
5,26287	392418
5,26700	376508
5,27112	361749
5,27523	346592
5,27937	330701
5,28348	314354
5,28760	296465
5,29173	279662
5,29585	263057
5,29997	255195
5,30408	239031
5,30822	224815
5,31233	213819
5,31645	206600
5,32058	194990
5,32470	187929
5,32882	177675
5,33295	171921
5,33707	164555
5,34118	157614
5,34532	154215
5,34943	149029
5,35355	145806
5,35768	136982
5,36180	133676
5,36592	134261
5,37005	129106
5,37417	124962
5,37828	123679
5,38242	116734
5,38653	116350
5,39065	117174
5,39477	110894
5,39890	114237
5,40302	108504
5,40713	106761
5,41127	106823
5,41538	108527
5,41950	119175
5,42363	142926
5,42775	175441
5,43187	242618
5,43600	332231
5,44012	426647
5,44423	522264
5,44837	601928
5,45248	655078
5,45660	679069
5,46073	680919
5,46485	672011
5,46897	662107
5,47310	633460
5,47722	613332
5,48133	592186
5,48547	573058
5,48958	556422
5,49370	532157
5,49782	510777
5,50195	494784
5,50607	477715
5,51018	448712
5,51432	430153
5,51843	423009
5,52255	403080
5,52668	384753
5,53080	370017
5,53492	360239
5,53905	348970
5,54317	330124
5,54728	323657
5,55142	309288
5,55553	300361
5,55965	285563
5,56378	278859
5,56790	262983
5,57202	253280
5,57615	246382
5,58027	238476
5,58438	228741
5,58850	219366
5,59263	209736
5,59675	196058
5,60087	183841
5,60500	179056
5,60912	170525
5,61323	163016
5,61737	154788
5,62148	149071
5,62560	140445
5,62973	135176
5,63385	129816
5,63797	125113
5,64210	119356
5,64622	113222
5,65033	113565
5,65447	107509
5,65858	105781
5,66270	100681
5,66683	102098
5,67095	96883
5,67507	98270
5,67918	94047
5,68332	91574
5,68743	90146
5,69155	90260
5,69568	86964
5,69980	85862
5,70392	87679
5,70805	85835
5,71217	83518
5,71628	81983
5,72042	82310
5,72453	80312
5,72865	80526
5,73278	79167
5,73690	80409
5,74102	78712
5,74515	78119
5,74927	78902
5,75338	76139
5,75752	75973
5,76163	74685
5,76575	75490
5,76987	76156
5,77400	75811
5,77812	74226
5,78223	75705
5,78637	76144
5,79048	77522
5,79460	77813
5,79873	73100
5,80285	74055
5,80697	74907
5,81110	78027
5,81522	84512
5,81933	106867
5,82347	154302
5,82758	232133
5,83170	368167
5,83583	532907
5,83995	744716
5,84407	951780
5,84820	1129570
5,85232	1258791
5,85643	1361233
5,86055	1389805
5,86468	1382887
5,86880	1358696
5,87292	1313222
5,87705	1257510
5,88117	1203440
5,88528	1152280
5,88942	1104284
5,89353	1047522
5,89765	1004458
5,90178	960644
5,90590	916896
5,91002	865023
5,91415	834529
5,91827	781576
5,92238	743837
5,92652	709470
5,93063	667978
5,93475	639380
5,93888	601305
5,94300	571746
5,94712	544817
5,95123	517351
5,95537	486762
5,95948	464376
5,96360	440333
5,96773	412642
5,97185	387851
5,97597	356471
5,98010	334703
5,98422	316444
5,98833	290555
5,99247	271098
5,99658	245061
6,00070	234186
6,00483	211389
6,00895	197530
6,01307	185947
6,01720	174715
6,02132	161735
6,02543	149714
6,02957	141671
6,03368	132313
6,03780	126093
6,04192	119288
6,04605	112837
6,05017	106315
6,05428	106350
6,05842	100787
6,06253	96132
6,06665	90908
6,07078	88183
6,07490	85656
6,07902	82858
6,08315	82744
6,08727	76807
6,09138	75292
6,09552	73977
6,09963	71883
6,10375	69047
6,10788	69847
6,11200	70337
6,11612	65691
6,12025	65020
6,12437	65181
6,12848	65011
6,13260	62041
6,13673	61123
6,14085	59509
6,14497	58502
6,14910	57980
6,15322	59406
6,15733	58614
6,16147	59072
6,16558	57612
6,16970	58658
6,17383	55638
6,17795	56364
6,18207	55754
6,18620	56082
6,19032	55267
6,19443	56403
6,19857	54200
6,20268	54381
6,20680	53528
6,21093	52821
6,21505	52696
6,21917	52639
6,22328	50317
6,22742	51573
6,23153	52373
6,23565	52227
6,23978	52023
6,24390	50050
6,24802	51764
6,25215	50478
6,25627	50110
6,26038	50078
6,26452	50733
6,26863	49895
6,27275	50744
6,27688	48310
6,28100	50521
6,28512	50601
6,28925	51823
6,29337	56289
6,29748	68824
6,30162	88330
6,30573	126760
6,30985	198413
6,31397	279256
6,31810	390249
6,32222	504669
6,32633	599888
6,33047	685290
6,33458	745585
6,33870	776237
6,34283	789089
6,34695	781441
6,35107	762222
6,35520	730074
6,35932	702792
6,36343	672664
6,36757	628477
6,37168	598185
6,37580	564608
6,37993	534899
6,38405	499562
6,38817	480603
6,39230	455455
6,39642	425388
6,40053	401563
6,40465	375384
6,40878	350139
6,41290	337745
6,41702	311199
6,42115	292745
6,42527	277693
6,42938	253421
6,43352	238458
6,43763	221401
6,44175	207782
6,44588	190731
6,45000	178060
6,45412	163494
6,45825	152139
6,46237	143644
6,46648	130046
6,47062	122459
6,47473	115554
6,47885	109114
6,48298	100668
6,48710	93770
6,49122	89665
6,49533	82194
6,49947	79796
6,50358	79049
6,50770	73072
6,51183	71393
6,51595	67193
6,52007	65899
6,52420	64727
6,52832	60846
6,53243	60097
6,53657	59113
6,54068	56404
6,54480	55029
6,54893	53727
6,55305	53727
6,55717	52393
6,56130	51744
6,56542	52098
6,56953	50375
6,57367	49544
6,57778	50517
6,58190	50804
6,58602	50453
6,59015	49328
6,59427	48971
6,59838	48904
6,60252	48668
6,60663	47620
6,61075	47953
6,61488	48546
6,61900	48225
6,62312	45649
6,62725	48111
6,63137	46857
6,63548	43801
6,63962	41059
6,64373	42317
6,64785	43141
6,65198	42361
6,65610	42839
6,66022	43451
6,66435	40039
6,66847	42705
6,67258	43354
6,67670	41331
6,68083	39748
6,68495	39696
6,68907	40282
6,69320	39987
6,69732	39056
6,70143	40255
6,70557	36736
6,70968	39781
6,71380	41030
6,71793	38048
6,72205	38672
6,72617	38697
6,73030	36696
6,73442	37789
6,73853	37795
6,74267	36423
6,74678	36265
6,75090	36845
6,75503	36416
6,75915	37194
6,76327	39236
6,76738	37396
6,77152	37202
6,77563	37765
6,77975	37007
6,78388	37354
6,78800	37039
6,79212	36930
6,79625	37621
6,80037	37579
6,80448	36834
6,80862	37125
6,81273	36097
6,81685	36203
6,82098	36354
6,82510	35583
6,82922	37335
6,83335	35833
6,83747	37575
6,84158	41565
6,84572	46090
6,84983	59928
6,85395	93180
6,85807	154313
6,86220	250737
6,86632	401267
6,87043	600393
6,87457	837894
6,87868	1089265
6,88280	1332199
6,88693	1529978
6,89105	1640429
6,89517	1738652
6,89930	1742102
6,90342	1722986
6,90753	1671314
6,91167	1596912
6,91578	1520116
6,91990	1433863
6,92403	1336559
6,92815	1257760
6,93227	1187449
6,93640	1103940
6,94052	1025631
6,94463	947316
6,94875	872388
6,95288	811225
6,95700	753338
6,96112	678752
6,96525	626814
6,96937	569761
6,97348	522734
6,97762	475569
6,98173	420644
6,98585	384483
6,98998	341409
6,99410	309484
6,99822	271875
7,00235	244665
7,00647	217439
7,01058	197100
7,01472	176717
7,01883	161797
7,02295	143557
7,02708	129849
7,03120	117319
7,03532	108806
7,03945	100603
7,04357	91816
7,04768	88173
7,05180	78269
7,05593	76167
7,06005	71981
7,06417	68544
7,06830	63372
7,07242	61551
7,07653	59258
7,08067	55832
7,08478	56954
7,08890	54843
7,09303	52666
7,09715	50038
7,10127	46861
7,10540	48288
7,10952	47108
7,11363	45977
7,11777	46362
7,12188	44448
7,12600	41609
7,13013	42235
7,13425	43201
7,13837	42708
7,14248	45594
7,14662	44124
7,15073	46250
7,15485	46258
7,15898	46155
7,16310	44737
7,16722	45308
7,17135	47482
7,17547	48214
7,17958	47431
7,18372	48127
7,18783	46653
7,19195	46329
7,19608	45825
7,20020	45791
7,20432	44662
7,20845	42777
7,21257	42490
7,21668	42444
7,22082	41397
7,22493	41388
7,22905	40812
7,23317	37515
7,23730	38140
7,24142	39316
7,24553	37896
7,24967	37484
7,25378	36470
7,25790	37364
7,26203	38869
7,26615	39427
7,27027	40048
7,27440	40769
7,27852	40965
7,28263	41676
7,28677	42396
7,29088	42554
7,29500	42400
7,29913	40717
7,30325	40755
7,30737	41705
7,31150	37410
7,31562	42802
7,31973	42282
7,32385	43522
7,32798	47024
7,33210	54820
7,33622	72050
7,34035	106171
7,34447	151979
7,34858	220960
7,35272	314410
7,35683	425665
7,36095	540948
7,36508	646370
7,36920	738519
7,37332	814684
7,37745	863623
7,38157	870842
7,38568	870457
7,38982	845694
7,39393	805299
7,39805	771024
7,40218	730779
7,40630	679193
7,41042	632378
7,41453	589671
7,41867	538842
7,42278	505183
7,42690	470083
7,43103	420201
7,43515	386146
7,43927	352274
7,44340	321809
7,44752	292386
7,45163	262359
7,45577	235117
7,45988	209738
7,46400	188995
7,46813	172451
7,47225	163653
7,47637	163431
7,48050	171497
7,48462	204957
7,48873	264023
7,49287	341373
7,49698	459467
7,50110	580474
7,50522	712150
7,50935	815305
7,51347	915547
7,51758	974251
7,52172	1004273
7,52583	1010109
7,52995	1000305
7,53408	958828
7,53820	913876
7,54232	858243
7,54645	791763
7,55057	732042
7,55468	680063
7,55882	621315
7,56293	567232
7,56705	524168
7,57118	481407
7,57530	434377
7,57942	382521
7,58355	347844
7,58767	311165
7,59178	273764
7,59590	243396
7,60003	218578
7,60415	193050
7,60827	170717
7,61240	151817
7,61652	134511
7,62063	125171
7,62477	108849
7,62888	98894
7,63300	90853
7,63713	83238
7,64125	75964
7,64537	70870
7,64950	69318
7,65362	62442
7,65773	58816
7,66187	56921
7,66598	53887
7,67010	53216
7,67423	49341
7,67835	47725
7,68247	48625
7,68658	45796
7,69072	44148
7,69483	44964
7,69895	42291
7,70308	42093
7,70720	42424
7,71132	40541
7,71545	39264
7,71957	39440
7,72368	39027
7,72782	36830
7,73193	36410
7,73605	39572
7,74018	33711
7,74430	34546
7,74842	34813
7,75255	35511
7,75667	35027
7,76078	31512
7,76492	34323
7,76903	32994
7,77315	32270
7,77727	32165
7,78140	32419
7,78552	31489
7,78963	30694
7,79377	31286
7,79788	31286
7,80200	30993
7,80613	31732
7,81025	28758
7,81437	30261
7,81850	29791
7,82262	29364
7,82673	30786
7,83087	28842
7,83498	30280
7,83910	29419
7,84323	28056
7,84735	27830
7,85147	29931
7,85560	29089
7,85972	27728
7,86383	27624
7,86795	27662
7,87208	28578
7,87620	28168
7,88032	27087
7,88445	29077
7,88857	27182
7,89268	27446
7,89682	27060
7,90093	26951
7,90505	26573
7,90918	26468
7,91330	27578
7,91742	26344
7,92155	25181
7,92567	25634
7,92978	25450
7,93392	24787
7,93803	26245
7,94215	25118
7,94628	25854
7,95040	27503
7,95452	26421
7,95863	27214
7,96277	25545
7,96688	24839
7,97100	26336
7,97513	26196
7,97925	26000
7,98337	25406
7,98750	27159
7,99162	26417
7,99573	27525
7,99987	32796
8,00398	44312
8,00810	59582
8,01223	90689
8,01635	140469
8,02047	216015
8,02460	311915
8,02872	436105
8,03283	562383
8,03697	698233
8,04108	813896
8,04520	892367
8,04932	953599
8,05345	980651
8,05757	978915
8,06168	952393
8,06582	911476
8,06993	846209
8,07405	797918
8,07818	733701
8,08230	679278
8,08642	604468
8,09055	549023
8,09467	496389
8,09878	450684
8,10292	401520
8,10703	358029
8,11115	307767
8,11528	274593
8,11940	240419
8,12352	210350
8,12765	183232
8,13177	162176
8,13588	143761
8,14000	128847
8,14413	119968
8,14825	112598
8,15237	117102
8,15650	143722
8,16062	197029
8,16473	302719
8,16887	477466
8,17298	726923
8,17710	1069483
8,18123	1453599
8,18535	1896906
8,18947	2327137
8,19360	2732756
8,19772	3059864
8,20183	3263364
8,20597	3357113
8,21008	3331917
8,21420	3268652
8,21833	3087514
8,22245	2885524
8,22657	2680088
8,23068	2424989
8,23482	2195923
8,23893	1963386
8,24305	1746488
8,24718	1541739
8,25130	1359899
8,25542	1181784
8,25955	1019912
8,26367	878627
8,26778	744662
8,27192	649240
8,27603	550863
8,28015	480192
8,28428	409653
8,28840	353702
8,29252	310493
8,29665	266107
8,30077	237506
8,30488	211208
8,30902	186890
8,31313	169496
8,31725	152879
8,32137	142939
8,32550	126603
8,32962	120559
8,33373	113009
8,33787	104650
8,34198	97420
8,34610	92995
8,35023	86786
8,35435	82332
8,35847	80418
8,36260	74414
8,36672	72895
8,37083	69070
8,37497	65980
8,37908	65607
8,38320	61371
8,38733	60782
8,39145	59516
8,39557	58647
8,39970	56128
8,40382	53344
8,40793	53439
8,41205	51690
8,41618	49663
8,42030	47769
8,42442	49355
8,42855	46282
8,43267	48070
8,43678	46101
8,44092	45641
8,44503	43250
8,44915	43149
8,45328	42475
8,45740	41203
8,46152	40879
8,46565	40511
8,46977	40850
8,47388	42755
8,47802	37549
8,48213	40127
8,48625	38545
8,49038	38997
8,49450	37469
8,49862	37307
8,50273	36749
8,50687	35647
8,51098	36648
8,51510	35881
8,51923	36841
8,52335	36245
8,52747	36487
8,53160	34566
8,53572	33358
8,53983	32566
8,54397	33213
8,54808	31616
8,55220	31116
8,55633	32252
8,56045	31387
8,56457	30348
8,56870	29757
8,57282	28859
8,57693	29631
8,58107	30516
8,58518	30272
8,58930	31177
8,59342	31764
8,59755	30889
8,60167	30820
8,60578	30225
8,60992	30989
8,61403	32027
8,61815	33542
8,62228	38798
8,62640	54647
8,63052	75237
8,63465	115635
8,63877	172339
8,64288	259654
8,64702	374031
8,65113	504354
8,65525	641674
8,65938	781598
8,66350	903592
8,66762	998198
8,67175	1051278
8,67587	1083895
8,67998	1071589
8,68412	1038230
8,68823	978885
8,69235	902374
8,69647	825398
8,70060	748651
8,70472	671906
8,70883	600437
8,71297	520290
8,71708	463795
8,72120	402420
8,72533	345984
8,72945	299219
8,73357	258239
8,73770	226127
8,74182	192939
8,74593	171972
8,75007	150611
8,75418	135010
8,75830	120341
8,76243	108031
8,76655	99331
8,77067	93817
8,77480	85199
8,77892	80970
8,78303	73498
8,78715	66197
8,79128	65087
8,79540	62570
8,79952	57967
8,80365	52940
8,80777	50137
8,81188	49708
8,81602	47436
8,82013	43961
8,82425	41900
8,82838	40183
8,83250	39444
8,83662	39365
8,84075	37872
8,84487	37272
8,84898	36435
8,85312	34058
8,85723	35409
8,86135	35312
8,86548	34500
8,86960	35080
8,87372	37862
8,87783	45305
8,88197	59583
8,88608	86581
8,89020	134401
8,89433	210358
8,89845	320063
8,90257	449862
8,90670	612268
8,91082	783797
8,91493	943858
8,91907	1077176
8,92318	1174623
8,92730	1244702
8,93143	1247026
8,93555	1226524
8,93967	1183291
8,94380	1100533
8,94792	1016443
8,95203	917056
8,95617	830552
8,96028	727495
8,96440	639645
8,96852	556705
8,97265	469866
8,97677	413105
8,98088	348291
8,98502	299956
8,98913	257863
8,99325	221765
8,99738	191433
9,00150	169004
9,00562	145734
9,00975	131837
9,01387	121068
9,01798	106926
9,02212	96736
9,02623	89265
9,03035	81787
9,03448	77171
9,03860	71770
9,04272	65840
9,04685	62927
9,05097	62023
9,05508	56524
9,05920	53728
9,06333	52740
9,06745	49381
9,07157	48190
9,07570	46630
9,07982	44011
9,08393	40804
9,08807	42026
9,09218	40829
9,09630	40123
9,10043	37852
9,10455	36971
9,10867	35924
9,11280	34978
9,11692	34853
9,12103	34380
9,12517	35329
9,12928	32674
9,13340	33015
9,13753	33387
9,14165	33858
9,14577	29763
9,14988	31575
9,15402	30039
9,15813	28934
9,16225	29873
9,16638	28016
9,17050	27841
9,17462	29179
9,17875	29127
9,18287	27839
9,18698	28909
9,19112	28558
9,19523	28037
9,19935	28589
9,20348	27028
9,20760	28230
9,21172	29435
9,21585	27559
9,21997	26436
9,22408	27019
9,22822	27299
9,23233	28316
9,23645	28092
9,24057	27212
9,24470	27621
9,24882	27053
9,25293	27223
9,25707	27077
9,26118	26600
9,26530	26969
9,26943	27185
9,27355	24802
9,27767	25371
9,28180	25581
9,28592	25167
9,29003	25191
9,29417	24668
9,29828	25390
9,30240	24380
9,30653	25344
9,31065	24625
9,31477	24911
9,31890	24799
9,32302	24722
9,32713	22922
9,33125	24086
9,33538	22345
9,33950	24318
9,34362	21742
9,34775	25178
9,35187	23087
9,35598	24934
9,36012	26690
9,36423	30739
9,36835	41330
9,37248	56713
9,37660	90930
9,38072	142585
9,38485	221050
9,38897	329312
9,39308	471915
9,39722	621096
9,40133	784578
9,40545	939190
9,40958	1068100
9,41370	1172129
9,41782	1226100
9,42193	1234059
9,42607	1187664
9,43018	1140845
9,43430	1056600
9,43843	954773
9,44255	840726
9,44667	743435
9,45080	642502
9,45492	551250
9,45903	477060
9,46317	400620
9,46728	341110
9,47140	287482
9,47553	249565
9,47965	211398
9,48377	185642
9,48790	164274
9,49202	143927
9,49613	125149
9,50027	115147
9,50438	102107
9,50850	91965
9,51262	84478
9,51675	80310
9,52087	74940
9,52498	70440
9,52912	64424
9,53323	59959
9,53735	58295
9,54148	53543
9,54560	50947
9,54972	49611
9,55385	48082
9,55797	46485
9,56208	41853
9,56622	43883
9,57033	40479
9,57445	41066
9,57858	38876
9,58270	36544
9,58682	36519
9,59095	35472
9,59507	35229
9,59918	33663
9,60330	33183
9,60743	31829
9,61155	30427
9,61567	33649
9,61980	35440
9,62392	38155
9,62803	46823
9,63217	72094
9,63628	111474
9,64040	184413
9,64453	305142
9,64865	486061
9,65277	724972
9,65690	1030112
9,66102	1384344
9,66513	1786124
9,66927	2176095
9,67338	2475004
9,67750	2704777
9,68163	2852676
9,68575	2893869
9,68987	2819112
9,69398	2647557
9,69812	2410291
9,70223	2176759
9,70635	1904868
9,71048	1630236
9,71460	1372664
9,71872	1158108
9,72285	969186
9,72697	808243
9,73108	677152
9,73522	572533
9,73933	481058
9,74345	411230
9,74758	354438
9,75170	305064
9,75582	269418
9,75995	238131
9,76407	215609
9,76818	188535
9,77232	175688
9,77643	157612
9,78055	146305
9,78467	136364
9,78880	129982
9,79292	123862
9,79703	120758
9,80117	112870
9,80528	112409
9,80940	105157
9,81353	102103
9,81765	97415
9,82177	94468
9,82590	93524
9,83002	89079
9,83413	85459
9,83827	81790
9,84238	74495
9,84650	74117
9,85063	69666
9,85475	67492
9,85887	61415
9,86300	58865
9,86712	58828
9,87123	55715
9,87535	53617
9,87948	53559
9,88360	49041
9,88772	49679
9,89185	48057
9,89597	45529
9,90008	46512
9,90422	44894
9,90833	42864
9,91245	45793
9,91658	54950
9,92070	71317
9,92482	101038
9,92895	145165
9,93307	221569
9,93718	331277
9,94132	472549
9,94543	640415
9,94955	825638
9,95368	1007118
9,95780	1170823
9,96192	1303420
9,96603	1368022
9,97017	1378940
9,97428	1364096
9,97840	1289713
9,98253	1185898
9,98665	1067169
9,99077	941859
9,99490	825735
9,99902	700914
10,00313	592851
10,00727	496892
10,01138	420410
10,01550	359968
10,01963	304308
10,02375	258476
10,02787	231021
10,03200	194659
10,03612	174205
10,04023	153219
10,04437	140783
10,04848	127735
10,05260	115023
10,05672	111222
10,06085	106614
10,06497	112190
10,06908	133295
10,07322	172295
10,07733	241159
10,08145	367512
10,08558	548272
10,08970	791943
10,09382	1108867
10,09795	1469901
10,10207	1848321
10,10618	2226461
10,11032	2547144
10,11443	2753714
10,11855	2856796
10,12268	2840466
10,12680	2709171
10,13092	2493518
10,13505	2260604
10,13917	1965017
10,14328	1697576
10,14740	1438475
10,15153	1218708
10,15565	1017689
10,15977	854983
10,16390	720559
10,16802	609588
10,17213	514142
10,17627	433286
10,18038	384390
10,18450	325375
10,18863	293332
10,19275	255478
10,19687	232121
10,20100	206284
10,20512	191553
10,20923	172457
10,21337	162155
10,21748	148168
10,22160	136547
10,22573	126484
10,22985	118349
10,23397	113871
10,23808	106759
10,24222	99632
10,24633	96244
10,25045	88529
10,25458	86472
10,25870	83873
10,26282	79456
10,26695	76763
10,27107	70593
10,27518	70879
10,27932	66055
10,28343	66664
10,28755	64245
10,29168	62372
10,29580	60306
10,29992	59787
10,30405	56594
10,30817	54996
10,31228	51211
10,31642	52479
10,32053	48939
10,32465	50701
10,32878	47431
10,33290	46685
10,33702	46138
10,34113	46343
10,34527	43473
10,34938	43725
10,35350	43396
10,35763	40572
10,36175	40727
10,36587	39288
10,37000	41148
10,37412	46839
10,37823	51782
10,38237	66911
10,38648	97645
10,39060	149492
10,39473	234142
10,39885	361464
10,40297	540739
10,40710	785709
10,41122	1093406
10,41533	1443600
10,41947	1832133
10,42358	2253633
10,42770	2712847
10,43182	3097403
10,43595	3490408
10,44007	3763816
10,44418	3913351
10,44832	3950760
10,45243	3824482
10,45655	3601386
10,46068	3261251
10,46480	2868765
10,46892	2478509
10,47305	2103694
10,47717	1759849
10,48128	1460917
10,48542	1224527
10,48953	1010741
10,49365	846590
10,49778	720705
10,50190	608234
10,50602	533797
10,51015	466725
10,51427	408054
10,51838	359347
10,52250	317669
10,52663	285850
10,53075	263510
10,53487	241107
10,53900	219916
10,54312	201450
10,54723	186756
10,55137	170777
10,55548	166124
10,55960	151759
10,56373	140005
10,56785	132053
10,57197	126398
10,57610	120233
10,58022	115197
10,58433	108800
10,58847	102317
10,59258	99071
10,59670	96191
10,60083	91221
10,60495	86681
10,60907	86595
10,61318	82566
10,61732	78983
10,62143	78142
10,62555	77183
10,62968	79109
10,63380	72286
10,63792	70325
10,64205	68656
10,64617	68202
10,65028	65069
10,65442	62524
10,65853	60914
10,66265	60803
10,66678	58869
10,67090	60445
10,67502	55402
10,67915	57044
10,68327	54058
10,68738	52512
10,69152	51561
10,69563	49704
10,69975	49501
10,70387	50669
10,70800	48184
10,71212	49157
10,71623	47544
10,72037	51492
10,72448	60493
10,72860	76023
10,73273	102863
10,73685	145864
10,74097	219995
10,74510	318407
10,74922	444910
10,75333	617821
10,75747	787718
10,76158	949149
10,76570	1102151
10,76983	1196988
10,77395	1259387
10,77807	1258552
10,78220	1203387
10,78632	1144990
10,79043	1027543
10,79455	895331
10,79868	777971
10,80280	649702
10,80692	555879
10,81105	470124
10,81517	403683
10,81928	342223
10,82342	290535
10,82753	244974
10,83165	214503
10,83578	189709
10,83990	170031
10,84402	148327
10,84815	136384
10,85227	124397
10,85638	115498
10,86052	105890
10,86463	100196
10,86875	91281
10,87288	86957
10,87700	82891
10,88112	79180
10,88523	73483
10,88937	70944
10,89348	67308
10,89760	64143
10,90173	62058
10,90585	59618
10,90997	56734
10,91410	54506
10,91822	52898
10,92233	50450
10,92647	49679
10,93058	48778
10,93470	47802
10,93883	46219
10,94295	44995
10,94707	44448
10,95120	41760
10,95532	40331
10,95943	39290
10,96357	39264
10,96768	38972
10,97180	41089
10,97592	37404
10,98005	38118
10,98417	36532
10,98828	36388
10,99242	33925
10,99653	34642
11,00065	35683
11,00478	33883
11,00890	35251
11,01302	31869
11,01715	32433
11,02127	31833
11,02538	33823
11,02952	33230
11,03363	32418
11,03775	30930
11,04188	34081
11,04600	30899
11,05012	31328
11,05425	31140
11,05837	32241
11,06248	29216
11,06660	31816
11,07073	31339
11,07485	31270
11,07897	32863
11,08310	30725
11,08722	30333
11,09133	29678
11,09547	31777
11,09958	31885
11,10370	31593
11,10783	31960
11,11195	32224
11,11607	30988
11,12020	32729
11,12432	32141
11,12843	31281
11,13257	29512
11,13668	29428
11,14080	29349
11,14493	28898
11,14905	28937
11,15317	29203
11,15728	30001
11,16142	33659
11,16553	40000
11,16965	63942
11,17378	97335
11,17790	161469
11,18202	267911
11,18615	447584
11,19027	700518
11,19438	1060279
11,19852	1486658
11,20263	1962002
11,20675	2466583
11,21088	2984194
11,21500	3429376
11,21912	3734545
11,22325	3942272
11,22737	3973419
11,23148	3854989
11,23562	3669443
11,23973	3383549
11,24385	3051436
11,24797	2775242
11,25210	2472371
11,25622	2186520
11,26033	1903060
11,26447	1651953
11,26858	1408179
11,27270	1201756
11,27683	1027026
11,28095	870389
11,28507	749699
11,28920	640377
11,29332	555662
11,29743	487008
11,30157	426493
11,30568	375181
11,30980	341488
11,31393	304656
11,31805	279742
11,32217	255362
11,32630	233037
11,33042	217334
11,33453	197895
11,33865	186187
11,34278	175250
11,34690	163913
11,35102	152253
11,35515	143996
11,35927	134812
11,36338	132010
11,36752	122522
11,37163	117799
11,37575	112316
11,37988	105916
11,38400	101596
11,38812	96536
11,39225	93941
11,39637	90256
11,40048	89755
11,40462	84759
11,40873	83061
11,41285	79835
11,41698	79324
11,42110	71957
11,42522	72525
11,42933	70999
11,43347	70361
11,43758	66119
11,44170	64586
11,44583	62215
11,44995	63154
11,45407	59875
11,45820	57502
11,46232	57434
11,46643	55994
11,47057	57482
11,47468	58526
11,47880	58056
11,48293	61343
11,48705	65830
11,49117	73057
11,49530	89467
11,49942	114460
11,50353	161867
11,50767	226688
11,51178	315711
11,51590	445569
11,52002	575971
11,52415	732837
11,52827	890106
11,53238	1016679
11,53652	1109251
11,54063	1152596
11,54475	1134210
11,54888	1091189
11,55300	986487
11,55712	889075
11,56125	787268
11,56537	671450
11,56948	568548
11,57362	478486
11,57773	401015
11,58185	347782
11,58598	288642
11,59010	254224
11,59422	222861
11,59835	201793
11,60247	189534
11,60658	187382
11,61070	204841
11,61483	239323
11,61895	310449
11,62307	422600
11,62720	573545
11,63132	771572
11,63543	982328
11,63957	1206609
11,64368	1388378
11,64780	1531214
11,65193	1626655
11,65605	1635109
11,66017	1559431
11,66430	1441881
11,66842	1280515
11,67253	1115488
11,67667	963550
11,68078	819191
11,68490	690013
11,68903	584090
11,69315	495809
11,69727	424299
11,70138	370252
11,70552	318869
11,70963	279381
11,71375	255522
11,71788	225293
11,72200	202261
11,72612	195313
11,73025	175543
11,73437	159193
11,73848	151126
11,74262	141503
11,74673	129845
11,75085	124399
11,75498	117290
11,75910	108091
11,76322	103806
11,76735	100123
11,77147	93423
11,77558	89839
11,77972	86178
11,78383	83150
11,78795	78849
11,79207	79900
11,79620	74558
11,80032	74198
11,80443	69229
11,80857	67647
11,81268	63380
11,81680	61775
11,82093	58276
11,82505	58696
11,82917	58294
11,83330	55058
11,83742	55468
11,84153	56553
11,84567	52949
11,84978	53242
11,85390	52170
11,85803	50765
11,86215	49686
11,86627	48309
11,87040	47838
11,87452	44882
11,87863	46267
11,88277	44266
11,88688	43679
11,89100	45002
11,89512	45310
11,89925	43640
11,90337	43866
11,90748	41918
11,91162	40234
11,91573	41033
11,91985	41578
11,92398	40420
11,92810	45413
11,93222	46971
11,93635	57780
11,94047	74593
11,94458	111481
11,94872	169986
11,95283	265191
11,95695	407442
11,96108	590488
11,96520	822308
11,96932	1095724
11,97345	1345772
11,97757	1580862
11,98168	1729106
11,98580	1785614
11,98993	1747496
11,99405	1644183
11,99817	1480176
12,00230	1288217
12,00642	1104999
12,01053	927646
12,01467	786781
12,01878	660494
12,02290	560027
12,02703	475140
12,03115	414051
12,03527	359668
12,03940	322306
12,04352	286122
12,04763	255335
12,05177	230822
12,05588	211382
12,06000	197996
12,06413	177150
12,06825	165999
12,07237	154390
12,07648	142364
12,08062	132471
12,08473	124668
12,08885	117284
12,09298	112347
12,09710	106093
12,10122	102582
12,10535	96853
12,10947	95552
12,11358	90280
12,11772	85786
12,12183	84428
12,12595	82585
12,13008	79202
12,13420	77699
12,13832	76569
12,14245	72308
12,14657	68905
12,15068	69238
12,15482	67512
12,15893	64889
12,16305	62214
12,16717	63432
12,17130	59533
12,17542	58749
12,17953	58112
12,18367	56267
12,18778	54156
12,19190	53593
12,19603	54664
12,20015	51230
12,20427	51902
12,20840	48599
12,21252	50441
12,21663	49298
12,22077	47390
12,22488	45892
12,22900	46322
12,23313	45981
12,23725	43753
12,24137	43017
12,24550	43886
12,24962	43854
12,25373	45740
12,25785	46638
12,26198	55173
12,26610	70458
12,27022	98297
12,27435	141677
12,27847	220392
12,28258	320348
12,28672	471974
12,29083	651493
12,29495	841259
12,29908	1023766
12,30320	1190435
12,30732	1308090
12,31145	1392188
12,31557	1379665
12,31968	1316633
12,32382	1208596
12,32793	1068737
12,33205	932410
12,33618	797215
12,34030	670460
12,34442	563597
12,34853	483874
12,35267	412627
12,35678	352709
12,36090	308272
12,36503	271647
12,36915	241676
12,37327	211498
12,37740	191074
12,38152	172795
12,38563	158736
12,38977	144841
12,39388	135464
12,39800	126411
12,40213	115813
12,40625	109902
12,41037	105699
12,41450	98399
12,41862	92559
12,42273	91352
12,42687	85895
12,43098	81660
12,43510	76614
12,43922	74524
12,44335	73605
12,44747	70805
12,45158	68457
12,45572	64728
12,45983	63247
12,46395	64772
12,46808	60447
12,47220	60048
12,47632	59177
12,48045	57752
12,48457	56641
12,48868	55098
12,49282	52072
12,49693	52785
12,50105	50423
12,50518	49746
12,50930	49689
12,51342	49572
12,51755	49202
12,52167	44900
12,52578	45774
12,52990	43778
12,53403	45624
12,53815	45668
12,54227	43711
12,54640	43243
12,55052	44272
12,55463	43770
12,55877	42008
12,56288	43560
12,56700	40639
12,57113	41831
12,57525	41657
12,57937	39501
12,58350	37353
12,58762	37119
12,59173	38447
12,59587	35557
12,59998	37668
12,60410	36081
12,60823	39264
12,61235	36622
12,61647	37804
12,62058	36051
12,62472	36833
12,62883	35544
12,63295	38258
12,63708	35905
12,64120	34364
12,64532	33830
12,64945	34180
12,65357	33905
12,65768	34573
12,66182	33809
12,66593	33133
12,67005	35508
12,67418	35531
12,67830	37803
12,68242	38680
12,68655	41061
12,69067	51008
12,69478	65860
12,69892	98645
12,70303	153739
12,70715	239751
12,71127	382801
12,71540	597837
12,71952	891237
12,72363	1284991
12,72777	1742777
12,73188	2250505
12,73600	2775396
12,74013	3284064
12,74425	3662428
12,74837	3902609
12,75250	4004225
12,75662	3906556
12,76073	3720462
12,76487	3507421
12,76898	3231123
12,77310	2987287
12,77723	2737620
12,78135	2527087
12,78547	2311404
12,78960	2072387
12,79372	1833272
12,79783	1609617
12,80195	1393522
12,80608	1207766
12,81020	1049316
12,81432	902851
12,81845	790484
12,82257	693353
12,82668	605837
12,83082	536786
12,83493	481443
12,83905	432443
12,84318	395108
12,84730	360485
12,85142	327172
12,85555	303915
12,85967	282609
12,86378	262454
12,86792	243309
12,87203	231530
12,87615	218926
12,88028	204047
12,88440	197845
12,88852	182976
12,89263	174812
12,89677	165031
12,90088	161578
12,90500	155755
12,90913	145952
12,91325	137428
12,91737	136792
12,92150	128785
12,92562	127826
12,92973	123841
12,93387	120005
12,93798	116185
12,94210	108400
12,94623	108294
12,95035	106024
12,95447	104244
12,95860	101080
12,96272	102452
12,96683	97368
12,97097	94599
12,97508	91583
12,97920	92125
12,98332	89768
12,98745	88360
12,99157	87558
12,99568	86113
12,99982	84503
13,00393	82474
13,00805	86401
13,01218	83432
13,01630	92955
13,02042	103680
13,02455	127165
13,02867	170218
13,03278	236280
13,03692	338451
13,04103	466906
13,04515	629919
13,04928	815889
13,05340	997506
13,05752	1141962
13,06165	1249079
13,06577	1304555
13,06988	1289375
13,07400	1221246
13,07813	1114450
13,08225	1008029
13,08637	887880
13,09050	801959
13,09462	731618
13,09873	703830
13,10287	720044
13,10698	767180
13,11110	864446
13,11523	987527
13,11935	1120376
13,12347	1257880
13,12760	1398963
13,13172	1523765
13,13583	1628607
13,13997	1707030
13,14408	1817196
13,14820	1905268
13,15233	2036022
13,15645	2143977
13,16057	2204581
13,16468	2219555
13,16882	2167055
13,17293	2044422
13,17705	1866718
13,18118	1655178
13,18530	1463559
13,18942	1245096
13,19355	1091117
13,19767	929454
13,20178	809782
13,20592	704357
13,21003	616926
13,21415	548528
13,21828	486307
13,22240	439632
13,22652	399994
13,23065	362938
13,23477	335733
13,23888	304162
13,24302	285962
13,24713	269455
13,25125	248951
13,25537	232822
13,25950	219025
13,26362	205964
13,26773	194865
13,27187	187660
13,27598	178175
13,28010	166546
13,28423	161772
13,28835	154583
13,29247	149535
13,29660	143432
13,30072	135547
13,30483	131267
13,30897	127413
13,31308	123759
13,31720	120189
13,32133	112926
13,32545	108904
13,32957	108117
13,33370	99274
13,33782	99190
13,34193	99273
13,34605	95885
13,35018	93443
13,35430	90340
13,35842	87812
13,36255	84154
13,36667	86019
13,37078	82430
13,37492	78932
13,37903	80119
13,38315	76826
13,38728	75444
13,39140	73398
13,39552	72403
13,39965	71735
13,40377	68806
13,40788	69893
13,41202	69680
13,41613	67838
13,42025	69793
13,42438	69670
13,42850	73755
13,43262	79504
13,43675	92167
13,44087	113849
13,44498	159268
13,44910	219097
13,45323	322852
13,45735	461497
13,46147	661460
13,46560	891122
13,46972	1157963
13,47383	1419601
13,47797	1626035
13,48208	1748422
13,48620	1797431
13,49033	1755191
13,49445	1614929
13,49857	1448423
13,50270	1259727
13,50682	1090020
13,51093	934278
13,51507	810178
13,51918	694252
13,52330	600481
13,52743	526366
13,53155	461810
13,53567	427093
13,53978	377406
13,54392	344638
13,54803	318264
13,55215	291672
13,55628	271334
13,56040	251916
13,56452	235406
13,56865	228166
13,57277	213935
13,57688	201327
13,58102	191704
13,58513	182390
13,58925	174548
13,59338	163890
13,59750	156836
13,60162	152742
13,60575	146625
13,60987	140028
13,61398	131252
13,61812	129133
13,62223	128264
13,62635	125033
13,63047	116891
13,63460	116996
13,63872	112233
13,64283	111572
13,64697	106924
13,65108	104367
13,65520	100060
13,65933	99113
13,66345	97499
13,66757	93184
13,67170	89717
13,67582	89124
13,67993	90301
13,68407	86371
13,68818	84787
13,69230	82774
13,69643	84764
13,70055	81912
13,70467	79472
13,70880	79797
13,71292	76091
13,71703	73908
13,72115	77208
13,72528	73352
13,72940	72850
13,73352	72782
13,73765	68506
13,74177	70124
13,74588	71320
13,75002	71115
13,75413	77665
13,75825	89255
13,76238	109954
13,76650	147063
13,77062	209479
13,77475	299494
13,77887	440502
13,78298	613728
13,78712	808502
13,79123	1031373
13,79535	1242225
13,79948	1389189
13,80360	1478705
13,80772	1466605
13,81183	1417299
13,81597	1305539
13,82008	1166308
13,82420	1018860
13,82833	884292
13,83245	759798
13,83657	657857
13,84070	565832
13,84482	490023
13,84893	439307
13,85307	388672
13,85718	352411
13,86130	332422
13,86543	323694
13,86955	321537
13,87367	357453
13,87780	402193
13,88192	489040
13,88603	601563
13,89017	725126
13,89428	867408
13,89840	983914
13,90252	1088197
13,90665	1136552
13,91077	1146895
13,91488	1112553
13,91902	1058643
13,92313	961318
13,92725	855945
13,93138	748561
13,93550	653095
13,93962	565113
13,94375	485371
13,94787	430628
13,95198	372486
13,95612	328852
13,96023	293870
13,96435	267588
13,96848	242895
13,97260	222528
13,97672	204738
13,98085	190021
13,98497	176124
13,98908	168441
13,99320	156729
13,99733	148591
14,00145	140791
14,00557	133397
14,00970	127584
14,01382	122158
14,01793	116402
14,02207	113259
14,02618	110555
14,03030	108634
14,03443	100935
14,03855	100452
14,04267	101748
14,04680	92261
14,05092	95541
14,05503	89182
14,05917	90723
14,06328	87822
14,06740	82621
14,07153	83382
14,07565	81523
14,07977	80129
14,08388	78665
14,08802	76339
14,09213	74415
14,09625	75576
14,10038	72896
14,10450	73877
14,10862	72685
14,11275	71924
14,11687	69828
14,12098	68054
14,12512	71661
14,12923	68734
14,13335	65966
14,13748	65498
14,14160	66462
14,14572	62574
14,14985	64251
14,15397	64534
14,15808	71359
14,16222	77259
14,16633	94062
14,17045	119131
14,17457	158939
14,17870	226274
14,18282	332066
14,18693	482893
14,19107	698983
14,19518	990683
14,19930	1340411
14,20343	1778242
14,20755	2244333
14,21167	2712339
14,21580	3107809
14,21992	3438695
14,22403	3583755
14,22817	3478239
14,23228	3214611
14,23640	2847289
14,24053	2465573
14,24465	2088770
14,24877	1773112
14,25290	1506267
14,25702	1293443
14,26113	1107389
14,26525	964287
14,26938	846939
14,27350	751933
14,27762	673239
14,28175	611348
14,28587	556732
14,28998	510381
14,29412	469342
14,29823	436436
14,30235	406763
14,30648	374008
14,31060	352206
14,31472	333497
14,31885	316591
14,32297	295314
14,32708	279741
14,33122	264732
14,33533	255867
14,33945	241019
14,34358	224582
14,34770	217560
14,35182	208415
14,35593	199211
14,36007	194020
14,36418	184282
14,36830	182066
14,37243	172913
14,37655	168834
14,38067	160996
14,38480	159566
14,38892	155679
14,39303	148654
14,39717	147189
14,40128	139575
14,40540	139336
14,40953	138700
14,41365	130227
14,41777	132459
14,42190	125407
14,42602	123892
14,43013	123345
14,43427	119234
14,43838	112914
14,44250	114466
14,44662	111410
14,45075	111357
14,45487	106366
14,45898	105799
14,46312	106444
14,46723	106957
14,47135	104204
14,47548	103023
14,47960	98578
14,48372	96969
14,48785	96031
14,49197	96885
14,49608	94373
14,50022	91613
14,50433	92437
14,50845	87096
14,51258	92068
14,51670	89102
14,52082	87048
14,52495	85901
14,52907	84591
14,53318	79840
14,53730	81796
14,54143	81934
14,54555	79378
14,54967	78939
14,55380	81030
14,55792	79287
14,56203	77929
14,56617	81326
14,57028	83773
14,57440	92966
14,57853	105890
14,58265	124716
14,58677	161588
14,59090	218054
14,59502	303856
14,59913	417898
14,60327	572463
14,60738	761236
14,61150	969174
14,61563	1176017
14,61975	1365028
14,62387	1494373
14,62798	1562566
14,63212	1551822
14,63623	1490636
14,64035	1367001
14,64448	1242211
14,64860	1104188
14,65272	963972
14,65685	843464
14,66097	741657
14,66508	655998
14,66922	591648
14,67333	522557
14,67745	470490
14,68158	428501
14,68570	381973
14,68982	354579
14,69395	329310
14,69807	302582
14,70218	290553
14,70632	272493
14,71043	252534
14,71455	240981
14,71867	226472
14,72280	216543
14,72692	206900
14,73103	197505
14,73517	185619
14,73928	180357
14,74340	171884
14,74753	163646
14,75165	161529
14,75577	155927
14,75990	151043
14,76402	144474
14,76813	141315
14,77227	135521
14,77638	130512
14,78050	130162
14,78463	125462
14,78875	123291
14,79287	117731
14,79700	117702
14,80112	112894
14,80523	109408
14,80935	109105
14,81348	106354
14,81760	102806
14,82172	102622
14,82585	102961
14,82997	97733
14,83408	99393
14,83822	96701
14,84233	94305
14,84645	91477
14,85058	89408
14,85470	89574
14,85882	88977
14,86295	89408
14,86707	85959
14,87118	85727
14,87532	85127
14,87943	81364
14,88355	81226
14,88768	81395
14,89180	77766
14,89592	79808
14,90005	76816
14,90417	80748
14,90828	77167
14,91240	76062
14,91653	74398
14,92065	77156
14,92477	77325
14,92890	74438
14,93302	72671
14,93713	74511
14,94127	75038
14,94538	76544
14,94950	77035
14,95363	74987
14,95775	74243
14,96187	77072
14,96600	72128
14,97012	73433
14,97423	74685
14,97837	70540
14,98248	74777
14,98660	69566
14,99073	71156
14,99485	67226
14,99897	66795
15,00308	65365
15,00722	65543
15,01133	65572
15,01545	63523
15,01958	66931
15,02370	60614
15,02782	65002
15,03195	67337
15,03607	67409
15,04018	69234
15,04432	73853
15,04843	78749
15,05255	86582
15,05668	91408
15,06080	100623
15,06492	109074
15,06905	113849
15,07317	124086
15,07728	127089
15,08142	124932
15,08553	123738
15,08965	124136
15,09377	117815
15,09790	113232
15,10202	108742
15,10613	99163
15,11027	95543
15,11438	87123
15,11850	81807
15,12263	79793
15,12675	77080
15,13087	72363
15,13500	71282
15,13912	67711
15,14323	67039
15,14737	63911
15,15148	61736
15,15560	60968
15,15973	65382
15,16385	63018
15,16797	58981
15,17210	56848
15,17622	59122
15,18033	57410
15,18445	56367
15,18858	56555
15,19270	55596
15,19682	58098
15,20095	57332
15,20507	57767
15,20918	57424
15,21332	54649
15,21743	57671
15,22155	56624
15,22568	57670
15,22980	55343
15,23392	55427
15,23805	54401
15,24217	52969
15,24628	53822
15,25042	53869
15,25453	52378
15,25865	52305
15,26278	53293
15,26690	51286
15,27102	49607
15,27513	50733
15,27927	51795
15,28338	49677
15,28750	49261
15,29163	49613
15,29575	50013
15,29987	49380
15,30400	50828
15,30812	51329
15,31223	51141
15,31637	50882
15,32048	52124
15,32460	47698
15,32873	51833
15,33285	51374
15,33697	51080
15,34110	48897
15,34522	51617
15,34933	47617
15,35347	51813
15,35758	51619
15,36170	51453
15,36582	50757
15,36995	50008
15,37407	50987
15,37818	50423
15,38232	49155
15,38643	48218
15,39055	50123
15,39468	49082
15,39880	50249
15,40292	47463
15,40705	48648
15,41117	49535
15,41528	48934
15,41942	48376
15,42353	48076
15,42765	48291
15,43178	48958
15,43590	49950
15,44002	47179
15,44415	44904
15,44827	46938
15,45238	48714
15,45650	47747
15,46063	45316
15,46475	46546
15,46887	47663
15,47300	46597
15,47712	46635
15,48123	46607
15,48537	47162
15,48948	45672
15,49360	49595
15,49773	46778
15,50185	46341
15,50597	46282
15,51010	45154
15,51422	46616
15,51833	47978
15,52247	46512
15,52658	49439
15,53070	47878
15,53483	45339
15,53895	46998
15,54307	48561
15,54718	45293
15,55132	47064
15,55543	47354
15,55955	48782
15,56368	45593
15,56780	45965
15,57192	46834
15,57605	47472
15,58017	49178
15,58428	43352
15,58842	46138
15,59253	45335
15,59665	46914
15,60078	47547
15,60490	44354
15,60902	46497
15,61315	46994
15,61727	44529
15,62138	45762
15,62552	44905
15,62963	47020
15,63375	43826
15,63787	44903
15,64200	44755
15,64612	44745
15,65023	45855
15,65437	46231
15,65848	44921
15,66260	46590
15,66673	43079
15,67085	46445
15,67497	43230
15,67910	45254
15,68322	45789
15,68733	42353
15,69147	45029
15,69558	43396
15,69970	42570
15,70383	42002
15,70795	44114
15,71207	43980
15,71620	47025
15,72032	44957
15,72443	43449
15,72855	44573
15,73268	45650
15,73680	44818
15,74092	44300
15,74505	46831
15,74917	44217
15,75328	45249
15,75742	46299
15,76153	48020
15,76565	53262
15,76978	56323
15,77390	62223
15,77802	72291
15,78215	94681
15,78627	122778
15,79038	164985
15,79452	214869
15,79863	283933
15,80275	360392
15,80688	444683
15,81100	534111
15,81512	610580
15,81923	662958
15,82337	713615
15,82748	726663
15,83160	725512
15,83573	697440
15,83985	652108
15,84397	609628
15,84810	558270
15,85222	510622
15,85633	452841
15,86047	409616
15,86458	364199
15,86870	326861
15,87283	298447
15,87695	266819
15,88107	244047
15,88520	227054
15,88932	205490
15,89343	189641
15,89757	175518
15,90168	164516
15,90580	152610
15,90992	146308
15,91405	139793
15,91817	135674
15,92228	127715
15,92642	121528
15,93053	117342
15,93465	113395
15,93878	109275
15,94290	103700
15,94702	100533
15,95115	98072
15,95527	94646
15,95938	91303
15,96352	88427
15,96763	87007
15,97175	86981
15,97588	82936
15,98000	82476
15,98412	79091
15,98825	82155
15,99237	78483
15,99648	75885
16,00060	75734
16,00473	74127
16,00885	72488
16,01297	70477
16,01710	71431
16,02122	69745
16,02533	69313
16,02947	66190
16,03358	67687
16,03770	63411
16,04183	66066
16,04595	64983
16,05007	62287
16,05420	64190
16,05832	61636
16,06243	64071
16,06657	62051
16,07068	61537
16,07480	58590
16,07893	59109
16,08305	56896
16,08717	57927
16,09128	56736
16,09542	56771
16,09953	57159
16,10365	57702
16,10778	55320
16,11190	58720
16,11602	56126
16,12015	54320
16,12427	55158
16,12838	53767
16,13252	52033
16,13663	53669
16,14075	54224
16,14488	52319
16,14900	54756
16,15312	54911
16,15725	53101
