D:\MassHunter\GCMS\1\data\Amal\Constant flow\150C_1ml-min_9C-min_1.D Thu Jul 25 20:30:06 2024
Start of data points
0,27657	337807
0,28102	329751
0,28545	315878
0,28990	303060
0,29433	297449
0,29878	282900
0,30322	275773
0,30767	264556
0,31210	252058
0,31655	241052
0,32098	237125
0,32543	219004
0,32987	211031
0,33432	195988
0,33875	187544
0,34320	178412
0,34765	167676
0,35208	157850
0,35653	150733
0,36097	144187
0,36542	131231
0,36985	127490
0,37430	116911
0,37873	112408
0,38318	105220
0,38762	98992
0,39207	94189
0,39650	88869
0,40095	81906
0,40538	79912
0,40983	76451
0,41427	68529
0,41872	68228
0,42315	64156
0,42760	60939
0,43203	57240
0,43648	55129
0,44092	51264
0,44537	50352
0,44980	46899
0,45425	46696
0,45868	42745
0,46313	41700
0,46758	40399
0,47202	39169
0,47647	36825
0,48090	35438
0,48535	33260
0,48978	32567
0,49423	32997
0,49867	32821
0,50312	31884
0,50755	28349
0,51200	30952
0,51643	28582
0,52088	27713
0,52532	26774
0,52977	26177
0,53420	26170
0,53865	24478
0,54308	22462
0,54753	23160
0,55197	24305
0,55642	22400
0,56085	22731
0,56530	22930
0,56973	20598
0,57418	20710
0,57862	21609
0,58307	20539
0,58752	21184
0,59195	20478
0,59640	18182
0,60083	20038
0,60528	18592
0,60972	18796
0,61417	18438
0,61860	18550
0,62305	19719
0,62748	17769
0,63193	16706
0,63637	17363
0,64082	16254
0,64525	16879
0,64970	16368
0,65413	16545
0,65858	15263
0,66302	15961
0,66747	18039
0,67190	14804
0,67635	15895
0,68078	15977
0,68523	14327
0,68967	15779
0,69412	14973
0,69855	14484
0,70300	15039
0,70745	15310
0,71188	14575
0,71633	15732
0,72077	14321
0,72522	14110
0,72965	14120
0,73410	15153
0,73853	13825
0,74298	14139
0,74742	13814
0,75187	13658
0,75630	14448
0,76075	13356
0,76518	13304
0,76963	13275
0,77407	13397
0,77852	13972
0,78295	13416
0,78740	13800
0,79183	13282
0,79628	14358
0,80072	14033
0,80517	13455
0,80960	14998
0,81405	13981
0,81848	15310
0,82293	14516
0,82737	13873
0,83182	14701
0,83627	13450
0,84070	14881
0,84515	14108
0,84958	14586
0,85403	15809
0,85847	14586
0,86292	15449
0,86735	15560
0,87180	14816
0,87623	14258
0,88068	15103
0,88512	14895
0,88957	15183
0,89400	15064
0,89845	15110
0,90288	15147
0,90733	16366
0,91177	15639
0,91622	16222
0,92065	15664
0,92510	16149
0,92953	14841
0,93398	15048
0,93842	14545
0,94287	14693
0,94730	16152
0,95175	16194
0,95620	16246
0,96063	15599
0,96508	14683
0,96952	14646
0,97397	14207
0,97840	15058
0,98285	14098
0,98728	14536
0,99173	14922
0,99617	13713
1,00062	15081
1,00505	14749
1,00950	14978
1,01393	14138
1,01838	14651
1,02282	14682
1,02727	13925
1,03170	14032
1,03615	14434
1,04058	14775
1,04503	17061
1,04947	15774
1,05392	16078
1,05835	16018
1,06280	15562
1,06723	15220
1,07168	14832
1,07613	16626
1,08057	15903
1,08502	15780
1,08945	14808
1,09390	14501
1,09833	13372
1,10278	15390
1,10722	14466
1,11167	14011
1,11610	14247
1,12055	13679
1,12498	13739
1,12943	14320
1,13387	13277
1,13832	12571
1,14275	13751
1,14720	12804
1,15163	13588
1,15608	12501
1,16052	13463
1,16497	13388
1,16940	13965
1,17385	12458
1,17828	12743
1,18273	13877
1,18717	13812
1,19162	12153
1,19607	13872
1,20050	14425
1,20495	15122
1,20938	14782
1,21383	16506
1,21827	18560
1,22272	23234
1,22715	25846
1,23160	33086
1,23603	40955
1,24048	49298
1,24492	62856
1,24937	75163
1,25380	89497
1,25825	109737
1,26268	129354
1,26713	152023
1,27157	172907
1,27602	191189
1,28045	211425
1,28490	228897
1,28933	245857
1,29378	253909
1,29822	265866
1,30267	275323
1,30710	274538
1,31155	284612
1,31600	287101
1,32043	285917
1,32488	282541
1,32932	278851
1,33377	272830
1,33820	271236
1,34265	263124
1,34708	262039
1,35153	262423
1,35597	255306
1,36042	251346
1,36485	244088
1,36930	235112
1,37373	231959
1,37818	221106
1,38262	214528
1,38707	208264
1,39150	198484
1,39595	189333
1,40038	181363
1,40483	174036
1,40927	160634
1,41372	153864
1,41815	145459
1,42260	136616
1,42703	127888
1,43148	119244
1,43593	115743
1,44037	105222
1,44482	98142
1,44925	93592
1,45370	87012
1,45813	80751
1,46258	74473
1,46702	70002
1,47147	64651
1,47590	60275
1,48035	58187
1,48478	50566
1,48923	49663
1,49367	44614
1,49812	43623
1,50255	39226
1,50700	39134
1,51143	36117
1,51588	34056
1,52032	32350
1,52477	31225
1,52920	29831
1,53365	26819
1,53808	26630
1,54253	25607
1,54697	24307
1,55142	24693
1,55585	23254
1,56030	20130
1,56475	21274
1,56918	20640
1,57363	19375
1,57807	19277
1,58252	18512
1,58695	19640
1,59140	18403
1,59583	18051
1,60028	18528
1,60472	19077
1,60917	19782
1,61360	21107
1,61805	24709
1,62248	28106
1,62693	34300
1,63137	43044
1,63582	55194
1,64025	65063
1,64470	79898
1,64913	100392
1,65358	123528
1,65802	141688
1,66247	165621
1,66690	185570
1,67135	212413
1,67578	234928
1,68023	253454
1,68468	270257
1,68912	287195
1,69357	298139
1,69800	303013
1,70245	315185
1,70688	317227
1,71133	325342
1,71577	322650
1,72022	326028
1,72465	321907
1,72910	321226
1,73353	317521
1,73798	309780
1,74242	305130
1,74687	297889
1,75130	286145
1,75575	281434
1,76018	269650
1,76463	262182
1,76907	248979
1,77352	241408
1,77795	225384
1,78240	214961
1,78683	208972
1,79128	196901
1,79572	187381
1,80017	176693
1,80462	165342
1,80905	154298
1,81350	143635
1,81793	135206
1,82238	126377
1,82682	115881
1,83127	110773
1,83570	102256
1,84015	93565
1,84458	85620
1,84903	80003
1,85347	74490
1,85792	68407
1,86235	62475
1,86680	58368
1,87123	54737
1,87568	51951
1,88012	44587
1,88457	44058
1,88900	39465
1,89345	38501
1,89788	35896
1,90233	33411
1,90677	33065
1,91122	30953
1,91565	27731
1,92010	26985
1,92455	26643
1,92898	24353
1,93343	22422
1,93787	22985
1,94232	21934
1,94675	20336
1,95120	22551
1,95563	20726
1,96008	19379
1,96452	19256
1,96897	17709
1,97340	17722
1,97785	17377
1,98228	18462
1,98673	16052
1,99117	16396
1,99562	15673
2,00005	17073
2,00450	14993
2,00893	15134
2,01338	15906
2,01782	14368
2,02227	14798
2,02670	13994
2,03115	14410
2,03558	14104
2,04003	13217
2,04448	14101
2,04892	13014
2,05337	13497
2,05780	14244
2,06225	14351
2,06668	13481
2,07113	12304
2,07557	12650
2,08002	11460
2,08445	13082
2,08890	12094
2,09333	13100
2,09778	13421
2,10222	12440
2,10667	13673
2,11110	12313
2,11555	12379
2,11998	12222
2,12443	12082
2,12887	12944
2,13332	11504
2,13775	12619
2,14220	12259
2,14663	12275
2,15108	10953
2,15552	12794
2,15997	12880
2,16442	12496
2,16885	12185
2,17330	11194
2,17773	11401
2,18218	11805
2,18662	11453
2,19107	11089
2,19550	11757
2,19995	11850
2,20438	11505
2,20883	11097
2,21327	12292
2,21772	11138
2,22215	11908
2,22660	10997
2,23103	11852
2,23548	11416
2,23992	11076
2,24437	10996
2,24880	10112
2,25325	11014
2,25768	11818
2,26213	10896
2,26657	11531
2,27102	11347
2,27545	11882
2,27990	12401
2,28433	10463
2,28878	11323
2,29323	11204
2,29767	10961
2,30212	11323
2,30655	11124
2,31100	10624
2,31543	10328
2,31988	11259
2,32432	11515
2,32877	11863
2,33320	10247
2,33765	11363
2,34208	11551
2,34653	10563
2,35097	11578
2,35542	10744
2,35985	10951
2,36430	11454
2,36873	10398
2,37318	10936
2,37762	11259
2,38207	11526
2,38650	11455
2,39095	11315
2,39538	10520
2,39983	10193
2,40427	10250
2,40872	10654
2,41317	10838
2,41760	10971
2,42205	11034
2,42648	10791
2,43093	10999
2,43537	11134
2,43982	11166
2,44425	10889
2,44870	10639
2,45313	11743
2,45758	11656
2,46202	11307
2,46647	11125
2,47090	10797
2,47535	11166
2,47978	10493
2,48423	11014
2,48867	10913
2,49312	11405
2,49755	10339
2,50200	11522
2,50643	10825
2,51088	11385
2,51532	10105
2,51977	11146
2,52420	10736
2,52865	10763
2,53310	11283
2,53753	10310
2,54198	10268
2,54642	10662
2,55087	11439
2,55530	11212
2,55975	10435
2,56418	10014
2,56863	10541
2,57307	10772
2,57752	9932
2,58195	11114
2,58640	10071
2,59083	11133
2,59528	9741
2,59972	10661
2,60417	9488
2,60860	11085
2,61305	9835
2,61748	10804
2,62193	10825
2,62637	11090
2,63082	10347
2,63525	10607
2,63970	10317
2,64413	9866
2,64858	10281
2,65303	10783
2,65747	10469
2,66192	10143
2,66635	9888
2,67080	10299
2,67523	10734
2,67968	10866
2,68412	10568
2,68857	11250
2,69300	10005
2,69745	10188
2,70188	10605
2,70633	10304
2,71077	10858
2,71522	9641
2,71965	10792
2,72410	11544
2,72853	11282
2,73298	13190
2,73742	16424
2,74187	18472
2,74630	24192
2,75075	30995
2,75518	41976
2,75963	58667
2,76407	75804
2,76852	99405
2,77297	122963
2,77740	153303
2,78185	180839
2,78628	220163
2,79073	249707
2,79517	280898
2,79962	310911
2,80405	330153
2,80850	350940
2,81293	361804
2,81738	373041
2,82182	382262
2,82627	381832
2,83070	373253
2,83515	375563
2,83958	370673
2,84403	357285
2,84847	352254
2,85292	336771
2,85735	327375
2,86180	317365
2,86623	310860
2,87068	296854
2,87512	284140
2,87957	263661
2,88400	251067
2,88845	232392
2,89290	211381
2,89733	197054
2,90178	182343
2,90622	165974
2,91067	148830
2,91510	137853
2,91955	128578
2,92398	113915
2,92843	103178
2,93287	96197
2,93732	84752
2,94175	78184
2,94620	73617
2,95063	64733
2,95508	59045
2,95952	53231
2,96397	48312
2,96840	44848
2,97285	41399
2,97728	38825
2,98173	34184
2,98617	31836
2,99062	28350
2,99505	29286
2,99950	27715
3,00393	26710
3,00838	23056
3,01283	22552
3,01727	21459
3,02172	21206
3,02615	19904
3,03060	17462
3,03503	19157
3,03948	17130
3,04392	15661
3,04837	17004
3,05280	15828
3,05725	15034
3,06168	15471
3,06613	15515
3,07057	13863
3,07502	14130
3,07945	14222
3,08390	13198
3,08833	14246
3,09278	13001
3,09722	12911
3,10167	13407
3,10610	13160
3,11055	14968
3,11498	16084
3,11943	20992
3,12387	27662
3,12832	37871
3,13275	57989
3,13720	78213
3,14165	108380
3,14608	153278
3,15053	205950
3,15497	268265
3,15942	350647
3,16385	443569
3,16830	544137
3,17273	652817
3,17718	756022
3,18162	882914
3,18607	987120
3,19050	1088674
3,19495	1187067
3,19938	1258103
3,20383	1298026
3,20827	1320797
3,21272	1337606
3,21715	1340247
3,22160	1327383
3,22603	1307379
3,23048	1270893
3,23492	1244210
3,23937	1184436
3,24380	1112550
3,24825	1074719
3,25268	1001793
3,25713	951375
3,26158	889051
3,26602	814033
3,27047	749665
3,27490	686972
3,27935	622113
3,28378	560062
3,28823	499578
3,29267	451186
3,29712	390448
3,30155	355302
3,30600	309103
3,31043	273439
3,31488	245066
3,31932	221669
3,32377	193976
3,32820	174292
3,33265	157925
3,33708	140578
3,34153	127790
3,34597	113669
3,35042	103021
3,35485	92712
3,35930	87791
3,36373	76061
3,36818	71161
3,37262	64025
3,37707	61476
3,38152	57082
3,38595	52013
3,39040	50210
3,39483	44654
3,39928	43846
3,40372	41634
3,40817	38841
3,41260	36597
3,41705	34850
3,42148	33048
3,42593	31195
3,43037	31993
3,43482	29839
3,43925	28773
3,44370	27442
3,44813	27085
3,45258	24888
3,45702	23259
3,46147	23340
3,46590	23765
3,47035	21730
3,47478	22099
3,47923	21133
3,48367	21321
3,48812	20260
3,49255	19584
3,49700	18593
3,50145	19459
3,50588	18115
3,51033	16900
3,51477	18193
3,51922	17191
3,52365	15987
3,52810	16985
3,53253	16091
3,53698	15356
3,54142	15702
3,54587	14850
3,55030	14695
3,55475	13673
3,55918	14159
3,56363	14162
3,56807	14559
3,57252	13998
3,57695	13601
3,58140	13984
3,58583	12824
3,59028	13489
3,59472	12969
3,59917	13172
3,60360	12906
3,60805	12243
3,61248	12858
3,61693	12581
3,62138	12939
3,62582	11882
3,63027	12892
3,63470	13640
3,63915	11793
3,64358	12252
3,64803	10333
3,65247	10531
3,65692	11619
3,66135	10826
3,66580	11413
3,67023	11924
3,67468	11512
3,67912	11216
3,68357	11025
3,68800	10920
3,69245	10360
3,69688	10408
3,70133	10983
3,70577	10632
3,71022	11592
3,71465	10771
3,71910	9493
3,72353	10127
3,72798	10170
3,73242	9078
3,73687	10782
3,74132	10378
3,74575	9782
3,75020	10225
3,75463	10296
3,75908	9256
3,76352	11072
3,76797	11668
3,77240	10505
3,77685	10464
3,78128	10455
3,78573	9448
3,79017	9761
3,79462	10649
3,79905	10824
3,80350	10421
3,80793	10136
3,81238	9995
3,81682	10451
3,82127	10219
3,82570	10251
3,83015	10176
3,83458	8867
3,83903	9249
3,84347	9961
3,84792	9980
3,85235	9746
3,85680	9231
3,86123	9854
3,86568	9613
3,87013	9772
3,87457	9688
3,87902	10397
3,88345	9888
3,88790	9855
3,89233	9186
3,89678	9639
3,90122	9385
3,90567	10644
3,91010	10507
3,91455	9355
3,91898	9427
3,92343	9372
3,92787	10047
3,93232	10985
3,93675	10337
3,94120	9864
3,94563	9676
3,95008	11357
3,95452	10578
3,95897	9743
3,96340	10786
3,96785	10632
3,97228	10876
3,97673	10744
3,98117	11060
3,98562	9871
3,99007	11911
3,99450	11972
3,99895	13153
4,00338	18476
4,00783	22087
4,01227	29723
4,01672	39975
4,02115	54767
4,02560	74573
4,03003	98783
4,03448	129777
4,03892	166611
4,04337	207088
4,04780	250369
4,05225	291925
4,05668	337054
4,06113	371783
4,06557	407707
4,07002	432406
4,07445	456782
4,07890	476826
4,08333	482411
4,08778	483130
4,09222	481312
4,09667	463351
4,10110	456879
4,10555	433567
4,11000	404420
4,11443	384003
4,11888	356610
4,12332	330225
4,12777	300998
4,13220	270176
4,13665	246999
4,14108	218090
4,14553	200035
4,14997	176572
4,15442	153966
4,15885	138601
4,16330	123200
4,16773	108329
4,17218	94345
4,17662	85352
4,18107	76251
4,18550	68231
4,18995	60874
4,19438	57304
4,19883	48995
4,20327	45051
4,20772	42680
4,21215	37978
4,21660	35319
4,22103	34894
4,22548	32943
4,22993	29588
4,23437	30227
4,23882	28931
4,24325	27190
4,24770	26408
4,25213	26178
4,25658	24751
4,26102	23521
4,26547	22368
4,26990	23095
4,27435	21247
4,27878	20225
4,28323	17972
4,28767	17700
4,29212	18294
4,29655	17645
4,30100	15543
4,30543	16307
4,30988	16228
4,31432	14243
4,31877	14402
4,32320	14352
4,32765	14188
4,33208	13831
4,33653	13857
4,34097	13492
4,34542	12339
4,34987	13565
4,35430	12130
4,35875	13133
4,36318	11655
4,36763	11541
4,37207	10791
4,37652	10835
4,38095	12128
4,38540	11821
4,38983	12048
4,39428	11695
4,39872	11884
4,40317	10725
4,40760	12590
4,41205	11976
4,41648	11333
4,42093	11409
4,42537	11232
4,42982	11241
4,43425	11077
4,43870	11345
4,44313	11065
4,44758	10615
4,45202	10384
4,45647	11947
4,46090	11265
4,46535	10520
4,46980	10603
4,47423	11049
4,47868	10761
4,48312	10826
4,48757	11363
4,49200	10952
4,49645	11024
4,50088	10769
4,50533	11159
4,50977	11070
4,51422	11289
4,51865	11183
4,52310	10406
4,52753	11073
4,53198	11231
4,53642	11641
4,54087	12301
4,54530	13271
4,54975	16297
4,55418	21373
4,55863	28807
4,56307	42532
4,56752	61261
4,57195	84213
4,57640	110866
4,58083	150078
4,58528	194535
4,58972	235593
4,59417	291553
4,59862	342688
4,60305	390751
4,60750	434522
4,61193	470421
4,61638	499556
4,62082	526254
4,62527	538601
4,62970	557337
4,63415	553854
4,63858	542124
4,64303	526268
4,64747	509603
4,65192	486259
4,65635	452984
4,66080	412611
4,66523	376838
4,66968	339106
4,67412	305588
4,67857	273661
4,68300	237049
4,68745	207247
4,69188	178684
4,69633	155474
4,70077	137581
4,70522	119966
4,70965	101929
4,71410	87827
4,71855	77410
4,72298	67187
4,72743	60460
4,73187	53389
4,73632	49564
4,74075	44085
4,74520	40282
4,74963	38355
4,75408	34572
4,75852	31011
4,76297	29032
4,76740	27960
4,77185	26537
4,77628	24128
4,78073	22771
4,78517	22261
4,78962	21673
4,79405	20548
4,79850	20482
4,80293	18706
4,80738	18280
4,81182	18432
4,81627	17652
4,82070	16904
4,82515	17533
4,82958	16648
4,83403	15244
4,83848	15025
4,84292	14731
4,84737	15610
4,85180	15929
4,85625	14774
4,86068	14380
4,86513	14754
4,86957	13897
4,87402	13672
4,87845	13438
4,88290	14365
4,88733	14551
4,89178	13352
4,89622	12879
4,90067	14089
4,90510	12820
4,90955	12587
4,91398	12537
4,91843	13164
4,92287	13050
4,92732	12506
4,93175	11830
4,93620	11850
4,94063	12128
4,94508	12300
4,94952	11280
4,95397	11663
4,95842	12331
4,96285	12337
4,96730	12482
4,97173	12305
4,97618	11751
4,98062	12103
4,98507	11927
4,98950	10251
4,99395	11360
4,99838	12814
5,00283	11163
5,00727	12048
5,01172	12413
5,01615	11957
5,02060	10544
5,02503	12477
5,02948	11851
5,03392	11512
5,03837	12121
5,04280	11992
5,04725	10713
5,05168	11562
5,05613	12282
5,06057	10169
5,06502	11733
5,06945	11216
5,07390	12410
5,07835	11634
5,08278	11466
5,08723	11415
5,09167	11614
5,09612	11459
5,10055	11759
5,10500	10401
5,10943	11539
5,11388	11735
5,11832	11200
5,12277	10299
5,12720	11106
5,13165	10514
5,13608	10029
5,14053	11285
5,14497	10444
5,14942	11023
5,15385	10887
5,15830	10875
5,16273	11817
5,16718	10303
5,17162	11541
5,17607	11031
5,18050	10823
5,18495	11916
5,18938	11139
5,19383	11141
5,19828	10634
5,20272	10854
5,20717	10935
5,21160	11022
5,21605	10886
5,22048	11079
5,22493	10916
5,22937	11705
5,23382	11687
5,23825	11247
5,24270	11051
5,24713	10537
5,25158	10396
5,25602	11697
5,26047	11424
5,26490	11324
5,26935	11599
5,27378	10320
5,27823	11162
5,28267	11589
5,28712	10836
5,29155	10999
5,29600	11135
5,30043	11028
5,30488	10390
5,30932	10875
5,31377	10745
5,31820	11284
5,32265	11036
5,32710	10532
5,33153	10561
5,33598	11291
5,34042	11080
5,34487	10973
5,34930	11912
5,35375	10890
5,35818	11805
5,36263	12965
5,36707	17591
5,37152	23121
5,37595	29220
5,38040	43871
5,38483	64272
5,38928	87879
5,39372	127471
5,39817	169855
5,40260	224269
5,40705	287709
5,41148	350486
5,41593	425974
5,42037	484179
5,42482	541076
5,42925	588639
5,43370	620202
5,43813	634606
5,44258	633904
5,44703	621572
5,45147	589311
5,45592	564392
5,46035	521031
5,46480	485730
5,46923	437066
5,47368	385777
5,47812	340926
5,48257	299812
5,48700	255949
5,49145	223068
5,49588	185403
5,50033	157947
5,50477	133573
5,50922	115607
5,51365	98374
5,51810	86188
5,52253	75306
5,52698	66083
5,53142	56751
5,53587	52715
5,54030	46562
5,54475	42250
5,54918	37832
5,55363	32935
5,55807	30568
5,56252	30541
5,56697	26578
5,57140	25907
5,57585	25242
5,58028	23191
5,58473	21503
5,58917	20087
5,59362	21819
5,59805	19622
5,60250	17861
5,60693	18568
5,61138	17379
5,61582	16684
5,62027	18138
5,62470	15247
5,62915	15933
5,63358	17039
5,63803	17359
5,64247	16526
5,64692	15545
5,65135	18601
5,65580	17176
5,66023	18300
5,66468	19076
5,66912	19567
5,67357	20013
5,67800	18720
5,68245	19174
5,68690	20713
5,69133	19961
5,69578	20795
5,70022	19923
5,70467	19467
5,70910	18628
5,71355	17795
5,71798	18371
5,72243	16380
5,72687	15871
5,73132	15767
5,73575	17249
5,74020	14001
5,74463	14057
5,74908	14712
5,75352	13819
5,75797	14408
5,76240	13347
5,76685	14190
5,77128	12239
5,77573	11680
5,78017	11791
5,78462	12621
5,78905	12672
5,79350	12914
5,79793	11635
5,80238	11603
5,80683	12104
5,81127	11800
5,81572	12378
5,82015	11459
5,82460	10725
5,82903	11687
5,83348	11925
5,83792	10999
5,84237	11477
5,84680	10645
5,85125	12192
5,85568	12831
5,86013	13132
5,86457	16874
5,86902	21803
5,87345	32358
5,87790	46490
5,88233	76809
5,88678	118296
5,89122	174952
5,89567	253549
5,90010	357566
5,90455	480856
5,90898	623090
5,91343	762175
5,91787	903812
5,92232	1049911
5,92677	1172289
5,93120	1255398
5,93565	1337019
5,94008	1376050
5,94453	1404245
5,94897	1403665
5,95342	1344415
5,95785	1273055
5,96230	1186798
5,96673	1070390
5,97118	968995
5,97562	835986
5,98007	715782
5,98450	605405
5,98895	503277
5,99338	421671
5,99783	351388
6,00227	288519
6,00672	242364
6,01115	202148
6,01560	166883
6,02003	147374
6,02448	125338
6,02892	108789
6,03337	97145
6,03780	81817
6,04225	74202
6,04668	66672
6,05113	62853
6,05558	54798
6,06002	50116
6,06447	48612
6,06890	44235
6,07335	39956
6,07778	37481
6,08223	34324
6,08667	33849
6,09112	33066
6,09555	31041
6,10000	29728
6,10443	26549
6,10888	24642
6,11332	24057
6,11777	21777
6,12220	23287
6,12665	21667
6,13108	20874
6,13553	21484
6,13997	19514
6,14442	18200
6,14885	18560
6,15330	17224
6,15773	16542
6,16218	17471
6,16662	16895
6,17107	17037
6,17552	15822
6,17995	15752
6,18440	14167
6,18883	13387
6,19328	13430
6,19772	13079
6,20217	13770
6,20660	13571
6,21105	13211
6,21548	11572
6,21993	12229
6,22437	13201
6,22882	12783
6,23325	11727
6,23770	10527
6,24213	11295
6,24658	11590
6,25102	11481
6,25547	11504
6,25990	11009
6,26435	10115
6,26878	10259
6,27323	10241
6,27767	10247
6,28212	10333
6,28655	10196
6,29100	10734
6,29545	11202
6,29988	13348
6,30433	19265
6,30877	25025
6,31322	39820
6,31765	63308
6,32210	91903
6,32653	130887
6,33098	178180
6,33542	235265
6,33987	298390
6,34430	359026
6,34875	432160
6,35318	506109
6,35763	561587
6,36207	631186
6,36652	673844
6,37095	717092
6,37540	725802
6,37983	720801
6,38428	689763
6,38872	641920
6,39317	576633
6,39760	512631
6,40205	438567
6,40648	373330
6,41093	313282
6,41538	252871
6,41982	209567
6,42427	169560
6,42870	141810
6,43315	119999
6,43758	101644
6,44203	86410
6,44647	73455
6,45092	61809
6,45535	55409
6,45980	48652
6,46423	44815
6,46868	39157
6,47312	35558
6,47757	33281
6,48200	29619
6,48645	28816
6,49088	26421
6,49533	24789
6,49977	23702
6,50422	24231
6,50865	26905
6,51310	32034
6,51753	40427
6,52198	59054
6,52642	84303
6,53087	125586
6,53532	183977
6,53975	256330
6,54420	348406
6,54863	459285
6,55308	585045
6,55752	729446
6,56197	880205
6,56640	1029044
6,57085	1180061
6,57528	1305984
6,57973	1405603
6,58417	1488556
6,58862	1493479
6,59305	1448233
6,59750	1377750
6,60193	1242667
6,60638	1106273
6,61082	954806
6,61527	807473
6,61970	667246
6,62415	538686
6,62858	445743
6,63303	364411
6,63747	295257
6,64192	248897
6,64635	205630
6,65080	174015
6,65525	148390
6,65968	124451
6,66413	109121
6,66857	96810
6,67302	84444
6,67745	77115
6,68190	66537
6,68633	61697
6,69078	57892
6,69522	50932
6,69967	47325
6,70410	45051
6,70855	40959
6,71298	40149
6,71743	35817
6,72187	33133
6,72632	31524
6,73075	30694
6,73520	27026
6,73963	28184
6,74408	25584
6,74852	24970
6,75297	23432
6,75740	21571
6,76185	21861
6,76628	20223
6,77073	19383
6,77517	19376
6,77962	16880
6,78407	18677
6,78850	16824
6,79295	17252
6,79738	14822
6,80183	15198
6,80627	14976
6,81072	14786
6,81515	13877
6,81960	14040
6,82403	12535
6,82848	14860
6,83292	13260
6,83737	13887
6,84180	13847
6,84625	13423
6,85068	12385
6,85513	12788
6,85957	12348
6,86402	10439
6,86845	12160
6,87290	11936
6,87733	11313
6,88178	12236
6,88622	11554
6,89067	10231
6,89510	11703
6,89955	11015
6,90400	10322
6,90843	10704
6,91288	10747
6,91732	10448
6,92177	10005
6,92620	10076
6,93065	10186
6,93508	10236
6,93953	10060
6,94397	9560
6,94842	8529
6,95285	9078
6,95730	9937
6,96173	9677
6,96618	9196
6,97062	11093
6,97507	9563
6,97950	8687
6,98395	8724
6,98838	10089
6,99283	10447
6,99727	9725
7,00172	11404
7,00615	15581
7,01060	22333
7,01503	32773
7,01948	51744
7,02393	81145
7,02837	120157
7,03282	175344
7,03725	243863
7,04170	315804
7,04613	394316
7,05058	473401
7,05502	544569
7,05947	606870
7,06390	647842
7,06835	679912
7,07278	688905
7,07723	686328
7,08167	654913
7,08612	610889
7,09055	563415
7,09500	499470
7,09943	429437
7,10388	361352
7,10832	295452
7,11277	245438
7,11720	202900
7,12165	165706
7,12608	137714
7,13053	111740
7,13497	94547
7,13942	81721
7,14387	70060
7,14830	60917
7,15275	54464
7,15718	47702
7,16163	42267
7,16607	37958
7,17052	34283
7,17495	33629
7,17940	30566
7,18383	25636
7,18828	24864
7,19272	23286
7,19717	22283
7,20160	21761
7,20605	19532
7,21048	19166
7,21493	18061
7,21937	17415
7,22382	16694
7,22825	15412
7,23270	16049
7,23713	14832
7,24158	13954
7,24602	14892
7,25047	13272
7,25490	12395
7,25935	13079
7,26380	13179
7,26823	12596
7,27268	13788
7,27712	13135
7,28157	11873
7,28600	12966
7,29045	11751
7,29488	13018
7,29933	12838
7,30377	12370
7,30822	12738
7,31265	12031
7,31710	12648
7,32153	11963
7,32598	11824
7,33042	11765
7,33487	12245
7,33930	11679
7,34375	10523
7,34818	10570
7,35263	9340
7,35707	10955
7,36152	10282
7,36595	10220
7,37040	11693
7,37483	11476
7,37928	11248
7,38373	10628
7,38817	12236
7,39262	11443
7,39705	9826
7,40150	10729
7,40593	12425
7,41038	12432
7,41482	10713
7,41927	10584
7,42370	12200
7,42815	8521
7,43258	10130
7,43703	10549
7,44147	9991
7,44592	10096
7,45035	9791
7,45480	11686
7,45923	12233
7,46368	16530
7,46812	22445
7,47257	32050
7,47700	52639
7,48145	77408
7,48588	115823
7,49033	162829
7,49477	227334
7,49922	305089
7,50365	386001
7,50810	471178
7,51255	564631
7,51698	652445
7,52143	710624
7,52587	745148
7,53032	743205
7,53475	720044
7,53920	664920
7,54363	600092
7,54808	513136
7,55252	429030
7,55697	356723
7,56140	290373
7,56585	238590
7,57028	190948
7,57473	153292
7,57917	124320
7,58362	104251
7,58805	87835
7,59250	73991
7,59693	61780
7,60138	54634
7,60582	48103
7,61027	41477
7,61470	40884
7,61915	34375
7,62358	31917
7,62803	29076
7,63248	28132
7,63692	24589
7,64137	23387
7,64580	21562
7,65025	20824
7,65468	20652
7,65913	18951
7,66357	19654
7,66802	18298
7,67245	16018
7,67690	15637
7,68133	15592
7,68578	16438
7,69022	14990
7,69467	14261
7,69910	15119
7,70355	15007
7,70798	14825
7,71243	14413
7,71687	12660
7,72132	15313
7,72575	13799
7,73020	14430
7,73463	14365
7,73908	12497
7,74352	13445
7,74797	12898
7,75242	12206
7,75685	13228
7,76130	11454
7,76573	11018
7,77018	11757
7,77462	10779
7,77907	10689
7,78350	11406
7,78795	11010
7,79238	10893
7,79683	10686
7,80127	9470
7,80572	10158
7,81015	10140
7,81460	10050
7,81903	9793
7,82348	10667
7,82792	9093
7,83237	10079
7,83680	10667
7,84125	9292
7,84568	9935
7,85013	10232
7,85457	8888
7,85902	9962
7,86345	9979
7,86790	9159
7,87235	8916
7,87678	9326
7,88123	8259
7,88567	10682
7,89012	9311
7,89455	10327
7,89900	10971
7,90343	9622
7,90788	10199
7,91232	8979
7,91677	10182
7,92120	8781
7,92565	9063
7,93008	9495
7,93453	9868
7,93897	9980
7,94342	9294
7,94785	9569
7,95230	9543
7,95673	8483
7,96118	9267
7,96562	8052
7,97007	9035
7,97450	9624
7,97895	9704
7,98338	9846
7,98783	9889
7,99228	9277
7,99672	9326
8,00117	8832
8,00560	9385
8,01005	8733
8,01448	10023
8,01893	8436
8,02337	9657
8,02782	9672
8,03225	8707
8,03670	8521
8,04113	8702
8,04558	9184
8,05002	8521
8,05447	7288
8,05890	8276
8,06335	8238
8,06778	8646
8,07223	9683
8,07667	8110
8,08112	9487
8,08555	8289
8,09000	11006
8,09443	12890
8,09888	17914
8,10332	25941
8,10777	39233
8,11222	57871
8,11665	93259
8,12110	138192
8,12553	197839
8,12998	275442
8,13442	366085
8,13887	462684
8,14330	573093
8,14775	656393
8,15218	712315
8,15663	743251
8,16107	734078
8,16552	714367
8,16995	651167
8,17440	588737
8,17883	529599
8,18328	496943
8,18772	487898
8,19217	534598
8,19660	628687
8,20105	752521
8,20548	915918
8,20993	1120811
8,21437	1341574
8,21882	1550563
8,22325	1763748
8,22770	1909699
8,23213	1985144
8,23658	1995556
8,24103	1881968
8,24547	1692503
8,24992	1454954
8,25435	1184507
8,25880	962013
8,26323	754292
8,26768	602486
8,27212	467860
8,27657	375130
8,28100	305119
8,28545	246261
8,28988	207253
8,29433	172755
8,29877	149880
8,30322	128501
8,30765	111593
8,31210	103099
8,31653	88939
8,32098	81099
8,32542	73432
8,32987	67462
8,33430	62607
8,33875	56877
8,34318	52213
8,34763	50553
8,35207	47036
8,35652	44884
8,36097	41357
8,36540	37904
8,36985	36753
8,37428	34760
8,37873	33243
8,38317	32609
8,38762	31665
8,39205	29702
8,39650	29408
8,40093	26771
8,40538	25902
8,40982	24843
8,41427	24908
8,41870	23978
8,42315	22511
8,42758	22255
8,43203	20785
8,43647	21551
8,44092	21447
8,44535	19831
8,44980	19044
8,45423	19144
8,45868	18277
8,46312	18900
8,46757	19263
8,47200	19554
8,47645	17036
8,48090	18420
8,48533	20920
8,48978	24158
8,49422	28255
8,49867	42368
8,50310	59398
8,50755	89255
8,51198	138873
8,51643	196028
8,52087	271277
8,52532	359350
8,52975	448105
8,53420	533959
8,53863	617211
8,54308	684469
8,54752	711003
8,55197	718400
8,55640	685924
8,56085	633782
8,56528	551475
8,56973	459837
8,57417	384134
8,57862	306927
8,58305	243664
8,58750	194052
8,59193	154540
8,59638	125679
8,60083	102835
8,60527	85822
8,60972	72134
8,61415	62320
8,61860	55088
8,62303	49595
8,62748	44569
8,63192	42243
8,63637	35892
8,64080	35319
8,64525	33345
8,64968	29398
8,65413	28274
8,65857	24705
8,66302	24987
8,66745	23479
8,67190	24175
8,67633	22580
8,68078	22891
8,68522	22894
8,68967	21619
8,69410	22771
8,69855	27247
8,70298	35070
8,70743	50854
8,71187	78880
8,71632	128340
8,72077	189492
8,72520	284685
8,72965	398849
8,73408	525571
8,73853	655800
8,74297	765829
8,74742	843049
8,75185	910490
8,75630	911197
8,76073	885795
8,76518	826825
8,76962	735221
8,77407	627345
8,77850	515989
8,78295	413590
8,78738	336889
8,79183	265670
8,79627	212378
8,80072	173282
8,80515	141213
8,80960	116859
8,81403	98137
8,81848	85268
8,82292	72200
8,82737	66491
8,83180	57307
8,83625	53513
8,84070	47000
8,84513	45387
8,84958	41382
8,85402	39505
8,85847	36159
8,86290	33183
8,86735	33334
8,87178	29044
8,87623	27183
8,88067	26840
8,88512	25216
8,88955	23041
8,89400	24014
8,89843	23515
8,90288	21942
8,90732	20481
8,91177	20039
8,91620	18374
8,92065	19329
8,92508	18608
8,92953	17560
8,93397	17884
8,93842	18607
8,94285	17084
8,94730	16204
8,95173	17250
8,95618	16085
8,96062	15707
8,96507	15980
8,96952	16790
8,97395	15379
8,97840	15635
8,98283	16485
8,98728	15272
8,99172	15789
8,99617	14333
9,00060	14553
9,00505	15867
9,00948	13535
9,01393	13874
9,01837	13526
9,02282	14295
9,02725	14932
9,03170	14182
9,03613	14022
9,04058	12874
9,04502	13592
9,04947	12304
9,05390	13435
9,05835	12617
9,06278	12955
9,06723	12886
9,07167	12650
9,07612	12785
9,08055	13599
9,08500	12081
9,08945	12845
9,09388	12448
9,09833	12685
9,10277	12420
9,10722	12622
9,11165	12682
9,11610	13078
9,12053	13166
9,12498	12774
9,12942	11924
9,13387	13801
9,13830	12132
9,14275	12539
9,14718	12858
9,15163	13289
9,15607	15387
9,16052	18389
9,16495	26179
9,16940	42893
9,17383	69299
9,17828	122118
9,18272	190226
9,18717	284676
9,19160	405260
9,19605	550857
9,20048	716288
9,20493	864872
9,20938	994264
9,21382	1052610
9,21827	1051508
9,22270	1015341
9,22715	914563
9,23158	791404
9,23603	646807
9,24047	516488
9,24492	407746
9,24935	321847
9,25380	249329
9,25823	197289
9,26268	161978
9,26712	131249
9,27157	114027
9,27600	95230
9,28045	85215
9,28488	75234
9,28933	67419
9,29377	62729
9,29822	57701
9,30265	53563
9,30710	50221
9,31153	46305
9,31598	41733
9,32042	38025
9,32487	35235
9,32932	33851
9,33375	31994
9,33820	32075
9,34263	30339
9,34708	28848
9,35152	31199
9,35597	28791
9,36040	26643
9,36485	27284
9,36928	26725
9,37373	22646
9,37817	25016
9,38262	23096
9,38705	22524
9,39150	21409
9,39593	19516
9,40038	21180
9,40482	18173
9,40927	18682
9,41370	18560
9,41815	18117
9,42258	16968
9,42703	17363
9,43147	17485
9,43592	16865
9,44035	18098
9,44480	16656
9,44925	17056
9,45368	16401
9,45813	16737
9,46257	15744
9,46702	17534
9,47145	15979
9,47590	16148
9,48033	16228
9,48478	16652
9,48922	18879
9,49367	21114
9,49810	28274
9,50255	44104
9,50698	66490
9,51143	104840
9,51587	164114
9,52032	246838
9,52475	354522
9,52920	481878
9,53363	613822
9,53808	735262
9,54252	842524
9,54697	889954
9,55140	879099
9,55585	828528
9,56028	755272
9,56473	641466
9,56918	517433
9,57362	414357
9,57807	323576
9,58250	255482
9,58695	197160
9,59138	157306
9,59583	127529
9,60027	105454
9,60472	88978
9,60915	78172
9,61360	66491
9,61803	58473
9,62248	54917
9,62692	50563
9,63137	43092
9,63580	42296
9,64025	37242
9,64468	37400
9,64913	32138
9,65357	30796
9,65802	31192
9,66245	28944
9,66690	27405
9,67133	25759
9,67578	26594
9,68022	25338
9,68467	23949
9,68910	24997
9,69355	22357
9,69800	23288
9,70243	21985
9,70688	20914
9,71132	20614
9,71577	19876
9,72020	20403
9,72465	17250
9,72908	19346
9,73353	18430
9,73797	18329
9,74242	18261
9,74685	17310
9,75130	16489
9,75573	16814
9,76018	17158
9,76462	19398
9,76907	17595
9,77350	15697
9,77795	16819
9,78238	15895
9,78683	16827
9,79127	16558
9,79572	16485
9,80015	14997
9,80460	16490
9,80903	17512
9,81348	16639
9,81793	15568
9,82237	15254
9,82682	17105
9,83125	16627
9,83570	14849
9,84013	14680
9,84458	14888
9,84902	14571
9,85347	15268
9,85790	14882
9,86235	16621
9,86678	15087
9,87123	15472
9,87567	16853
9,88012	15638
9,88455	14931
9,88900	14576
9,89343	16296
9,89788	17100
9,90232	17340
9,90677	16589
9,91120	16700
9,91565	15685
9,92008	15950
9,92453	15755
9,92897	14417
9,93342	14487
9,93787	15801
9,94230	15916
9,94675	15304
9,95118	15585
9,95563	15319
9,96007	15833
9,96452	15578
9,96895	16555
9,97340	15394
9,97783	15465
9,98228	17347
9,98672	16258
9,99117	16304
9,99560	17517
10,00005	18829
10,00448	19243
10,00893	20313
10,01337	18544
10,01782	19190
10,02225	25065
10,02670	29140
10,03113	42061
10,03558	63329
10,04002	97275
10,04447	152228
10,04890	229233
10,05335	327396
10,05780	448381
10,06223	578073
10,06668	708470
10,07112	831050
10,07557	922970
10,08000	982725
10,08445	1011035
10,08888	1039207
10,09333	1048999
10,09777	1102766
10,10222	1170870
10,10665	1306671
10,11110	1436035
10,11553	1569358
10,11998	1768687
10,12442	1944555
10,12887	2078219
10,13330	2136328
10,13775	2099727
10,14218	1911174
10,14663	1613055
10,15107	1287004
10,15552	965909
10,15995	732233
10,16440	548735
10,16883	425015
10,17328	346810
10,17773	284765
10,18217	235995
10,18662	198045
10,19105	179592
10,19550	153410
10,19993	140419
10,20438	123659
10,20882	116445
10,21327	101417
10,21770	95460
10,22215	87950
10,22658	83024
10,23103	76343
10,23547	70581
10,23992	67284
10,24435	64063
10,24880	61479
10,25323	58750
10,25768	54811
10,26212	54673
10,26657	48410
10,27100	48527
10,27545	44987
10,27988	45363
10,28433	44148
10,28877	43233
10,29322	41428
10,29767	39663
10,30210	39584
10,30655	38914
10,31098	37218
10,31543	36614
10,31987	35387
10,32432	35282
10,32875	33056
10,33320	32154
10,33763	32864
10,34208	32043
10,34652	32464
10,35097	37209
10,35540	42886
10,35985	54337
10,36428	77676
10,36873	116365
10,37317	176658
10,37762	265723
10,38205	385721
10,38650	520292
10,39093	668599
10,39538	788972
10,39982	860720
10,40427	901027
10,40870	870247
10,41315	808560
10,41758	722544
10,42203	652481
10,42648	608422
10,43092	599841
10,43537	639224
10,43980	706506
10,44425	780914
10,44868	849386
10,45313	893688
10,45757	875895
10,46202	822735
10,46645	731692
10,47090	630537
10,47533	521966
10,47978	423213
10,48422	337500
10,48867	263314
10,49310	209074
10,49755	170400
10,50198	144208
10,50643	125691
10,51087	116468
10,51532	113302
10,51975	120273
10,52420	139340
10,52863	179293
10,53308	232183
10,53752	321464
10,54197	432994
10,54642	566545
10,55085	716782
10,55530	858805
10,55973	988776
10,56418	1054977
10,56862	1068480
10,57307	990655
10,57750	877032
10,58195	729208
10,58638	580076
10,59083	462656
10,59527	365876
10,59972	280807
10,60415	230585
10,60860	186694
10,61303	156111
10,61748	135866
10,62192	118991
10,62637	107581
10,63080	97021
10,63525	85974
10,63968	80371
10,64413	74395
10,64857	68200
10,65302	67494
10,65745	63975
10,66190	58549
10,66635	54360
10,67078	52905
10,67523	51201
10,67967	49160
10,68412	45626
10,68855	43749
10,69300	40259
10,69743	40456
10,70188	41146
10,70632	38378
10,71077	36855
10,71520	36657
10,71965	33826
10,72408	34787
10,72853	35044
10,73297	33787
10,73742	33548
10,74185	32062
10,74630	33153
10,75073	33029
10,75518	33083
10,75962	31797
10,76407	31199
10,76850	30599
10,77295	30033
10,77738	27773
10,78183	29737
10,78628	28492
10,79072	28099
10,79517	26760
10,79960	27891
10,80405	27837
10,80848	27357
10,81293	27650
10,81737	28001
10,82182	25856
10,82625	26716
10,83070	25092
10,83513	23673
10,83958	24462
10,84402	25182
10,84847	23393
10,85290	25031
10,85735	23063
10,86178	24814
10,86623	24572
10,87067	22636
10,87512	24214
10,87955	24646
10,88400	27417
10,88843	31095
10,89288	37068
10,89732	52316
10,90177	78350
10,90622	122844
10,91065	188746
10,91510	285277
10,91953	427626
10,92398	589521
10,92842	770540
10,93287	952752
10,93730	1111707
10,94175	1182792
10,94618	1155681
10,95063	1061272
10,95507	895375
10,95952	721649
10,96395	554872
10,96840	431485
10,97283	340433
10,97728	266690
10,98172	220932
10,98617	180707
10,99060	157006
10,99505	135210
10,99948	121697
11,00393	108242
11,00837	98735
11,01282	91812
11,01725	85763
11,02170	78809
11,02615	72638
11,03058	69049
11,03503	65012
11,03947	60834
11,04392	60233
11,04835	58110
11,05280	55221
11,05723	52855
11,06168	50560
11,06612	48312
11,07057	47403
11,07500	50492
11,07945	47053
11,08388	46091
11,08833	43334
11,09277	43584
11,09722	43067
11,10165	37964
11,10610	37972
11,11053	35168
11,11498	39572
11,11942	36581
11,12387	36111
11,12830	35114
11,13275	33447
11,13718	32462
11,14163	30897
11,14607	32570
11,15052	33530
11,15497	30264
11,15940	30785
11,16385	30839
11,16828	29287
11,17273	31074
11,17717	30984
11,18162	34440
11,18605	41330
11,19050	57830
11,19493	85463
11,19938	130738
11,20382	195869
11,20827	294586
11,21270	418612
11,21715	566622
11,22158	718793
11,22603	862817
11,23047	943083
11,23492	972080
11,23935	931799
11,24380	861096
11,24823	754660
11,25268	677008
11,25712	627342
11,26157	632365
11,26600	676789
11,27045	750212
11,27490	810712
11,27933	854241
11,28378	866682
11,28822	842399
11,29267	759392
11,29710	662049
11,30155	551632
11,30598	444966
11,31043	357155
11,31487	285603
11,31932	230017
11,32375	185690
11,32820	154316
11,33263	132367
11,33708	114888
11,34152	101785
11,34597	92815
11,35040	82341
11,35485	75425
11,35928	70330
11,36373	66096
11,36817	62359
11,37262	59831
11,37705	57097
11,38150	52345
11,38593	50882
11,39038	47812
11,39483	46448
11,39927	46699
11,40372	43678
11,40815	42694
11,41260	41975
11,41703	40101
11,42148	40020
11,42592	38472
11,43037	36767
11,43480	36175
11,43925	35830
11,44368	35945
11,44813	36602
11,45257	33478
11,45702	36251
11,46145	35450
11,46590	33146
11,47033	34038
11,47478	32654
11,47922	33561
11,48367	31198
11,48810	29781
11,49255	31362
11,49698	31775
11,50143	28419
11,50587	30509
11,51032	30509
11,51477	30796
11,51920	30238
11,52365	29659
11,52808	27807
11,53253	30163
11,53697	29638
11,54142	28038
11,54585	26841
11,55030	27582
11,55473	28665
11,55918	26013
11,56362	28482
11,56807	28012
11,57250	27603
11,57695	27192
11,58138	29297
11,58583	28691
11,59027	26741
11,59472	27492
11,59915	27221
11,60360	26222
11,60803	26918
11,61248	25842
11,61692	26769
11,62137	27550
11,62580	26438
11,63025	27119
11,63470	25771
11,63913	24658
11,64358	25924
11,64802	26597
11,65247	26727
11,65690	28431
11,66135	30096
11,66578	37707
11,67023	47387
11,67467	63507
11,67912	95194
11,68355	144943
11,68800	216517
11,69243	321346
11,69688	455957
11,70132	615289
11,70577	797579
11,71020	1010472
11,71465	1250613
11,71908	1514479
11,72353	1750373
11,72797	1956736
11,73242	2071956
11,73685	2063106
11,74130	1892294
11,74573	1620635
11,75018	1298439
11,75463	1006091
11,75907	771639
11,76352	604481
11,76795	475821
11,77240	382934
11,77683	322171
11,78128	275699
11,78572	238179
11,79017	208646
11,79460	186615
11,79905	167997
11,80348	152455
11,80793	138371
11,81237	128368
11,81682	120688
11,82125	109528
11,82570	102263
11,83013	97208
11,83458	90825
11,83902	90327
11,84347	83715
11,84790	78754
11,85235	79666
11,85678	75620
11,86123	70494
11,86567	69852
11,87012	67224
11,87455	66328
11,87900	61622
11,88345	57142
11,88788	57227
11,89233	56125
11,89677	53632
11,90122	55112
11,90565	52252
11,91010	51443
11,91453	50829
11,91898	49897
11,92342	47648
11,92787	48428
11,93230	45814
11,93675	47203
11,94118	46577
11,94563	48668
11,95007	43784
11,95452	45273
11,95895	45198
11,96340	42633
11,96783	42390
11,97228	41706
11,97672	40007
11,98117	42957
11,98560	39562
11,99005	39485
11,99448	38609
11,99893	36923
12,00338	38601
12,00782	38102
12,01227	35338
12,01670	36488
12,02115	36629
12,02558	34900
12,03003	34848
12,03447	34389
12,03892	34923
12,04335	32951
12,04780	35014
12,05223	35024
12,05668	32739
12,06112	32586
12,06557	35474
12,07000	34194
12,07445	37972
12,07888	44700
12,08333	55457
12,08777	75030
12,09222	113491
12,09665	163692
12,10110	242444
12,10553	340326
12,10998	460557
12,11442	601957
12,11887	745205
12,12332	864822
12,12775	948620
12,13220	964873
12,13663	939067
12,14108	865193
12,14552	761998
12,14997	641789
12,15440	530748
12,15885	431876
12,16328	360028
12,16773	293525
12,17217	249375
12,17662	211277
12,18105	181304
12,18550	155729
12,18993	139737
12,19438	131613
12,19882	115653
12,20327	102198
12,20770	99405
12,21215	93230
12,21658	84526
12,22103	78722
12,22547	76035
12,22992	72567
12,23435	68598
12,23880	66658
12,24325	62081
12,24768	59463
12,25213	54552
12,25657	54400
12,26102	55347
12,26545	53277
12,26990	50243
12,27433	49063
12,27878	48519
12,28322	44720
12,28767	48097
12,29210	44759
12,29655	45026
12,30098	43483
12,30543	40851
12,30987	43203
12,31432	41092
12,31875	40680
12,32320	40013
12,32763	38279
12,33208	37567
12,33652	39116
12,34097	37838
12,34540	36325
12,34985	36508
12,35428	34795
12,35873	36010
12,36318	36469
12,36762	36062
12,37207	36196
12,37650	34306
12,38095	36489
12,38538	34063
12,38983	33534
12,39427	36438
12,39872	37021
12,40315	35898
12,40760	37585
12,41203	35560
12,41648	35983
12,42092	35421
12,42537	35515
12,42980	35981
12,43425	35072
12,43868	35454
12,44313	35213
12,44757	35572
12,45202	35313
12,45645	35084
12,46090	33002
12,46533	33154
12,46978	31682
12,47422	32805
12,47867	33880
12,48310	33037
12,48755	31220
12,49200	29082
12,49643	30250
12,50088	31240
12,50532	31838
12,50977	29541
12,51420	28944
12,51865	27449
12,52308	31196
12,52753	30342
12,53197	29547
12,53642	30194
12,54085	27855
12,54530	28158
12,54973	30369
12,55418	30738
12,55862	30769
12,56307	32082
12,56750	29421
12,57195	29922
12,57638	30272
12,58083	30350
12,58527	29027
12,58972	30221
12,59415	27409
12,59860	28777
12,60303	28318
12,60748	28968
12,61193	27746
12,61637	28149
12,62082	28421
12,62525	29353
12,62970	27885
12,63413	29256
12,63858	28627
12,64302	28894
12,64747	30515
12,65190	29464
12,65635	29669
12,66078	28949
12,66523	28683
12,66967	30365
12,67412	30814
12,67855	32099
12,68300	32915
12,68743	32505
12,69188	30988
12,69632	31534
12,70077	30833
12,70520	30641
12,70965	30839
12,71408	31534
12,71853	29705
12,72297	29102
12,72742	28864
12,73187	28385
12,73630	27951
12,74075	27369
12,74518	27582
12,74963	27479
12,75407	27495
12,75852	26712
12,76295	26895
12,76740	26438
12,77183	28574
12,77628	27700
12,78072	25560
12,78517	28748
12,78960	28879
12,79405	30463
12,79848	27136
12,80293	27722
12,80737	30355
12,81182	27719
12,81625	27491
12,82070	28545
12,82513	28747
12,82958	27896
12,83402	29310
12,83847	27723
12,84290	26895
12,84735	27991
12,85180	28811
12,85623	27122
12,86068	28271
12,86512	29494
12,86957	26803
12,87400	27615
12,87845	29052
12,88288	28162
12,88733	28048
12,89177	27999
12,89622	27649
12,90065	27896
12,90510	30251
12,90953	28095
12,91398	28567
12,91842	27133
12,92287	27286
12,92730	30080
12,93175	26543
12,93618	24513
12,94063	27267
12,94507	27662
12,94952	28485
12,95395	27671
12,95840	27609
12,96283	25468
12,96728	27829
12,97173	27492
12,97617	26486
12,98062	28050
12,98505	28614
12,98950	28636
12,99393	24672
12,99838	26008
13,00282	27765
13,00727	27471
13,01170	25715
13,01615	29130
13,02058	25418
13,02503	27238
13,02947	25498
13,03392	26655
13,03835	25699
13,04280	26576
13,04723	25281
13,05168	25613
13,05612	26376
13,06057	27629
13,06500	25472
13,06945	27978
13,07388	26168
13,07833	26078
13,08277	25134
13,08722	26484
13,09167	24779
13,09610	25731
13,10055	28212
13,10498	27622
13,10943	27719
13,11387	26532
13,11832	27033
13,12275	25690
13,12720	27033
13,13163	27957
13,13608	28018
13,14052	26825
13,14497	25929
13,14940	26799
13,15385	27620
13,15828	28139
13,16273	26772
13,16717	27700
13,17162	25620
13,17605	27252
13,18050	27205
13,18493	28641
13,18938	27467
13,19382	27055
13,19827	28222
13,20270	27127
13,20715	26663
13,21158	27567
13,21603	26552
13,22048	27732
13,22492	27751
13,22937	28143
13,23380	28027
13,23825	27788
13,24268	26929
13,24713	32107
13,25157	31977
13,25602	38605
13,26045	44874
13,26490	59612
13,26933	82685
13,27378	117463
13,27822	162864
13,28267	225889
13,28710	298340
13,29155	376500
13,29598	449795
13,30043	512962
13,30487	548193
13,30932	566964
13,31375	555767
13,31820	517055
13,32263	474269
13,32708	419778
13,33152	358439
13,33597	309199
13,34042	264004
13,34485	220950
13,34930	183455
13,35373	158928
13,35818	136183
13,36262	119997
13,36707	107746
13,37150	98091
13,37595	85792
13,38038	79881
13,38483	73413
13,38927	67269
13,39372	66430
13,39815	60954
13,40260	58026
13,40703	56915
13,41148	54039
13,41592	51548
13,42037	52823
13,42480	47963
13,42925	46415
13,43368	44700
13,43813	43762
13,44257	42852
13,44702	42733
13,45145	43155
13,45590	41523
13,46035	39867
13,46478	39287
13,46923	37220
13,47367	40166
13,47812	38980
13,48255	37651
13,48700	36002
13,49143	37210
13,49588	35130
13,50032	35318
13,50477	36645
13,50920	33165
13,51365	33772
13,51808	33594
13,52253	34094
13,52697	35393
13,53142	32745
13,53585	33204
13,54030	32014
13,54473	30123
13,54918	32616
13,55362	30864
13,55807	31639
13,56250	31726
13,56695	30555
13,57138	31606
13,57583	33081
13,58028	30796
13,58472	30977
13,58917	31472
13,59360	32278
13,59805	29172
13,60248	31644
13,60693	31532
13,61137	30621
13,61582	30734
13,62025	31181
13,62470	30341
13,62913	29867
13,63358	30038
13,63802	30994
13,64247	29867
13,64690	31863
13,65135	28990
13,65578	29107
13,66023	29280
13,66467	30534
13,66912	32773
13,67355	31333
13,67800	31554
13,68243	33350
13,68688	31664
13,69132	31073
13,69577	30795
13,70022	32463
13,70465	31709
13,70910	31407
13,71353	31289
13,71798	30757
13,72242	30278
