D:\MassHunter\GCMS\1\data\Amal\Constant flow\120C\120C_1ml-min_10C-min_2.D Tue Sep 03 12:22:47 2024
Start of data points
5,19103,228466
5,19517,227505
5,19928,228933
5,20340,227729
5,20753,222430
5,21165,221959
5,21577,227901
5,21990,220969
5,22402,221355
5,22813,217170
5,23227,217396
5,23638,220089
5,24050,231199
5,24463,260323
5,24875,333303
5,25287,446903
5,25700,600163
5,26112,782207
5,26523,950957
5,26937,1073392
5,27348,1124180
5,27760,1140664
5,28172,1119863
5,28585,1081233
5,28997,1026808
5,29408,990358
5,29822,929129
5,30233,883376
5,30645,842048
5,31058,791553
5,31470,762745
5,31882,720233
5,32295,687567
5,32707,645510
5,33118,624032
5,33532,588350
5,33943,559802
5,34355,538641
5,34768,505187
5,35180,479769
5,35592,455702
5,36005,435175
5,36417,420412
5,36828,394163
5,37240,384739
5,37653,362452
5,38065,346389
5,38477,331981
5,38890,313877
5,39302,301766
5,39713,289432
5,40127,275960
5,40538,255990
5,40950,250273
5,41363,234474
5,41775,224186
5,42187,212791
5,42600,200377
5,43012,189652
5,43423,181856
5,43837,170085
5,44248,161701
5,44660,154965
5,45073,146878
5,45485,140461
5,45897,137262
5,46310,128370
5,46722,123883
5,47133,121623
5,47545,116619
5,47958,112837
5,48370,109367
5,48782,106012
5,49195,99368
5,49607,101350
5,50018,98385
5,50432,92700
5,50843,91899
5,51255,90453
5,51668,89973
5,52080,84336
5,52492,83024
5,52905,86514
5,53317,83406
5,53728,82778
5,54142,78982
5,54553,76924
5,54965,78663
5,55378,77354
5,55790,76946
5,56202,73995
5,56613,76301
5,57027,74398
5,57438,75452
5,57850,73247
5,58263,73942
5,58675,75627
5,59087,73340
5,59500,73101
5,59912,70010
5,60323,69223
5,60737,71011
5,61148,70563
5,61560,69731
5,61973,70875
5,62385,71142
5,62797,70456
5,63210,73130
5,63622,69788
5,64033,69218
5,64447,70161
5,64858,68466
5,65270,69548
5,65682,68959
5,66095,70049
5,66507,66783
5,66918,68309
5,67332,66474
5,67743,64979
5,68155,66879
5,68568,66847
5,68980,65462
5,69392,66079
5,69805,63506
5,70217,65479
5,70628,61837
5,71042,62460
5,71453,61867
5,71865,61573
5,72278,65091
5,72690,60723
5,73102,59277
5,73515,59094
5,73927,58644
5,74338,58498
5,74750,62572
5,75163,59693
5,75575,57962
5,75987,58273
5,76400,59000
5,76812,59296
5,77223,57631
5,77637,56408
5,78048,57769
5,78460,56294
5,78873,56495
5,79285,55654
5,79697,55213
5,80110,57938
5,80522,57092
5,80933,54651
5,81347,55309
5,81758,55128
5,82170,56176
5,82583,57491
5,82995,55052
5,83407,56925
5,83818,54910
5,84232,55696
5,84643,55561
5,85055,56168
5,85468,56407
5,85880,58685
5,86292,59785
5,86705,53446
5,87117,56162
5,87528,56409
5,87942,54926
5,88353,53483
5,88765,55262
5,89178,52349
5,89590,53051
5,90002,52950
5,90415,53683
5,90827,51607
5,91238,50778
5,91652,52716
5,92063,51331
5,92475,50314
5,92887,49674
5,93300,50886
5,93712,49560
5,94123,50375
5,94537,49630
5,94948,49075
5,95360,49479
5,95773,50529
5,96185,49405
5,96597,46536
5,97010,51097
5,97422,47315
5,97833,46647
5,98247,48236
5,98658,48411
5,99070,49111
5,99483,47979
5,99895,49511
6,00307,48224
6,00720,46181
6,01132,45405
6,01543,45538
6,01955,45243
6,02368,47332
6,02780,47639
6,03192,47147
6,03605,45384
6,04017,47217
6,04428,48245
6,04842,45991
6,05253,47715
6,05665,47611
6,06078,48137
6,06490,50569
6,06902,59740
6,07315,88678
6,07727,139538
6,08138,244525
6,08552,405547
6,08963,618842
6,09375,866613
6,09788,1096326
6,10200,1274831
6,10612,1383214
6,11023,1419890
6,11437,1408811
6,11848,1345878
6,12260,1280968
6,12673,1216371
6,13085,1137176
6,13497,1070616
6,13910,985194
6,14322,922880
6,14733,857244
6,15147,796849
6,15558,732284
6,15970,679381
6,16383,626972
6,16795,571289
6,17207,531969
6,17620,491161
6,18032,457315
6,18443,418174
6,18857,384939
6,19268,359094
6,19680,327949
6,20092,298358
6,20505,273196
6,20917,246341
6,21328,223042
6,21742,200183
6,22153,181641
6,22565,164784
6,22978,147830
6,23390,135030
6,23802,121740
6,24215,109677
6,24627,101270
6,25038,90718
6,25452,88167
6,25863,80929
6,26275,72620
6,26688,70106
6,27100,67835
6,27512,63277
6,27925,59827
6,28337,58649
6,28748,56302
6,29160,53889
6,29573,52296
6,29985,51295
6,30397,48628
6,30810,47675
6,31222,47153
6,31633,48366
6,32047,45070
6,32458,43175
6,32870,44529
6,33283,43175
6,33695,42521
6,34107,43292
6,34520,43116
6,34932,44522
6,35343,40101
6,35757,41618
6,36168,41529
6,36580,40115
6,36993,39604
6,37405,38226
6,37817,38832
6,38228,40004
6,38642,36272
6,39053,38104
6,39465,38702
6,39878,37484
6,40290,37430
6,40702,37722
6,41115,35460
6,41527,35500
6,41938,35351
6,42352,35220
6,42763,35890
6,43175,36358
6,43588,36155
6,44000,35326
6,44412,36229
6,44825,35987
6,45237,34918
6,45648,35055
6,46062,34288
6,46473,35989
6,46885,35722
6,47297,35200
6,47710,34907
6,48122,35759
6,48533,34536
6,48947,35214
6,49358,34849
6,49770,34488
6,50183,35023
6,50595,36562
6,51007,33515
6,51420,35448
6,51832,32399
6,52243,34447
6,52657,32744
6,53068,32631
6,53480,32788
6,53893,32913
6,54305,30580
6,54717,32585
6,55130,32675
6,55542,30908
6,55953,31089
6,56365,31139
6,56778,32892
6,57190,30684
6,57602,31558
6,58015,32195
6,58427,31543
6,58838,31843
6,59252,32002
6,59663,36123
6,60075,46699
6,60488,63861
6,60900,100717
6,61312,167294
6,61725,258876
6,62137,382886
6,62548,522838
6,62962,659031
6,63373,756558
6,63785,830247
6,64198,842013
6,64610,832799
6,65022,802440
6,65433,742392
6,65847,696013
6,66258,638379
6,66670,588038
6,67083,536176
6,67495,494730
6,67907,446315
6,68320,410189
6,68732,370726
6,69143,340225
6,69557,303888
6,69968,273262
6,70380,248001
6,70793,222226
6,71205,198353
6,71617,178378
6,72030,158110
6,72442,140854
6,72853,123624
6,73267,108121
6,73678,96628
6,74090,88455
6,74502,79773
6,74915,72311
6,75327,64925
6,75738,60325
6,76152,55996
6,76563,51275
6,76975,50064
6,77388,44796
6,77800,43459
6,78212,41774
6,78625,39736
6,79037,38844
6,79448,40131
6,79862,36227
6,80273,35696
6,80685,33442
6,81098,35150
6,81510,35577
6,81922,34735
6,82335,34114
6,82747,34002
6,83158,35485
6,83570,35192
6,83983,33074
6,84395,35196
6,84807,33419
6,85220,35897
6,85632,33748
6,86043,30583
6,86457,32020
6,86868,30627
6,87280,30671
6,87693,30393
6,88105,29911
6,88517,29935
6,88930,31921
6,89342,29593
6,89753,29596
6,90167,30333
6,90578,29189
6,90990,28692
6,91403,30080
6,91815,27682
6,92227,28764
6,92638,27500
6,93052,27627
6,93463,28002
6,93875,27903
6,94288,30103
6,94700,26621
6,95112,27404
6,95525,26854
6,95937,28368
6,96348,25979
6,96762,25661
6,97173,25690
6,97585,25461
6,97998,25859
6,98410,25339
6,98822,24832
6,99235,25860
6,99647,24655
7,00058,25839
7,00472,24916
7,00883,23617
7,01295,23437
7,01708,24536
7,02120,24036
7,02532,24750
7,02943,23626
7,03357,23782
7,03768,24500
7,04180,22594
7,04593,24744
7,05005,23250
7,05417,23929
7,05830,24364
7,06242,23167
7,06653,21847
7,07067,23731
7,07478,23301
7,07890,22038
7,08303,23508
7,08715,23628
7,09127,24121
7,09540,23236
7,09952,23786
7,10363,23756
7,10777,22162
7,11188,23210
7,11600,23944
7,12012,23527
7,12425,23036
7,12837,23208
7,13248,24299
7,13662,23961
7,14073,23197
7,14485,23207
7,14898,22667
7,15310,21980
7,15722,24037
7,16135,22270
7,16547,22981
7,16958,22824
7,17372,22645
7,17783,22985
7,18195,25177
7,18608,30763
7,19020,50436
7,19432,85929
7,19845,162163
7,20257,300508
7,20668,515139
7,21080,807715
7,21493,1130326
7,21905,1460369
7,22317,1728229
7,22730,1908946
7,23142,1989249
7,23553,1971277
7,23967,1874842
7,24378,1733265
7,24790,1571316
7,25203,1420056
7,25615,1266576
7,26027,1125916
7,26440,980487
7,26852,863595
7,27263,760088
7,27677,659464
7,28088,560571
7,28500,479279
7,28913,418144
7,29325,351705
7,29737,299401
7,30148,247251
7,30562,206902
7,30973,178468
7,31385,154529
7,31798,130978
7,32210,112270
7,32622,99674
7,33035,85434
7,33447,75942
7,33858,71320
7,34272,62301
7,34683,57421
7,35095,52346
7,35508,47002
7,35920,47602
7,36332,43726
7,36745,40664
7,37157,40178
7,37568,38369
7,37982,37920
7,38393,34088
7,38805,34566
7,39217,32050
7,39630,32447
7,40042,29844
7,40453,29821
7,40867,28757
7,41278,27851
7,41690,28309
7,42103,27285
7,42515,27712
7,42927,27170
7,43340,25851
7,43752,25108
7,44163,26108
7,44577,26044
7,44988,26544
7,45400,23688
7,45813,25834
7,46225,23311
7,46637,25234
7,47050,24609
7,47462,22793
7,47873,23723
7,48285,23695
7,48698,22065
7,49110,22036
7,49522,22920
7,49935,21345
7,50347,21920
7,50758,22005
7,51172,22557
7,51583,21462
7,51995,22076
7,52408,20559
7,52820,20762
7,53232,22047
7,53645,21776
7,54057,19924
7,54468,19612
7,54882,20474
7,55293,20807
7,55705,20583
7,56118,21940
7,56530,20448
7,56942,20417
7,57353,21919
7,57767,20559
7,58178,18748
7,58590,19903
7,59003,19679
7,59415,21023
7,59827,18926
7,60240,19134
7,60652,20679
7,61063,19494
7,61477,19289
7,61888,19337
7,62300,19756
7,62713,18602
7,63125,18767
7,63537,19771
7,63950,18697
7,64362,18545
7,64773,19373
7,65187,18996
7,65598,20235
7,66010,18531
7,66422,19647
7,66835,18755
7,67247,19401
7,67658,19338
7,68072,19609
7,68483,19765
7,68895,20279
7,69308,18228
7,69720,19073
7,70132,18356
7,70545,17575
7,70957,18314
7,71368,18524
7,71782,18847
7,72193,17610
7,72605,17933
7,73018,17526
7,73430,18633
7,73842,18509
7,74255,17454
7,74667,18440
7,75078,18396
7,75490,18679
7,75903,17280
7,76315,17509
7,76727,17665
7,77140,16580
7,77552,18384
7,77963,18345
7,78377,17458
7,78788,18200
7,79200,18989
7,79613,19246
7,80025,19821
7,80437,22080
7,80850,21615
7,81262,23234
7,81673,26475
7,82087,34669
7,82498,52209
7,82910,89765
7,83323,155428
7,83735,271140
7,84147,426214
7,84558,620548
7,84972,812204
7,85383,984995
7,85795,1114108
7,86208,1173418
7,86620,1155619
7,87032,1109350
7,87445,1008027
7,87857,903365
7,88268,778836
7,88682,661093
7,89093,557252
7,89505,472125
7,89918,387082
7,90330,319811
7,90742,260683
7,91155,214666
7,91567,175807
7,91978,145090
7,92392,118073
7,92803,98036
7,93215,83795
7,93627,74296
7,94040,63330
7,94452,56849
7,94863,49973
7,95277,45272
7,95688,43141
7,96100,40330
7,96513,36588
7,96925,34519
7,97337,31425
7,97750,31237
7,98162,30327
7,98573,29466
7,98987,27033
7,99398,25898
7,99810,25960
8,00223,24998
8,00635,25161
8,01047,22536
8,01460,21749
8,01872,24014
8,02283,21604
8,02695,21386
8,03108,20679
8,03520,20811
8,03932,19645
8,04345,19239
8,04757,19295
8,05168,19805
8,05582,20689
8,05993,19855
8,06405,19398
8,06818,17305
8,07230,18866
8,07642,18511
8,08055,18355
8,08467,18077
8,08878,16879
8,09292,16152
8,09703,17018
8,10115,18348
8,10528,16951
8,10940,18354
8,11352,16134
8,11763,17630
8,12177,17566
8,12588,17706
8,13000,16058
8,13413,16766
8,13825,16670
8,14237,16909
8,14650,16590
8,15062,16732
8,15473,16735
8,15887,17688
8,16298,17165
8,16710,19903
8,17123,19843
8,17535,20803
8,17947,21937
8,18360,21123
8,18772,20318
8,19183,21379
8,19597,19453
8,20008,19801
8,20420,18211
8,20832,17565
8,21245,18083
8,21657,17653
8,22068,18020
8,22482,15631
8,22893,16958
8,23305,16255
8,23718,16067
8,24130,16793
8,24542,16103
8,24955,16124
8,25367,13644
8,25778,15879
8,26192,15966
8,26603,16152
8,27015,14744
8,27428,16010
8,27840,15078
8,28252,15111
8,28665,16164
8,29077,15748
8,29488,15391
8,29900,16355
8,30313,14768
8,30725,14555
8,31137,14650
8,31550,14804
8,31962,14791
8,32373,14749
8,32787,14378
8,33198,15235
8,33610,15028
8,34023,14612
8,34435,13852
8,34847,15803
8,35260,15450
8,35672,15440
8,36083,13529
8,36497,13821
8,36908,15228
8,37320,14700
8,37733,15095
8,38145,14920
8,38557,15929
8,38968,16472
8,39382,18457
8,39793,18736
8,40205,19413
8,40618,21207
8,41030,22279
8,41442,22368
8,41855,20878
8,42267,21869
8,42678,20757
8,43092,21412
8,43503,19052
8,43915,17536
8,44328,18265
8,44740,18596
8,45152,16598
8,45565,16839
8,45977,16839
8,46388,16128
8,46802,16960
8,47213,22456
8,47625,39772
8,48037,74831
8,48450,151985
8,48862,309833
8,49273,559954
8,49687,927295
8,50098,1391464
8,50510,1870452
8,50923,2299765
8,51335,2616730
8,51747,2777388
8,52160,2711011
8,52572,2532074
8,52983,2230288
8,53397,1871215
8,53808,1547518
8,54220,1251765
8,54633,975069
8,55045,772873
8,55457,597301
8,55870,464992
8,56282,363201
8,56693,284185
8,57105,230529
8,57518,186873
8,57930,154172
8,58342,133398
8,58755,111956
8,59167,98406
8,59578,82929
8,59992,74650
8,60403,67049
8,60815,60737
8,61228,55904
8,61640,52291
8,62052,50099
8,62465,44568
8,62877,41162
8,63288,38227
8,63702,38094
8,64113,36287
8,64525,36482
8,64938,35972
8,65350,36258
8,65762,34803
8,66173,35820
8,66587,34759
8,66998,35245
8,67410,36084
8,67823,33890
8,68235,32062
8,68647,31299
8,69060,29767
8,69472,29078
8,69883,27404
8,70297,27252
8,70708,25064
8,71120,23350
8,71533,22608
8,71945,23224
8,72357,21254
8,72770,21405
8,73182,20803
8,73593,19542
8,74007,20471
8,74418,18826
8,74830,18939
8,75243,17775
8,75655,16780
8,76067,16658
8,76478,16440
8,76892,16437
8,77303,16455
8,77715,16434
8,78128,16364
8,78540,16672
8,78952,16425
8,79365,16137
8,79777,17485
8,80188,16951
8,80602,17328
8,81013,17500
8,81425,18313
8,81838,21897
8,82250,21832
8,82662,21627
8,83075,24431
8,83487,23775
8,83898,25150
8,84312,24133
8,84723,24357
8,85135,22882
8,85547,21278
8,85960,20543
8,86372,19995
8,86783,17805
8,87197,18027
8,87608,16903
8,88020,15769
8,88433,15316
8,88845,14732
8,89257,15090
8,89670,16682
8,90082,15531
8,90493,15301
8,90907,15704
8,91318,15086
8,91730,15233
8,92143,14009
8,92555,15841
8,92967,14620
8,93380,14478
8,93792,13158
8,94203,14713
8,94615,13763
8,95028,14540
8,95440,13660
8,95852,14793
8,96265,17114
8,96677,19088
8,97088,26951
8,97502,48972
8,97913,90972
8,98325,169963
8,98738,301726
8,99150,483779
8,99562,707708
8,99975,948280
9,00387,1170679
9,00798,1293352
9,01212,1354459
9,01623,1294235
9,02035,1184468
9,02448,1029378
9,02860,852245
9,03272,688086
9,03683,540703
9,04097,424755
9,04508,323554
9,04920,255822
9,05333,196626
9,05745,159960
9,06157,127833
9,06570,107743
9,06982,90126
9,07393,74927
9,07807,68259
9,08218,57852
9,08630,51044
9,09043,46198
9,09455,41822
9,09867,39183
9,10280,35866
9,10692,34735
9,11103,30928
9,11517,29905
9,11928,27126
9,12340,27202
9,12752,25719
9,13165,24968
9,13577,29399
9,13988,36891
9,14402,58577
9,14813,107803
9,15225,206223
9,15638,351599
9,16050,564960
9,16462,833887
9,16875,1107218
9,17287,1341127
9,17698,1474678
9,18112,1496879
9,18523,1443778
9,18935,1292387
9,19348,1096494
9,19760,896985
9,20172,706354
9,20585,537880
9,20997,405329
9,21408,310892
9,21820,235980
9,22233,183450
9,22645,145245
9,23057,119069
9,23470,98886
9,23882,84040
9,24293,70857
9,24707,63543
9,25118,56253
9,25530,52812
9,25943,45117
9,26355,43483
9,26767,40445
9,27180,36389
9,27592,33555
9,28003,32450
9,28417,30155
9,28828,27774
9,29240,26055
9,29653,25792
9,30065,25767
9,30477,22725
9,30888,22198
9,31302,22353
9,31713,21135
9,32125,22490
9,32538,20542
9,32950,20459
9,33362,19208
9,33775,18210
9,34187,17928
9,34598,18141
9,35012,16951
9,35423,16426
9,35835,17178
9,36248,16582
9,36660,16979
9,37072,15494
9,37485,15485
9,37897,16895
9,38308,16608
9,38722,14380
9,39133,15102
9,39545,13888
9,39957,15207
9,40370,14764
9,40782,16015
9,41193,13746
9,41607,13671
9,42018,14212
9,42430,13370
9,42843,15986
9,43255,13354
9,43667,14803
9,44080,15617
9,44492,14775
9,44903,14262
9,45317,14212
9,45728,12669
9,46140,13080
9,46553,13315
9,46965,12713
9,47377,13511
9,47790,11514
9,48202,12461
9,48613,12862
9,49025,11427
9,49438,14160
9,49850,11615
9,50262,13005
9,50675,12619
9,51087,10905
9,51498,13224
9,51912,12796
9,52323,11966
9,52735,14050
9,53148,12868
9,53560,12604
9,53972,12072
9,54385,12551
9,54797,14085
9,55208,12339
9,55622,12990
9,56033,12506
9,56445,12373
9,56858,13051
9,57270,11562
9,57682,11598
9,58093,12471
9,58507,12791
9,58918,13697
9,59330,10967
9,59743,11305
9,60155,12404
9,60567,12320
9,60980,11627
9,61392,12073
9,61803,12621
9,62217,11612
9,62628,13363
9,63040,13291
9,63453,18317
9,63865,26425
9,64277,48346
9,64690,94567
9,65102,184066
9,65513,320113
9,65927,528488
9,66338,790479
9,66750,1067367
9,67162,1300894
9,67575,1446471
9,67987,1467525
9,68398,1379487
9,68812,1222581
9,69223,1014895
9,69635,822517
9,70048,635989
9,70460,485053
9,70872,369073
9,71285,277471
9,71697,210478
9,72108,165889
9,72522,133462
9,72933,111405
9,73345,92512
9,73758,75870
9,74170,67529
9,74582,58913
9,74995,52769
9,75407,46811
9,75818,43596
9,76230,40831
9,76643,34391
9,77055,34725
9,77467,31625
9,77880,31203
9,78292,27608
9,78703,27388
9,79117,27553
9,79528,36341
9,79940,53763
9,80353,108538
9,80765,223394
9,81177,458429
9,81590,854041
9,82002,1446751
9,82413,2248675
9,82827,3172520
9,83238,4058019
9,83650,4756543
9,84063,5077151
9,84475,4985685
9,84887,4473780
9,85298,3754626
9,85712,2974861
9,86123,2267645
9,86535,1685724
9,86948,1238315
9,87360,915628
9,87772,688906
9,88185,533611
9,88597,423069
9,89008,341666
9,89422,279367
9,89833,234712
9,90245,200039
9,90658,174731
9,91070,152282
9,91482,134014
9,91895,120111
9,92307,107070
9,92718,96708
9,93132,87473
9,93543,78068
9,93955,74590
9,94367,69780
9,94780,64368
9,95192,58012
9,95603,55800
9,96017,52848
9,96428,49612
9,96840,45187
9,97253,43475
9,97665,42024
9,98077,40762
9,98490,37555
9,98902,36964
9,99313,35938
9,99727,35048
10,00138,32148
10,00550,32492
10,00963,31177
10,01375,29749
10,01787,27569
10,02200,26544
10,02612,27008
10,03023,25569
10,03435,24713
10,03848,24540
10,04260,24105
10,04672,23432
10,05085,21743
10,05497,23996
10,05908,22040
10,06322,21812
10,06733,21656
10,07145,20398
10,07558,18991
10,07970,18712
10,08382,19126
10,08795,19576
10,09207,21107
10,09618,19275
10,10032,21435
10,10443,21002
10,10855,21698
10,11268,18334
10,11680,18088
10,12092,19889
10,12503,17828
10,12917,18054
10,13328,16335
10,13740,15794
10,14153,15485
10,14565,16210
10,14977,15497
10,15390,16785
10,15802,16116
10,16213,15416
10,16627,16839
10,17038,15946
10,17450,16276
10,17863,16406
10,18275,18537
10,18687,17467
10,19100,17203
10,19512,19263
10,19923,18840
10,20337,18998
10,20748,21354
10,21160,34997
10,21572,64341
10,21985,121755
10,22397,229530
10,22808,405107
10,23222,648736
10,23633,940042
10,24045,1211735
10,24458,1436822
10,24870,1560143
10,25282,1535584
10,25695,1404618
10,26107,1194189
10,26518,961014
10,26932,747559
10,27343,566737
10,27755,425521
10,28168,323370
10,28580,247172
10,28992,190025
10,29405,152621
10,29817,126412
10,30228,107333
10,30640,93492
10,31053,78300
10,31465,71435
10,31877,63569
10,32290,61048
10,32702,58845
10,33113,54004
10,33527,52093
10,33938,49055
10,34350,45136
10,34763,44859
10,35175,38793
10,35587,35620
10,36000,33589
10,36412,31036
10,36823,28032
10,37237,28022
10,37648,27172
10,38060,22770
10,38473,24809
10,38885,21997
10,39297,20835
10,39708,23619
10,40122,22017
10,40533,20651
10,40945,21405
10,41358,21467
10,41770,22063
10,42182,22821
10,42595,24135
10,43007,26782
10,43418,27950
10,43832,30386
10,44243,30386
10,44655,36168
10,45068,49319
10,45480,86635
10,45892,160744
10,46305,295987
10,46717,509775
10,47128,803681
10,47542,1135145
10,47953,1469302
10,48365,1700210
10,48778,1812003
10,49190,1743777
10,49602,1542009
10,50013,1276384
10,50427,1007394
10,50838,761835
10,51250,576985
10,51663,424714
10,52075,329644
10,52487,249779
10,52900,197813
10,53312,164605
10,53723,134290
10,54137,111125
10,54548,93182
10,54960,81616
10,55373,74220
10,55785,65693
10,56197,61443
10,56610,52054
10,57022,49742
10,57433,45079
10,57847,43035
10,58258,40937
10,58670,37818
10,59082,35586
10,59495,31045
10,59907,31636
10,60318,30498
10,60732,29594
10,61143,27465
10,61555,25772
10,61968,25105
10,62380,26094
10,62792,24619
10,63205,24250
10,63617,24048
10,64028,22319
10,64442,20714
10,64853,22883
10,65265,22076
10,65678,18534
10,66090,19474
10,66502,19117
10,66915,18988
10,67327,19225
10,67738,18837
10,68150,18732
10,68563,19411
10,68975,19020
10,69387,17862
10,69800,18563
10,70212,17424
10,70623,17144
10,71037,17772
10,71448,17477
10,71860,17482
10,72273,16939
10,72685,16778
10,73097,16766
10,73510,15974
10,73922,16517
10,74333,15336
10,74747,16115
10,75158,16219
10,75570,15384
10,75983,15498
10,76395,15113
10,76807,14564
10,77218,14451
10,77632,14804
10,78043,14157
10,78455,14966
10,78868,15076
10,79280,13559
10,79692,13421
10,80105,14910
10,80517,13544
10,80928,13676
10,81342,14279
10,81753,13368
10,82165,13003
10,82578,15525
10,82990,13496
10,83402,14168
10,83815,14800
10,84227,14923
10,84638,16991
10,85052,23408
10,85463,36112
10,85875,69364
10,86287,136927
10,86700,248487
10,87112,438850
10,87523,707644
10,87937,1022884
10,88348,1350105
10,88760,1590044
10,89173,1708376
10,89585,1656195
10,89997,1507657
10,90410,1269664
10,90822,1021714
10,91233,794452
10,91647,598249
10,92058,447764
10,92470,333864
10,92883,266749
10,93295,206546
10,93707,167477
10,94120,135390
10,94532,115911
10,94943,100621
10,95355,85448
10,95768,76446
10,96180,66322
10,96592,65940
10,97005,56663
10,97417,52839
10,97828,49158
10,98242,46408
10,98653,41593
10,99065,40192
10,99478,37232
10,99890,33460
11,00302,33694
11,00715,30997
11,01127,29529
11,01538,29228
11,01952,26533
11,02363,27308
11,02775,27339
11,03188,24694
11,03600,26122
11,04012,25799
11,04423,21960
11,04837,22511
11,05248,21264
11,05660,21990
11,06073,20841
11,06485,20635
11,06897,21362
11,07310,22011
11,07722,25479
11,08133,40318
11,08547,71401
11,08958,150920
11,09370,308879
11,09783,600529
11,10195,1066141
11,10607,1686749
11,11020,2422144
11,11432,3096499
11,11843,3659581
11,12257,3950680
11,12668,3866688
11,13080,3486753
11,13492,2885145
11,13905,2251478
11,14317,1711321
11,14728,1282070
11,15142,951819
11,15553,715003
11,15965,550859
11,16378,434859
11,16790,356056
11,17202,298998
11,17615,253099
11,18027,219967
11,18438,191762
11,18852,171900
11,19263,157720
11,19675,141085
11,20088,130505
11,20500,116260
11,20912,105883
11,21325,93744
11,21737,87957
11,22148,79185
11,22560,74912
11,22973,67694
11,23385,65222
11,23797,57047
11,24210,56013
11,24622,51820
11,25033,48299
11,25447,45377
11,25858,45169
11,26270,41449
11,26683,42079
11,27095,40522
11,27507,39024
11,27920,37861
11,28332,35178
11,28743,35447
11,29157,33988
11,29568,36051
11,29980,35202
11,30393,35710
11,30805,44972
11,31217,65290
11,31628,110270
11,32042,203838
11,32453,375422
11,32865,624292
11,33278,943437
11,33690,1287323
11,34102,1600869
11,34515,1788576
11,34927,1851027
11,35338,1752327
11,35752,1527995
11,36163,1246030
11,36575,991296
11,36988,762595
11,37400,572862
11,37812,436681
11,38225,344352
11,38637,275510
11,39048,218192
11,39462,184470
11,39873,153064
11,40285,131107
11,40697,117839
11,41110,100006
11,41522,89366
11,41933,81213
11,42347,82348
11,42758,94620
11,43170,127210
11,43583,220544
11,43995,401387
11,44407,719017
11,44820,1211328
11,45232,1865148
11,45643,2582823
11,46057,3240171
11,46468,3720271
11,46880,3815952
11,47293,3580596
11,47705,3101988
11,48117,2514857
11,48530,1953244
11,48942,1471134
11,49353,1102643
11,49765,828960
11,50178,638548
11,50590,509847
11,51002,409066
11,51415,336443
11,51827,281053
11,52238,243451
11,52652,206198
11,53063,179070
11,53475,163348
11,53888,142146
11,54300,132983
11,54712,118339
11,55125,107928
11,55537,96939
11,55948,92519
11,56362,85910
11,56773,79901
11,57185,78522
11,57598,67481
11,58010,66434
11,58422,65359
11,58833,60753
11,59247,55404
11,59658,54941
11,60070,52388
11,60483,50293
11,60895,45200
11,61307,46129
11,61720,45959
11,62132,42071
11,62543,40185
11,62957,42377
11,63368,38927
11,63780,38762
11,64193,37586
11,64605,34609
11,65017,35444
11,65430,33785
11,65842,32627
11,66253,32438
11,66667,35714
11,67078,39142
11,67490,54699
11,67902,89884
11,68315,171328
11,68727,316280
11,69138,538285
11,69552,857766
11,69963,1218795
11,70375,1602803
11,70788,1943573
11,71200,2314252
11,71612,2709829
11,72025,3165440
11,72437,3680810
11,72848,4152330
11,73262,4472269
11,73673,4482824
11,74085,4219394
11,74498,3666943
11,74910,3018539
11,75322,2367836
11,75735,1778005
11,76147,1346459
11,76558,1030755
11,76970,796518
11,77383,622601
11,77795,507642
11,78207,422019
11,78620,356495
11,79032,308668
11,79443,269258
11,79857,236057
11,80268,213564
11,80680,188067
11,81093,168862
11,81505,154897
11,81917,140785
11,82330,129472
11,82742,120108
11,83153,111279
11,83567,103313
11,83978,99493
11,84390,93822
11,84803,92939
11,85215,86931
11,85627,81290
11,86038,77942
11,86452,74616
11,86863,73539
11,87275,65916
11,87688,66568
11,88100,63667
11,88512,62568
11,88925,59797
11,89337,58551
11,89748,57777
11,90162,57547
11,90573,51484
11,90985,51973
11,91398,51275
11,91810,47446
11,92222,46395
11,92635,42698
11,93047,43303
11,93458,45732
11,93872,44103
11,94283,50530
11,94695,67888
11,95107,105314
11,95520,187952
11,95932,336009
11,96343,563831
11,96757,851378
11,97168,1156532
11,97580,1426995
11,97993,1604802
11,98405,1636049
11,98817,1530095
11,99230,1330547
11,99642,1086827
12,00053,857191
12,00467,663817
12,00878,510079
12,01290,396064
12,01703,308907
12,02115,252771
12,02527,204469
12,02940,170610
12,03352,148425
12,03763,129244
12,04177,112990
12,04588,106315
12,05000,96026
12,05412,86274
12,05825,80888
12,06237,73950
12,06648,69722
12,07062,66656
12,07473,61783
12,07885,58226
12,08298,57663
12,08710,51915
12,09122,51412
12,09535,48956
12,09947,46709
12,10358,46303
12,10772,43733
12,11183,44626
12,11595,40192
12,12008,41130
12,12420,40352
12,12832,37602
12,13245,36290
12,13657,34204
12,14068,33817
12,14480,35650
12,14893,32819
12,15305,34118
12,15717,35000
12,16130,32600
12,16542,31278
12,16953,30425
12,17367,30630
12,17778,30612
12,18190,30057
12,18603,32786
12,19015,29057
12,19427,28607
12,19840,30967
12,20252,30705
12,20663,27640
12,21077,29833
12,21488,27354
12,21900,26907
12,22313,28051
12,22725,27567
12,23137,29438
12,23548,27753
12,23962,26964
12,24373,26886
12,24785,26247
12,25198,26645
12,25610,26115
12,26022,28232
12,26435,26993
12,26847,28197
12,27258,28807
12,27672,27874
12,28083,27579
12,28495,28748
12,28908,37969
12,29320,60520
12,29732,108476
12,30145,219335
12,30557,431873
12,30968,803336
12,31382,1401100
12,31793,2172583
12,32205,3117046
12,32617,4050216
12,33030,4835644
12,33442,5302137
12,33853,5321670
12,34267,4989109
12,34678,4421897
12,35090,3754024
12,35503,3083547
12,35915,2460936
12,36327,1942581
12,36740,1515242
12,37152,1187067
12,37563,924041
12,37977,745907
12,38388,599686
12,38800,498477
12,39213,421443
12,39625,357644
12,40037,318363
12,40450,276675
12,40862,245583
12,41273,224195
12,41685,201395
12,42098,185405
12,42510,169106
12,42922,156301
12,43335,143855
12,43747,133419
12,44158,127214
12,44572,119100
12,44983,109020
12,45395,105866
12,45808,102938
12,46220,96795
12,46632,89705
12,47045,87342
12,47457,87227
12,47868,79504
12,48282,78770
12,48693,73890
12,49105,71194
12,49518,67869
12,49930,68482
12,50342,67938
12,50753,62876
12,51167,62321
12,51578,63258
12,51990,57862
12,52403,59481
12,52815,61022
12,53227,65283
12,53640,78009
12,54052,109169
12,54463,173255
12,54877,287777
12,55288,475330
12,55700,702209
12,56113,978718
12,56525,1218549
12,56937,1399682
12,57350,1462887
12,57762,1406016
12,58173,1240554
12,58587,1042616
12,58998,842539
12,59410,658014
12,59822,508235
12,60235,396163
12,60647,311982
12,61058,255482
12,61472,212428
12,61883,198844
12,62295,207456
12,62708,256351
12,63120,368806
12,63532,552240
12,63945,839465
12,64357,1215229
12,64768,1605775
12,65182,1923191
12,65593,2074599
12,66005,2039251
12,66418,1874395
12,66830,1580281
12,67242,1285738
12,67655,1023139
12,68067,796010
12,68478,624752
12,68890,503208
12,69303,408214
12,69715,341172
12,70127,288022
12,70540,251617
12,70952,220413
12,71363,197575
12,71777,171126
12,72188,157280
12,72600,143921
12,73013,134493
12,73425,123115
12,73837,114406
12,74250,109593
12,74662,102004
12,75073,95809
12,75487,89013
12,75898,84257
12,76310,81462
12,76723,82777
12,77135,74112
12,77547,74478
12,77958,69860
12,78372,68758
12,78783,64474
12,79195,64717
12,79608,61775
12,80020,58276
12,80432,56078
12,80845,57988
12,81257,57403
12,81668,55905
12,82082,53678
12,82493,54094
12,82905,53697
12,83318,51267
12,83730,50613
12,84142,50219
12,84555,47411
12,84967,47927
12,85378,48078
12,85792,49253
12,86203,51863
12,86615,62143
12,87027,87296
12,87440,135629
12,87852,244444
12,88263,426866
12,88677,734267
12,89088,1132693
12,89500,1590757
12,89913,2007890
12,90325,2249367
12,90737,2290254
12,91150,2113616
12,91562,1807877
12,91973,1467675
12,92387,1149689
12,92798,895779
12,93210,710293
12,93623,560045
12,94035,465184
12,94447,389164
12,94860,332478
12,95272,287272
12,95683,248717
12,96095,219843
12,96508,196834
12,96920,178055
12,97332,163210
12,97745,149463
12,98157,144376
12,98568,133144
12,98982,124118
12,99393,116323
12,99805,112342
13,00218,106562
13,00630,101581
13,01042,95302
13,01455,94782
13,01867,93159
13,02278,89230
13,02692,85517
13,03103,83721
13,03515,80318
13,03928,77906
13,04340,75315
13,04752,69489
13,05163,69808
13,05577,67823
13,05988,67835
13,06400,68708
13,06813,64234
13,07225,63040
13,07637,61225
13,08050,58507
13,08462,58030
13,08873,56150
13,09287,57582
13,09698,56275
13,10110,54705
13,10523,59241
13,10935,66135
13,11347,79985
13,11760,125584
13,12172,206835
13,12583,352338
13,12997,598311
13,13408,894567
13,13820,1228148
13,14232,1528097
13,14645,1712488
13,15057,1753721
13,15468,1652335
13,15882,1466209
13,16293,1213345
13,16705,993463
13,17118,777965
13,17530,619670
13,17942,489984
13,18355,393998
13,18767,328980
13,19178,276942
13,19592,237688
13,20003,208709
13,20415,181987
13,20828,168335
13,21240,153505
13,21652,138608
13,22065,126297
13,22477,117063
13,22888,110595
13,23300,102214
13,23713,100081
13,24125,94458
13,24537,90827
13,24950,84746
13,25362,80790
13,25773,79263
13,26187,77150
13,26598,71907
13,27010,68597
13,27423,71543
13,27835,66181
13,28247,66102
13,28660,64223
13,29072,62617
13,29483,61400
13,29897,61416
13,30308,55965
13,30720,60312
13,31133,56332
13,31545,54584
13,31957,53292
13,32368,53975
13,32782,52154
13,33193,54931
13,33605,51163
13,34018,52566
13,34430,52570
13,34842,49920
13,35255,47291
13,35667,48767
13,36078,46963
13,36492,48665
13,36903,49045
13,37315,47107
13,37728,47019
13,38140,47551
13,38552,48807
13,38965,46872
13,39377,45861
13,39788,47185
13,40202,49036
13,40613,45905
13,41025,47408
13,41437,47954
13,41850,44937
13,42262,47167
13,42673,51300
13,43087,64688
13,43498,89030
13,43910,148167
13,44323,263982
13,44735,480934
13,45147,808442
13,45560,1305839
13,45972,1970325
13,46383,2744419
13,46797,3518048
13,47208,4126340
13,47620,4506181
13,48033,4541897
13,48445,4330371
13,48857,3966133
13,49270,3579771
13,49682,3258304
13,50093,3038350
13,50505,2824798
13,50918,2628860
13,51330,2351573
13,51742,2080419
13,52155,1773292
13,52567,1477713
13,52978,1221169
13,53392,998140
13,53803,834163
13,54215,696854
13,54628,593920
13,55040,507158
13,55452,449348
13,55865,397308
13,56277,359676
13,56688,329063
13,57102,298534
13,57513,272798
13,57925,259039
13,58338,232247
13,58750,220305
13,59162,206694
13,59573,197163
13,59987,185587
13,60398,174010
13,60810,167567
13,61223,162693
13,61635,151445
13,62047,144607
13,62460,137464
13,62872,135802
13,63283,127441
13,63697,126195
13,64108,125079
13,64520,121520
13,64933,114260
13,65345,114141
13,65757,107634
13,66170,107724
13,66582,107334
13,66993,103237
13,67407,100998
13,67818,104024
13,68230,99637
13,68642,108691
13,69055,131614
13,69467,168807
13,69878,245065
13,70292,370261
13,70703,562871
13,71115,799924
13,71528,1066857
13,71940,1304030
13,72352,1466743
13,72765,1547509
13,73177,1497515
13,73588,1366691
13,74002,1186677
13,74413,1002545
13,74825,843341
13,75238,741511
13,75650,722215
13,76062,784836
13,76475,933531
13,76887,1185177
13,77298,1537531
13,77712,1947983
13,78123,2374950
13,78535,2741917
13,78947,3025840
13,79360,3158123
13,79772,3107420
13,80183,2904231
13,80597,2579543
13,81008,2211191
13,81420,1842566
13,81833,1503562
13,82245,1237822
13,82657,1020275
13,83070,845349
13,83482,725855
13,83893,615848
13,84307,543069
13,84718,474881
13,85130,418294
13,85543,376122
13,85955,341157
13,86367,319579
13,86780,291924
13,87192,271579
13,87603,254647
13,88015,237370
13,88428,221218
13,88840,204984
13,89252,191292
13,89665,186663
13,90077,175565
13,90488,165587
13,90902,162679
13,91313,151004
13,91725,145504
13,92138,138731
13,92550,132526
13,92962,131135
13,93375,126047
13,93787,120680
13,94198,114425
13,94612,113342
13,95023,111918
13,95435,105972
13,95848,105504
13,96260,103059
13,96672,100540
13,97083,97972
13,97497,93342
13,97908,91061
13,98320,91447
13,98733,89886
13,99145,90198
13,99557,92495
13,99970,102374
14,00382,127947
14,00793,170242
14,01207,246448
14,01618,387064
14,02030,596915
14,02443,886650
14,02855,1237890
14,03267,1579556
14,03680,1859902
14,04092,2035287
14,04503,2051682
14,04917,1914786
14,05328,1695066
14,05740,1453513
14,06152,1200247
14,06565,1009232
14,06977,850995
14,07388,710609
14,07802,604850
14,08213,521999
14,08625,456474
14,09038,408555
14,09450,366532
14,09862,326427
14,10275,308197
14,10687,279975
14,11098,260416
14,11512,237794
14,11923,224681
14,12335,212286
14,12748,201016
14,13160,190302
14,13572,173937
14,13985,173236
14,14397,163574
14,14808,158231
14,15220,152950
14,15633,148567
14,16045,145160
14,16457,143150
14,16870,135912
14,17282,135195
14,17693,131723
14,18107,130164
14,18518,126794
14,18930,120144
14,19343,116499
14,19755,111555
14,20167,111766
14,20580,108721
14,20992,105162
14,21403,102712
14,21817,98740
14,22228,96352
14,22640,95112
14,23053,89705
14,23465,90878
14,23877,86179
14,24288,85453
14,24702,84056
14,25113,83318
14,25525,85108
14,25938,84159
14,26350,90005
14,26762,102325
14,27175,128741
14,27587,179739
14,27998,267311
14,28412,415487
14,28823,613820
14,29235,862320
14,29648,1125842
14,30060,1369099
14,30472,1549289
14,30885,1621027
14,31297,1609471
14,31708,1466984
14,32122,1305027
14,32533,1130552
14,32945,951421
14,33357,791725
14,33770,671209
14,34182,577797
14,34593,488616
14,35007,429854
14,35418,377312
14,35830,333669
14,36243,303007
14,36655,272497
14,37067,259739
14,37480,261567
14,37892,275487
14,38303,320761
14,38717,395372
14,39128,507239
14,39540,653199
14,39953,824104
14,40365,999895
14,40777,1127049
14,41190,1214642
14,41602,1216351
14,42013,1165789
14,42425,1063459
14,42838,937924
14,43250,809885
14,43662,680852
14,44075,583760
14,44487,487446
14,44898,421052
14,45312,354433
14,45723,312408
14,46135,277924
14,46548,244368
14,46960,221884
14,47372,201892
14,47785,191386
14,48197,175494
14,48608,163014
14,49022,152537
14,49433,144813
14,49845,136295
14,50258,130897
14,50670,126225
14,51082,120991
14,51493,116064
14,51907,116396
14,52318,109638
14,52730,107926
14,53143,104772
14,53555,101765
14,53967,98965
14,54380,96214
14,54792,91859
14,55203,93317
14,55617,90308
14,56028,88035
14,56440,88275
14,56853,86062
14,57265,85717
14,57677,87367
14,58090,89491
14,58502,98122
14,58913,112867
14,59327,141430
14,59738,195077
14,60150,286905
14,60562,439569
14,60975,667774
14,61387,992136
14,61798,1429540
14,62212,1935486
14,62623,2487534
14,63035,3006242
14,63448,3439947
14,63860,3701939
14,64272,3727205
14,64685,3471038
14,65097,3106627
14,65508,2647605
14,65922,2227598
14,66333,1860250
14,66745,1555878
14,67158,1310350
14,67570,1121564
14,67982,966435
14,68395,846624
14,68807,755828
14,69218,660960
14,69630,606055
14,70043,544914
14,70455,500537
14,70867,462291
14,71280,429323
14,71692,408731
14,72103,375710
14,72517,347010
14,72928,324412
14,73340,310345
14,73753,298686
14,74165,278017
14,74577,264875
14,74990,251032
14,75402,239769
14,75813,228240
14,76227,223042
14,76638,208462
14,77050,203941
14,77463,196746
14,77875,185603
14,78287,182497
14,78698,173234
14,79112,163316
14,79523,163750
14,79935,157834
14,80348,154867
14,80760,149898
14,81172,149837
14,81585,141936
14,81997,139464
14,82408,138906
14,82822,129626
14,83233,130858
14,83645,128908
14,84058,124719
14,84470,121916
14,84882,122268
14,85295,117289
14,85707,115490
14,86118,114337
14,86532,114399
14,86943,110693
14,87355,110049
14,87767,108087
14,88180,106006
14,88592,102626
14,89003,103523
14,89417,103614
14,89828,99223
14,90240,96421
14,90653,93247
14,91065,96597
14,91477,91164
14,91890,93825
14,92302,92823
14,92713,93735
14,93127,95852
14,93538,101388
14,93950,108218
14,94363,124463
14,94775,162680
14,95187,222385
14,95600,314458
14,96012,448324
14,96423,627089
14,96835,853634
14,97248,1104838
14,97660,1347639
14,98072,1533598
14,98485,1642126
14,98897,1644603
14,99308,1583451
14,99722,1465617
15,00133,1308800
15,00545,1155506
15,00958,1008132
15,01370,880544
15,01782,754215
15,02195,664220
15,02607,586838
15,03018,522570
15,03432,468272
15,03843,429075
15,04255,382988
15,04668,358089
15,05080,327072
15,05492,306371
15,05903,284443
15,06317,264798
15,06728,251182
15,07140,237172
15,07553,225953
15,07965,213539
15,08377,205114
15,08790,200027
15,09202,186156
15,09613,178055
15,10027,171523
15,10438,169196
15,10850,165350
15,11263,155978
15,11675,151457
15,12087,146904
15,12500,144952
15,12912,140029
15,13323,136186
15,13737,132049
15,14148,131661
15,14560,125341
15,14972,124527
15,15385,117785
15,15797,121904
15,16208,116825
15,16622,111935
15,17033,109956
15,17445,106984
15,17858,105601
15,18270,103584
15,18682,105703
15,19095,100137
15,19507,97747
15,19918,95389
15,20332,96494
15,20743,95413
15,21155,93951
15,21568,88550
15,21980,93795
15,22392,91431
15,22805,90080
15,23217,87299
15,23628,87158
15,24040,85228
15,24453,84136
15,24865,87949
15,25277,86548
15,25690,84679
15,26102,84243
15,26513,82160
15,26927,82235
15,27338,78283
15,27750,81083
15,28163,81289
15,28575,77219
15,28987,77813
15,29400,75322
15,29812,75521
15,30223,76021
15,30637,73459
15,31048,72521
15,31460,73055
15,31873,72195
15,32285,76288
15,32697,75641
15,33110,73716
15,33522,69950
15,33933,71105
15,34345,71605
15,34758,70794
15,35170,70356
15,35582,65982
15,35995,69065
15,36407,68121
15,36818,66327
15,37232,64757
15,37643,64933
15,38055,65083
15,38468,66049
15,38880,67135
15,39292,65042
15,39705,67190
15,40117,63928
15,40528,61883
15,40942,66049
15,41353,66098
15,41765,65138
15,42178,62544
15,42590,67782
15,43002,67311
15,43413,66723
15,43827,67574
15,44238,70227
15,44650,72900
15,45063,81088
15,45475,85307
15,45887,96148
15,46300,104137
15,46712,113557
15,47123,121778
15,47537,125066
15,47948,125636
15,48360,128263
15,48773,126173
15,49185,119684
15,49597,114419
15,50010,104357
15,50422,99532
15,50833,92251
15,51247,90760
15,51658,85854
15,52070,78873
15,52482,73409
15,52895,70505
15,53307,69276
15,53718,72647
15,54132,68995
15,54543,66789
15,54955,66468
15,55368,65368
15,55780,62566
15,56192,62318
15,56605,62796
15,57017,62865
15,57428,61250
15,57842,62677
15,58253,59781
15,58665,59099
15,59078,57914
15,59490,60042
15,59902,61775
15,60315,59382
15,60727,56724
15,61138,58205
15,61550,56292
15,61963,60485
15,62375,58539
15,62787,56138
15,63200,58648
15,63612,58557
15,64023,58404
15,64437,61295
15,64848,60102
15,65260,57937
15,65673,56375
15,66085,58538
15,66497,56595
15,66910,57306
15,67322,55529
15,67733,55990
15,68147,55778
15,68558,55849
15,68970,56203
15,69383,56636
15,69795,56044
15,70207,54898
15,70618,53505
15,71032,54180
15,71443,57252
15,71855,53482
15,72268,54350
15,72680,54219
15,73092,56489
15,73505,55878
15,73917,53774
15,74328,52350
15,74742,53520
15,75153,53248
15,75565,54866
15,75978,52321
15,76390,55860
15,76802,53875
15,77215,53635
15,77627,52556
15,78038,54610
15,78452,54678
15,78863,54087
15,79275,54711
15,79687,51907
15,80100,53465
15,80512,53933
15,80923,54441
15,81337,52421
15,81748,52597
15,82160,55121
15,82573,54825
15,82985,53062
15,83397,52771
15,83810,53496
15,84222,49893
15,84633,53712
15,85047,50405
15,85458,53384
15,85870,53038
15,86283,51852
15,86695,54049
15,87107,50117
15,87520,51029
15,87932,50853
15,88343,52780
15,88755,51822
15,89168,53291
15,89580,55533
15,89992,49580
15,90405,50733
15,90817,49947
15,91228,51236
15,91642,54097
15,92053,51332
15,92465,53312
15,92878,51001
15,93290,53877
15,93702,52957
15,94115,53804
15,94527,52315
15,94938,50433
15,95352,52473
15,95763,52007
15,96175,51836
15,96588,51181
15,97000,53195
15,97412,53725
15,97823,54002
15,98237,54337
15,98648,51749
15,99060,51427
15,99473,52349
15,99885,53009
16,00297,56375
16,00710,56528
16,01122,60775
16,01533,64493
16,01947,78522
16,02358,98699
16,02770,123815
16,03183,171737
16,03595,230707
16,04007,307162
16,04420,399720
16,04832,487859
16,05243,579426
16,05657,650979
16,06068,707478
16,06480,738517
16,06892,743309
16,07305,721154
16,07717,673655
16,08128,625649
16,08542,573342
16,08953,506397
16,09365,458639
16,09778,403045
16,10190,359357
16,10602,325953
16,11015,288353
16,11427,262682
16,11838,236021
16,12252,216477
16,12663,198989
16,13075,180597
16,13488,173328
16,13900,157063
16,14312,151151
16,14725,140652
16,15137,136502
16,15548,124832
16,15960,120683
16,16373,117002
16,16785,113788
16,17197,104442
16,17610,105881
16,18022,103079
16,18433,96136
16,18847,93846
16,19258,92724
16,19670,91439
16,20083,88088
16,20495,88359
16,20907,88474
16,21320,81962
16,21732,81433
16,22143,80944
16,22557,79835
16,22968,76847
16,23380,74774
16,23793,74169
16,24205,75929
16,24617,75013
16,25028,73124
16,25442,72287
16,25853,70387
16,26265,72521
16,26678,70523
16,27090,68586
16,27502,67544
16,27915,70335
16,28327,68882
16,28738,64148
16,29152,65201
16,29563,67779
16,29975,63885
16,30388,64198
16,30800,65311
16,31212,64014
16,31625,65325
16,32037,64424
16,32448,62415
16,32862,63502
16,33273,64330
16,33685,61751
16,34097,62199
16,34510,61484
16,34922,59855
16,35333,62875
16,35747,62370
16,36158,60510
16,36570,62900
16,36983,60090
16,37395,63217
16,37807,60994
16,38220,58471
16,38632,59208
16,39043,56759
16,39457,56084
16,39868,59818
16,40280,58408
16,40693,58519
16,41105,61293
16,41517,59107
16,41930,59054
16,42342,59054
16,42753,56741
16,43165,56938
16,43578,55834
16,43990,57341
16,44402,56425
16,44815,56038
16,45227,58255
16,45638,57026
16,46052,56662
16,46463,57448
16,46875,59096
16,47288,57282
16,47700,56093
16,48112,54687
16,48525,54906
16,48937,53511
16,49348,54863
16,49762,56647
16,50173,54070
16,50585,55528
16,50998,54440
16,51410,53768
16,51822,55302
16,52233,55676
16,52647,53837
16,53058,53772
16,53470,54563
16,53883,55219
16,54295,55622
16,54707,55132
16,55120,55152
16,55532,55192
16,55943,54755
16,56357,51500
16,56768,54168
16,57180,54638
16,57593,53115
16,58005,54984
16,58417,55180
16,58830,55797
16,59242,54644
16,59653,55623
16,60067,57499
16,60478,54650
16,60890,54389
16,61302,54323
16,61715,54546
16,62127,56099
16,62538,55104
16,62952,55184
16,63363,55361
16,63775,54794
16,64188,52218
16,64600,51928
16,65012,54744
16,65425,53429
16,65837,55034
16,66248,53389
16,66662,53748
16,67073,53822
16,67485,57390
16,67898,53972
16,68310,54814
16,68722,55476
16,69135,53774
16,69547,55127
16,69958,55740
16,70370,53556
16,70783,57888
16,71195,56204
16,71607,53456
16,72020,53379
16,72432,56583
16,72843,55400
16,73257,55658
16,73668,51795
16,74080,55639
16,74493,57285
16,74905,53843
16,75317,54271
16,75730,53490
16,76142,55422
16,76553,55263
16,76967,53711
16,77378,52763
16,77790,51397
16,78203,52023
16,78615,53975
16,79027,52174
16,79438,54806
16,79852,58102
16,80263,52096
16,80675,51493
16,81088,53267
16,81500,53575
16,81912,53103
16,82325,52525
16,82737,53728
16,83148,54160
16,83562,51617
16,83973,54319
16,84385,54205
16,84798,52000
16,85210,51149
16,85622,52244
16,86035,52813
16,86447,50410
16,86858,52179
16,87272,52901
16,87683,53964
16,88095,50806
16,88507,53815
16,88920,53872
16,89332,53025
16,89743,51421
16,90157,53293
16,90568,48188
16,90980,52237
16,91393,53599
16,91805,54105
16,92217,51826
16,92630,52517
16,93042,52740
16,93453,50897
16,93867,52497
16,94278,51981
16,94690,50920
16,95103,49046
16,95515,51494
16,95927,52617
16,96340,51339
16,96752,52761
16,97163,51128
16,97577,52535
16,97988,52208
16,98400,51509
16,98812,54090
16,99225,52970
16,99637,52484
17,00048,49454
17,00462,50473
17,00873,50593
17,01285,51350
17,01698,49561
17,02110,51291
17,02522,51800
17,02935,51627
17,03347,49297
17,03758,53634
17,04172,55421
17,04583,49928
17,04995,50239
17,05408,48865
17,05820,52694
17,06232,51960
17,06645,54605
17,07057,52333
17,07468,53114
17,07880,54219
17,08293,54075
17,08705,51428
17,09117,51874
17,09530,50323
17,09942,50702
17,10353,52104
17,10767,49565
17,11178,50158
17,11590,53188
17,12003,51508
17,12415,51184
17,12827,50758
17,13240,52468
17,13652,51532
17,14063,51367
17,14477,53370
17,14888,50180
17,15300,53564
17,15713,51528
17,16125,52367
17,16537,52734
17,16948,50754
17,17362,52318
17,17773,50357
17,18185,53609
17,18598,50283
17,19010,49757
17,19422,51858
17,19835,51766
17,20247,50723
17,20658,51246
17,21072,49843
17,21483,49263
17,21895,51964
17,22308,50082
17,22720,48470
17,23132,46659
17,23545,49993
17,23957,47148
17,24368,50552
17,24782,48494
17,25193,51043
17,25605,50238
17,26017,50060
17,26430,51420
17,26842,52847
17,27253,48963
17,27667,50774
17,28078,49810
17,28490,47327
17,28903,51311
17,29315,50887
17,29727,50083
17,30140,49805
17,30552,50525
17,30963,49769
17,31377,51700
17,31788,48827
17,32200,46909
17,32613,50321
17,33025,52250
17,33437,49121
17,33850,49994
17,34262,48402
17,34673,51261
17,35085,50163
17,35498,49618
17,35910,52285
17,36322,49517
17,36735,49066
17,37147,51820
17,37558,49278
17,37972,49485
17,38383,50672
17,38795,50546
17,39208,48819
17,39620,48098
17,40032,49137
17,40445,51579
17,40857,48906
17,41268,50174
17,41682,46775
17,42093,49501
17,42505,49923
17,42918,48555
17,43330,48786
17,43742,47817
17,44153,49937
17,44567,47307
17,44978,48779
17,45390,49056
17,45803,47542
17,46215,48959
17,46627,51316
17,47040,50411
17,47452,49802
17,47863,48897
17,48277,47298
17,48688,49128
17,49100,52764
17,49513,51541
17,49925,49058
17,50337,51280
17,50750,49349
17,51162,51110
17,51573,50144
17,51987,50869
17,52398,48281
17,52810,51509
17,53222,51084
17,53635,48805
17,54047,51416
17,54458,51178
17,54872,49351
17,55283,49827
17,55695,49286
17,56108,49677
17,56520,51817
17,56932,50356
17,57345,51168
17,57757,49564
17,58168,52325
17,58582,52093
17,58993,50533
17,59405,47872
17,59818,49844
17,60230,48021
17,60642,49920
17,61055,52416
17,61467,45902
17,61878,48114
17,62290,48236
17,62703,51652
17,63115,48856
17,63527,50473
17,63940,50251
17,64352,51086
17,64763,48389
17,65177,47635
17,65588,46503
17,66000,48880
17,66413,46614
17,66825,49449
17,67237,48209
17,67650,49946
17,68062,47176
17,68473,48588
17,68887,51113
17,69298,47220
17,69710,50781
17,70123,48098
17,70535,46110
17,70947,47656
17,71358,49218
17,71772,49542
17,72183,46512
17,72595,50093
17,73008,44978
17,73420,48968
17,73832,47578
17,74245,50377
17,74657,48312
17,75068,47437
17,75482,45127
17,75893,47201
17,76305,45504
17,76718,45522
17,77130,48936
17,77542,46563
17,77955,48563
17,78367,47080
17,78778,47607
17,79192,48598
17,79603,46540
17,80015,47940
17,80427,48029
17,80840,49879
17,81252,48806
17,81663,48506
17,82077,50236
17,82488,45720
17,82900,47564
17,83313,50435
17,83725,45878
17,84137,49487
17,84550,47703
17,84962,47140
17,85373,48607
17,85787,48672
17,86198,48066
17,86610,45105
17,87023,46557
17,87435,45971
17,87847,49064
17,88260,45180
17,88672,46932
17,89083,47393
17,89495,47359
17,89908,47508
17,90320,48845
17,90732,48260
17,91145,50862
17,91557,46092
17,91968,48586
17,92382,48744
17,92793,49508
17,93205,49702
17,93618,47514
17,94030,47713
17,94442,50801
17,94855,47339
17,95267,46908
17,95678,47908
17,96092,49968
17,96503,48475
17,96915,49605
17,97328,47142
17,97740,45206
17,98152,46980
17,98563,47126
17,98977,46114
17,99388,48046
17,99800,45070
18,00213,48570
18,00625,46434
18,01037,46646
18,01450,49030
18,01862,51899
18,02273,47374
18,02687,48276
18,03098,48889
18,03510,44495
18,03923,46492
18,04335,46976
18,04747,48089
18,05160,46449
18,05572,49267
18,05983,47283
18,06397,46862
18,06808,48680
18,07220,48112
18,07632,46830
18,08045,46328
18,08457,49946
18,08868,46652
18,09282,47032
18,09693,47413
18,10105,46874
18,10518,46620
18,10930,47151
18,11342,50393
18,11755,49486
18,12167,48899
18,12578,49310
18,12992,50057
18,13403,50258
18,13815,48338
18,14228,48718
18,14640,49616
18,15052,48681
18,15465,48870
18,15877,50539
18,16288,49691
18,16700,49522
18,17113,47565
18,17525,48497
18,17937,48827
18,18350,48366
18,18762,46489
18,19173,47007
18,19587,48110
18,19998,49057
18,20410,46675
18,20823,47846
18,21235,47418
18,21647,46659
18,22060,48120
18,22472,49089
18,22883,47974
18,23297,47309
18,23708,48312
18,24120,50169
18,24533,46133
18,24945,47564
18,25357,48097
18,25768,47538
18,26182,47232
18,26593,45468
18,27005,47005
18,27418,47935
18,27830,47441
18,28242,46973
18,28655,47144
18,29067,47764
18,29478,46775
18,29892,50244
18,30303,48941
18,30715,48167
18,31128,49344
18,31540,47960
18,31952,47702
18,32365,45445
18,32777,47624
18,33188,45416
18,33602,45390
18,34013,48596
18,34425,46298
18,34837,49184
18,35250,46364
18,35662,47294
18,36073,48677
18,36487,45739
18,36898,45588
18,37310,45610
18,37723,46955
18,38135,46155
18,38547,47130
18,38960,48200
18,39372,47318
18,39783,47940
18,40197,50050
18,40608,48008
18,41020,48855
18,41433,46286
18,41845,44930
18,42257,47671
18,42670,45290
18,43082,48771
18,43493,47614
18,43905,46258
18,44318,49901
18,44730,51775
18,45142,49032
18,45555,49248
18,45967,50428
18,46378,50905
18,46792,51782
18,47203,53355
18,47615,51902
18,48028,52564
18,48440,51991
18,48852,51884
18,49265,54510
18,49677,52817
18,50088,51900
18,50502,52604
18,50913,52806
18,51325,51185
18,51738,53505
18,52150,52943
18,52562,49329
18,52973,52156
18,53387,50169
18,53798,51304
18,54210,50464
18,54623,50199
18,55035,51278
18,55447,49772
18,55860,49642
18,56272,47408
18,56683,47906
18,57097,48069
18,57508,49040
18,57920,46922
18,58333,49991
18,58745,47774
18,59157,46926
18,59570,46963
18,59982,47744
18,60393,47748
18,60807,49506
18,61218,50043
18,61630,46738
18,62043,48639
18,62455,49492
18,62867,45970
18,63278,47874
18,63692,48616
18,64103,44701
18,64515,48693
18,64928,49211
18,65340,49188
18,65752,45964
18,66165,45152
18,66577,46341
18,66988,48072
18,67402,47377
18,67813,48697
18,68225,46171
18,68638,45741
18,69050,47883
18,69462,48033
18,69875,49334
18,70287,49269
18,70698,47552
18,71112,48317
18,71523,48696
18,71935,48138
18,72347,47803
18,72760,47671
18,73172,49231
18,73583,50325
18,73997,46312
18,74408,47267
18,74820,46444
18,75233,47575
18,75645,46390
18,76057,46190
18,76470,49113
18,76882,45627
18,77293,49696
18,77707,44739
18,78118,47039
18,78530,45199
18,78943,46750
18,79355,46894
18,79767,47003
18,80180,47414
18,80592,49635
18,81003,48143
18,81415,46852
18,81828,45459
18,82240,48838
18,82652,47792
18,83065,47197
18,83477,48168
18,83888,50029
18,84302,47487
18,84713,47163
18,85125,43720
18,85538,47056
18,85950,46418
18,86362,47736
18,86775,49662
18,87187,46851
18,87598,46918
18,88012,48484
18,88423,46198
18,88835,49753
18,89248,46140
18,89660,46994
18,90072,47467
18,90483,48436
18,90897,47839
18,91308,46246
18,91720,48595
18,92133,45524
18,92545,45282
18,92957,46475
18,93370,46667
18,93782,47151
18,94193,47618
18,94607,47030
18,95018,48510
18,95430,48552
18,95843,47131
18,96255,45232
18,96667,46455
18,97080,47052
18,97492,46041
18,97903,46944
18,98317,47987
18,98728,48699
18,99140,48855
18,99552,47085
18,99965,46354
19,00377,48507
19,00788,49283
19,01202,47353
19,01613,47714
19,02025,46347
19,02438,45163
19,02850,47312
19,03262,48301
19,03675,50029
19,04087,45935
19,04498,48362
19,04912,46552
19,05323,48017
19,05735,47605
19,06148,44145
19,06560,45888
19,06972,47020
19,07385,48767
19,07797,45763
19,08208,49099
19,08620,46135
19,09033,45815
19,09445,46610
19,09857,46352
19,10270,45358
19,10682,45815
19,11093,47848
19,11507,46727
19,11918,47049
19,12330,46687
19,12743,46189
19,13155,46055
19,13567,48409
19,13980,45666
19,14392,44386
19,14803,47596
19,15217,45811
19,15628,46500
19,16040,45646
19,16453,45748
19,16865,46949
19,17277,45775
19,17688,48260
19,18102,44329
19,18513,45427
19,18925,47519
19,19338,44385
19,19750,46715
19,20162,46404
19,20575,48643
19,20987,47448
19,21398,46682
19,21812,49357
19,22223,45522
19,22635,48603
19,23048,46321
19,23460,46182
19,23872,46290
19,24285,45577
19,24697,45365
19,25108,44613
19,25522,43773
19,25933,44639
19,26345,44692
19,26757,47473
19,27170,48065
19,27582,45068
19,27993,48424
19,28407,45284
19,28818,46680
19,29230,47125
19,29643,46632
19,30055,44966
19,30467,45331
19,30880,46050
19,31292,46970
19,31703,46221
19,32117,44593
19,32528,45355
19,32940,45473
19,33353,43664
19,33765,45548
19,34177,46390
19,34590,43806
19,35002,45605
19,35413,45274
19,35825,47629
19,36238,49952
19,36650,46068
19,37062,48668
19,37475,45316
19,37887,44393
19,38298,46554
19,38712,49265
19,39123,45779
19,39535,44745
19,39948,42611
19,40360,46386
19,40772,47892
19,41185,47521
19,41597,47871
19,42008,44963
19,42422,47512
19,42833,43230
19,43245,46619
19,43658,43344
19,44070,46439
19,44482,46477
19,44893,46614
19,45307,46665
19,45718,48014
19,46130,46896
19,46543,44307
19,46955,45398
19,47367,45686
19,47780,49369
19,48192,45773
19,48603,47596
19,49017,47419
19,49428,44747
19,49840,47435
19,50253,45038
19,50665,48207
19,51077,49555
19,51490,46067
19,51902,48612
19,52313,45349
19,52727,47429
19,53138,46390
19,53550,46434
19,53962,49023
19,54375,50162
19,54787,45049
19,55198,46139
19,55612,47926
19,56023,47143
19,56435,47979
19,56848,48198
19,57260,46465
19,57672,48473
19,58085,48731
19,58497,47551
19,58908,45941
19,59322,49455
19,59733,48640
19,60145,46021
19,60558,48376
19,60970,47055
19,61382,48533
19,61795,46882
19,62207,48104
19,62618,48206
19,63030,49465
19,63443,47686
19,63855,47685
19,64267,44767
19,64680,49903
19,65092,45836
19,65503,47193
19,65917,46425
19,66328,48439
19,66740,45247
19,67153,46780
19,67565,48124
19,67977,47800
19,68390,46826
19,68802,46352
19,69213,45844
19,69627,48738
19,70038,45089
19,70450,48868
19,70863,46070
19,71275,44474
19,71687,45190
19,72098,44328
19,72512,46676
19,72923,44992
19,73335,47196
19,73748,46450
19,74160,44899
19,74572,42469
19,74985,48972
19,75397,46936
19,75808,46701
19,76222,46863
19,76633,45292
19,77045,47141
19,77458,48912
19,77870,45859
19,78282,47075
19,78695,48020
19,79107,45440
19,79518,49241
19,79932,46616
19,80343,46894
19,80755,46595
19,81167,47589
19,81580,46584
19,81992,47877
19,82403,46582
19,82817,43494
19,83228,46608
19,83640,46139
19,84053,46102
19,84465,47131
19,84877,46830
19,85290,46396
19,85702,46960
19,86113,47712
19,86527,51129
19,86938,48708
19,87350,45715
19,87763,48928
19,88175,47050
19,88587,47096
19,89000,44495
19,89412,49719
19,89823,45489
19,90235,45908
19,90648,45006
19,91060,47210
19,91472,47265
19,91885,49680
19,92297,48742
19,92708,47363
19,93122,45424
19,93533,46600
19,93945,48795
19,94358,47768
19,94770,45226
19,95182,46963
19,95595,46300
19,96007,46713
19,96418,44845
19,96832,44607
19,97243,46184
19,97655,47291
19,98068,43820
19,98480,46152
19,98892,45583
19,99303,45216
19,99717,46730
20,00128,46054
20,00540,44671
20,00953,44269
20,01365,46142
20,01777,45224
20,02190,46319
20,02602,47316
20,03013,46747
20,03427,46425
20,03838,46981
20,04250,44117
20,04663,47264
20,05075,47691
20,05487,43918
20,05900,47543
20,06312,43271
20,06723,47103
20,07137,46112
20,07548,47064
20,07960,47168
20,08372,48672
20,08785,46647
20,09197,46664
20,09608,46434
20,10022,45608
20,10433,47388
20,10845,46008
20,11258,46047
20,11670,47023
20,12082,45378
20,12495,46207
20,12907,45772
20,13318,48386
20,13732,48802
20,14143,46963
20,14555,46757
20,14968,45351
20,15380,46826
20,15792,48498
20,16205,46040
20,16617,47125
20,17028,48214
20,17442,45103
20,17853,48519
20,18265,44498
20,18677,44672
20,19090,45196
20,19502,44137
20,19913,46368
20,20327,47624
20,20738,44543
20,21150,44857
20,21563,44911
20,21975,44899
20,22387,43754
20,22800,46199
20,23212,46125
20,23623,48436
20,24037,46148
20,24448,44791
20,24860,48077
20,25273,45386
20,25685,46448
20,26097,42768
20,26510,44709
20,26922,45600
20,27333,44237
20,27745,44874
20,28158,44047
20,28570,43199
20,28982,44609
20,29395,43941
20,29807,46719
20,30218,43511
20,30632,44432
20,31043,46244
20,31455,45972
20,31868,45712
20,32280,46851
20,32692,45866
20,33105,45008
20,33517,43022
20,33928,44072
20,34342,45256
20,34753,45241
20,35165,46474
20,35578,47725
20,35990,47908
20,36402,47330
20,36813,47193
20,37227,47898
