D:\MassHunter\GCMS\1\data\Amal\Constant flow\80C\80C_1ml-min_9C-min_1.D Thu Aug 01 19:29:30 2024
Start of data points
6,24103	112864
6,24515	102952
6,24927	92948
6,25340	84254
6,25752	78189
6,26163	70849
6,26577	62885
6,26988	60232
6,27400	56623
6,27813	51026
6,28225	46467
6,28637	42706
6,29050	38448
6,29462	36269
6,29873	35427
6,30287	31528
6,30698	29071
6,31110	28548
6,31522	24901
6,31935	25187
6,32347	24011
6,32758	22772
6,33172	21230
6,33583	21390
6,33995	21613
6,34408	19571
6,34820	20072
6,35232	19175
6,35645	17861
6,36057	15928
6,36468	16808
6,36882	15841
6,37293	16192
6,37705	15582
6,38118	16216
6,38530	13701
6,38942	15731
6,39355	14760
6,39767	15663
6,40178	13467
6,40592	13816
6,41003	13579
6,41415	14023
6,41827	12740
6,42240	13007
6,42652	13695
6,43063	13217
6,43477	12192
6,43888	12249
6,44300	13145
6,44713	12815
6,45125	13274
6,45537	12191
6,45950	12712
6,46362	11571
6,46773	11564
6,47187	12586
6,47598	11804
6,48010	12570
6,48423	11337
6,48835	11930
6,49247	11069
6,49660	10932
6,50072	12049
6,50483	12113
6,50895	11150
6,51308	12413
6,51720	11092
6,52132	12234
6,52545	11037
6,52957	11939
6,53368	10799
6,53782	11263
6,54193	11664
6,54605	10825
6,55018	11011
6,55430	11320
6,55842	11827
6,56255	10491
6,56667	11397
6,57078	11328
6,57492	10924
6,57903	10875
6,58315	11438
6,58728	9966
6,59140	9777
6,59552	10977
6,59963	11378
6,60377	11194
6,60788	10456
6,61200	11447
6,61613	11818
6,62025	10102
6,62437	9799
6,62850	10429
6,63262	10339
6,63673	10349
6,64087	10687
6,64498	11258
6,64910	10919
6,65323	9624
6,65735	9431
6,66147	9996
6,66560	9698
6,66972	9838
6,67383	9267
6,67797	9636
6,68208	9486
6,68620	10085
6,69032	9794
6,69445	9667
6,69857	9317
6,70268	9576
6,70682	9719
6,71093	8868
6,71505	8548
6,71918	9737
6,72330	9449
6,72742	9337
6,73155	9915
6,73567	9988
6,73978	9826
6,74392	9792
6,74803	9375
6,75215	9909
6,75628	9514
6,76040	9051
6,76452	9583
6,76865	10234
6,77277	10551
6,77688	9633
6,78100	9187
6,78513	9714
6,78925	8637
6,79337	9772
6,79750	9093
6,80162	9925
6,80573	9076
6,80987	9037
6,81398	8670
6,81810	8861
6,82223	9233
6,82635	9557
6,83047	9366
6,83460	9049
6,83872	8649
6,84283	8897
6,84697	9001
6,85108	8996
6,85520	8625
6,85933	8858
6,86345	9845
6,86757	8197
6,87168	8176
6,87582	8952
6,87993	8714
6,88405	8306
6,88818	8518
6,89230	8922
6,89642	7943
6,90055	8451
6,90467	8887
6,90878	8060
6,91292	8382
6,91703	8737
6,92115	7985
6,92528	8997
6,92940	7975
6,93352	8319
6,93765	8390
6,94177	8262
6,94588	9083
6,95002	8175
6,95413	8771
6,95825	8406
6,96237	8189
6,96650	9014
6,97062	8435
6,97473	9142
6,97887	8004
6,98298	8989
6,98710	9128
6,99123	9019
6,99535	8036
6,99947	7941
7,00360	8210
7,00772	8570
7,01183	8485
7,01597	8385
7,02008	8400
7,02420	8205
7,02833	8509
7,03245	8491
7,03657	8509
7,04070	7449
7,04482	8168
7,04893	7443
7,05305	7675
7,05718	9073
7,06130	8297
7,06542	8638
7,06955	8221
7,07367	8441
7,07778	8654
7,08192	9443
7,08603	8833
7,09015	9007
7,09428	9628
7,09840	8487
7,10252	9700
7,10665	10089
7,11077	9920
7,11488	9694
7,11902	8877
7,12313	8443
7,12725	8892
7,13138	8603
7,13550	8667
7,13962	8421
7,14373	8227
7,14787	8488
7,15198	8103
7,15610	7740
7,16023	7615
7,16435	7636
7,16847	6776
7,17260	7494
7,17672	7592
7,18083	7916
7,18497	8000
7,18908	7390
7,19320	7363
7,19733	7948
7,20145	7596
7,20557	7127
7,20970	7146
7,21382	6921
7,21793	7559
7,22207	7290
7,22618	7320
7,23030	7176
7,23442	6802
7,23855	7132
7,24267	6729
7,24678	7299
7,25092	7454
7,25503	7892
7,25915	6467
7,26328	7276
7,26740	7095
7,27152	8587
7,27565	7508
7,27977	6919
7,28388	7481
7,28802	6866
7,29213	7246
7,29625	7385
7,30038	7073
7,30450	7229
7,30862	6889
7,31275	6959
7,31687	8247
7,32098	7371
7,32510	6969
7,32923	7961
7,33335	6869
7,33747	7661
7,34160	7436
7,34572	7650
7,34983	6301
7,35397	7328
7,35808	6961
7,36220	7205
7,36633	7605
7,37045	7489
7,37457	7977
7,37870	7200
7,38282	7914
7,38693	7014
7,39107	7197
7,39518	7684
7,39930	7036
7,40343	7561
7,40755	6236
7,41167	6675
7,41578	7067
7,41992	7115
7,42403	6522
7,42815	7358
7,43228	6264
7,43640	6784
7,44052	6761
7,44465	6667
7,44877	6947
7,45288	7618
7,45702	6981
7,46113	6611
7,46525	7190
7,46938	6232
7,47350	7275
7,47762	6486
7,48175	7248
7,48587	6421
7,48998	6776
7,49412	6675
7,49823	6523
7,50235	6691
7,50647	7878
7,51060	6960
7,51472	6996
7,51883	6948
7,52297	7788
7,52708	10373
7,53120	13187
7,53533	19902
7,53945	29596
7,54357	44397
7,54770	69002
7,55182	93971
7,55593	120731
7,56007	149513
7,56418	172273
7,56830	187834
7,57243	195417
7,57655	199484
7,58067	191719
7,58480	180236
7,58892	168492
7,59303	152304
7,59715	134352
7,60128	120736
7,60540	107428
7,60952	89975
7,61365	78563
7,61777	65591
7,62188	57360
7,62602	48865
7,63013	41641
7,63425	36054
7,63838	30941
7,64250	27057
7,64662	21584
7,65075	20262
7,65487	17734
7,65898	16604
7,66312	15068
7,66723	13497
7,67135	12074
7,67548	11105
7,67960	11106
7,68372	10796
7,68783	10089
7,69197	9483
7,69608	8862
7,70020	8778
7,70433	8228
7,70845	7904
7,71257	8331
7,71670	8525
7,72082	8779
7,72493	8252
7,72907	6368
7,73318	8093
7,73730	7229
7,74143	6593
7,74555	7745
7,74967	7621
7,75380	7181
7,75792	7051
7,76203	6834
7,76617	6686
7,77028	6619
7,77440	7198
7,77852	6728
7,78265	5952
7,78677	7394
7,79088	7412
7,79502	6157
7,79913	7235
7,80325	5989
7,80738	7488
7,81150	6198
7,81562	6451
7,81975	7091
7,82387	6217
7,82798	6294
7,83212	6229
7,83623	6896
7,84035	5420
7,84448	6642
7,84860	6386
7,85272	6653
7,85685	7546
7,86097	6175
7,86508	7999
7,86920	7372
7,87333	9626
7,87745	9444
7,88157	10180
7,88570	10713
7,88982	10572
7,89393	9794
7,89807	8473
7,90218	8143
7,90630	7969
7,91043	7218
7,91455	6773
7,91867	6435
7,92280	5668
7,92692	5558
7,93103	5392
7,93517	5749
7,93928	5015
7,94340	5237
7,94753	5399
7,95165	5606
7,95577	6411
7,95988	5991
7,96402	5584
7,96813	6320
7,97225	6688
7,97638	6254
7,98050	5078
7,98462	5440
7,98875	5930
7,99287	5672
7,99698	5029
8,00112	5742
8,00523	6130
8,00935	5370
8,01348	5366
8,01760	5404
8,02172	5452
8,02585	5474
8,02997	5310
8,03408	5176
8,03822	5452
8,04233	5414
8,04645	5285
8,05057	5695
8,05470	6205
8,05882	4883
8,06293	5461
8,06707	5093
8,07118	6013
8,07530	6657
8,07943	6279
8,08355	6449
8,08767	6170
8,09180	6143
8,09592	6291
8,10003	5793
8,10417	5957
8,10828	5139
8,11240	6041
8,11653	5394
8,12065	5419
8,12477	5307
8,12890	5341
8,13302	4740
8,13713	5418
8,14127	6382
8,14538	4673
8,14950	4971
8,15362	5765
8,15775	6681
8,16187	5900
8,16598	5452
8,17012	5299
8,17423	5469
8,17835	5254
8,18248	5203
8,18660	6358
8,19072	5607
8,19485	5417
8,19897	5131
8,20308	4743
8,20722	6180
8,21133	5064
8,21545	4959
8,21958	5548
8,22370	5237
8,22782	5812
8,23195	6199
8,23607	5864
8,24018	6078
8,24430	5839
8,24843	5563
8,25255	4851
8,25667	5013
8,26080	6133
8,26492	5560
8,26903	5259
8,27317	4482
8,27728	5548
8,28140	5482
8,28553	4668
8,28965	4995
8,29377	4567
8,29790	4547
8,30202	4817
8,30613	4304
8,31027	4530
8,31438	5625
8,31850	4533
8,32263	4678
8,32675	4877
8,33087	5403
8,33498	5250
8,33912	4706
8,34323	4930
8,34735	4863
8,35148	5018
8,35560	5925
8,35972	4887
8,36385	5122
8,36797	5532
8,37208	5084
8,37622	5585
8,38033	5198
8,38445	5327
8,38858	4413
8,39270	5216
8,39682	4640
8,40095	4973
8,40507	4518
8,40918	4799
8,41332	4755
8,41743	5230
8,42155	4594
8,42567	5168
8,42980	4848
8,43392	5601
8,43803	5210
8,44217	4486
8,44628	5838
8,45040	5685
8,45453	5096
8,45865	6047
8,46277	6509
8,46690	5774
8,47102	6413
8,47513	5722
8,47927	6258
8,48338	5902
8,48750	5505
8,49163	6484
8,49575	5217
8,49987	5959
8,50400	5783
8,50812	4828
8,51223	5009
8,51635	5156
8,52048	4240
8,52460	4117
8,52872	3956
8,53285	4986
8,53697	4883
8,54108	4078
8,54522	4629
8,54933	5015
8,55345	4184
8,55758	4524
8,56170	4771
8,56582	4882
8,56995	4951
8,57407	5347
8,57818	5105
8,58232	5757
8,58643	5542
8,59055	5946
8,59468	6454
8,59880	6549
8,60292	7668
8,60703	7802
8,61117	7619
8,61528	8672
8,61940	8707
8,62353	8602
8,62765	7205
8,63177	8151
8,63590	8716
8,64002	7879
8,64413	7688
8,64827	6978
8,65238	6686
8,65650	6701
8,66063	6577
8,66475	6339
8,66887	6038
8,67300	5557
8,67712	5928
8,68123	6131
8,68537	5296
8,68948	5265
8,69360	4909
8,69772	5462
8,70185	5425
8,70597	4095
8,71008	5089
8,71422	4824
8,71833	4741
8,72245	4507
8,72658	4200
8,73070	4577
8,73482	4714
8,73895	5345
8,74307	4683
8,74718	4975
8,75132	4772
8,75543	5180
8,75955	5106
8,76368	5406
8,76780	4127
8,77192	3882
8,77605	4150
8,78017	3928
8,78428	5066
8,78840	4448
8,79253	4471
8,79665	4761
8,80077	4157
8,80490	4594
8,80902	4638
8,81313	4172
8,81727	4580
8,82138	5057
8,82550	4338
8,82963	4965
8,83375	5175
8,83787	5037
8,84200	4571
8,84612	5303
8,85023	5061
8,85437	4800
8,85848	4515
8,86260	5184
8,86673	3816
8,87085	4401
8,87497	4797
8,87908	4703
8,88322	4907
8,88733	4683
8,89145	4855
8,89558	3896
8,89970	4276
8,90382	4263
8,90795	4323
8,91207	3846
8,91618	4313
8,92032	4125
8,92443	3853
8,92855	4583
8,93268	4246
8,93680	4592
8,94092	4364
8,94505	4426
8,94917	4620
8,95328	3992
8,95742	3623
8,96153	3762
8,96565	4422
8,96977	3339
8,97390	4681
8,97802	4215
8,98213	3783
8,98627	3974
8,99038	4718
8,99450	4324
8,99863	4629
9,00275	3481
9,00687	4644
9,01100	3881
9,01512	4161
9,01923	4091
9,02337	4267
9,02748	3669
9,03160	4445
9,03573	4239
9,03985	4118
9,04397	4014
9,04810	4463
9,05222	4493
9,05633	4504
9,06045	3999
9,06458	4334
9,06870	4433
9,07282	4277
9,07695	4111
9,08107	4169
9,08518	4537
9,08932	4440
9,09343	4614
9,09755	4991
9,10168	5481
9,10580	5025
9,10992	5557
9,11405	5115
9,11817	4489
9,12228	4999
9,12642	3982
9,13053	4299
9,13465	4248
9,13878	4343
9,14290	4121
9,14702	5118
9,15113	4062
9,15527	4099
9,15938	3988
9,16350	4234
9,16763	4373
9,17175	4974
9,17587	4966
9,18000	5433
9,18412	5183
9,18823	4967
9,19237	4894
9,19648	4027
9,20060	5048
9,20473	4679
9,20885	4728
9,21297	4084
9,21710	4424
9,22122	4617
9,22533	3874
9,22947	4198
9,23358	4357
9,23770	3976
9,24182	3801
9,24595	3713
9,25007	3348
9,25418	3609
9,25832	4182
9,26243	4032
9,26655	4631
9,27068	4602
9,27480	3852
9,27892	4021
9,28305	3817
9,28717	3442
9,29128	4469
9,29542	4652
9,29953	4223
9,30365	3753
9,30778	4201
9,31190	4573
9,31602	4170
9,32015	3616
9,32427	4066
9,32838	4252
9,33250	3879
9,33663	4014
9,34075	4171
9,34487	4191
9,34900	3414
9,35312	3924
9,35723	4709
9,36137	3844
9,36548	5904
9,36960	8495
9,37373	16284
9,37785	32790
9,38197	59592
9,38610	107728
9,39022	187273
9,39433	287945
9,39847	429140
9,40258	584715
9,40670	747148
9,41083	886143
9,41495	985864
9,41907	1026114
9,42318	1017726
9,42732	955228
9,43143	856414
9,43555	733160
9,43968	610235
9,44380	478646
9,44792	376991
9,45205	299381
9,45617	229120
9,46028	175418
9,46442	137898
9,46853	107472
9,47265	89277
9,47678	70778
9,48090	60691
9,48502	52982
9,48915	42469
9,49327	37798
9,49738	34288
9,50152	30822
9,50563	26437
9,50975	23932
9,51387	22676
9,51800	21572
9,52212	19273
9,52623	16040
9,53037	15666
9,53448	14902
9,53860	13446
9,54273	13997
9,54685	12612
9,55097	10958
9,55510	12230
9,55922	11342
9,56333	10201
9,56747	9950
9,57158	8744
9,57570	9002
9,57983	8760
9,58395	8035
9,58807	8890
9,59220	7304
9,59632	7619
9,60043	8502
9,60455	7223
9,60868	6968
9,61280	6623
9,61692	6693
9,62105	6788
9,62517	6181
9,62928	6159
9,63342	6151
9,63753	6188
9,64165	6678
9,64578	6059
9,64990	4343
9,65402	5352
9,65815	5407
9,66227	5861
9,66638	5634
9,67052	4747
9,67463	4995
9,67875	5071
9,68288	4985
9,68700	4907
9,69112	5360
9,69525	5036
9,69937	4876
9,70348	4766
9,70760	5670
9,71173	5349
9,71585	5320
9,71997	5374
9,72410	4732
9,72822	5325
9,73233	4678
9,73647	5116
9,74058	5997
9,74470	4563
9,74883	4269
9,75295	4183
9,75707	4735
9,76120	4312
9,76532	4578
9,76943	4387
9,77357	4427
9,77768	4370
9,78180	4752
9,78593	5231
9,79005	4789
9,79417	4913
9,79828	4126
9,80242	4206
9,80653	4135
9,81065	3699
9,81478	3932
9,81890	4097
9,82302	4404
9,82715	4787
9,83127	5132
9,83538	6386
9,83952	6620
9,84363	8090
9,84775	9064
9,85188	8414
9,85600	8864
9,86012	7784
9,86425	6987
9,86837	5257
9,87248	5326
9,87662	4166
9,88073	4073
9,88485	3945
9,88897	3680
9,89310	3698
9,89722	3403
9,90133	4059
9,90547	3607
9,90958	3387
9,91370	3787
9,91783	4268
9,92195	4129
9,92607	3096
9,93020	4267
9,93432	4259
9,93843	3602
9,94257	4350
9,94668	3552
9,95080	4353
9,95493	3608
9,95905	4440
9,96317	3663
9,96730	4022
9,97142	3285
9,97553	3563
9,97965	3714
9,98378	3894
9,98790	3675
9,99202	3604
9,99615	4262
10,00027	3361
10,00438	4211
10,00852	2804
10,01263	3510
10,01675	3371
10,02088	3181
10,02500	3180
10,02912	3375
10,03325	2937
10,03737	3660
10,04148	3722
10,04562	3224
10,04973	3489
10,05385	2839
10,05798	3454
10,06210	3774
10,06622	3439
10,07033	3661
10,07447	4342
10,07858	3689
10,08270	4387
10,08683	3509
10,09095	3828
10,09507	4015
10,09920	3800
10,10332	4037
10,10743	3821
10,11157	3373
10,11568	3617
10,11980	3563
10,12393	3801
10,12805	3810
10,13217	3714
10,13630	3348
10,14042	3879
10,14453	3292
10,14867	3516
10,15278	3315
10,15690	3177
10,16102	3867
10,16515	3628
10,16927	3628
10,17338	3988
10,17752	4191
10,18163	3363
10,18575	3157
10,18988	3468
10,19400	3674
10,19812	4203
10,20225	2956
10,20637	3712
10,21048	3467
10,21462	3714
10,21873	2629
10,22285	2947
10,22698	3745
10,23110	3301
10,23522	3193
10,23935	4290
10,24347	3807
10,24758	3367
10,25170	2618
10,25583	3047
10,25995	3697
10,26407	3158
10,26820	2865
10,27232	3138
10,27643	3025
10,28057	2943
10,28468	3109
10,28880	3458
10,29293	3326
10,29705	3693
10,30117	3047
10,30530	3485
10,30942	3515
10,31353	4434
10,31767	3929
10,32178	6575
10,32590	10894
10,33003	19045
10,33415	39246
10,33827	70541
10,34238	122826
10,34652	196219
10,35063	296617
10,35475	396872
10,35888	498288
10,36300	593769
10,36712	661179
10,37125	677436
10,37537	655258
10,37948	593735
10,38362	506419
10,38773	419287
10,39185	329326
10,39598	250735
10,40010	193139
10,40422	147881
10,40835	113210
10,41247	87092
10,41658	67936
10,42072	59035
10,42483	46701
10,42895	40702
10,43307	37561
10,43720	29703
10,44132	26673
10,44543	24152
10,44957	22767
10,45368	21560
10,45780	17885
10,46193	15849
10,46605	15494
10,47017	13500
10,47430	13237
10,47842	11694
10,48253	10847
10,48667	9324
10,49078	9781
10,49490	8378
10,49903	9139
10,50315	8339
10,50727	7881
10,51140	6387
10,51552	7285
10,51963	6205
10,52375	7006
10,52788	5795
10,53200	6109
10,53612	5815
10,54025	6038
10,54437	5610
10,54848	5644
10,55262	5296
10,55673	6008
10,56085	5424
10,56498	4595
10,56910	4757
10,57322	4623
10,57735	4626
10,58147	4390
10,58558	4328
10,58972	4698
10,59383	3323
10,59795	4489
10,60208	4280
10,60620	3578
10,61032	3930
10,61443	4222
10,61857	3674
10,62268	4253
10,62680	3122
10,63093	4113
10,63505	3627
10,63917	4245
10,64330	3926
10,64742	3670
10,65153	3452
10,65567	4057
10,65978	3637
10,66390	3654
10,66803	4017
10,67215	3630
10,67627	3396
10,68040	3473
10,68452	3972
10,68863	3810
10,69277	4323
10,69688	3824
10,70100	3695
10,70512	4252
10,70925	3928
10,71337	5298
10,71748	5103
10,72162	5646
10,72573	7358
10,72985	6997
10,73398	5866
10,73810	6100
10,74222	5919
10,74635	5180
10,75047	4653
10,75458	3753
10,75872	3666
10,76283	3750
10,76695	3469
10,77108	3690
10,77520	3291
10,77932	3901
10,78345	2705
10,78757	3310
10,79168	3353
10,79580	3133
10,79993	2829
10,80405	4205
10,80817	3149
10,81230	3017
10,81642	3435
10,82053	3014
10,82467	3488
10,82878	2744
10,83290	3172
10,83703	2864
10,84115	2759
10,84527	2779
10,84940	2644
10,85352	3276
10,85763	3110
10,86177	3098
10,86588	2714
10,87000	3059
10,87413	3400
10,87825	3223
10,88237	3104
10,88648	2484
10,89062	2797
10,89473	2646
10,89885	3027
10,90298	2843
10,90710	3235
10,91122	3199
10,91535	3129
10,91947	2574
10,92358	2656
10,92772	2838
10,93183	3318
10,93595	3135
10,94008	3190
10,94420	3408
10,94832	3294
10,95245	3405
10,95657	3450
10,96068	3255
10,96482	3709
10,96893	3299
10,97305	2992
10,97717	3436
10,98130	3274
10,98542	3397
10,98953	2995
10,99367	3018
10,99778	2982
11,00190	2654
11,00603	3347
11,01015	2727
11,01427	2622
11,01840	2804
11,02252	2970
11,02663	3271
11,03077	2740
11,03488	2490
11,03900	2565
11,04313	2651
11,04725	3306
11,05137	2125
11,05550	2539
11,05962	2989
11,06373	2388
11,06785	2315
11,07198	2724
11,07610	2797
11,08022	2206
11,08435	2839
11,08847	3283
11,09258	3001
11,09672	3277
11,10083	3180
11,10495	2744
11,10908	3402
11,11320	4207
11,11732	3088
11,12145	3034
11,12557	3512
11,12968	4511
11,13382	2289
11,13793	3282
11,14205	3056
11,14618	2553
11,15030	3193
11,15442	3307
11,15853	3292
11,16267	4193
11,16678	3511
11,17090	2987
11,17503	3831
11,17915	3524
11,18327	4068
11,18740	3773
11,19152	3965
11,19563	4249
11,19977	4140
11,20388	3843
11,20800	3012
11,21213	2828
11,21625	3277
11,22037	2952
11,22450	2488
11,22862	2689
11,23273	2659
11,23687	3029
11,24098	3315
11,24510	2756
11,24922	3951
11,25335	5133
11,25747	9139
11,26158	17276
11,26572	37914
11,26983	77725
11,27395	151253
11,27808	265770
11,28220	443508
11,28632	674335
11,29045	935134
11,29457	1198815
11,29868	1439500
11,30282	1593696
11,30693	1651472
11,31105	1565655
11,31518	1397495
11,31930	1169876
11,32342	936933
11,32755	712997
11,33167	539453
11,33578	406239
11,33992	299229
11,34403	225119
11,34815	170775
11,35227	135136
11,35640	105787
11,36052	86254
11,36463	70722
11,36877	61134
11,37288	50946
11,37700	44798
11,38113	39444
11,38525	34429
11,38937	31174
11,39350	27259
11,39762	24647
11,40173	22300
11,40587	20688
11,40998	19227
11,41410	17424
11,41823	15869
11,42235	14513
11,42647	13977
11,43060	11456
11,43472	11929
11,43883	11732
11,44295	10759
11,44708	10431
11,45120	9455
11,45532	9236
11,45945	8874
11,46357	8291
11,46768	7528
11,47182	7179
11,47593	7252
11,48005	7040
11,48418	6385
11,48830	6206
11,49242	5990
11,49655	5607
11,50067	5279
11,50478	5621
11,50892	5577
11,51303	5335
11,51715	5496
11,52128	4746
11,52540	4748
11,52952	5051
11,53363	5020
11,53777	4132
11,54188	5087
11,54600	4791
11,55013	5084
11,55425	3912
11,55837	4527
11,56250	4513
11,56662	3915
11,57073	3560
11,57487	3776
11,57898	3977
11,58310	3435
11,58723	3882
11,59135	3882
11,59547	3821
11,59960	3770
11,60372	4073
11,60783	3935
11,61197	3740
11,61608	3809
11,62020	3927
11,62432	3589
11,62845	3037
11,63257	2937
11,63668	3768
11,64082	4092
11,64493	3798
11,64905	2659
11,65318	3187
11,65730	2941
11,66142	3809
11,66555	3200
11,66967	3540
11,67378	3654
11,67792	3557
11,68203	3131
11,68615	2843
11,69028	3046
11,69440	3544
11,69852	3042
11,70265	3143
11,70677	4038
11,71088	4711
11,71500	5863
11,71913	7195
11,72325	7224
11,72737	6701
11,73150	5773
11,73562	4657
11,73973	3928
11,74387	4231
11,74798	4328
11,75210	4065
11,75623	3713
11,76035	4502
11,76447	4151
11,76860	4553
11,77272	4051
11,77683	3779
11,78097	3581
11,78508	4457
11,78920	3476
11,79333	3952
11,79745	3365
11,80157	4862
11,80568	4828
11,80982	6250
11,81393	7366
11,81805	8849
11,82218	9215
11,82630	11124
11,83042	11264
11,83455	11539
11,83867	12008
11,84278	10721
11,84692	10313
11,85103	8766
11,85515	8384
11,85928	6846
11,86340	5918
11,86752	4799
11,87165	4594
11,87577	4443
11,87988	4377
11,88402	4337
11,88813	3070
11,89225	3052
11,89637	3054
11,90050	3178
11,90462	2896
11,90873	2543
11,91287	3092
11,91698	3245
11,92110	2914
11,92523	2882
11,92935	2338
11,93347	2667
11,93760	2456
11,94172	2963
11,94583	2749
11,94997	3200
11,95408	2516
11,95820	2134
11,96233	2584
11,96645	2655
11,97057	2654
11,97470	2528
11,97882	2906
11,98293	3061
11,98705	2392
11,99118	2789
11,99530	2117
11,99942	2574
12,00355	2265
12,00767	2091
12,01178	2537
12,01592	2086
12,02003	2316
12,02415	2517
12,02828	2673
12,03240	1825
12,03652	2325
12,04065	2311
12,04477	2774
12,04888	1896
12,05302	2443
12,05713	2313
12,06125	2760
12,06538	2611
12,06950	2340
12,07362	2205
12,07773	2093
12,08187	2237
12,08598	2212
12,09010	2155
12,09423	1990
12,09835	1943
12,10247	2507
12,10660	2033
12,11072	2237
12,11483	1657
12,11897	2423
12,12308	1938
12,12720	1759
12,13133	1847
12,13545	1877
12,13957	2268
12,14370	2359
12,14782	1883
12,15193	2056
12,15607	2124
12,16018	3769
12,16430	5325
12,16842	12089
12,17255	26189
12,17667	53137
12,18078	106483
12,18492	185386
12,18903	295593
12,19315	445716
12,19728	602394
12,20140	747536
12,20552	863223
12,20965	918359
12,21377	903187
12,21788	821405
12,22202	705759
12,22613	569321
12,23025	439404
12,23438	326665
12,23850	248331
12,24262	183765
12,24675	135689
12,25087	104007
12,25498	80306
12,25910	61047
12,26323	50009
12,26735	40188
12,27147	34647
12,27560	28430
12,27972	24012
12,28383	21845
12,28797	19059
12,29208	17562
12,29620	15622
12,30033	12920
12,30445	12376
12,30857	11256
12,31270	11052
12,31682	8698
12,32093	9458
12,32507	8958
12,32918	8884
12,33330	7740
12,33743	6738
12,34155	6235
12,34567	5858
12,34978	5445
12,35392	5626
12,35803	5145
12,36215	4892
12,36628	4596
12,37040	4841
12,37452	4204
12,37865	4204
12,38277	3900
12,38688	4102
12,39102	3680
12,39513	4162
12,39925	4488
12,40338	3730
12,40750	3072
12,41162	3691
12,41575	3271
12,41987	3533
12,42398	2984
12,42812	3109
12,43223	3397
12,43635	3499
12,44047	3655
12,44460	3031
12,44872	3226
12,45283	3428
12,45697	2530
12,46108	3105
12,46520	2731
12,46933	2810
12,47345	2474
12,47757	2619
12,48170	2766
12,48582	3281
12,48993	3070
12,49407	2543
12,49818	2653
12,50230	2840
12,50643	2803
12,51055	2196
12,51467	2243
12,51880	2810
12,52292	2312
12,52703	2554
12,53115	2229
12,53528	2380
12,53940	2194
12,54352	2156
12,54765	2194
12,55177	2562
12,55588	2468
12,56002	2114
12,56413	1930
12,56825	2428
12,57238	2289
12,57650	2129
12,58062	1953
12,58475	2407
12,58887	2220
12,59298	2166
12,59712	2470
12,60123	2005
12,60535	1729
12,60948	2357
12,61360	1930
12,61772	2096
12,62183	3045
12,62597	3289
12,63008	3684
12,63420	3722
12,63833	4896
12,64245	4969
12,64657	5913
12,65070	5569
12,65482	5794
12,65893	5829
12,66307	4536
12,66718	4220
12,67130	3638
12,67543	2881
12,67955	3313
12,68367	3077
12,68780	2919
12,69192	2802
12,69603	1820
12,70017	2669
12,70428	2236
12,70840	1830
12,71252	2480
12,71665	2434
12,72077	2168
12,72488	2397
12,72902	2161
12,73313	2354
12,73725	2799
12,74138	2976
12,74550	3651
12,74962	4583
12,75375	5105
12,75787	5290
12,76198	5412
12,76612	6754
12,77023	5407
12,77435	4937
12,77848	4350
12,78260	3808
12,78672	2765
12,79085	2786
12,79497	3181
12,79908	2862
12,80320	2031
12,80733	2297
12,81145	2245
12,81557	2150
12,81970	1820
12,82382	2021
12,82793	1778
12,83207	1477
12,83618	1905
12,84030	1777
12,84443	1747
12,84855	2002
12,85267	1757
12,85680	1754
12,86092	1434
12,86503	1728
12,86917	1814
12,87328	2233
12,87740	2128
12,88153	2720
12,88565	2499
12,88977	2663
12,89388	2738
12,89802	2680
12,90213	2034
12,90625	2302
12,91038	2613
12,91450	1941
12,91862	2113
12,92275	2430
12,92687	1305
12,93098	2050
12,93512	1648
12,93923	1753
12,94335	1770
12,94748	1588
12,95160	1922
12,95572	1315
12,95985	2013
12,96397	1815
12,96808	1924
12,97222	2267
12,97633	1734
12,98045	1743
12,98458	2151
12,98870	1846
12,99282	1844
12,99693	1914
13,00107	2211
13,00518	2161
13,00930	1676
13,01343	1872
13,01755	1577
13,02167	1202
13,02580	2246
13,02992	3273
13,03403	5533
13,03817	10222
13,04228	24031
13,04640	54163
13,05053	114363
13,05465	217528
13,05877	383414
13,06290	624574
13,06702	932473
13,07113	1276620
13,07527	1606350
13,07938	1873759
13,08350	2040143
13,08762	2000126
13,09175	1852388
13,09587	1609267
13,09998	1281158
13,10412	978079
13,10823	721786
13,11235	530399
13,11648	378482
13,12060	281224
13,12472	202977
13,12885	158503
13,13297	120003
13,13708	99432
13,14122	78443
13,14533	65839
13,14945	53626
13,15358	48983
13,15770	41881
13,16182	37056
13,16595	31575
13,17007	30058
13,17418	26861
13,17830	23693
13,18243	22853
13,18655	19623
13,19067	18477
13,19480	16473
13,19892	16059
13,20303	13597
13,20717	13470
13,21128	13014
13,21540	13761
13,21953	11589
13,22365	12215
13,22777	13321
13,23190	13298
13,23602	13417
13,24013	13871
13,24427	13812
13,24838	13403
13,25250	13489
13,25663	12819
13,26075	11665
13,26487	9330
13,26898	9361
13,27312	9101
13,27723	7890
13,28135	6820
13,28548	6413
13,28960	5804
13,29372	4518
13,29785	5505
13,30197	5077
13,30608	4191
13,31022	4448
13,31433	3703
13,31845	3723
13,32258	3684
13,32670	3997
13,33082	4018
13,33495	3337
13,33907	3198
13,34318	3339
13,34732	2730
13,35143	2787
13,35555	4152
13,35967	3793
13,36380	3078
13,36792	3553
13,37203	3516
13,37617	3288
13,38028	2295
13,38440	2874
13,38853	3144
13,39265	2653
13,39677	2286
13,40090	3291
13,40502	3546
13,40913	3754
13,41327	4610
13,41738	6944
13,42150	7501
13,42563	7905
13,42975	6987
13,43387	6082
13,43800	4672
13,44212	2930
13,44623	3420
13,45035	2016
13,45448	1959
13,45860	2192
13,46272	1871
13,46685	2198
13,47097	2604
13,47508	2936
13,47922	2909
13,48333	3766
13,48745	3972
13,49158	4694
13,49570	5169
13,49982	4837
13,50395	4504
13,50807	5200
13,51218	3900
13,51632	3868
13,52043	2898
13,52455	3186
13,52868	2417
13,53280	2169
13,53692	1891
13,54103	2251
13,54517	2238
13,54928	2478
13,55340	2344
13,55753	1914
13,56165	1959
13,56577	2362
13,56990	1639
13,57402	1793
13,57813	2101
13,58227	1966
13,58638	1652
13,59050	1867
13,59463	1712
13,59875	1324
13,60287	1990
13,60700	1408
13,61112	2010
13,61523	1941
13,61937	1893
13,62348	2016
13,62760	2494
13,63172	3093
13,63585	6834
13,63997	13869
13,64408	29681
13,64822	64820
13,65233	120752
13,65645	207570
13,66058	336229
13,66470	491262
13,66882	655284
13,67295	805057
13,67707	908824
13,68118	951337
13,68532	911132
13,68943	829223
13,69355	696583
13,69768	560945
13,70180	433956
13,70592	320585
13,71005	231176
13,71417	170260
13,71828	128190
13,72240	98972
13,72653	75948
13,73065	60575
13,73477	49054
13,73890	40316
13,74302	34994
13,74713	29066
13,75127	26740
13,75538	21775
13,75950	21569
13,76363	18144
13,76775	16459
13,77187	14218
13,77600	13579
13,78012	12347
13,78423	11050
13,78837	9613
13,79248	9258
13,79660	7310
13,80073	7998
13,80485	6618
13,80897	6234
13,81308	6746
13,81722	5879
13,82133	5677
13,82545	4824
13,82958	5000
13,83370	4335
13,83782	4635
13,84195	4452
13,84607	4033
13,85018	3159
13,85432	4235
13,85843	3661
13,86255	3355
13,86668	4418
13,87080	5698
13,87492	10812
13,87905	24333
13,88317	46847
13,88728	97699
13,89142	177779
13,89553	294582
13,89965	463463
13,90377	655583
13,90790	837047
13,91202	990090
13,91613	1060658
13,92027	1048976
13,92438	952440
13,92850	811978
13,93263	652013
13,93675	503444
13,94087	372351
13,94500	269859
13,94912	191849
13,95323	139463
13,95737	105853
13,96148	80463
13,96560	64337
13,96973	51499
13,97385	42891
13,97797	35070
13,98210	30585
13,98622	25831
13,99033	23232
13,99445	19456
13,99858	18752
14,00270	15987
14,00682	14394
14,01095	12229
14,01507	11999
14,01918	10147
14,02332	9942
14,02743	10257
14,03155	8728
14,03568	7420
14,03980	7195
14,04392	7719
14,04805	6576
14,05217	6604
14,05628	5636
14,06042	5318
14,06453	4987
14,06865	4942
14,07278	5360
14,07690	4389
14,08102	5277
14,08513	4996
14,08927	5869
14,09338	3796
14,09750	4643
14,10163	4339
14,10575	4324
14,10987	3168
14,11400	3652
14,11812	3040
14,12223	3702
14,12637	3085
14,13048	2903
14,13460	3049
14,13873	2965
14,14285	2922
14,14697	2474
14,15110	2170
14,15522	2369
14,15933	2317
14,16347	2696
14,16758	2338
14,17170	3201
14,17582	2801
14,17995	2595
14,18407	2213
14,18818	2383
14,19232	1677
14,19643	3004
14,20055	2511
14,20468	2581
14,20880	2308
14,21292	2131
14,21705	2349
14,22117	2119
14,22528	2243
14,22942	2582
14,23353	2489
14,23765	1901
14,24178	1982
14,24590	1902
14,25002	2159
14,25415	2342
14,25827	1903
14,26238	2816
14,26650	2175
14,27063	2003
14,27475	2744
14,27887	2538
14,28300	3135
14,28712	3020
14,29123	3475
14,29537	3087
14,29948	3359
14,30360	3678
14,30773	3524
14,31185	3473
14,31597	3288
14,32010	2338
14,32422	2839
14,32833	2405
14,33247	2564
14,33658	2138
14,34070	2860
14,34483	2349
14,34895	2522
14,35307	2050
14,35718	1856
14,36132	2175
14,36543	2064
14,36955	2343
14,37368	1889
14,37780	1988
14,38192	2078
14,38605	2550
14,39017	1600
14,39428	2233
14,39842	1425
14,40253	2020
14,40665	1635
14,41078	2010
14,41490	2192
14,41902	1753
14,42315	1865
14,42727	2302
14,43138	2072
14,43552	2220
14,43963	2341
14,44375	1229
14,44787	2499
14,45200	3548
14,45612	6118
14,46023	12293
14,46437	29889
14,46848	62749
14,47260	118006
14,47673	211610
14,48085	343812
14,48497	508091
14,48910	678969
14,49322	845464
14,49733	961767
14,50147	1006896
14,50558	989568
14,50970	882781
14,51383	737481
14,51795	577232
14,52207	439488
14,52620	331170
14,53032	242711
14,53443	176211
14,53857	132684
14,54268	98943
14,54680	76009
14,55092	60890
14,55505	50067
14,55917	39177
14,56328	35136
14,56742	29334
14,57153	25787
14,57565	21448
14,57978	19701
14,58390	17766
14,58802	15142
14,59215	15299
14,59627	12628
14,60038	13551
14,60452	10615
14,60863	10619
14,61275	10039
14,61688	9230
14,62100	8461
14,62512	7746
14,62925	8075
14,63337	6075
14,63748	5715
14,64160	5780
14,64573	5057
14,64985	4380
14,65397	5147
14,65810	4924
14,66222	4576
14,66633	5981
14,67047	8569
14,67458	17136
14,67870	36812
14,68283	77534
14,68695	155150
14,69107	290039
14,69520	502307
14,69932	792989
14,70343	1170941
14,70757	1643750
14,71168	2133385
14,71580	2635863
14,71993	3066042
14,72405	3278884
14,72817	3260569
14,73228	2959019
14,73642	2468877
14,74053	1920766
14,74465	1416477
14,74878	1000964
14,75290	707609
14,75702	490597
14,76115	365400
14,76527	271462
14,76938	211208
14,77352	165971
14,77763	132418
14,78175	112735
14,78588	92946
14,79000	83546
14,79412	71393
14,79825	63178
14,80237	55783
14,80648	47335
14,81062	45358
14,81473	40477
14,81885	36468
14,82297	33718
14,82710	31824
14,83122	28528
14,83533	26024
14,83947	24834
14,84358	22235
14,84770	19566
14,85183	19695
14,85595	17958
14,86007	16589
14,86420	15174
14,86832	13943
14,87243	14150
14,87657	13363
14,88068	12018
14,88480	11923
14,88893	11074
14,89305	10308
14,89717	9383
14,90130	9770
14,90542	8750
14,90953	8853
14,91365	9383
14,91778	7668
14,92190	7239
14,92602	7785
14,93015	7305
14,93427	6810
14,93838	6395
14,94252	6112
14,94663	6799
14,95075	6025
14,95488	6438
14,95900	5569
14,96312	5607
14,96725	6163
14,97137	5791
14,97548	4126
14,97962	4738
14,98373	5003
14,98785	4702
14,99198	4615
14,99610	4334
15,00022	4441
15,00433	4264
15,00847	6042
15,01258	6804
15,01670	8327
15,02083	10202
15,02495	11576
15,02907	9925
15,03320	9781
15,03732	7002
15,04143	5496
15,04557	4346
15,04968	3843
15,05380	4047
15,05793	3658
15,06205	4112
15,06617	3735
15,07030	3783
15,07442	2606
15,07853	3702
15,08267	4218
15,08678	3765
15,09090	4495
15,09502	3980
15,09915	5677
15,10327	4884
15,10738	4474
15,11152	7148
15,11563	6525
15,11975	4632
15,12388	5106
15,12800	4356
15,13212	5335
15,13625	5632
15,14037	10143
15,14448	18037
15,14862	37641
15,15273	74660
15,15685	138375
15,16098	236803
15,16510	378455
15,16922	559868
15,17335	744281
15,17747	902249
15,18158	1008484
15,18570	1022496
15,18983	972995
15,19395	861415
15,19807	714433
15,20220	562960
15,20632	421822
15,21043	311641
15,21457	224453
15,21868	167924
15,22280	124881
15,22693	95640
15,23105	75840
15,23517	62382
15,23930	49767
15,24342	42325
15,24753	35330
15,25167	32752
15,25578	31529
15,25990	31478
15,26403	31297
15,26815	32802
15,27227	31207
15,27638	33494
15,28052	33829
15,28463	30660
15,28875	28605
15,29288	25698
15,29700	21909
15,30112	19666
15,30525	16285
15,30937	15557
15,31348	12303
15,31762	10323
15,32173	10453
15,32585	9242
15,32998	8711
15,33410	6618
15,33822	7569
15,34235	5675
15,34647	6683
15,35058	4846
15,35472	5545
15,35883	5617
15,36295	5641
15,36707	4496
15,37120	4444
15,37532	4895
15,37943	4149
15,38357	4030
15,38768	4186
15,39180	4138
15,39593	3810
15,40005	3768
15,40417	3731
15,40830	3760
15,41242	4740
15,41653	4106
15,42067	4521
15,42478	4734
15,42890	3717
15,43303	5051
15,43715	8048
15,44127	14477
15,44540	33081
15,44952	67628
15,45363	129743
15,45775	232764
15,46188	372973
15,46600	555070
15,47012	758617
15,47425	950434
15,47837	1083874
15,48248	1135721
15,48662	1099454
15,49073	992190
15,49485	822138
15,49898	645857
15,50310	482685
15,50722	348737
15,51135	250491
15,51547	180810
15,51958	133975
15,52372	102096
15,52783	76238
15,53195	60993
15,53608	51540
15,54020	41813
15,54432	36994
15,54843	30379
15,55257	27392
15,55668	24627
15,56080	21389
15,56493	19938
15,56905	17707
15,57317	15932
15,57730	14277
15,58142	14157
15,58553	12671
15,58967	12157
15,59378	12329
15,59790	9684
15,60203	8547
15,60615	9023
15,61027	7906
15,61440	7304
15,61852	7122
15,62263	7242
15,62677	7607
15,63088	7353
15,63500	6355
15,63912	6012
15,64325	6506
15,64737	5803
15,65148	7436
15,65562	7297
15,65973	6884
15,66385	5912
15,66798	5868
15,67210	7144
15,67622	6356
15,68035	5047
15,68447	5588
15,68858	5848
15,69272	6025
15,69683	4428
15,70095	4874
15,70508	4087
15,70920	4386
15,71332	4735
15,71745	4591
15,72157	3159
15,72568	4062
15,72980	4501
15,73393	4776
15,73805	3739
15,74217	4699
15,74630	4041
15,75042	4175
15,75453	4040
15,75867	4366
15,76278	4458
15,76690	4651
15,77103	4759
15,77515	4041
15,77927	4580
15,78340	3582
15,78752	4438
15,79163	3527
15,79577	4090
15,79988	4843
15,80400	3194
15,80813	3540
15,81225	2691
15,81637	3251
15,82048	3578
15,82462	3290
15,82873	2499
15,83285	3051
15,83698	2743
15,84110	2402
15,84522	3044
15,84935	2886
15,85347	2661
15,85758	2978
15,86172	2980
15,86583	3162
15,86995	2703
15,87408	3503
15,87820	4437
15,88232	4570
15,88645	5844
15,89057	8290
15,89468	16971
15,89882	34099
15,90293	70177
15,90705	131261
15,91117	231723
15,91530	376721
15,91942	548254
15,92353	743610
15,92767	921353
15,93178	1054298
15,93590	1106483
15,94003	1072214
15,94415	966331
15,94827	805227
15,95240	639762
15,95652	466783
15,96063	352339
15,96477	255539
15,96888	189056
15,97300	138415
15,97713	103786
15,98125	84434
15,98537	68361
15,98950	57576
15,99362	47099
15,99773	38598
16,00185	35045
16,00598	29297
16,01010	28102
16,01422	22062
16,01835	20964
16,02247	20406
16,02658	16601
16,03072	16118
16,03483	15786
16,03895	13283
16,04308	12006
16,04720	11995
16,05132	10403
16,05545	9293
16,05957	8777
16,06368	10282
16,06782	8107
16,07193	7547
16,07605	7280
16,08018	6521
16,08430	6871
16,08842	6187
16,09253	6316
16,09667	5613
16,10078	6184
16,10490	5344
16,10903	5455
16,11315	6199
16,11727	5470
16,12140	5817
16,12552	5934
16,12963	6443
16,13377	6191
16,13788	4916
16,14200	5614
16,14613	7639
16,15025	8970
16,15437	12775
16,15850	15397
16,16262	18985
16,16673	21963
16,17087	27399
16,17498	35241
16,17910	47956
16,18323	75779
16,18735	125700
16,19147	213686
16,19558	347881
16,19972	553238
16,20383	828427
16,20795	1156364
16,21208	1512044
16,21620	1865501
16,22032	2150476
16,22445	2349084
16,22857	2337402
16,23268	2120294
16,23682	1806197
16,24093	1401283
16,24505	1055946
16,24918	752871
16,25330	527623
16,25742	381106
16,26155	277565
16,26567	210342
16,26978	162464
16,27392	130752
16,27803	105329
16,28215	91586
16,28627	76394
16,29040	67958
16,29452	61483
16,29863	51534
16,30277	46963
16,30688	40657
16,31100	38173
16,31513	35387
16,31925	32191
16,32337	29774
16,32750	27489
16,33162	23043
16,33573	22711
16,33987	21216
16,34398	19272
16,34810	19004
16,35223	17931
16,35635	16659
16,36047	15137
16,36460	15437
16,36872	13816
16,37283	12997
16,37695	12830
16,38108	11913
16,38520	11034
16,38932	10250
16,39345	10739
16,39757	10175
16,40168	9871
16,40582	9448
16,40993	9441
16,41405	8459
16,41818	9747
16,42230	11567
16,42642	16411
16,43055	30599
16,43467	57084
16,43878	101010
16,44292	179048
16,44703	293862
16,45115	447075
16,45528	620263
16,45940	803701
16,46352	967277
16,46763	1078866
16,47177	1117306
16,47588	1074481
16,48000	947620
16,48413	780754
16,48825	623294
16,49237	473608
16,49650	347161
16,50062	258506
16,50473	188543
16,50887	143084
16,51298	109045
16,51710	87745
16,52123	71842
16,52535	63296
16,52947	56484
16,53360	49587
16,53772	41133
16,54183	36664
16,54597	31567
16,55008	30080
16,55420	34544
16,55832	44042
16,56245	72824
16,56657	119623
16,57068	210012
16,57482	356594
16,57893	573340
16,58305	864418
16,58718	1221616
16,59130	1587257
16,59542	1947569
16,59955	2180066
16,60367	2259509
16,60778	2158354
16,61192	1892705
16,61603	1574805
16,62015	1198159
16,62428	878691
16,62840	635255
16,63252	458169
16,63665	335728
16,64077	254465
16,64488	193797
16,64900	152235
16,65313	127607
16,65725	105451
16,66137	89153
16,66550	79008
16,66962	68107
16,67373	58509
16,67787	53965
16,68198	48141
16,68610	43598
16,69023	39679
16,69435	38488
16,69847	34558
16,70260	33648
16,70672	30219
16,71083	28741
16,71497	26850
16,71908	24691
16,72320	22921
16,72733	23657
16,73145	19651
16,73557	20199
16,73968	20463
16,74382	18173
16,74793	17970
16,75205	15746
16,75618	14278
16,76030	14060
16,76442	13084
16,76855	13391
16,77267	11657
16,77678	11416
16,78092	10682
16,78503	10835
16,78915	11025
16,79328	10541
16,79740	9453
16,80152	9396
16,80565	9372
16,80977	8708
16,81388	9230
16,81802	8987
16,82213	10074
16,82625	8225
16,83037	9120
16,83450	10607
16,83862	16115
16,84273	30528
16,84687	56709
16,85098	106933
16,85510	196012
16,85923	326582
16,86335	500045
16,86747	702661
16,87160	892582
16,87572	1027414
16,87983	1066307
16,88397	1044029
16,88808	937994
16,89220	780681
16,89633	618172
16,90045	471083
16,90457	340407
16,90870	255856
16,91282	191793
16,91693	141070
16,92105	109741
16,92518	89555
16,92930	71045
16,93342	59647
16,93755	50205
16,94167	43647
16,94578	38810
16,94992	31714
16,95403	28807
16,95815	26672
16,96228	23614
16,96640	22863
16,97052	20574
16,97465	20934
16,97877	17612
16,98288	17635
16,98702	17143
16,99113	16099
16,99525	16760
16,99938	16735
17,00350	15349
17,00762	15009
17,01173	13266
17,01587	14571
17,01998	12802
17,02410	11990
17,02823	11773
17,03235	12139
17,03647	12512
17,04060	13008
17,04472	12956
17,04883	12510
17,05297	10856
17,05708	9692
17,06120	10623
17,06533	10300
17,06945	9508
17,07357	9783
17,07770	10022
17,08182	10321
17,08593	9493
17,09007	10460
17,09418	8507
17,09830	9477
17,10242	8017
17,10655	9052
17,11067	7778
17,11478	7460
17,11892	7334
17,12303	8121
17,12715	7769
17,13128	8827
17,13540	14799
17,13952	26580
17,14365	50644
17,14777	91050
17,15188	168213
17,15602	283271
17,16013	429358
17,16425	601527
17,16838	776021
17,17250	928871
17,17662	1007757
17,18075	1012834
17,18487	922524
17,18898	792551
17,19310	645450
17,19723	492072
17,20135	371045
17,20547	272093
17,20960	194166
17,21372	148923
17,21783	108179
17,22197	86401
17,22608	73293
17,23020	57636
17,23433	48914
17,23845	44101
17,24257	36893
17,24670	34114
17,25082	31321
17,25493	28399
17,25907	25381
17,26318	22218
17,26730	22014
17,27143	20598
17,27555	20636
17,27967	20745
17,28378	19585
17,28792	16168
17,29203	16363
17,29615	14873
17,30028	15179
17,30440	12709
17,30852	11950
17,31265	12411
17,31677	12351
17,32088	11925
17,32502	12158
17,32913	12515
17,33325	11457
17,33738	12669
17,34150	10261
17,34562	9799
17,34975	10185
17,35387	11152
17,35798	9261
17,36212	9406
17,36623	9882
17,37035	8683
17,37447	9496
17,37860	8514
17,38272	10979
17,38683	8632
17,39097	9810
17,39508	9918
17,39920	9098
17,40333	8419
17,40745	8561
17,41157	8629
17,41570	6457
17,41982	7099
17,42393	7054
17,42807	7738
17,43218	7091
17,43630	6225
17,44043	6489
17,44455	5654
17,44867	6529
17,45280	6261
17,45692	6613
17,46103	7751
17,46515	6751
17,46928	7748
17,47340	6742
17,47752	5662
17,48165	6476
17,48577	6311
17,48988	4301
17,49402	7097
17,49813	6384
17,50225	5740
17,50638	5575
17,51050	6225
17,51462	5861
17,51875	6653
17,52287	6486
17,52698	6826
17,53112	6524
17,53523	6295
17,53935	8191
17,54348	14971
17,54760	27532
17,55172	59183
17,55583	122158
17,55997	235574
17,56408	415487
17,56820	678759
17,57233	1036677
17,57645	1451840
17,58057	1899058
17,58470	2297491
17,58882	2670190
17,59293	2926497
17,59707	3123095
17,60118	3055333
17,60530	2813561
17,60943	2383018
17,61355	1899099
17,61767	1420090
17,62180	1026339
17,62592	743389
17,63003	534702
17,63417	405112
17,63828	309880
17,64240	245708
17,64653	198189
17,65065	167352
17,65477	141033
17,65888	120615
17,66302	105616
17,66713	97232
17,67125	84005
17,67538	74567
17,67950	64579
17,68362	63272
17,68775	57733
17,69187	51953
17,69598	48266
17,70012	44912
17,70423	41331
17,70835	38294
17,71248	38713
17,71660	34081
17,72072	33672
17,72485	31367
17,72897	29220
17,73308	26995
17,73722	25420
17,74133	27239
17,74545	25575
17,74957	23922
17,75370	25591
17,75782	25738
17,76193	28733
17,76607	29214
17,77018	34687
17,77430	36257
17,77843	38710
17,78255	39084
17,78667	37026
17,79080	37765
17,79492	38130
17,79903	44050
17,80317	54360
17,80728	84898
17,81140	137950
17,81553	222882
17,81965	345878
17,82377	495342
17,82790	654055
17,83202	781576
17,83613	875255
17,84025	889903
17,84438	838014
17,84850	747264
17,85262	607380
17,85675	473057
17,86087	356455
17,86498	269439
17,86912	198410
17,87323	151110
17,87735	115882
17,88148	90558
17,88560	73999
17,88972	63408
17,89385	55553
17,89797	49239
17,90208	45234
17,90622	45267
17,91033	55856
17,91445	77141
17,91858	120064
17,92270	193149
17,92682	300637
17,93093	461942
17,93507	641262
17,93918	844979
17,94330	1012348
17,94743	1127737
17,95155	1161209
17,95567	1095050
17,95980	955388
17,96392	775281
17,96803	615823
17,97217	458106
17,97628	339386
17,98040	253440
17,98453	196223
17,98865	151494
17,99277	120518
17,99690	100484
18,00102	85554
18,00513	70558
18,00927	64425
18,01338	58258
18,01750	51111
18,02162	45574
18,02575	41338
18,02987	37387
18,03398	36735
18,03812	32054
18,04223	30635
18,04635	29163
18,05048	30076
18,05460	26699
18,05872	24732
18,06285	24675
18,06697	22612
18,07108	23420
18,07522	19076
18,07933	20296
18,08345	19788
18,08758	18953
18,09170	20995
18,09582	17000
18,09995	19797
18,10407	17760
18,10818	18588
18,11230	16585
18,11643	16682
18,12055	16246
18,12467	14842
18,12880	15077
18,13292	12741
18,13703	14225
18,14117	13150
18,14528	13008
18,14940	13628
18,15353	11820
18,15765	11205
18,16177	10309
18,16590	11743
18,17002	12779
18,17413	11334
18,17827	12308
18,18238	11886
18,18650	13124
18,19063	13986
18,19475	19791
18,19887	31166
18,20298	54632
18,20712	100360
18,21123	179777
18,21535	295736
18,21948	455148
18,22360	668292
18,22772	881930
18,23185	1097338
18,23597	1245457
18,24008	1281451
18,24422	1195720
18,24833	1024088
18,25245	827361
18,25658	630981
18,26070	470802
18,26482	350040
18,26895	259957
18,27307	194417
18,27718	153933
18,28132	125902
18,28543	101614
18,28955	86173
18,29367	76831
18,29780	67719
18,30192	60289
18,30603	54377
18,31017	47122
18,31428	44119
18,31840	39141
18,32253	39035
18,32665	34579
18,33077	34070
18,33490	33173
18,33902	31219
18,34313	28684
18,34727	30233
18,35138	28473
18,35550	28992
18,35963	27871
18,36375	25095
18,36787	25819
18,37200	24814
18,37612	22067
18,38023	22502
18,38435	21250
18,38848	20025
18,39260	18480
18,39672	18722
18,40085	17126
18,40497	17719
18,40908	17158
18,41322	18121
18,41733	15829
18,42145	15082
18,42558	18791
18,42970	14265
18,43382	14643
18,43795	13020
18,44207	13764
18,44618	14303
18,45032	16322
18,45443	20173
18,45855	30461
18,46268	51836
18,46680	89841
18,47092	156933
18,47503	260890
18,47917	399789
18,48328	566267
18,48740	744081
18,49153	901523
18,49565	998877
18,49977	1021570
18,50390	945135
18,50802	832132
18,51213	688822
18,51627	532392
18,52038	402318
18,52450	299860
18,52863	225486
18,53275	170327
18,53687	133127
18,54100	108380
18,54512	87326
18,54923	74695
18,55337	65019
18,55748	59229
18,56160	49749
18,56572	44265
18,56985	40613
18,57397	37530
18,57808	36148
18,58222	33238
18,58633	32548
18,59045	30783
18,59458	28126
18,59870	27018
18,60282	26983
18,60695	23031
18,61107	22146
18,61518	23014
18,61932	20282
18,62343	19317
18,62755	19030
18,63168	19974
18,63580	19099
18,63992	17934
18,64405	19535
18,64817	17837
18,65228	17703
18,65640	16379
18,66053	16133
18,66465	15978
18,66877	14975
18,67290	16103
18,67702	14517
18,68113	16172
18,68527	15105
18,68938	15781
18,69350	15137
18,69763	17024
18,70175	14246
18,70587	13603
18,71000	15660
18,71412	14958
18,71823	15263
18,72237	15467
18,72648	14671
18,73060	14391
18,73473	13586
18,73885	14728
18,74297	14458
18,74708	16326
18,75122	15017
18,75533	15426
18,75945	15043
18,76358	14060
18,76770	16125
18,77182	13977
18,77595	14281
18,78007	14305
18,78418	14718
18,78832	13589
18,79243	14476
18,79655	13667
18,80068	14812
18,80480	15678
18,80892	15436
18,81305	15204
18,81717	17414
18,82128	25080
18,82542	38626
18,82953	62338
18,83365	109306
18,83777	196081
18,84190	337405
18,84602	540662
18,85013	813612
18,85427	1161018
18,85838	1579288
18,86250	2041314
18,86663	2512071
18,87075	2945440
18,87487	3236144
18,87900	3308152
18,88312	3130475
18,88723	2710633
18,89137	2217265
18,89548	1699962
18,89960	1284888
18,90373	960349
18,90785	721863
18,91197	546089
18,91610	425943
18,92022	337918
18,92433	276484
18,92845	235962
18,93258	198666
18,93670	169865
18,94082	150840
18,94495	136719
18,94907	121276
18,95318	109984
18,95732	100487
18,96143	91712
18,96555	84505
18,96968	81279
18,97380	75407
18,97792	68684
18,98205	66828
18,98617	61188
18,99028	58322
18,99442	52313
18,99853	50799
19,00265	51022
19,00678	49250
19,01090	45831
19,01502	45252
19,01913	46075
19,02327	44741
19,02738	43132
19,03150	43706
19,03563	41375
19,03975	40161
19,04387	41027
19,04800	38716
19,05212	37446
19,05623	34451
19,06037	35243
19,06448	33691
19,06860	35325
19,07273	37261
19,07685	42081
19,08097	53612
19,08510	80909
19,08922	125769
19,09333	201512
19,09747	314992
19,10158	448682
19,10570	598787
19,10982	748782
19,11395	855971
19,11807	912884
19,12218	896132
19,12632	820589
19,13043	705961
19,13455	583842
19,13868	472037
19,14280	406311
19,14692	375388
19,15105	401860
19,15517	467014
19,15928	567019
19,16342	690559
19,16753	806967
19,17165	912091
19,17578	980489
19,17990	1015818
19,18402	1035882
19,18815	1070672
19,19227	1110536
19,19638	1203596
19,20052	1285113
19,20463	1335333
19,20875	1329780
19,21287	1238069
19,21700	1099942
19,22112	925086
19,22523	752543
19,22937	588871
19,23348	458687
19,23760	362767
19,24173	291856
19,24585	229708
19,24997	193573
19,25410	166087
19,25822	145506
19,26233	127181
19,26647	112735
19,27058	102153
19,27470	97032
19,27883	91053
19,28295	85283
19,28707	81060
19,29120	76287
19,29532	68690
19,29943	65616
19,30355	61759
19,30768	55042
19,31180	53073
19,31592	48716
19,32005	46593
19,32417	45235
19,32828	41474
19,33242	40288
19,33653	39391
19,34065	37893
19,34478	35933
19,34890	36173
19,35302	33148
19,35715	31624
19,36127	32461
19,36538	29429
19,36952	30093
19,37363	29655
19,37775	28081
19,38188	28563
19,38600	26581
19,39012	26002
19,39423	25986
19,39837	25097
19,40248	24497
19,40660	23911
19,41073	25241
19,41485	25065
19,41897	24577
19,42310	27235
19,42722	27647
19,43133	34086
19,43547	47021
19,43958	64578
19,44370	102629
19,44783	165806
19,45195	256537
19,45607	382314
19,46020	547417
19,46432	743152
19,46843	942219
19,47257	1103209
19,47668	1200644
19,48080	1205625
19,48492	1124837
19,48905	991715
19,49317	810751
19,49728	644832
19,50142	503494
19,50553	390024
19,50965	304853
19,51378	245176
19,51790	197181
19,52202	166739
19,52615	142736
19,53027	124929
19,53438	108717
19,53852	97447
19,54263	88039
19,54675	81731
19,55088	75314
19,55500	67256
19,55912	63369
19,56325	59803
19,56737	56888
19,57148	54607
19,57560	52121
19,57973	48049
19,58385	50432
19,58797	44518
19,59210	46481
19,59622	43072
19,60033	41821
19,60447	41813
19,60858	38264
19,61270	34957
19,61683	37549
19,62095	34336
19,62507	33461
19,62920	33110
19,63332	31307
19,63743	31086
19,64157	30517
19,64568	27531
19,64980	29551
19,65393	30289
19,65805	30996
19,66217	29740
19,66628	28959
19,67042	29086
19,67453	28824
19,67865	27756
19,68278	27774
19,68690	25494
19,69102	28063
19,69515	26906
19,69927	25846
19,70338	30542
19,70752	36041
19,71163	55033
19,71575	84225
19,71988	137662
19,72400	216006
19,72812	322157
19,73225	458575
19,73637	612822
19,74048	757633
19,74462	890387
19,74873	953190
19,75285	950792
19,75697	883650
19,76110	784624
19,76522	657021
19,76933	529445
19,77347	424525
19,77758	331204
19,78170	265561
19,78583	218630
19,78995	171374
19,79407	147536
19,79820	134171
19,80232	128409
19,80643	132325
19,81057	150454
19,81468	191636
19,81880	254429
19,82293	337214
19,82705	439144
19,83117	537575
19,83530	635187
19,83942	687321
19,84353	705446
19,84765	695318
19,85178	638262
19,85590	559562
19,86002	475486
19,86415	388367
19,86827	312157
19,87238	251895
19,87652	203078
19,88063	167398
19,88475	139468
19,88888	117415
19,89300	99271
19,89712	87955
19,90125	77359
19,90537	69430
19,90948	65286
19,91362	59919
19,91773	55297
19,92185	50537
19,92598	49786
19,93010	47021
19,93422	43971
19,93833	43446
19,94247	39579
19,94658	37770
19,95070	36645
19,95483	35938
19,95895	33873
19,96307	31643
19,96720	32844
19,97132	29711
19,97543	30238
19,97957	29441
19,98368	30822
19,98780	29342
19,99193	27063
19,99605	28347
20,00017	27918
20,00430	25671
20,00842	25645
20,01253	27031
20,01667	27004
20,02078	26594
20,02490	24738
20,02902	24265
20,03315	25028
20,03727	24585
20,04138	23325
20,04552	23629
20,04963	23446
20,05375	26680
20,05788	26816
20,06200	34118
20,06612	46286
20,07025	67062
20,07437	103677
20,07848	161021
20,08262	243478
20,08673	356130
20,09085	505114
20,09498	677029
20,09910	889798
20,10322	1116354
20,10735	1362421
20,11147	1611355
20,11558	1857291
20,11970	2059893
20,12383	2164504
20,12795	2128182
20,13207	1938098
20,13620	1644593
20,14032	1329612
20,14443	1059727
20,14857	818212
20,15268	628901
20,15680	508266
20,16093	409650
20,16505	340876
20,16917	287201
20,17330	247361
20,17742	218981
20,18153	194591
20,18567	173715
20,18978	157153
20,19390	143060
20,19803	132083
20,20215	123610
20,20627	114743
20,21038	104626
20,21452	98896
20,21863	92649
20,22275	84661
20,22688	83431
20,23100	75596
20,23512	76998
20,23925	72697
20,24337	70921
20,24748	64652
20,25162	61290
20,25573	60109
20,25985	56731
20,26398	55014
20,26810	52075
20,27222	51462
20,27635	50121
20,28047	49095
20,28458	48643
20,28872	45186
20,29283	44986
20,29695	44808
20,30107	41573
20,30520	40934
20,30932	43382
20,31343	39587
20,31757	37741
20,32168	38289
20,32580	36467
20,32993	36850
20,33405	33970
20,33817	34577
20,34230	35591
20,34642	33781
20,35053	32816
20,35467	32502
20,35878	31729
20,36290	32758
20,36703	33815
20,37115	31792
20,37527	31939
20,37940	31099
20,38352	30270
20,38763	29456
20,39175	29235
20,39588	28894
20,40000	27244
20,40412	28381
20,40825	27833
20,41237	27157
20,41648	28685
20,42062	28731
20,42473	32238
20,42885	39939
20,43298	50018
20,43710	69460
20,44122	103725
20,44535	155385
20,44947	230645
20,45358	328155
20,45772	451853
20,46183	596162
20,46595	732354
20,47008	865912
20,47420	974840
20,47832	1016376
20,48243	1001922
20,48657	939386
20,49068	841353
20,49480	717914
20,49893	594939
20,50305	487176
20,50717	395713
20,51130	324914
20,51542	270514
20,51953	228057
20,52367	192524
20,52778	171178
20,53190	148282
20,53603	133451
20,54015	118299
20,54427	108846
20,54840	100011
20,55252	93165
20,55663	85562
20,56077	84824
20,56488	78710
20,56900	68096
20,57312	67482
20,57725	68782
20,58137	61608
20,58548	57262
20,58962	54226
20,59373	54915
20,59785	48945
20,60198	49071
20,60610	44602
20,61022	44574
20,61435	42114
20,61847	41742
20,62258	40337
20,62672	39472
20,63083	37170
20,63495	33811
20,63908	35155
20,64320	36409
20,64732	34513
20,65145	31874
20,65557	34042
20,65968	32807
20,66380	30338
20,66793	29567
20,67205	33909
20,67617	29087
20,68030	28515
20,68442	29211
20,68853	28637
20,69267	30875
20,69678	32143
20,70090	29933
20,70503	32211
20,70915	34444
20,71327	31721
20,71740	28510
20,72152	31435
20,72563	29092
20,72977	28376
20,73388	26183
20,73800	27532
20,74213	25819
20,74625	24758
20,75037	26685
20,75450	25402
20,75862	23929
20,76273	26863
20,76685	23968
20,77098	24314
20,77510	25877
20,77922	25390
20,78335	28601
20,78747	25501
20,79158	27991
20,79572	28334
20,79983	26811
20,80395	30475
20,80808	29746
20,81220	28612
20,81632	29584
20,82045	26628
20,82457	24693
20,82868	23353
20,83282	23804
20,83693	25037
20,84105	22797
20,84518	23831
20,84930	22985
20,85342	20909
20,85753	20281
20,86167	20578
20,86578	20655
20,86990	21463
20,87403	19674
20,87815	20456
20,88227	19418
20,88640	19658
20,89052	19266
20,89463	18783
20,89877	19788
20,90288	19400
20,90700	20817
20,91113	20641
20,91525	19806
20,91937	20464
20,92350	20105
20,92762	19741
20,93173	20748
20,93587	22565
20,93998	21811
20,94410	21628
20,94822	19955
20,95235	21350
20,95647	19548
20,96058	20371
20,96472	19911
20,96883	20294
20,97295	20198
20,97708	20273
20,98120	20858
20,98532	20804
20,98945	19838
20,99357	20116
20,99768	19610
21,00182	20259
21,00593	21754
21,01005	19998
21,01418	20505
21,01830	20035
21,02242	20733
21,02655	21017
21,03067	21049
21,03478	20057
21,03890	20591
21,04303	19564
21,04715	21685
21,05127	20388
21,05540	19780
21,05952	21065
21,06363	19203
21,06777	19385
21,07188	18532
21,07600	19103
21,08013	18806
21,08425	20113
21,08837	20317
21,09250	19354
21,09662	19545
21,10073	20790
21,10487	18024
21,10898	18279
21,11310	19915
21,11723	19299
21,12135	18593
21,12547	19248
21,12958	19016
21,13372	20576
21,13783	20765
21,14195	18556
21,14608	18571
21,15020	18933
21,15432	18612
21,15845	18647
21,16257	19462
21,16668	18049
21,17082	18263
21,17493	18648
21,17905	17513
21,18318	18364
21,18730	19313
21,19142	19289
21,19555	18469
21,19967	18861
21,20378	15972
21,20792	16532
21,21203	18727
21,21615	16341
21,22027	16787
21,22440	17425
21,22852	17649
21,23263	17881
21,23677	18899
21,24088	17668
21,24500	16856
21,24913	18999
21,25325	18504
21,25737	18018
21,26150	18077
21,26562	19213
21,26973	19092
21,27387	18653
21,27798	18266
21,28210	19040
21,28623	17600
21,29035	17831
21,29447	18346
21,29860	17043
21,30272	18799
21,30683	18619
21,31095	17706
21,31508	17109
21,31920	16615
21,32332	16205
21,32745	18784
21,33157	17619
21,33568	17795
21,33982	17373
21,34393	18054
21,34805	17439
21,35218	17589
21,35630	18829
21,36042	18277
21,36455	18909
21,36867	18027
21,37278	19522
21,37692	18048
21,38103	18652
21,38515	18868
21,38928	17427
21,39340	19272
21,39752	17145
21,40163	18056
21,40577	18406
21,40988	16591
21,41400	18143
21,41813	16110
21,42225	17705
21,42637	18026
21,43050	17203
21,43462	17345
21,43873	20327
21,44287	17979
21,44698	17269
21,45110	16601
21,45523	18793
21,45935	18481
21,46347	18032
21,46760	18547
21,47172	18822
21,47583	18951
21,47997	19096
21,48408	20260
21,48820	19405
21,49232	18123
21,49645	17973
21,50057	19087
21,50468	19926
21,50882	18350
21,51293	17597
21,51705	18588
21,52118	19788
21,52530	20644
21,52942	22460
21,53355	27107
21,53767	37566
21,54178	50545
21,54592	74396
21,55003	105552
21,55415	148967
21,55828	200591
21,56240	266931
21,56652	333433
21,57065	399217
21,57477	455002
21,57888	477117
21,58300	503967
21,58713	499096
21,59125	477974
21,59537	439883
21,59950	402052
21,60362	353140
21,60773	299467
21,61187	258681
21,61598	218619
21,62010	188488
21,62423	154965
21,62835	134055
21,63247	117707
21,63660	104761
21,64072	91530
21,64483	80610
21,64897	73881
21,65308	68548
21,65720	63117
21,66133	56392
21,66545	52414
21,66957	48687
21,67368	46729
21,67782	47180
21,68193	43901
21,68605	42050
21,69018	41142
21,69430	41225
21,69842	37933
21,70255	34583
21,70667	34830
21,71078	34607
21,71492	33172
21,71903	33538
21,72315	31406
21,72728	30213
21,73140	29843
21,73552	28898
21,73965	28651
21,74377	28197
21,74788	26504
21,75202	27272
21,75613	27087
21,76025	25772
21,76437	24891
21,76850	25940
21,77262	25966
21,77673	24481
21,78087	25753
21,78498	24698
21,78910	24446
21,79323	22588
21,79735	23942
21,80147	22894
21,80560	23198
21,80972	23222
21,81383	22186
21,81797	22803
21,82208	24589
21,82620	21525
21,83033	22664
21,83445	23629
21,83857	21888
21,84270	22647
21,84682	20941
21,85093	23207
21,85505	21934
21,85918	21737
21,86330	21193
21,86742	20206
21,87155	20202
21,87567	20310
21,87978	19128
21,88392	19970
21,88803	18546
21,89215	19517
21,89628	19501
21,90040	19976
21,90452	18838
21,90865	19286
21,91277	19165
21,91688	18023
21,92102	18721
21,92513	19748
21,92925	17641
21,93338	17497
21,93750	16369
21,94162	16780
21,94573	18542
21,94987	17377
21,95398	16288
21,95810	17187
21,96223	17457
21,96635	18837
21,97047	19526
21,97460	17689
21,97872	17964
21,98283	18409
21,98697	17105
21,99108	18520
21,99520	17635
21,99933	18689
22,00345	19397
22,00757	19724
22,01170	18162
22,01582	17846
22,01993	18047
22,02407	19360
22,02818	19445
22,03230	17186
22,03642	18187
22,04055	18116
22,04467	16734
22,04878	17310
22,05292	17926
22,05703	17627
22,06115	18351
22,06528	18809
22,06940	16741
22,07352	18931
22,07765	18537
22,08177	18200
22,08588	17361
22,09002	17293
22,09413	18742
22,09825	18137
22,10238	16703
22,10650	20038
22,11062	16074
22,11475	18041
22,11887	17694
22,12298	19332
22,12710	17188
22,13123	17411
22,13535	18166
22,13947	18100
22,14360	19761
22,14772	17831
22,15183	18174
22,15597	17537
22,16008	16502
22,16420	16552
22,16833	17596
22,17245	18694
22,17657	17725
22,18070	16131
22,18482	19528
22,18893	19236
22,19307	19220
22,19718	16385
22,20130	18239
22,20543	18954
22,20955	18315
22,21367	17711
22,21778	17684
22,22192	20605
22,22603	17270
22,23015	18294
22,23428	20238
22,23840	17384
22,24252	17063
22,24665	18058
22,25077	19600
22,25488	19244
22,25902	20024
22,26313	18918
22,26725	17430
22,27138	19853
22,27550	17431
22,27962	18515
22,28375	17148
22,28787	17957
22,29198	19782
22,29612	19870
22,30023	18363
22,30435	19700
22,30847	19312
22,31260	17562
22,31672	18204
22,32083	17716
22,32497	18249
22,32908	18861
22,33320	17408
22,33733	17431
22,34145	18097
