D:\MassHunter\GCMS\1\data\Amal\Constant flow\120C\120C_1ml-min_6C-min_2.D Tue Sep 03 14:21:15 2024
Start of data points
5,19103,289542
5,19517,281270
5,19928,268971
5,20340,262486
5,20753,258361
5,21165,248532
5,21577,237138
5,21990,230202
5,22402,224351
5,22813,219809
5,23227,213328
5,23638,211174
5,24050,203065
5,24463,194737
5,24875,190333
5,25287,189695
5,25698,182846
5,26112,180102
5,26523,176812
5,26935,172800
5,27348,168847
5,27760,159330
5,28172,160765
5,28585,155800
5,28997,155669
5,29408,154152
5,29822,148311
5,30233,148643
5,30645,145186
5,31058,141419
5,31470,138676
5,31882,138278
5,32295,134567
5,32707,133019
5,33118,133362
5,33532,131848
5,33943,129788
5,34355,126748
5,34767,126189
5,35180,120573
5,35592,118863
5,36003,119617
5,36417,117322
5,36828,117476
5,37240,116557
5,37653,112709
5,38065,110311
5,38477,112856
5,38890,106970
5,39302,112467
5,39713,112346
5,40127,111052
5,40538,108062
5,40950,112322
5,41363,112746
5,41775,110462
5,42187,109432
5,42600,108221
5,43012,111172
5,43423,110760
5,43835,110443
5,44248,110105
5,44660,108701
5,45072,107423
5,45485,108414
5,45897,108117
5,46308,110010
5,46722,109787
5,47133,109690
5,47545,111141
5,47958,111474
5,48370,109864
5,48782,111252
5,49195,106910
5,49607,109242
5,50018,104065
5,50432,108614
5,50843,106044
5,51255,106066
5,51668,105371
5,52080,104407
5,52492,107363
5,52903,103424
5,53317,103329
5,53728,100040
5,54140,100000
5,54553,99527
5,54965,100130
5,55377,97601
5,55790,97286
5,56202,105358
5,56613,122932
5,57027,148562
5,57438,201064
5,57850,280400
5,58263,390992
5,58675,515787
5,59087,644246
5,59500,751896
5,59912,829907
5,60323,871863
5,60737,882164
5,61148,877442
5,61560,859984
5,61972,829935
5,62385,791226
5,62797,760749
5,63208,734941
5,63622,705397
5,64033,672727
5,64445,650802
5,64858,618368
5,65270,588730
5,65682,571725
5,66095,543251
5,66507,527980
5,66918,501922
5,67332,485769
5,67743,460076
5,68155,438696
5,68568,421854
5,68980,407347
5,69392,390262
5,69805,376849
5,70217,359166
5,70628,343066
5,71040,330106
5,71453,319628
5,71865,304413
5,72277,288611
5,72690,279386
5,73102,267965
5,73513,255159
5,73927,244851
5,74338,231787
5,74750,215598
5,75163,206323
5,75575,191483
5,75987,184927
5,76400,173317
5,76812,167011
5,77223,155055
5,77637,150311
5,78048,141296
5,78460,134633
5,78873,131323
5,79285,125142
5,79697,121850
5,80108,116549
5,80522,108366
5,80933,103935
5,81345,103391
5,81758,97148
5,82170,95687
5,82582,91065
5,82995,90513
5,83407,89404
5,83818,86759
5,84232,81645
5,84643,81403
5,85055,79520
5,85468,77267
5,85880,77103
5,86292,75508
5,86705,74918
5,87117,75495
5,87528,73807
5,87942,71859
5,88353,71843
5,88765,68559
5,89177,73014
5,89590,67233
5,90002,67896
5,90413,67225
5,90827,66316
5,91238,70250
5,91650,65849
5,92063,65296
5,92475,66148
5,92887,64897
5,93300,62269
5,93712,63250
5,94123,62967
5,94537,60990
5,94948,65210
5,95360,62258
5,95773,62081
5,96185,61466
5,96597,61632
5,97010,60166
5,97422,60369
5,97833,59122
5,98245,60269
5,98658,58678
5,99070,60114
5,99482,58692
5,99895,55501
6,00307,58413
6,00718,56797
6,01132,58660
6,01543,58219
6,01955,59862
6,02368,56214
6,02780,57849
6,03192,56136
6,03605,56489
6,04017,55734
6,04428,56625
6,04842,56670
6,05253,55244
6,05665,57879
6,06078,55538
6,06490,55642
6,06902,58185
6,07313,56036
6,07727,58361
6,08138,56915
6,08550,55014
6,08963,54956
6,09375,56689
6,09787,54785
6,10200,55621
6,10612,56800
6,11023,53284
6,11437,55187
6,11848,54111
6,12260,56306
6,12673,54660
6,13085,54471
6,13497,55316
6,13910,56855
6,14322,54485
6,14733,53992
6,15147,53540
6,15558,52870
6,15970,53614
6,16382,54595
6,16795,52744
6,17207,56293
6,17618,52587
6,18032,52089
6,18443,53027
6,18855,53562
6,19268,51338
6,19680,51652
6,20092,53477
6,20505,52934
6,20917,51961
6,21328,51890
6,21742,51927
6,22153,51423
6,22565,51370
6,22978,51394
6,23390,50126
6,23802,49830
6,24215,49675
6,24627,50521
6,25038,48936
6,25450,49789
6,25863,48722
6,26275,48387
6,26687,48969
6,27100,48000
6,27512,46902
6,27923,50109
6,28337,46139
6,28748,47130
6,29160,47639
6,29573,45709
6,29985,47407
6,30397,46881
6,30810,47763
6,31222,46645
6,31633,45669
6,32047,48269
6,32458,46849
6,32870,45981
6,33283,47229
6,33695,45579
6,34107,46020
6,34520,44188
6,34932,44959
6,35343,45606
6,35755,47544
6,36168,47586
6,36580,48376
6,36992,47379
6,37405,48094
6,37817,47079
6,38228,47755
6,38642,46914
6,39053,47427
6,39465,47056
6,39878,47694
6,40290,47837
6,40702,46969
6,41115,45058
6,41527,45118
6,41938,44796
6,42352,43670
6,42763,43328
6,43175,43960
6,43588,40946
6,44000,42098
6,44412,40874
6,44823,43799
6,45237,43048
6,45648,43594
6,46060,43041
6,46473,42971
6,46885,40304
6,47297,41251
6,47710,40685
6,48122,41104
6,48533,41560
6,48947,41644
6,49358,40861
6,49770,41191
6,50183,39738
6,50595,39926
6,51007,39330
6,51420,40514
6,51832,41440
6,52243,41260
6,52657,40262
6,53068,40024
6,53480,38781
6,53892,36673
6,54305,38422
6,54717,39934
6,55128,39097
6,55542,38511
6,55953,40106
6,56365,37773
6,56778,38994
6,57190,39826
6,57602,36752
6,58015,38194
6,58427,38471
6,58838,38390
6,59252,38512
6,59663,38934
6,60075,37818
6,60488,37218
6,60900,37963
6,61312,37190
6,61725,37278
6,62137,37741
6,62548,36946
6,62960,37112
6,63373,38232
6,63785,35635
6,64197,36069
6,64610,36927
6,65022,36990
6,65433,36902
6,65847,36317
6,66258,36421
6,66670,35705
6,67083,39024
6,67495,36447
6,67907,34830
6,68320,35708
6,68732,36155
6,69143,36093
6,69557,34231
6,69968,36298
6,70380,36014
6,70793,35903
6,71205,37084
6,71617,36639
6,72028,35664
6,72442,37369
6,72853,35572
6,73265,35424
6,73678,36067
6,74090,34276
6,74502,38091
6,74915,40138
6,75327,44135
6,75738,55102
6,76152,80970
6,76563,121351
6,76975,187490
6,77388,284338
6,77800,402416
6,78212,547564
6,78625,691436
6,79037,841897
6,79448,954783
6,79862,1036252
6,80273,1104048
6,80685,1124660
6,81097,1110602
6,81510,1090292
6,81922,1057147
6,82333,1005428
6,82747,968374
6,83158,914519
6,83570,859398
6,83983,820744
6,84395,777190
6,84807,738869
6,85220,698270
6,85632,660699
6,86043,616053
6,86457,584163
6,86868,552620
6,87280,516678
6,87693,484186
6,88105,451198
6,88517,425330
6,88930,391744
6,89342,362383
6,89753,336297
6,90165,310600
6,90578,287250
6,90990,257157
6,91402,240129
6,91815,219481
6,92227,202762
6,92638,181498
6,93052,169101
6,93463,153425
6,93875,140039
6,94288,128946
6,94700,117601
6,95112,111062
6,95525,99129
6,95937,94103
6,96348,89107
6,96762,82952
6,97173,76589
6,97585,72627
6,97998,66694
6,98410,66535
6,98822,61661
6,99233,59430
6,99647,56142
7,00058,54172
7,00470,51852
7,00883,51252
7,01295,50093
7,01707,48252
7,02120,47922
7,02532,46958
7,02943,43891
7,03357,44470
7,03768,42720
7,04180,39829
7,04593,40660
7,05005,41142
7,05417,38195
7,05830,39889
7,06242,38543
7,06653,38701
7,07067,37149
7,07478,37493
7,07890,37140
7,08302,37578
7,08715,36795
7,09127,34201
7,09538,35791
7,09952,35596
7,10363,33952
7,10775,35404
7,11188,33312
7,11600,33761
7,12012,34493
7,12425,33635
7,12837,33963
7,13248,33276
7,13662,33709
7,14073,34596
7,14485,34214
7,14898,35126
7,15310,33633
7,15722,31445
7,16135,32529
7,16547,33301
7,16958,32949
7,17370,31933
7,17783,32075
7,18195,33252
7,18607,31411
7,19020,30723
7,19432,33187
7,19843,31888
7,20257,31375
7,20668,32334
7,21080,30532
7,21493,32129
7,21905,31860
7,22317,32803
7,22730,31416
7,23142,32002
7,23553,30515
7,23967,32388
7,24378,31019
7,24790,30857
7,25203,31874
7,25615,29803
7,26027,29145
7,26438,30162
7,26852,29666
7,27263,31851
7,27675,31526
7,28088,31101
7,28500,30714
7,28912,30630
7,29325,28931
7,29737,28335
7,30148,30404
7,30562,28178
7,30973,29627
7,31385,27939
7,31798,27049
7,32210,29212
7,32622,31320
7,33035,29080
7,33447,26655
7,33858,28617
7,34272,27461
7,34683,28799
7,35095,27817
7,35507,27310
7,35920,27783
7,36332,28363
7,36743,27022
7,37157,27209
7,37568,26933
7,37980,27223
7,38393,27126
7,38805,27122
7,39217,27165
7,39630,27459
7,40042,27952
7,40453,29660
7,40867,28051
7,41278,28156
7,41690,27899
7,42103,27347
7,42515,28914
7,42927,27105
7,43340,27003
7,43752,28468
7,44163,27085
7,44575,25562
7,44988,26133
7,45400,27313
7,45812,28428
7,46225,28130
7,46637,25196
7,47048,26607
7,47462,26813
7,47873,25945
7,48285,26172
7,48698,25951
7,49110,27127
7,49522,25997
7,49935,26527
7,50347,25561
7,50758,23251
7,51172,25579
7,51583,25720
7,51995,25754
7,52408,25716
7,52820,25496
7,53232,25655
7,53643,25244
7,54057,26108
7,54468,25272
7,54880,29782
7,55293,35983
7,55705,48089
7,56117,64184
7,56530,96824
7,56942,140410
7,57353,201342
7,57767,275726
7,58178,353183
7,58590,433162
7,59003,505313
7,59415,571477
7,59827,621061
7,60240,646442
7,60652,651986
7,61063,637725
7,61477,622766
7,61888,598313
7,62300,570344
7,62712,543168
7,63125,509591
7,63537,485327
7,63948,454864
7,64362,425580
7,64773,397352
7,65185,372098
7,65598,343385
7,66010,317146
7,66422,297020
7,66835,273529
7,67247,247187
7,67658,231652
7,68072,211180
7,68483,183489
7,68895,170536
7,69308,156361
7,69720,137340
7,70132,126356
7,70545,114099
7,70957,100217
7,71368,95187
7,71780,86469
7,72193,79369
7,72605,74186
7,73017,68325
7,73430,62399
7,73842,59287
7,74253,53963
7,74667,51620
7,75078,47953
7,75490,46445
7,75903,43216
7,76315,42461
7,76727,39974
7,77140,37179
7,77552,36135
7,77963,37571
7,78377,35050
7,78788,33927
7,79200,33407
7,79613,31562
7,80025,32403
7,80437,31187
7,80848,30511
7,81262,29748
7,81673,28525
7,82085,27995
7,82498,28480
7,82910,28384
7,83322,29080
7,83735,25265
7,84147,27465
7,84558,27817
7,84972,28851
7,85383,27861
7,85795,27938
7,86208,25707
7,86620,25792
7,87032,26292
7,87445,26182
7,87857,26393
7,88268,26501
7,88682,27363
7,89093,24936
7,89505,25509
7,89917,27866
7,90330,26205
7,90742,27334
7,91153,27407
7,91567,29156
7,91978,29345
7,92390,27813
7,92803,27851
7,93215,26160
7,93627,27198
7,94040,26086
7,94452,27014
7,94863,27110
7,95277,25253
7,95688,24738
7,96100,25584
7,96513,23515
7,96925,23444
7,97337,25987
7,97750,24834
7,98162,25578
7,98573,21594
7,98987,22567
7,99398,22586
7,99810,22833
8,00222,21374
8,00635,23884
8,01047,23107
8,01458,22543
8,01872,23045
8,02283,21326
8,02695,23170
8,03108,22527
8,03520,21027
8,03932,22169
8,04345,20267
8,04757,21567
8,05168,20826
8,05582,21697
8,05993,20701
8,06405,19917
8,06818,21249
8,07230,19687
8,07642,21661
8,08055,20671
8,08467,20540
8,08878,20893
8,09290,20140
8,09703,21543
8,10115,20869
8,10527,19631
8,10940,21063
8,11352,20087
8,11763,21189
8,12177,19819
8,12588,20006
8,13000,20320
8,13413,20215
8,13825,18257
8,14237,21027
8,14650,20005
8,15062,18874
8,15473,20509
8,15887,19634
8,16298,18810
8,16710,20856
8,17123,18449
8,17535,20305
8,17947,19189
8,18358,20892
8,18772,20223
8,19183,18740
8,19595,20536
8,20008,19727
8,20420,20209
8,20832,18858
8,21245,18907
8,21657,20005
8,22068,19766
8,22482,19165
8,22893,18497
8,23305,18714
8,23718,19294
8,24130,19770
8,24542,19716
8,24955,18815
8,25367,18195
8,25778,20219
8,26192,18515
8,26603,19344
8,27015,18960
8,27427,18248
8,27840,19276
8,28252,18959
8,28663,19611
8,29077,19131
8,29488,19034
8,29900,19400
8,30313,19542
8,30725,19471
8,31137,19270
8,31550,19715
8,31962,18469
8,32373,18877
8,32787,20317
8,33198,19555
8,33610,19385
8,34023,19556
8,34435,20029
8,34847,18413
8,35260,19813
8,35672,17551
8,36083,19397
8,36495,18479
8,36908,17515
8,37320,16954
8,37732,18411
8,38145,19174
8,38557,18558
8,38968,17980
8,39382,17735
8,39793,18036
8,40205,18717
8,40618,18364
8,41030,18490
8,41442,17916
8,41855,17325
8,42267,18284
8,42678,18451
8,43092,19037
8,43503,18213
8,43915,17938
8,44328,18351
8,44740,19101
8,45152,20279
8,45563,25214
8,45977,29377
8,46388,43889
8,46800,68503
8,47213,110776
8,47625,178258
8,48037,272682
8,48450,405095
8,48862,566996
8,49273,743796
8,49687,942666
8,50098,1116576
8,50510,1277897
8,50923,1404959
8,51335,1473837
8,51747,1499575
8,52160,1490333
8,52572,1454212
8,52983,1376336
8,53397,1304158
8,53808,1226344
8,54220,1144133
8,54632,1064822
8,55045,963276
8,55457,878652
8,55868,795253
8,56282,718775
8,56693,638447
8,57105,573205
8,57518,505044
8,57930,439765
8,58342,388800
8,58755,345191
8,59167,297048
8,59578,263785
8,59992,229113
8,60403,205030
8,60815,178569
8,61228,161676
8,61640,144128
8,62052,126580
8,62465,113053
8,62877,98942
8,63288,92014
8,63700,83316
8,64113,77159
8,64525,72791
8,64937,63587
8,65350,60932
8,65762,56793
8,66173,56085
8,66587,50550
8,66998,48125
8,67410,44560
8,67823,43055
8,68235,40407
8,68647,39786
8,69060,39919
8,69472,36822
8,69883,35730
8,70297,35281
8,70708,33872
8,71120,31489
8,71533,30868
8,71945,31041
8,72357,28768
8,72768,28355
8,73182,27949
8,73593,27505
8,74005,27862
8,74418,26867
8,74830,26596
8,75242,26707
8,75655,25400
8,76067,25803
8,76478,25647
8,76892,26060
8,77303,25114
8,77715,22928
8,78128,23599
8,78540,22248
8,78952,21696
8,79365,23554
8,79777,22109
8,80188,22630
8,80602,20459
8,81013,22635
8,81425,20703
8,81837,22467
8,82250,20522
8,82662,22226
8,83073,20297
8,83487,21210
8,83898,20186
8,84310,19073
8,84723,20287
8,85135,19284
8,85547,19462
8,85960,19623
8,86372,19648
8,86783,18892
8,87197,19466
8,87608,18201
8,88020,18708
8,88433,19984
8,88845,18200
8,89257,19025
8,89670,18605
8,90082,18234
8,90493,19536
8,90905,17293
8,91318,17071
8,91730,18987
8,92142,17425
8,92555,16973
8,92967,18399
8,93378,19199
8,93792,17689
8,94203,17230
8,94615,16632
8,95028,17074
8,95440,16622
8,95852,16403
8,96265,15987
8,96677,17825
8,97088,16790
8,97502,16433
8,97913,16687
8,98325,16938
8,98738,16914
8,99150,15926
8,99562,16737
8,99973,15944
9,00387,16817
9,00798,17052
9,01210,16213
9,01623,15626
9,02035,15542
9,02447,16581
9,02860,17674
9,03272,14564
9,03683,15529
9,04097,15958
9,04508,16788
9,04920,15393
9,05333,16621
9,05745,15733
9,06157,15534
9,06570,16613
9,06982,16012
9,07393,15403
9,07807,16395
9,08218,16263
9,08630,16085
9,09042,16724
9,09455,16607
9,09867,14719
9,10278,15355
9,10692,16610
9,11103,16785
9,11515,16732
9,11928,16802
9,12340,16492
9,12752,16812
9,13165,16563
9,13577,16452
9,13988,14710
9,14402,16110
9,14813,14730
9,15225,15591
9,15638,16183
9,16050,15946
9,16462,15877
9,16875,14986
9,17287,14526
9,17698,14710
9,18110,15418
9,18523,14400
9,18935,16332
9,19347,15029
9,19760,15537
9,20172,16019
9,20583,16194
9,20997,17322
9,21408,17733
9,21820,17594
9,22233,17223
9,22645,17915
9,23057,19334
9,23470,19616
9,23882,18893
9,24293,20157
9,24707,19255
9,25118,18525
9,25530,19094
9,25943,19059
9,26355,19285
9,26767,17161
9,27178,17201
9,27592,17991
9,28003,16688
9,28415,16773
9,28828,16877
9,29240,16165
9,29652,15802
9,30065,17457
9,30477,15542
9,30888,16256
9,31302,15997
9,31713,16621
9,32125,15723
9,32538,15854
9,32950,15200
9,33362,15825
9,33775,15438
9,34187,14775
9,34598,13949
9,35012,14617
9,35423,13369
9,35835,14124
9,36247,13650
9,36660,14263
9,37072,13038
9,37483,14067
9,37897,14146
9,38308,12970
9,38720,13518
9,39133,14752
9,39545,14478
9,39957,14224
9,40370,13983
9,40782,14450
9,41193,13831
9,41607,13854
9,42018,12943
9,42430,13905
9,42843,14807
9,43255,13828
9,43667,13667
9,44080,14011
9,44492,14018
9,44903,14721
9,45315,16620
9,45728,21229
9,46140,27573
9,46552,41787
9,46965,66598
9,47377,102838
9,47788,153499
9,48202,224547
9,48613,315093
9,49025,420521
9,49438,529159
9,49850,647481
9,50262,739003
9,50675,802871
9,51087,847854
9,51498,862615
9,51912,860219
9,52323,833089
9,52735,774787
9,53148,729490
9,53560,670585
9,53972,608026
9,54383,540131
9,54797,483502
9,55208,428120
9,55620,372048
9,56033,316930
9,56445,277098
9,56857,236276
9,57270,203342
9,57682,176188
9,58093,149406
9,58507,132103
9,58918,113730
9,59330,99105
9,59743,87913
9,60155,79903
9,60567,70335
9,60980,62288
9,61392,57012
9,61803,53988
9,62217,47764
9,62628,46316
9,63040,41009
9,63453,41259
9,63865,37574
9,64277,34463
9,64688,34532
9,65102,32888
9,65513,30312
9,65925,28079
9,66338,26094
9,66750,26343
9,67162,26527
9,67575,24890
9,67987,25146
9,68398,25826
9,68812,22835
9,69223,21987
9,69635,21975
9,70048,20976
9,70460,21711
9,70872,19622
9,71285,20457
9,71697,18686
9,72108,18708
9,72522,18281
9,72933,18188
9,73345,17850
9,73757,18251
9,74170,18105
9,74582,17494
9,74993,16800
9,75407,17434
9,75818,18267
9,76230,16604
9,76643,17131
9,77055,16592
9,77467,16906
9,77880,14903
9,78292,15505
9,78703,16353
9,79117,15374
9,79528,16356
9,79940,15841
9,80353,16072
9,80765,15419
9,81177,13866
9,81590,15550
9,82002,14730
9,82413,15099
9,82825,15349
9,83238,14988
9,83650,13530
9,84062,14443
9,84475,14899
9,84887,13950
9,85298,13612
9,85712,13620
9,86123,13595
9,86535,13577
9,86948,12853
9,87360,13703
9,87772,13321
9,88185,14337
9,88597,13234
9,89008,14226
9,89422,12829
9,89833,12767
9,90245,13937
9,90658,12706
9,91070,14113
9,91482,12066
9,91893,12779
9,92307,13390
9,92718,12252
9,93130,13480
9,93543,12050
9,93955,13046
9,94367,12194
9,94780,11192
9,95192,12822
9,95603,12233
9,96017,12642
9,96428,13637
9,96840,12086
9,97253,11548
9,97665,12225
9,98077,13103
9,98490,11216
9,98902,12659
9,99313,12400
9,99727,13929
10,00138,13227
10,00550,14961
10,00962,15490
10,01375,14103
10,01787,16391
10,02198,16905
10,02612,15985
10,03023,16345
10,03435,16887
10,03848,15775
10,04260,16218
10,04672,16434
10,05085,16671
10,05497,15501
10,05908,15671
10,06322,14077
10,06733,14738
10,07145,12683
10,07558,14489
10,07970,14232
10,08382,12189
10,08795,13056
10,09207,12690
10,09618,13295
10,10030,12497
10,10443,11776
10,10855,12743
10,11267,12832
10,11680,11547
10,12092,12273
10,12503,12358
10,12917,11497
10,13328,10791
10,13740,11186
10,14153,12133
10,14565,12309
10,14977,11844
10,15390,11463
10,15802,11936
10,16213,10830
10,16627,11827
10,17038,12031
10,17450,10703
10,17863,11665
10,18275,11934
10,18687,12112
10,19098,11996
10,19512,10987
10,19923,10978
10,20335,13178
10,20748,13429
10,21160,15245
10,21572,14819
10,21985,14638
10,22397,16691
10,22808,16519
10,23222,15330
10,23633,15916
10,24045,17051
10,24458,16625
10,24870,16374
10,25282,15898
10,25695,15342
10,26107,16092
10,26518,12666
10,26932,13817
10,27343,13935
10,27755,12730
10,28167,11101
10,28580,13618
10,28992,13164
10,29403,13194
10,29817,13063
10,30228,11982
10,30640,11711
10,31053,11818
10,31465,11153
10,31877,12782
10,32290,12938
10,32702,12220
10,33113,12764
10,33527,11800
10,33938,10167
10,34350,11093
10,34763,11425
10,35175,10796
10,35587,11188
10,36000,11541
10,36412,10753
10,36823,9894
10,37235,11443
10,37648,10682
10,38060,11526
10,38472,10574
10,38885,10353
10,39297,10206
10,39708,11643
10,40122,11918
10,40533,11602
10,40945,11523
10,41358,11254
10,41770,10859
10,42182,9636
10,42595,10927
10,43007,11374
10,43418,10389
10,43832,9727
10,44243,11066
10,44655,11410
10,45068,10603
10,45480,10091
10,45892,10050
10,46303,10921
10,46717,10766
10,47128,10469
10,47540,10920
10,47953,9992
10,48365,9964
10,48777,11357
10,49190,10326
10,49602,10891
10,50013,11180
10,50427,14638
10,50838,19419
10,51250,30441
10,51663,50265
10,52075,83187
10,52487,141766
10,52900,234212
10,53312,370656
10,53723,543954
10,54137,763066
10,54548,1011082
10,54960,1267915
10,55372,1501162
10,55785,1713700
10,56197,1888302
10,56608,1987179
10,57022,2006650
10,57433,1950168
10,57845,1830946
10,58258,1681730
10,58670,1521507
10,59082,1334662
10,59495,1152632
10,59907,984919
10,60318,840070
10,60732,703990
10,61143,594131
10,61555,501975
10,61968,422847
10,62380,354987
10,62792,302035
10,63205,258272
10,63617,223124
10,64028,190440
10,64440,169697
10,64853,149437
10,65265,128858
10,65677,117042
10,66090,104364
10,66502,94440
10,66913,88572
10,67327,80994
10,67738,73546
10,68150,68241
10,68563,62904
10,68975,59817
10,69387,54190
10,69800,51153
10,70212,48704
10,70623,45452
10,71037,45665
10,71448,40725
10,71860,37239
10,72273,37558
10,72685,35485
10,73097,34595
10,73508,33506
10,73922,31926
10,74333,30931
10,74745,28927
10,75158,28634
10,75570,28477
10,75982,26407
10,76395,25590
10,76807,24964
10,77218,24213
10,77632,22054
10,78043,23745
10,78455,23601
10,78868,21343
10,79280,21741
10,79692,21584
10,80105,20250
10,80517,21001
10,80928,22194
10,81342,20068
10,81753,22328
10,82165,21581
10,82577,20669
10,82990,21355
10,83402,20934
10,83813,22441
10,84227,19686
10,84638,19626
10,85050,19492
10,85463,18497
10,85875,18482
10,86287,17654
10,86700,18375
10,87112,16645
10,87523,16201
10,87937,14871
10,88348,15162
10,88760,14645
10,89173,15338
10,89585,14864
10,89997,15005
10,90410,13865
10,90822,13798
10,91233,14336
10,91645,13864
10,92058,12584
10,92470,12577
10,92882,13727
10,93295,13178
10,93707,12244
10,94118,13653
10,94532,11525
10,94943,13007
10,95355,11983
10,95768,13228
10,96180,11482
10,96592,10909
10,97005,11605
10,97417,11459
10,97828,10935
10,98242,11528
10,98653,11662
10,99065,10423
10,99478,11391
10,99890,10292
11,00302,12057
11,00713,13076
11,01127,12570
11,01538,12193
11,01950,12416
11,02363,12305
11,02775,11223
11,03187,10875
11,03600,12231
11,04012,11425
11,04423,12246
11,04837,11538
11,05248,11352
11,05660,9955
11,06073,11839
11,06485,11623
11,06897,11909
11,07310,12177
11,07722,11737
11,08133,12788
11,08547,13350
11,08958,14114
11,09370,13132
11,09782,14079
11,10195,12335
11,10607,13482
11,11018,13897
11,11432,13276
11,11843,13688
11,12255,12458
11,12668,13540
11,13080,12562
11,13492,11405
11,13905,10821
11,14317,10917
11,14728,10968
11,15142,10987
11,15553,9662
11,15965,10845
11,16378,9883
11,16790,10376
11,17202,9703
11,17615,10978
11,18027,9853
11,18438,9351
11,18850,10067
11,19263,9728
11,19675,10135
11,20087,10847
11,20500,9750
11,20912,11355
11,21323,10147
11,21737,8913
11,22148,9956
11,22560,9907
11,22973,9777
11,23385,10761
11,23797,9865
11,24210,9603
11,24622,10050
11,25033,10054
11,25447,9585
11,25858,9845
11,26270,10696
11,26683,9155
11,27095,10736
11,27507,10587
11,27920,11683
11,28332,15621
11,28743,21586
11,29155,33084
11,29568,52004
11,29980,80521
11,30392,125610
11,30805,190193
11,31217,269944
11,31628,382452
11,32042,490804
11,32453,623488
11,32865,737306
11,33278,837371
11,33690,905774
11,34102,938935
11,34515,938918
11,34927,910700
11,35338,839645
11,35752,772344
11,36163,698235
11,36575,608296
11,36988,519917
11,37400,446661
11,37812,374116
11,38223,315644
11,38637,263490
11,39048,227316
11,39460,193928
11,39873,161139
11,40285,140873
11,40697,129055
11,41110,108726
11,41522,100067
11,41933,88751
11,42347,81909
11,42758,74600
11,43170,70184
11,43583,62879
11,43995,61517
11,44407,54305
11,44820,51451
11,45232,47655
11,45643,43603
11,46057,41034
11,46468,37970
11,46880,34414
11,47292,33950
11,47705,31629
11,48117,28693
11,48528,28263
11,48942,25573
11,49353,24808
11,49765,22343
11,50178,23381
11,50590,22425
11,51002,19754
11,51415,18941
11,51827,20508
11,52238,19722
11,52652,18297
11,53063,16742
11,53475,17024
11,53888,17508
11,54300,16836
11,54712,16593
11,55125,16081
11,55537,16604
11,55948,15555
11,56360,14566
11,56773,15272
11,57185,13226
11,57597,14026
11,58010,14064
11,58422,14470
11,58833,16497
11,59247,21678
11,59658,31859
11,60070,47531
11,60483,78019
11,60895,121452
11,61307,184964
11,61720,274041
11,62132,391110
11,62543,522663
11,62957,677521
11,63368,803285
11,63780,930428
11,64193,1009214
11,64605,1062173
11,65017,1078695
11,65428,1035161
11,65842,964397
11,66253,870842
11,66665,763175
11,67078,656834
11,67490,555548
11,67902,476529
11,68315,393114
11,68727,321803
11,69138,270379
11,69552,221611
11,69963,192239
11,70375,159008
11,70788,136911
11,71200,118586
11,71612,101024
11,72025,89308
11,72437,80460
11,72848,71938
11,73262,64330
11,73673,58463
11,74085,52858
11,74497,48359
11,74910,44767
11,75322,42669
11,75733,38116
11,76147,36680
11,76558,34957
11,76970,32487
11,77383,29245
11,77795,29547
11,78207,28456
11,78620,25474
11,79032,25231
11,79443,24540
11,79857,24012
11,80268,22085
11,80680,21923
11,81093,21011
11,81505,20251
11,81917,20729
11,82330,18251
11,82742,17153
11,83153,17661
11,83565,18535
11,83978,16972
11,84390,17849
11,84802,17205
11,85215,15359
11,85627,14316
11,86038,15968
11,86452,15042
11,86863,13310
11,87275,13426
11,87688,13974
11,88100,12959
11,88512,13641
11,88925,14086
11,89337,14481
11,89748,12151
11,90162,11183
11,90573,12466
11,90985,12541
11,91398,12600
11,91810,11423
11,92222,12994
11,92633,12075
11,93047,10452
11,93458,10972
11,93870,11024
11,94283,10393
11,94695,9792
11,95107,10787
11,95520,11499
11,95932,11511
11,96343,11713
11,96757,11625
11,97168,11893
11,97580,10342
11,97993,10607
11,98405,9801
11,98817,10413
11,99230,10449
11,99642,11017
12,00053,8943
12,00467,10090
12,00878,10248
12,01290,9747
12,01702,10082
12,02115,9977
12,02527,9787
12,02938,9891
12,03352,8406
12,03763,10070
12,04175,9429
12,04588,9517
12,05000,9322
12,05412,10834
12,05825,9398
12,06237,9487
12,06648,9572
12,07062,9997
12,07473,10001
12,07885,9478
12,08298,8805
12,08710,9153
12,09122,9339
12,09535,7868
12,09947,8163
12,10358,10537
12,10770,9305
12,11183,9270
12,11595,9386
12,12007,9594
12,12420,8224
12,12832,9132
12,13243,9859
12,13657,8832
12,14068,9816
12,14480,10920
12,14893,10009
12,15305,8840
12,15717,10188
12,16130,10084
12,16542,9851
12,16953,10177
12,17367,9206
12,17778,9927
12,18190,10284
12,18603,8940
12,19015,8265
12,19427,8681
12,19838,9122
12,20252,10068
12,20663,8987
12,21075,9869
12,21488,9346
12,21900,9429
12,22312,8907
12,22725,8859
12,23137,9243
12,23548,8356
12,23962,8491
12,24373,8635
12,24785,9247
12,25198,9021
12,25610,8778
12,26022,9111
12,26435,8731
12,26847,8579
12,27258,8609
12,27672,8466
12,28083,8461
12,28495,7814
12,28907,8711
12,29320,8967
12,29732,7884
12,30143,7917
12,30557,8293
12,30968,7987
12,31380,8512
12,31793,8559
12,32205,8100
12,32617,8555
12,33030,8639
12,33442,7981
12,33853,9335
12,34267,8719
12,34678,8924
12,35090,8514
12,35503,8226
12,35915,9335
12,36327,9544
12,36740,9123
12,37152,10033
12,37563,12335
12,37975,15470
12,38388,23861
12,38800,36176
12,39212,59648
12,39625,93378
12,40037,149232
12,40448,223568
12,40862,323008
12,41273,450853
12,41685,585798
12,42098,720727
12,42510,848044
12,42922,940867
12,43335,1008535
12,43747,1029301
12,44158,998430
12,44572,940537
12,44983,857926
12,45395,756666
12,45808,660702
12,46220,564847
12,46632,471938
12,47043,393558
12,47457,329144
12,47868,277813
12,48280,228857
12,48693,195041
12,49105,167978
12,49517,138292
12,49930,123106
12,50342,105519
12,50753,92183
12,51167,85600
12,51578,71792
12,51990,67073
12,52403,58425
12,52815,53361
12,53227,51111
12,53640,47650
12,54052,43790
12,54463,39146
12,54877,37556
12,55288,34838
12,55700,33257
12,56112,32042
12,56525,30910
12,56937,29415
12,57348,26190
12,57762,24364
12,58173,24381
12,58585,22730
12,58998,21678
12,59410,20820
12,59822,20853
12,60235,19530
12,60647,19180
12,61058,18138
12,61472,17432
12,61883,17940
12,62295,16794
12,62708,16369
12,63120,16383
12,63532,15238
12,63945,14871
12,64357,14665
12,64768,15067
12,65180,13986
12,65593,13877
12,66005,14584
12,66417,14320
12,66830,15987
12,67242,19140
12,67653,28557
12,68067,46230
12,68478,80009
12,68890,134341
12,69303,222872
12,69715,375126
12,70127,586311
12,70540,860461
12,70952,1199539
12,71363,1633774
12,71777,2081467
12,72188,2534059
12,72600,2973121
12,73013,3268075
12,73425,3456103
12,73837,3498748
12,74248,3361810
12,74662,3097578
12,75073,2757267
12,75485,2374510
12,75898,2016216
12,76310,1672795
12,76722,1356396
12,77135,1102058
12,77547,907034
12,77958,749091
12,78372,619013
12,78783,518526
12,79195,432956
12,79608,372805
12,80020,325251
12,80432,280539
12,80845,244484
12,81257,217021
12,81668,194926
12,82082,174537
12,82493,159659
12,82905,144995
12,83318,131020
12,83730,118339
12,84142,108446
12,84553,101998
12,84967,94090
12,85378,86648
12,85790,78736
12,86203,73772
12,86615,70928
12,87027,65755
12,87440,62887
12,87852,56419
12,88263,55344
12,88677,52015
12,89088,51021
12,89500,46792
12,89913,46834
12,90325,42764
12,90737,40235
12,91150,38039
12,91562,38066
12,91973,34978
12,92387,33530
12,92798,32658
12,93210,31108
12,93622,31259
12,94035,31209
12,94447,27828
12,94858,28103
12,95272,27496
12,95683,26726
12,96095,26537
12,96508,26171
12,96920,23435
12,97332,21954
12,97745,23738
12,98157,20670
12,98568,22619
12,98982,20862
12,99393,20806
12,99805,19781
13,00218,19682
13,00630,18643
13,01042,18972
13,01455,18304
13,01867,18025
13,02278,17811
13,02690,17607
13,03103,16256
13,03515,16145
13,03927,15899
13,04340,14986
13,04752,14693
13,05163,15383
13,05577,14102
13,05988,14305
13,06400,14364
13,06813,15506
13,07225,14715
13,07637,13229
13,08050,12955
13,08462,13529
13,08873,12213
13,09287,13242
13,09698,11915
13,10110,12667
13,10523,12563
13,10935,11840
13,11347,10245
13,11758,11723
13,12172,12234
13,12583,11094
13,12995,11547
13,13408,11763
13,13820,11875
13,14232,11041
13,14645,11754
13,15057,11719
13,15468,13218
13,15882,13013
13,16293,12601
13,16705,11870
13,17118,13050
13,17530,10894
13,17942,11832
13,18355,11080
13,18767,11809
13,19178,10858
13,19592,10587
13,20003,10677
13,20415,8693
13,20827,11027
13,21240,11133
13,21652,10926
13,22063,10917
13,22477,9783
13,22888,10385
13,23300,9827
13,23713,9504
13,24125,10578
13,24537,9326
13,24950,9566
13,25362,12156
13,25773,10822
13,26187,10161
13,26598,11935
13,27010,11450
13,27423,11008
13,27835,11571
13,28247,11671
13,28660,11201
13,29072,12090
13,29483,10570
13,29895,10629
13,30308,10368
13,30720,10530
13,31132,11223
13,31545,11777
13,31957,12292
13,32368,16193
13,32782,24188
13,33193,37376
13,33605,62723
13,34018,96765
13,34430,150658
13,34842,235883
13,35255,340843
13,35667,465676
13,36078,601766
13,36492,746089
13,36903,874183
13,37315,977331
13,37728,1035666
13,38140,1049217
13,38552,1024374
13,38963,963444
13,39377,871962
13,39788,763845
13,40200,664136
13,40613,552428
13,41025,471633
13,41437,393003
13,41850,330052
13,42262,271503
13,42673,230256
13,43087,195401
13,43498,168116
13,43910,144107
13,44323,126241
13,44735,111447
13,45147,101466
13,45560,88414
13,45972,80484
13,46383,72429
13,46797,66005
13,47208,60933
13,47620,55589
13,48032,51399
13,48445,47996
13,48857,46229
13,49268,41419
13,49682,40147
13,50093,37998
13,50505,38723
13,50918,37541
13,51330,34698
13,51742,33776
13,52155,35022
13,52567,32696
13,52978,34269
13,53392,29111
13,53803,28092
13,54215,26121
13,54628,25103
13,55040,25961
13,55452,23027
13,55865,23992
13,56277,22484
13,56688,21329
13,57100,20444
13,57513,20343
13,57925,19060
13,58337,18137
13,58750,19454
13,59162,17073
13,59573,17621
13,59987,16977
13,60398,16976
13,60810,16117
13,61223,14889
13,61635,16932
13,62047,16159
13,62460,12848
13,62872,15523
13,63283,13051
13,63697,13964
13,64108,13729
13,64520,14271
13,64933,12937
13,65345,11837
13,65757,11417
13,66168,11722
13,66582,12748
13,66993,11326
13,67405,11998
13,67818,11302
13,68230,11552
13,68642,10975
13,69055,10925
13,69467,9249
13,69878,11157
13,70292,10336
13,70703,10195
13,71115,9556
13,71528,11793
13,71940,10196
13,72352,11155
13,72765,9529
13,73177,10032
13,73588,10259
13,74002,9962
13,74413,11204
13,74825,14500
13,75237,16894
13,75650,24058
13,76062,43175
13,76473,67812
13,76887,116799
13,77298,187370
13,77710,287512
13,78123,410172
13,78535,562856
13,78947,727335
13,79360,891355
13,79772,1018933
13,80183,1129817
13,80597,1189189
13,81008,1172134
13,81420,1124336
13,81833,1043807
13,82245,929445
13,82657,791363
13,83070,670089
13,83482,553585
13,83893,465002
13,84305,378406
13,84718,310624
13,85130,259238
13,85542,218680
13,85955,182766
13,86367,160007
13,86778,132676
13,87192,114210
13,87603,104162
13,88015,90414
13,88428,80260
13,88840,74220
13,89252,67347
13,89665,61957
13,90077,55211
13,90488,49848
13,90902,48228
13,91313,43818
13,91725,42093
13,92138,39013
13,92550,35201
13,92962,34846
13,93373,32928
13,93787,30909
13,94198,28628
13,94610,26638
13,95023,26212
13,95435,24778
13,95847,24854
13,96260,24144
13,96672,22692
13,97083,21433
13,97497,21113
13,97908,19887
13,98320,19442
13,98733,19913
13,99145,18868
13,99557,16767
13,99970,16603
14,00382,16991
14,00793,16321
14,01207,16892
14,01618,15768
14,02030,15831
14,02442,16483
14,02855,14335
14,03267,15003
14,03678,13629
14,04092,14520
14,04503,12543
14,04915,13134
14,05328,13453
14,05740,13195
14,06152,13811
14,06565,12544
14,06977,12222
14,07388,12445
14,07802,12732
14,08213,12183
14,08625,11788
14,09038,12139
14,09450,10623
14,09862,11895
14,10275,10579
14,10687,12141
14,11098,10711
14,11510,11078
14,11923,9733
14,12335,9607
14,12747,9663
14,13160,10637
14,13572,10676
14,13983,10723
14,14397,9932
14,14808,10367
14,15220,9449
14,15633,9479
14,16045,10036
14,16457,8686
14,16870,9308
14,17282,10371
14,17693,9800
14,18107,10305
14,18518,9510
14,18930,8729
14,19343,10160
14,19755,8924
14,20167,10702
14,20578,10896
14,20992,8399
14,21403,10132
14,21815,9172
14,22228,9408
14,22640,8472
14,23052,9190
14,23465,9388
14,23877,9068
14,24288,7974
14,24702,9509
14,25113,8951
14,25525,9476
14,25938,8416
14,26350,8335
14,26762,9927
14,27175,9328
14,27587,7708
14,27998,9404
14,28412,9036
14,28823,8340
14,29235,9137
14,29647,8574
14,30060,9456
14,30472,9342
14,30883,8712
14,31297,8943
14,31708,8287
14,32120,7390
14,32533,9826
14,32945,8113
14,33357,8832
14,33770,8705
14,34182,9708
14,34593,9781
14,35007,9499
14,35418,8384
14,35830,7389
14,36243,9114
14,36655,8564
14,37067,8324
14,37480,9121
14,37892,8532
14,38303,10305
14,38715,11781
14,39128,15291
14,39540,21960
14,39952,33359
14,40365,57194
14,40777,91253
14,41188,144013
14,41602,228044
14,42013,340118
14,42425,472903
14,42838,628418
14,43250,790646
14,43662,932106
14,44075,1035002
14,44487,1102267
14,44898,1132367
14,45312,1104526
14,45723,1024078
14,46135,930609
14,46548,818767
14,46960,703135
14,47372,594927
14,47785,494915
14,48197,410816
14,48608,340414
14,49020,283850
14,49433,239008
14,49845,199494
14,50257,171251
14,50670,145190
14,51082,127117
14,51493,113574
14,51907,98690
14,52318,86414
14,52730,76628
14,53143,70351
14,53555,66327
14,53967,59663
14,54380,52492
14,54792,49221
14,55203,45059
14,55617,42371
14,56028,40886
14,56440,37998
14,56853,35888
14,57265,35040
14,57677,31650
14,58088,31011
14,58502,28413
14,58913,27295
14,59325,27224
14,59738,24987
14,60150,24658
14,60562,25392
14,60975,23569
14,61387,21724
14,61798,21292
14,62212,20643
14,62623,19309
14,63035,18954
14,63448,18192
14,63860,18445
14,64272,18312
14,64685,20052
14,65097,19274
14,65508,19588
14,65922,20969
14,66333,22634
14,66745,26200
14,67157,25929
14,67570,24678
14,67982,25264
14,68393,25454
14,68807,25133
14,69218,24624
14,69630,24105
14,70043,24262
14,70455,22651
14,70867,20175
14,71280,20182
14,71692,17999
14,72103,18442
14,72517,17309
14,72928,16329
14,73340,15557
14,73753,15309
14,74165,15472
14,74577,14802
14,74990,13805
14,75402,14212
14,75813,14009
14,76225,13567
14,76638,12068
14,77050,11130
14,77462,12436
14,77875,11212
14,78287,11701
14,78698,12026
14,79112,11885
14,79523,12562
14,79935,12642
14,80348,17572
14,80760,25450
14,81172,40296
14,81585,69610
14,81997,121526
14,82408,206322
14,82822,330811
14,83233,509493
14,83645,755249
14,84058,1054530
14,84470,1412795
14,84882,1752849
14,85293,2077870
14,85707,2340266
14,86118,2527271
14,86530,2599194
14,86943,2548170
14,87355,2397975
14,87767,2143591
14,88180,1880455
14,88592,1599637
14,89003,1333926
14,89417,1093446
14,89828,896701
14,90240,744592
14,90653,609327
14,91065,501457
14,91477,423010
14,91890,365450
14,92302,313471
14,92713,272563
14,93127,236727
14,93538,209199
14,93950,187284
14,94362,162623
14,94775,149883
14,95187,131029
14,95598,121744
14,96012,111076
14,96423,105130
14,96835,95471
14,97248,85025
14,97660,81040
14,98072,76339
14,98485,69606
14,98897,65367
14,99308,63710
14,99722,58133
15,00133,56722
15,00545,52183
15,00958,47771
15,01370,46390
15,01782,43428
15,02195,42481
15,02607,41259
15,03018,38589
15,03430,34471
15,03843,35266
15,04255,34337
15,04667,31214
15,05080,29280
15,05492,30113
15,05903,27713
15,06317,27638
15,06728,24671
15,07140,26678
15,07553,25585
15,07965,23769
15,08377,24612
15,08790,23941
15,09202,22054
15,09613,23436
15,10027,20960
15,10438,20528
15,10850,20038
15,11263,18726
15,11675,18552
15,12087,19134
15,12498,17849
15,12912,18199
15,13323,18607
15,13735,16615
15,14148,17280
15,14560,17188
15,14972,17328
15,15385,17726
15,15797,16899
15,16208,17235
15,16622,21678
15,17033,28444
15,17445,41160
15,17858,64086
15,18270,104549
15,18682,162161
15,19095,249844
15,19507,369223
15,19918,505999
15,20332,672933
15,20743,834065
15,21155,992911
15,21567,1113581
15,21980,1191803
15,22392,1203692
15,22803,1186875
15,23217,1119513
15,23628,995793
15,24040,880869
15,24453,752688
15,24865,637159
15,25277,538678
15,25690,443944
15,26102,367565
15,26513,311500
15,26927,261759
15,27338,220731
15,27750,192308
15,28163,167617
15,28575,144102
15,28987,125618
15,29400,113038
15,29812,99711
15,30223,88206
15,30635,83264
15,31048,74262
15,31460,67989
15,31872,63308
15,32285,58437
15,32697,55888
15,33108,51044
15,33522,46464
15,33933,46331
15,34345,45768
15,34758,49038
15,35170,58459
15,35582,77017
15,35995,111027
15,36407,170989
15,36818,258411
15,37232,401400
15,37643,590437
15,38055,839764
15,38468,1130424
15,38880,1463245
15,39292,1781632
15,39703,2069947
15,40117,2294588
15,40528,2439159
15,40940,2460685
15,41353,2380230
15,41765,2218712
15,42177,1976529
15,42590,1705487
15,43002,1450252
15,43413,1215394
15,43827,1010348
15,44238,829800
15,44650,687556
15,45063,573123
15,45475,479162
15,45887,406531
15,46300,350408
15,46712,304825
15,47123,267959
15,47537,235279
15,47948,209564
15,48360,186224
15,48772,164680
15,49185,150270
15,49597,137190
15,50008,127371
15,50422,118952
15,50833,110458
15,51245,98557
15,51658,93828
15,52070,86378
15,52482,80254
15,52895,75644
15,53307,70741
15,53718,66371
15,54132,62458
15,54543,58638
15,54955,56604
15,55368,52623
15,55780,49453
15,56192,51013
15,56605,46646
15,57017,43043
15,57428,44736
15,57840,40381
15,58253,38055
15,58665,36375
15,59077,36585
15,59490,35206
15,59902,33028
15,60313,31914
15,60727,32192
15,61138,30935
15,61550,30178
15,61963,28912
15,62375,28169
15,62787,26863
15,63200,25920
15,63612,25447
15,64023,22880
15,64437,23549
15,64848,23362
15,65260,23026
15,65673,22152
15,66085,21705
15,66497,21874
15,66908,21388
15,67322,19544
15,67733,20956
15,68145,18769
15,68558,19454
15,68970,18058
15,69382,19008
15,69795,18400
15,70207,16597
15,70618,15895
15,71032,16831
15,71443,15263
15,71855,15992
15,72268,16335
15,72680,14513
15,73092,16382
15,73505,13546
15,73917,14661
15,74328,15697
15,74742,15207
15,75153,15046
15,75565,14258
15,75977,16858
15,76390,15949
15,76802,18286
15,77213,22861
15,77627,32383
15,78038,48104
15,78450,75784
15,78863,119798
15,79275,194851
15,79687,295862
15,80100,416631
15,80512,560604
15,80923,709209
15,81337,849718
15,81748,966222
15,82160,1049509
15,82573,1093738
15,82985,1085315
15,83397,1041561
15,83810,980220
15,84222,904670
15,84633,863862
15,85045,834723
15,85458,871309
15,85870,966743
15,86282,1156268
15,86695,1392262
15,87107,1679373
15,87518,1983553
15,87932,2281739
15,88343,2532033
15,88755,2678590
15,89168,2721280
15,89580,2660338
15,89992,2461014
15,90405,2208582
15,90817,1899771
15,91228,1607954
15,91642,1339533
15,92053,1130429
15,92465,916504
15,92878,757101
15,93290,641889
15,93702,530640
15,94113,455107
15,94527,388817
15,94938,342339
15,95350,300065
15,95763,264621
15,96175,236990
15,96587,215086
15,97000,196040
15,97412,174478
15,97823,157234
15,98237,147481
15,98648,139008
15,99060,123796
15,99473,120155
15,99885,108762
16,00297,100065
16,00710,93660
16,01122,85456
16,01533,85027
16,01947,79797
16,02358,75845
16,02770,73456
16,03183,68446
16,03595,66480
16,04007,59934
16,04418,59330
16,04832,56843
16,05243,52824
16,05655,50346
16,06068,51056
16,06480,49540
16,06892,44950
16,07305,42869
16,07717,43754
16,08128,40876
16,08542,39177
16,08953,37580
16,09365,36404
16,09778,35719
16,10190,34648
16,10602,35127
16,11015,33530
16,11427,32687
16,11838,32635
16,12252,32282
16,12663,30895
16,13075,28641
16,13487,28858
16,13900,28978
16,14312,27771
16,14723,28164
16,15137,25340
16,15548,25820
16,15960,23874
16,16373,23345
16,16785,22868
16,17197,21946
16,17610,24227
16,18022,23989
16,18433,25051
16,18847,30049
16,19258,37173
16,19670,53771
16,20083,83297
16,20495,122742
16,20907,189804
16,21320,284510
16,21732,404650
16,22143,539232
16,22555,687723
16,22968,817289
16,23380,932357
16,23792,1017684
16,24205,1055133
16,24617,1055119
16,25028,1009636
16,25442,931289
16,25853,826125
16,26265,724282
16,26678,630811
16,27090,518937
16,27502,442442
16,27915,371317
16,28327,311375
16,28738,259560
16,29152,224491
16,29563,189187
16,29975,164715
16,30388,141873
16,30800,126802
16,31212,112418
16,31623,98580
16,32037,91765
16,32448,81910
16,32860,76609
16,33273,68658
16,33685,64630
16,34097,59131
16,34510,55036
16,34922,52079
16,35333,51051
16,35747,45663
16,36158,43579
16,36570,43581
16,36983,39349
16,37395,37707
16,37807,38299
16,38220,37370
16,38632,35056
16,39043,34241
16,39457,32632
16,39868,32259
16,40280,29429
16,40692,29930
16,41105,30376
16,41517,28370
16,41928,26541
16,42342,26819
16,42753,27167
16,43165,24519
16,43578,24272
16,43990,22901
16,44402,24552
16,44815,23297
16,45227,22675
16,45638,21512
16,46052,22459
16,46463,20726
16,46875,19926
16,47288,18322
16,47700,18952
16,48112,19429
16,48525,17358
16,48937,18846
16,49348,17631
16,49760,17852
16,50173,17038
16,50585,16645
16,50997,16204
16,51410,15830
16,51822,15790
16,52233,15409
16,52647,15326
16,53058,15394
16,53470,16375
16,53883,17193
16,54295,16202
16,54707,15337
16,55120,15014
16,55532,13351
16,55943,13832
16,56357,13689
16,56768,13903
16,57180,14355
16,57593,13622
16,58005,13663
16,58417,13224
16,58828,14774
16,59242,15282
16,59653,13433
16,60065,12709
16,60478,12722
16,60890,13262
16,61302,14157
16,61715,12671
16,62127,13093
16,62538,13875
16,62952,12919
16,63363,12622
16,63775,13368
16,64188,13417
16,64600,11763
16,65012,13100
16,65425,13188
16,65837,12809
16,66248,13661
16,66662,12695
16,67073,12663
16,67485,11322
16,67897,12691
16,68310,13530
16,68722,12909
16,69133,12694
16,69547,13237
16,69958,12806
16,70370,13454
16,70783,13679
16,71195,13007
16,71607,12645
16,72020,11644
16,72432,12661
16,72843,13279
16,73257,12355
16,73668,12117
16,74080,12162
16,74493,10962
16,74905,11970
16,75317,12521
16,75730,11564
16,76142,11912
16,76553,13207
16,76965,12687
16,77378,13719
16,77790,18431
16,78202,25788
16,78615,34512
16,79027,53512
16,79438,85950
16,79852,141840
16,80263,208971
16,80675,305012
16,81088,417515
16,81500,539833
16,81912,675509
16,82325,781721
16,82737,874955
16,83148,936285
16,83562,971865
16,83973,1011336
16,84385,1008956
16,84798,1029367
16,85210,1083616
16,85622,1179352
16,86033,1354445
16,86447,1592178
16,86858,1857969
16,87270,2134401
16,87683,2476148
16,88095,2764625
16,88507,2963076
16,88920,3012671
16,89332,2961828
16,89743,2774342
16,90157,2497304
16,90568,2182635
16,90980,1847878
16,91393,1545823
16,91805,1291117
16,92217,1068376
16,92630,889599
16,93042,749356
16,93453,629845
16,93867,537487
16,94278,465768
16,94690,408023
16,95102,360547
16,95515,315460
16,95927,287066
16,96338,257079
16,96752,234847
16,97163,216638
16,97575,198453
16,97988,184317
16,98400,173050
16,98812,158752
16,99225,152659
16,99637,142226
17,00048,135453
17,00462,125441
17,00873,119939
17,01285,112970
17,01698,104892
17,02110,96646
17,02522,94258
17,02935,88923
17,03347,83303
17,03758,79094
17,04170,75396
17,04583,70660
17,04995,68081
17,05407,60113
17,05820,59191
17,06232,58433
17,06643,54488
17,07057,52803
17,07468,49405
17,07880,48792
17,08293,47361
17,08705,47188
17,09117,45616
17,09530,42925
17,09942,41955
17,10353,38942
17,10767,39102
17,11178,39232
17,11590,35272
17,12003,33717
17,12415,34271
17,12827,35375
17,13238,32040
17,13652,32098
17,14063,32767
17,14475,32669
17,14888,34584
17,15300,35276
17,15712,41956
17,16125,53136
17,16537,76529
17,16948,109461
17,17362,162714
17,17773,237168
17,18185,337584
17,18598,443814
17,19010,566869
17,19422,692352
17,19835,798489
17,20247,883841
17,20658,944920
17,21072,942977
17,21483,896849
17,21895,839826
17,22307,765433
17,22720,664230
17,23132,577189
17,23543,489510
17,23957,411251
17,24368,344037
17,24780,291633
17,25193,247944
17,25605,212186
17,26017,183806
17,26430,156599
17,26842,140459
17,27253,124007
17,27667,110245
17,28078,97343
17,28490,88303
17,28903,82076
17,29315,77091
17,29727,71294
17,30140,64586
17,30552,62330
17,30963,54487
17,31375,53294
17,31788,52151
17,32200,47951
17,32612,48173
17,33025,44091
17,33437,43181
17,33848,45463
17,34262,47298
17,34673,53811
17,35085,67690
17,35498,90830
17,35910,136573
17,36322,202524
17,36735,293089
17,37147,417871
17,37558,563341
17,37972,734618
17,38383,910437
17,38795,1074113
17,39208,1204573
17,39620,1285816
17,40032,1307738
17,40443,1272593
17,40857,1201464
17,41268,1071930
17,41680,952156
17,42093,822276
17,42505,707340
17,42917,587238
17,43330,494434
17,43742,421060
17,44153,356036
17,44567,304651
17,44978,263079
17,45390,230127
17,45803,206603
17,46215,179518
17,46627,164863
17,47040,144867
17,47452,131483
17,47863,120617
17,48277,110851
17,48688,102148
17,49100,94351
17,49512,88456
17,49925,77803
17,50337,74176
17,50748,70182
17,51162,68483
17,51573,63992
17,51985,60146
17,52398,58516
17,52810,54488
17,53222,50683
17,53635,50389
17,54047,47041
17,54458,45810
17,54872,43539
17,55283,44575
17,55695,41720
17,56108,39429
17,56520,37442
17,56932,35258
17,57345,35856
17,57757,32823
17,58168,32968
17,58580,32979
17,58993,31323
17,59405,30279
17,59817,30306
17,60230,29623
17,60642,27527
17,61053,28915
17,61467,27980
17,61878,26006
17,62290,27276
17,62703,27809
17,63115,25639
17,63527,25054
17,63940,26453
17,64352,24895
17,64763,25204
17,65177,24732
17,65588,24157
17,66000,24603
17,66413,23164
17,66825,22146
17,67237,21943
17,67650,20664
17,68062,21342
17,68473,20500
17,68885,21190
17,69298,19056
17,69710,20532
17,70122,18838
17,70535,20785
17,70947,18311
17,71358,19932
17,71772,18696
17,72183,18892
17,72595,19748
17,73008,18924
17,73420,17072
17,73832,18631
17,74245,18114
17,74657,17573
17,75068,17971
17,75482,17093
17,75893,17037
17,76305,15477
17,76718,17838
17,77130,18712
17,77542,16884
17,77953,18246
17,78367,18788
17,78778,22327
17,79190,24584
17,79603,33130
17,80015,52242
17,80427,81428
17,80840,123941
17,81252,196636
17,81663,300805
17,82077,439791
17,82488,619837
17,82900,821345
17,83313,1034745
17,83725,1230389
17,84137,1361789
17,84550,1458555
17,84962,1460926
17,85373,1395656
17,85787,1295501
17,86198,1144171
17,86610,1001274
17,87022,848812
17,87435,722697
17,87847,607807
17,88258,513322
17,88672,431966
17,89083,369995
17,89495,317064
17,89908,276314
17,90320,243755
17,90732,210875
17,91145,189011
17,91557,173751
17,91968,156634
17,92382,142213
17,92793,131633
17,93205,114625
17,93618,110925
17,94030,102124
17,94442,93504
17,94855,89623
17,95267,82542
17,95678,75759
17,96090,76752
17,96503,71988
17,96915,68045
17,97327,65291
17,97740,60891
17,98152,57727
17,98563,58114
17,98977,56503
17,99388,53282
17,99800,51763
18,00213,48644
18,00625,47576
18,01037,48607
18,01450,43557
18,01862,43163
18,02273,40721
18,02687,38544
18,03098,38273
18,03510,37769
18,03923,34648
18,04335,34842
18,04747,32891
18,05158,33166
18,05572,33234
18,05983,32636
18,06395,32518
18,06808,32156
18,07220,31847
18,07632,29841
18,08045,29918
18,08457,28137
18,08868,27213
18,09282,28484
18,09693,28256
18,10105,25741
18,10518,26576
18,10930,25639
18,11342,26349
18,11755,24379
18,12167,24042
18,12578,24117
18,12992,25020
18,13403,25367
18,13815,26069
18,14227,28270
18,14640,34458
18,15052,44169
18,15463,60827
18,15877,92157
18,16288,145755
18,16700,219221
18,17113,323606
18,17525,449774
18,17937,598400
18,18350,758099
18,18762,914061
18,19173,1031220
18,19587,1106842
18,19998,1133334
18,20410,1117440
18,20823,1059265
18,21235,964487
18,21647,859523
18,22060,741653
18,22472,640288
18,22883,548156
18,23295,468639
18,23708,394393
18,24120,329423
18,24532,291008
18,24945,250649
18,25357,218266
18,25768,191693
18,26182,171081
18,26593,151466
18,27005,134335
18,27418,123991
18,27830,110854
18,28242,99223
18,28655,93887
18,29067,88541
18,29478,81338
18,29892,74249
18,30303,70797
18,30715,69295
18,31128,63376
18,31540,60147
18,31952,57999
18,32363,56464
18,32777,52368
18,33188,52417
18,33600,45513
18,34013,45489
18,34425,45199
18,34837,42448
18,35250,41944
18,35662,38757
18,36073,38438
18,36487,37170
18,36898,36840
18,37310,35114
18,37723,35109
18,38135,32127
18,38547,32616
18,38960,30636
18,39372,32383
18,39783,31288
18,40197,30421
18,40608,29654
18,41020,27544
18,41432,26564
18,41845,27936
18,42257,27247
18,42668,26582
18,43082,25235
18,43493,25600
18,43905,25366
18,44318,25882
18,44730,24836
18,45142,25409
18,45555,24259
18,45967,23116
18,46378,25039
18,46792,21340
18,47203,22764
18,47615,23451
18,48028,21640
18,48440,21732
18,48852,22254
18,49265,22429
18,49677,23206
18,50088,20570
18,50500,22574
18,50913,21424
18,51325,20458
18,51737,21073
18,52150,19214
18,52562,21218
18,52973,19963
18,53387,19431
18,53798,21817
18,54210,19640
18,54623,21603
18,55035,20690
18,55447,21580
18,55860,19711
18,56272,20113
18,56683,21318
18,57097,21208
18,57508,20376
18,57920,20897
18,58333,21353
18,58745,20585
18,59157,20496
18,59568,21572
18,59982,20057
18,60393,21570
18,60805,19580
18,61218,19627
18,61630,17590
18,62042,18126
18,62455,19556
18,62867,18564
18,63278,18737
18,63692,17060
18,64103,17880
18,64515,20067
18,64928,16797
18,65340,19478
18,65752,19151
18,66165,17469
18,66577,20606
18,66988,18507
18,67402,18898
18,67813,17007
18,68225,18902
18,68637,19668
18,69050,18897
18,69462,18069
18,69873,20940
18,70287,22397
18,70698,27115
18,71110,38396
18,71523,54150
18,71935,80589
18,72347,128583
18,72760,201079
18,73172,298830
18,73583,435164
18,73997,611536
18,74408,823784
18,74820,1066469
18,75233,1322862
18,75645,1603860
18,76057,1911385
18,76470,2222703
18,76882,2560960
18,77293,2856275
18,77705,3132127
18,78118,3389749
18,78530,3558664
18,78942,3587357
18,79355,3471997
18,79767,3211169
18,80178,2891328
18,80592,2541832
18,81003,2182671
18,81415,1846861
18,81828,1551097
18,82240,1298768
18,82652,1093920
18,83065,933956
18,83477,805310
18,83888,691144
18,84302,611551
18,84713,541174
18,85125,482462
18,85538,433164
18,85950,385700
18,86362,349617
18,86773,321084
18,87187,297201
18,87598,270450
18,88010,254637
18,88423,239260
18,88835,219626
18,89247,202020
18,89660,189852
18,90072,180381
18,90483,165069
18,90897,161244
18,91308,149226
18,91720,144649
18,92133,132919
18,92545,127880
18,92957,122814
18,93370,121333
18,93782,110242
18,94193,110304
18,94607,105092
18,95018,95315
18,95430,93491
18,95842,90349
18,96255,88962
18,96667,86650
18,97078,82799
18,97492,80263
18,97903,76939
18,98315,73454
18,98728,74088
18,99140,70946
18,99552,68770
18,99965,65531
19,00377,63609
19,00788,61223
19,01202,60273
19,01613,56855
19,02025,56962
19,02438,57770
19,02850,55330
19,03262,53103
19,03675,52674
19,04087,51340
19,04498,49106
19,04910,51966
19,05323,53504
19,05735,54924
19,06147,62028
19,06560,77359
19,06972,104720
19,07383,146413
19,07797,207694
19,08208,299408
19,08620,405879
19,09033,530306
19,09445,665519
19,09857,802605
19,10270,932003
19,10682,996138
19,11093,1060635
19,11507,1057053
19,11918,1032193
19,12330,964025
19,12743,887575
19,13155,805192
19,13567,743108
19,13978,708790
19,14392,694493
19,14803,715613
19,15215,752602
19,15628,828469
19,16040,920617
19,16452,998039
19,16865,1061548
19,17277,1093115
19,17688,1105254
19,18102,1075873
19,18513,1009179
19,18925,925901
19,19338,828035
19,19750,737261
19,20162,646380
19,20575,553813
19,20987,478103
19,21398,417515
19,21812,373030
19,22223,338786
19,22635,321320
19,23047,335922
19,23460,362789
19,23872,421669
19,24283,519429
19,24697,639787
19,25108,808415
19,25520,965932
19,25933,1138404
19,26345,1281752
19,26757,1389026
19,27170,1446109
19,27582,1443420
19,27993,1376636
19,28407,1278418
19,28818,1157542
19,29230,1019425
19,29643,891726
19,30055,763018
19,30467,656276
19,30880,570814
19,31292,495323
19,31703,430020
19,32117,378624
19,32528,341178
19,32940,304123
19,33352,272886
19,33765,246289
19,34177,222827
19,34588,210770
19,35002,189720
19,35413,180605
19,35825,171369
19,36238,154004
19,36650,148116
19,37062,137856
19,37475,132203
19,37887,125284
19,38298,117862
19,38712,111414
19,39123,109232
19,39535,99195
19,39948,95707
19,40360,92102
19,40772,91051
19,41185,84071
19,41597,81893
19,42008,76973
19,42420,75188
19,42833,74614
19,43245,74546
19,43657,69807
19,44070,68536
19,44482,65856
19,44893,63329
19,45307,61484
19,45718,59418
19,46130,57105
19,46543,54634
19,46955,53378
19,47367,53636
19,47780,53543
19,48192,51771
19,48603,52247
19,49017,50732
19,49428,47163
19,49840,47678
19,50253,45370
19,50665,46440
19,51077,44701
19,51488,43836
19,51902,41966
19,52313,41930
19,52725,44480
19,53138,43069
19,53550,40446
19,53962,42310
19,54375,41693
19,54787,41970
19,55198,37808
19,55612,37548
19,56023,39127
19,56435,35064
19,56848,37478
19,57260,36619
19,57672,34821
19,58085,37575
19,58497,36719
19,58908,38667
19,59322,35532
19,59733,37952
19,60145,36639
19,60557,38595
19,60970,37549
19,61382,38002
19,61793,38759
19,62207,38445
19,62618,47207
19,63030,55975
19,63443,70633
19,63855,102479
19,64267,144837
19,64680,207312
19,65092,309129
19,65503,441145
19,65917,611739
19,66328,796569
19,66740,1006604
19,67153,1201022
19,67565,1359065
19,67977,1447945
19,68390,1488886
19,68802,1434635
19,69213,1343555
19,69625,1206201
19,70038,1063815
19,70450,924152
19,70862,797039
19,71275,693746
19,71687,594746
19,72098,517173
19,72512,451030
19,72923,395216
19,73335,350161
19,73748,311509
19,74160,278652
19,74572,255190
19,74985,233560
19,75397,210743
19,75808,197960
19,76222,183020
19,76633,172765
19,77045,160606
19,77458,152556
19,77870,141375
19,78282,130604
19,78693,129257
19,79107,122714
19,79518,117175
19,79930,109820
19,80343,106299
19,80755,99547
19,81167,98021
19,81580,95729
19,81992,92739
19,82403,91986
19,82817,87177
19,83228,83793
19,83640,83241
19,84053,80612
19,84465,77271
19,84877,72005
19,85290,70287
19,85702,70541
19,86113,66307
19,86527,67127
19,86938,64639
19,87350,63728
19,87762,61751
19,88175,60221
19,88587,59085
19,88998,57317
19,89412,55991
19,89823,54435
19,90235,54292
19,90648,53875
19,91060,53281
19,91472,50620
19,91885,50840
19,92297,50418
19,92708,45971
19,93122,45956
19,93533,45627
19,93945,44286
19,94358,45687
19,94770,44624
19,95182,43157
19,95595,45754
19,96007,41622
19,96418,42420
19,96830,44933
19,97243,47123
19,97655,53233
19,98067,62622
19,98480,76215
19,98892,109786
19,99303,155351
19,99717,227561
20,00128,324724
20,00540,453760
20,00953,608310
20,01365,775370
20,01777,932464
20,02190,1066218
20,02602,1160508
20,03013,1201016
20,03427,1198491
20,03838,1147223
20,04250,1053629
20,04663,963716
20,05075,846172
20,05487,742791
20,05898,655102
20,06312,585659
20,06723,537658
20,07135,532799
20,07548,539272
20,07960,576951
20,08372,642748
20,08785,724304
20,09197,808724
20,09608,897141
20,10022,969416
20,10433,1002137
20,10845,1006167
20,11258,988361
20,11670,940319
20,12082,879465
20,12495,782972
20,12907,702170
20,13318,615203
20,13732,532425
20,14143,460140
20,14555,404045
20,14967,352351
20,15380,306980
20,15792,274771
20,16203,248127
20,16617,223482
20,17028,199626
20,17440,188046
20,17853,170206
20,18265,152454
20,18677,146932
20,19090,134010
20,19502,129867
20,19913,117327
20,20327,114286
20,20738,107374
20,21150,103075
20,21563,100263
20,21975,92424
20,22387,89206
20,22800,85574
20,23212,82356
20,23623,80587
20,24035,75154
20,24448,74639
20,24860,74530
20,25272,70544
20,25685,68941
20,26097,67881
20,26508,65643
20,26922,64011
20,27333,65707
20,27745,59774
20,28158,58921
20,28570,57782
20,28982,58696
20,29395,53273
20,29807,54100
20,30218,53856
20,30632,53254
20,31043,50674
20,31455,52116
20,31868,49369
20,32280,47528
20,32692,49133
20,33103,46360
20,33517,46408
20,33928,48702
20,34340,48133
20,34753,46143
20,35165,45242
20,35577,43387
20,35990,45313
20,36402,46191
20,36813,43371
20,37227,41099
20,37638,43315
20,38050,43348
20,38463,43315
20,38875,42045
20,39287,39986
20,39700,40585
20,40112,40249
20,40523,37693
20,40937,37638
20,41348,37547
20,41760,39996
20,42172,37643
20,42585,37042
20,42997,36023
20,43408,37634
20,43822,36357
20,44233,37029
20,44645,37128
20,45058,38289
20,45470,38112
20,45882,36477
20,46295,37824
20,46707,35180
20,47118,34942
20,47532,36461
20,47943,37462
20,48355,36164
20,48768,36728
20,49180,38505
20,49592,40605
20,50005,42864
20,50417,50711
20,50828,64025
20,51240,87331
20,51653,120787
20,52065,174689
20,52477,257050
20,52890,383683
20,53302,552180
20,53713,773641
20,54127,1054390
20,54538,1383704
20,54950,1742739
20,55363,2109403
20,55775,2441252
20,56187,2730128
20,56600,2896022
20,57012,2956322
20,57423,2862940
20,57837,2663037
20,58248,2367156
20,58660,2081337
20,59073,1771565
20,59485,1505432
20,59897,1289406
20,60308,1100823
20,60722,944436
20,61133,826911
20,61545,717866
20,61958,644542
20,62370,560857
20,62782,511081
20,63195,465425
20,63607,424295
20,64018,387297
20,64432,358791
20,64843,331935
20,65255,308316
20,65668,292789
20,66080,269059
20,66492,252739
20,66905,241110
20,67317,225618
20,67728,213200
20,68142,199469
20,68553,190543
20,68965,183570
20,69377,175677
20,69790,171765
20,70202,161617
20,70613,158500
20,71027,151648
20,71438,145166
20,71850,135941
20,72263,136318
20,72675,127311
20,73087,127396
20,73500,119094
20,73912,118373
20,74323,114407
20,74737,112562
20,75148,108986
20,75560,105774
20,75973,99027
20,76385,101342
20,76797,97622
20,77210,95012
20,77622,94733
20,78033,91903
20,78445,91443
20,78858,83673
20,79270,86510
20,79682,84258
20,80095,82101
20,80507,79622
20,80918,79430
20,81332,75379
20,81743,76383
20,82155,73618
20,82568,74008
20,82980,70843
20,83392,71049
20,83805,69753
20,84217,68815
20,84628,67855
20,85042,68668
20,85453,68336
20,85865,68174
20,86278,68649
20,86690,68354
20,87102,65355
20,87513,65182
20,87927,64386
20,88338,63715
20,88750,61535
20,89163,64239
20,89575,59653
20,89987,61754
20,90400,59779
20,90812,58550
20,91223,55904
20,91637,56279
20,92048,56984
20,92460,58130
20,92873,57374
20,93285,55768
20,93697,54232
20,94110,52049
20,94522,51834
20,94933,51144
20,95347,53240
20,95758,54115
20,96170,54465
20,96583,58604
20,96995,64938
20,97407,75575
20,97818,94125
20,98232,127421
20,98643,172638
20,99055,239030
20,99468,336893
20,99880,466077
21,00292,625728
21,00705,796672
21,01117,981737
21,01528,1155405
21,01942,1280331
21,02353,1359560
21,02765,1380862
21,03178,1341149
21,03590,1241523
21,04002,1146030
21,04415,1003631
21,04827,889533
21,05238,776319
21,05652,684157
21,06063,596500
21,06475,528588
21,06887,456908
21,07300,407702
21,07712,371565
21,08123,329908
21,08537,308889
21,08948,285124
21,09360,264226
21,09773,242307
21,10185,227217
21,10597,211891
21,11010,199706
21,11422,184050
21,11833,175410
21,12247,169669
21,12658,160457
21,13070,155595
21,13483,143838
21,13895,139124
21,14307,133581
21,14720,127989
21,15132,123017
21,15543,120117
21,15955,115254
21,16368,110195
21,16780,106448
21,17192,106006
21,17605,101464
21,18017,103047
21,18428,96624
21,18842,96770
21,19253,94782
21,19665,92960
21,20078,86635
21,20490,83933
21,20902,84413
21,21315,84549
21,21727,80521
21,22138,77011
21,22552,77662
21,22963,78698
21,23375,75236
21,23788,72727
21,24200,71567
21,24612,70270
21,25023,69927
21,25437,69266
21,25848,67641
21,26260,67878
21,26673,68454
21,27085,66250
21,27497,64858
21,27910,62009
21,28322,64047
21,28733,61416
21,29147,60173
21,29558,60833
21,29970,62467
21,30383,61552
21,30795,59711
21,31207,57724
21,31620,58099
21,32032,55692
21,32443,59912
21,32857,57749
21,33268,59819
21,33680,57682
21,34092,59622
21,34505,57983
21,34917,60696
21,35328,59059
21,35742,66855
21,36153,68754
21,36565,70968
21,36978,78605
21,37390,82278
21,37802,92755
21,38215,100131
21,38627,109693
21,39038,114687
21,39452,115610
21,39863,118498
21,40275,112446
21,40688,114733
21,41100,104962
21,41512,102055
21,41925,94756
21,42337,87766
21,42748,85802
21,43160,78709
21,43573,73575
21,43985,69101
21,44397,66157
21,44810,69107
21,45222,63073
21,45633,58477
21,46047,59506
21,46458,59079
21,46870,58292
21,47283,57656
21,47695,55667
21,48107,53367
21,48520,51569
21,48932,53366
21,49343,51018
21,49757,51694
21,50168,51419
21,50580,50482
21,50993,51085
21,51405,51260
21,51817,49011
21,52228,47933
21,52642,49759
21,53053,50381
21,53465,47606
21,53878,49598
21,54290,48322
21,54702,46228
21,55115,46736
21,55527,47582
21,55938,45746
21,56352,45865
21,56763,47173
21,57175,47173
21,57588,46806
21,58000,47934
21,58412,45197
21,58825,44831
21,59237,47001
21,59648,44803
21,60062,44954
21,60473,44189
21,60885,47364
21,61297,47471
21,61710,43370
21,62122,45024
21,62533,44820
21,62947,47713
21,63358,45133
21,63770,45621
21,64183,44157
21,64595,44426
21,65007,44834
21,65420,45736
21,65832,45860
21,66243,43225
21,66657,45212
21,67068,44176
21,67480,46360
21,67893,44402
21,68305,45088
21,68717,46624
21,69130,48607
21,69542,43914
21,69953,46043
21,70365,44303
21,70778,45381
21,71190,46653
21,71602,46007
21,72015,45805
21,72427,44413
21,72838,47096
21,73252,45556
21,73663,44760
21,74075,45301
21,74488,47426
21,74900,48567
21,75312,44006
21,75725,44628
21,76137,45347
21,76548,49222
21,76962,45347
21,77373,46780
21,77785,46972
21,78198,47670
21,78610,46421
21,79022,45755
21,79433,46104
21,79847,45237
21,80258,46663
21,80670,46878
21,81083,44755
21,81495,43397
21,81907,47423
21,82320,46973
21,82732,45466
21,83143,43633
21,83557,46109
21,83968,44739
21,84380,48043
21,84793,46440
21,85205,43164
21,85617,46851
21,86030,48745
21,86442,44613
21,86853,45432
21,87267,47375
21,87678,47131
21,88090,43315
21,88502,46455
21,88915,44801
21,89327,45757
21,89738,47961
21,90152,45408
21,90563,44890
21,90975,44761
21,91388,43277
21,91800,44324
21,92212,43308
21,92625,45699
21,93037,43942
21,93448,44750
21,93862,47408
21,94273,46971
21,94685,45541
21,95098,44970
21,95510,45939
21,95922,43025
21,96335,45395
21,96747,44090
21,97158,44075
21,97570,42853
21,97983,43452
21,98395,44157
21,98807,42142
21,99220,43958
21,99632,42982
22,00043,44077
22,00457,42932
22,00868,43382
22,01280,44468
22,01693,42499
22,02105,42971
22,02517,43690
22,02930,44356
22,03342,44999
22,03753,45829
22,04167,44860
22,04578,44694
22,04990,46349
22,05403,42743
22,05815,44145
22,06227,41764
22,06638,42190
22,07052,42583
22,07463,44250
22,07875,45660
22,08288,44777
22,08700,43145
22,09112,43092
22,09525,42567
22,09937,42777
22,10348,43560
22,10762,44575
22,11173,43441
22,11585,42806
22,11998,42781
22,12410,42586
22,12822,44739
22,13235,41635
22,13647,43927
22,14058,43554
22,14472,42262
22,14883,42800
22,15295,42479
22,15707,43376
22,16120,45136
22,16532,42665
22,16943,44475
22,17357,43985
22,17768,43512
22,18180,43037
22,18593,45449
22,19005,42247
22,19417,45794
22,19830,48443
22,20242,45747
22,20653,46824
22,21067,46375
22,21478,45418
22,21890,46374
22,22303,47944
22,22715,48631
22,23127,48411
22,23540,48818
22,23952,48955
22,24363,60128
22,24775,67570
22,25188,84960
22,25600,108063
22,26012,143195
22,26425,191459
22,26837,251800
22,27248,326632
22,27662,410690
22,28073,495926
22,28485,579250
22,28898,652337
22,29310,703364
22,29722,733083
22,30135,738287
22,30547,703624
22,30958,684427
22,31372,623552
22,31783,568214
22,32195,509850
22,32608,452533
22,33020,392610
22,33432,352682
22,33843,319198
22,34257,281132
22,34668,254300
22,35080,225563
22,35493,205595
22,35905,187633
22,36317,174734
22,36730,163831
22,37142,147857
22,37553,140157
22,37967,131380
22,38378,122188
22,38790,116941
22,39203,107552
22,39615,108106
22,40027,101325
22,40440,95234
22,40852,95451
22,41263,93337
22,41677,87020
22,42088,86566
22,42500,85392
22,42913,80969
22,43325,77721
22,43737,76995
22,44148,77923
22,44562,77092
22,44973,73430
22,45385,72689
22,45798,70188
22,46210,70843
22,46622,69342
22,47035,68730
22,47447,64863
22,47858,64921
22,48272,68484
22,48683,65701
22,49095,62081
22,49508,60569
22,49920,62507
22,50332,62966
22,50745,59340
22,51157,59950
22,51568,59162
22,51982,59252
22,52393,59235
22,52805,57754
22,53217,58973
22,53630,58454
22,54042,55214
22,54453,56147
22,54867,54879
22,55278,56137
22,55690,55671
22,56103,55702
22,56515,54398
22,56927,53318
22,57340,53940
22,57752,51670
22,58163,54008
22,58577,52431
22,58988,54700
22,59400,51380
22,59813,51863
22,60225,53048
22,60637,50155
22,61050,53215
22,61462,52889
22,61873,51377
22,62285,53173
22,62698,52259
22,63110,50262
22,63522,50517
22,63935,50564
22,64347,51582
22,64758,51004
22,65172,50502
22,65583,51242
22,65995,50338
22,66408,50091
22,66820,51935
22,67232,49674
22,67645,50136
22,68057,51571
22,68468,49622
22,68882,49842
22,69293,49174
22,69705,52059
22,70118,54044
22,70530,50220
22,70942,49727
22,71353,48590
22,71767,50056
22,72178,50426
22,72590,49849
22,73003,50740
22,73415,50214
22,73827,49804
22,74240,49526
22,74652,49291
22,75063,48904
22,75477,48611
22,75888,49850
22,76300,49749
22,76713,47450
22,77125,49899
22,77537,49983
22,77950,46746
22,78362,49260
22,78773,47597
22,79187,50923
22,79598,50371
22,80010,51189
22,80422,46534
22,80835,50740
22,81247,48814
22,81658,47392
22,82072,48491
22,82483,50191
22,82895,47775
22,83308,47673
22,83720,48371
22,84132,47854
22,84545,46610
22,84957,47789
22,85368,46071
22,85782,47690
22,86193,49150
22,86605,47736
22,87018,45033
22,87430,47008
22,87842,46455
22,88255,47082
22,88667,47525
22,89078,44328
22,89490,48669
22,89903,45617
22,90315,44976
22,90727,44341
22,91140,48664
22,91552,46442
22,91963,47563
22,92377,47108
22,92788,46858
22,93200,48076
22,93613,48077
22,94025,45650
22,94437,47103
22,94850,45740
22,95262,47278
22,95673,45442
22,96087,46726
22,96498,46870
22,96910,46786
22,97323,46982
22,97735,50245
22,98147,47895
22,98558,45633
22,98972,49585
22,99383,49961
22,99795,47425
23,00208,46227
23,00620,50124
23,01032,46415
23,01445,46696
23,01857,47938
23,02268,46901
23,02682,48420
23,03093,47844
23,03505,45501
23,03918,46360
23,04330,47299
23,04742,48150
23,05155,48307
23,05567,45400
23,05978,47540
23,06392,47559
23,06803,49381
23,07215,46081
23,07627,47340
23,08040,45626
23,08452,47860
23,08863,46971
23,09277,45382
23,09688,48125
23,10100,48951
23,10513,47838
23,10925,46903
23,11337,45608
23,11750,47416
23,12162,47795
23,12573,47752
23,12987,44061
23,13398,47534
23,13810,46984
23,14223,48329
23,14635,45005
23,15047,47245
23,15460,48327
23,15872,46642
23,16283,46310
23,16695,45566
23,17108,49058
23,17520,46965
23,17932,48021
23,18345,48938
23,18757,47112
23,19168,47299
23,19582,49259
23,19993,47723
23,20405,47513
23,20818,45284
23,21230,47485
23,21642,50514
23,22055,45853
23,22467,47869
23,22878,46708
23,23292,47563
23,23703,48408
23,24115,48503
23,24528,48153
23,24940,47951
23,25352,46672
23,25763,47851
23,26177,48701
23,26588,47009
23,27000,45212
23,27413,46869
23,27825,47519
23,28237,46929
23,28650,46296
23,29062,48397
23,29473,46974
23,29887,45790
23,30298,43305
23,30710,48960
23,31123,49548
23,31535,48464
23,31947,49405
23,32360,49592
23,32772,48841
23,33183,50458
23,33597,45679
23,34008,45893
23,34420,45955
23,34832,48537
23,35245,48444
23,35657,48912
23,36068,48758
23,36482,49496
23,36893,47257
23,37305,46358
23,37718,45166
23,38130,47906
23,38542,46960
23,38955,47873
23,39367,46055
23,39778,44915
23,40192,46886
23,40603,46905
23,41015,45769
23,41428,46274
23,41840,46292
23,42252,46207
23,42665,47890
23,43077,46903
23,43488,46153
23,43900,49369
23,44313,45458
23,44725,49756
23,45137,48093
23,45550,45122
23,45962,47522
23,46373,47784
23,46787,47410
23,47198,46618
23,47610,47973
23,48023,46480
23,48435,46003
23,48847,47021
23,49260,45459
23,49672,48812
23,50083,43156
23,50497,47720
23,50908,46325
23,51320,47600
23,51733,46581
23,52145,45824
23,52557,45865
23,52968,45662
23,53382,46617
23,53793,46419
23,54205,46677
23,54618,50801
23,55030,44581
23,55442,49443
23,55855,46814
23,56267,47929
23,56678,48435
23,57092,46681
23,57503,45534
23,57915,44195
23,58328,44750
23,58740,44850
23,59152,47934
23,59565,45764
23,59977,48659
23,60388,46419
23,60802,48420
23,61213,47957
23,61625,47422
23,62037,46440
23,62450,45984
23,62862,47040
23,63273,47505
23,63687,44720
23,64098,44651
23,64510,47592
23,64923,43186
23,65335,46794
23,65747,46531
23,66160,46700
23,66572,43957
23,66983,46220
23,67397,43619
23,67808,49519
23,68220,45325
23,68633,48430
23,69045,45263
23,69457,46895
23,69870,46994
23,70282,44766
23,70693,45240
23,71105,47005
23,71518,46283
23,71930,48249
23,72342,45969
23,72755,47770
23,73167,48301
23,73578,44826
23,73992,47048
23,74403,45230
23,74815,48055
23,75228,48905
23,75640,49085
23,76052,44656
23,76465,49012
23,76877,49858
23,77288,48835
23,77702,49005
23,78113,47477
23,78525,47706
23,78938,48639
23,79350,47703
23,79762,48269
23,80173,48395
23,80587,45906
23,80998,49128
23,81410,50461
23,81823,48503
23,82235,46813
23,82647,49789
23,83060,46388
23,83472,47968
23,83883,45544
23,84297,49349
23,84708,48347
23,85120,50260
23,85533,45406
23,85945,48118
23,86357,43721
23,86770,47116
23,87182,45126
23,87593,46665
23,88007,48200
23,88418,44242
23,88830,46391
23,89242,47360
23,89655,44100
23,90067,49338
23,90478,48254
23,90892,46942
23,91303,45212
23,91715,49524
23,92128,47030
23,92540,46435
23,92952,48224
23,93365,48274
23,93777,48043
23,94188,48556
23,94602,47031
23,95013,46390
23,95425,45232
23,95838,47027
23,96250,48011
23,96662,46987
23,97075,49525
23,97487,47093
23,97898,47195
23,98310,46420
23,98723,44637
23,99135,48716
23,99547,45068
23,99960,47678
24,00372,47805
