D:\MassHunter\GCMS\1\data\Amal\Constant flow\100C\100C_1ml-min_9C-min_3.D Wed Sep 18 19:03:13 2024
Start of data points
5,64102,100342
5,64513,98384
5,64925,96938
5,65338,93255
5,65750,95650
5,66162,95854
5,66575,93926
5,66987,95271
5,67398,92652
5,67810,94984
5,68223,93440
5,68635,92693
5,69047,93223
5,69460,93633
5,69872,91121
5,70283,93753
5,70697,91771
5,71108,90944
5,71520,91599
5,71933,91012
5,72345,87758
5,72757,90576
5,73170,88471
5,73582,88540
5,73993,87122
5,74407,91707
5,74818,87492
5,75230,88290
5,75643,86266
5,76055,83398
5,76467,87084
5,76878,84995
5,77292,81629
5,77703,79983
5,78115,84229
5,78528,79870
5,78940,81414
5,79352,80495
5,79765,79903
5,80177,79155
5,80588,77199
5,81002,80765
5,81413,80698
5,81825,79151
5,82238,80145
5,82650,77398
5,83062,78053
5,83475,77817
5,83887,77791
5,84298,80695
5,84712,77518
5,85123,78408
5,85535,74564
5,85947,76991
5,86360,74624
5,86772,75056
5,87183,74026
5,87597,73443
5,88008,74037
5,88420,72286
5,88833,73254
5,89245,71883
5,89657,71449
5,90070,72350
5,90482,73635
5,90893,73129
5,91307,74313
5,91718,73087
5,92130,75844
5,92543,76394
5,92955,79195
5,93367,78672
5,93780,76718
5,94192,78050
5,94603,78361
5,95015,77140
5,95428,80311
5,95840,78712
5,96252,77629
5,96665,78282
5,97077,78453
5,97488,80108
5,97902,81489
5,98313,81789
5,98725,80861
5,99138,82166
5,99550,84352
5,99962,81109
6,00375,80630
6,00787,83424
6,01198,80218
6,01612,80897
6,02023,80535
6,02435,82068
6,02848,80774
6,03260,82639
6,03672,81487
6,04083,78556
6,04497,79516
6,04908,79876
6,05320,76069
6,05733,76685
6,06145,76352
6,06557,76741
6,06970,74262
6,07382,74336
6,07793,73199
6,08207,74740
6,08618,75566
6,09030,70098
6,09443,72116
6,09855,68876
6,10267,69514
6,10680,67433
6,11092,68247
6,11503,66953
6,11917,65617
6,12328,69137
6,12740,68271
6,13152,63734
6,13565,67431
6,13977,67154
6,14388,67705
6,14802,64285
6,15213,63154
6,15625,63232
6,16038,62099
6,16450,63142
6,16862,64013
6,17275,63714
6,17687,66509
6,18098,74352
6,18512,86293
6,18923,117457
6,19335,167175
6,19748,253707
6,20160,370819
6,20572,513759
6,20985,670006
6,21397,805627
6,21808,920380
6,22222,1002612
6,22633,1054261
6,23045,1060275
6,23457,1041558
6,23870,1003556
6,24282,953430
6,24693,903845
6,25107,849954
6,25518,803678
6,25930,743192
6,26343,706637
6,26755,658547
6,27167,617404
6,27580,579732
6,27992,541333
6,28403,501979
6,28817,471593
6,29228,443716
6,29640,407870
6,30053,382035
6,30465,356602
6,30877,329375
6,31290,307793
6,31702,287832
6,32113,263439
6,32525,242066
6,32938,217279
6,33350,195229
6,33762,179871
6,34175,168712
6,34587,154498
6,34998,144435
6,35412,133111
6,35823,121423
6,36235,113848
6,36648,107708
6,37060,98285
6,37472,96382
6,37885,86850
6,38297,84842
6,38708,78837
6,39122,74717
6,39533,72434
6,39945,69475
6,40358,67426
6,40770,64436
6,41182,64157
6,41593,61341
6,42007,62046
6,42418,60754
6,42830,56700
6,43243,56348
6,43655,56651
6,44067,54696
6,44480,53071
6,44892,52421
6,45303,51216
6,45717,48616
6,46128,48961
6,46540,48141
6,46953,48204
6,47365,44880
6,47777,44911
6,48190,45641
6,48602,43488
6,49013,44776
6,49427,43712
6,49838,42737
6,50250,42608
6,50662,38822
6,51075,42045
6,51487,40340
6,51898,40303
6,52312,40058
6,52723,38874
6,53135,40892
6,53548,39128
6,53960,39420
6,54372,39731
6,54785,38249
6,55197,39937
6,55608,40086
6,56022,38764
6,56433,39162
6,56845,40858
6,57258,37850
6,57670,37443
6,58082,37549
6,58495,36855
6,58907,37711
6,59318,37725
6,59730,38644
6,60143,36560
6,60555,37890
6,60967,37070
6,61380,37225
6,61792,38313
6,62203,36904
6,62617,37259
6,63028,35581
6,63440,36692
6,63853,36146
6,64265,36855
6,64677,36017
6,65090,36633
6,65502,35741
6,65913,34514
6,66327,37674
6,66738,37946
6,67150,35235
6,67563,36289
6,67975,36517
6,68387,34793
6,68798,36053
6,69212,34493
6,69623,34848
6,70035,34325
6,70448,36492
6,70860,35924
6,71272,36130
6,71685,35538
6,72097,34466
6,72508,35764
6,72922,36583
6,73333,35106
6,73745,34822
6,74158,33903
6,74570,34412
6,74982,35055
6,75395,33908
6,75807,33727
6,76218,34246
6,76632,33096
6,77043,34842
6,77455,34089
6,77867,33905
6,78280,30239
6,78692,34579
6,79103,33678
6,79517,32011
6,79928,31910
6,80340,34087
6,80753,31962
6,81165,33072
6,81577,33168
6,81990,32680
6,82402,32428
6,82813,31337
6,83227,31341
6,83638,31783
6,84050,31343
6,84463,30610
6,84875,32241
6,85287,30929
6,85700,33486
6,86112,32331
6,86523,31302
6,86935,31165
6,87348,32158
6,87760,32484
6,88172,31985
6,88585,31075
6,88997,31690
6,89408,32613
6,89822,31937
6,90233,32529
6,90645,32183
6,91058,32739
6,91470,31927
6,91882,31379
6,92295,31114
6,92707,31228
6,93118,31208
6,93532,30323
6,93943,33274
6,94355,33807
6,94768,32635
6,95180,31905
6,95592,32357
6,96003,31329
6,96417,31628
6,96828,30441
6,97240,32015
6,97653,27983
6,98065,30089
6,98477,29215
6,98890,30210
6,99302,28885
6,99713,30822
7,00127,29602
7,00538,29785
7,00950,27769
7,01363,29458
7,01775,29251
7,02187,28609
7,02600,29438
7,03012,28052
7,03423,27552
7,03837,29568
7,04248,28983
7,04660,30298
7,05072,29468
7,05485,30656
7,05897,30645
7,06308,30410
7,06722,31009
7,07133,31708
7,07545,32600
7,07958,33330
7,08370,30596
7,08782,31270
7,09195,31827
7,09607,31266
7,10018,30372
7,10432,29991
7,10843,29499
7,11255,31260
7,11668,29955
7,12080,28205
7,12492,28422
7,12905,28974
7,13317,28757
7,13728,28232
7,14140,29060
7,14553,27562
7,14965,27857
7,15377,27688
7,15790,27359
7,16202,25811
7,16613,25889
7,17027,28116
7,17438,26683
7,17850,26616
7,18263,25630
7,18675,26144
7,19087,25631
7,19500,26597
7,19912,27103
7,20323,28166
7,20737,26552
7,21148,25010
7,21560,26231
7,21973,27009
7,22385,26604
7,22797,23168
7,23208,25193
7,23622,26942
7,24033,26079
7,24445,24817
7,24858,25081
7,25270,25310
7,25682,25030
7,26095,26192
7,26507,24545
7,26918,26409
7,27332,24168
7,27743,25178
7,28155,25635
7,28568,24035
7,28980,24363
7,29392,24156
7,29805,24400
7,30217,23502
7,30628,25038
7,31042,25939
7,31453,25110
7,31865,23606
7,32277,24491
7,32690,23640
7,33102,23996
7,33513,24400
7,33927,24634
7,34338,23803
7,34750,24350
7,35163,22962
7,35575,25470
7,35987,23353
7,36400,23924
7,36812,24562
7,37223,25779
7,37637,23804
7,38048,23825
7,38460,24778
7,38873,24216
7,39285,24787
7,39697,23452
7,40110,24349
7,40522,24416
7,40933,23637
7,41345,23068
7,41758,23225
7,42170,23389
7,42582,23544
7,42995,23988
7,43407,23169
7,43818,23074
7,44232,24714
7,44643,23724
7,45055,24052
7,45468,24602
7,45880,23887
7,46292,23776
7,46705,23708
7,47117,23398
7,47528,23689
7,47942,24716
7,48353,24895
7,48765,25034
7,49178,23564
7,49590,23986
7,50002,23597
7,50413,23144
7,50827,24282
7,51238,21821
7,51650,22948
7,52063,22936
7,52475,22413
7,52887,23467
7,53300,22070
7,53712,22684
7,54123,22164
7,54537,23365
7,54948,23320
7,55360,23264
7,55773,23094
7,56185,27876
7,56597,33900
7,57010,49861
7,57422,77876
7,57833,133396
7,58247,228730
7,58658,366776
7,59070,543316
7,59482,760781
7,59895,993178
7,60307,1216842
7,60718,1407375
7,61132,1539602
7,61543,1609462
7,61955,1611516
7,62368,1570482
7,62780,1478200
7,63192,1372264
7,63605,1266693
7,64017,1140044
7,64428,1024122
7,64842,912612
7,65253,811719
7,65665,709051
7,66078,622644
7,66490,552408
7,66902,476081
7,67315,409401
7,67727,348389
7,68138,300548
7,68550,257894
7,68963,221878
7,69375,189905
7,69787,165517
7,70200,145316
7,70612,130513
7,71023,115861
7,71437,102902
7,71848,91060
7,72260,82104
7,72673,75529
7,73085,70575
7,73497,63530
7,73910,59370
7,74322,55682
7,74733,53241
7,75147,49051
7,75558,46525
7,75970,45525
7,76383,43690
7,76795,40460
7,77207,40093
7,77618,41186
7,78032,37855
7,78443,37030
7,78855,37577
7,79268,35722
7,79680,36743
7,80092,33547
7,80505,32574
7,80917,34048
7,81328,33282
7,81742,32128
7,82153,30775
7,82565,30258
7,82978,30443
7,83390,29316
7,83802,28589
7,84215,29461
7,84627,28716
7,85038,27499
7,85452,27330
7,85863,25111
7,86275,25941
7,86687,25747
7,87100,24618
7,87512,25464
7,87923,25327
7,88337,24751
7,88748,24856
7,89160,23219
7,89573,24727
7,89985,23776
7,90397,23181
7,90810,25412
7,91222,22301
7,91633,22430
7,92047,23474
7,92458,22262
7,92870,23743
7,93283,22030
7,93695,23098
7,94107,22419
7,94520,21561
7,94932,22797
7,95343,24083
7,95757,24278
7,96168,22845
7,96580,24020
7,96992,24005
7,97405,22243
7,97817,23920
7,98228,23137
7,98642,24294
7,99053,22963
7,99465,22108
7,99878,21415
8,00290,21684
8,00702,22515
8,01115,21347
8,01527,20658
8,01938,22308
8,02352,22665
8,02763,20345
8,03175,20922
8,03588,21448
8,04000,21930
8,04412,21160
8,04825,19868
8,05237,21201
8,05648,21005
8,06060,19576
8,06473,20460
8,06885,20328
8,07297,20046
8,07710,21272
8,08122,20237
8,08533,19612
8,08947,19347
8,09358,20824
8,09770,19969
8,10183,19860
8,10595,19372
8,11007,17802
8,11420,18247
8,11832,19107
8,12243,19538
8,12657,20240
8,13068,18598
8,13480,18200
8,13893,21042
8,14305,19439
8,14717,20230
8,15128,20531
8,15542,20419
8,15953,21630
8,16365,21120
8,16778,21792
8,17190,20145
8,17602,21038
8,18015,21778
8,18427,21099
8,18838,21025
8,19252,19184
8,19663,19822
8,20075,19739
8,20488,18723
8,20900,19613
8,21312,18887
8,21725,18228
8,22137,18903
8,22548,19076
8,22962,17465
8,23373,18194
8,23785,18916
8,24197,18513
8,24610,18494
8,25022,18622
8,25433,18886
8,25847,17742
8,26258,18886
8,26670,17612
8,27083,17535
8,27495,16883
8,27907,18530
8,28320,17357
8,28732,18760
8,29143,18540
8,29557,18461
8,29968,17761
8,30380,18820
8,30793,18676
8,31205,19117
8,31617,18428
8,32030,19420
8,32442,19224
8,32853,17689
8,33265,18930
8,33678,18305
8,34090,18633
8,34502,18581
8,34915,17508
8,35327,17149
8,35738,19401
8,36152,19899
8,36563,23289
8,36975,33079
8,37388,50696
8,37800,82394
8,38212,137190
8,38625,217439
8,39037,325628
8,39448,459467
8,39862,608579
8,40273,742232
8,40685,855793
8,41098,936144
8,41510,976781
8,41922,971178
8,42333,927990
8,42747,854668
8,43158,777434
8,43570,686161
8,43983,596160
8,44395,513551
8,44807,429224
8,45220,370092
8,45632,302368
8,46043,254326
8,46457,211079
8,46868,179433
8,47280,154901
8,47693,126823
8,48105,110445
8,48517,91639
8,48930,86172
8,49342,73087
8,49753,65396
8,50167,60582
8,50578,55543
8,50990,51167
8,51402,45909
8,51815,43429
8,52227,39584
8,52638,38502
8,53052,34701
8,53463,33935
8,53875,32656
8,54288,30869
8,54700,31238
8,55112,29170
8,55525,28143
8,55937,28566
8,56348,26851
8,56762,26894
8,57173,25937
8,57585,25921
8,57998,27374
8,58410,27604
8,58822,26330
8,59235,25544
8,59647,26432
8,60058,26471
8,60470,26859
8,60883,26859
8,61295,26361
8,61707,25511
8,62120,23560
8,62532,25328
8,62943,23653
8,63357,23686
8,63768,21330
8,64180,22192
8,64593,21059
8,65005,22875
8,65417,20335
8,65830,21677
8,66242,21027
8,66653,21218
8,67067,19252
8,67478,18655
8,67890,19585
8,68303,18645
8,68715,18435
8,69127,19437
8,69538,19811
8,69952,20510
8,70363,20683
8,70775,20609
8,71188,22159
8,71600,22321
8,72012,22616
8,72425,21931
8,72837,20216
8,73248,21454
8,73662,21350
8,74073,20445
8,74485,20097
8,74898,18063
8,75310,18910
8,75722,19571
8,76135,17635
8,76547,17756
8,76958,17655
8,77372,17010
8,77783,16200
8,78195,15864
8,78607,16449
8,79020,16789
8,79432,16690
8,79843,15757
8,80257,15021
8,80668,15586
8,81080,14908
8,81493,14695
8,81905,15196
8,82317,16177
8,82730,14136
8,83142,15163
8,83553,15794
8,83967,16088
8,84378,15420
8,84790,15349
8,85203,16233
8,85615,15059
8,86027,14656
8,86440,15430
8,86852,14783
8,87263,15006
8,87675,13968
8,88088,14549
8,88500,14356
8,88912,13989
8,89325,13203
8,89737,12957
8,90148,14073
8,90562,15076
8,90973,13560
8,91385,13258
8,91798,14611
8,92210,15363
8,92622,14156
8,93035,14023
8,93447,14643
8,93858,14304
8,94272,14117
8,94683,13687
8,95095,15217
8,95508,14107
8,95920,15765
8,96332,15003
8,96743,14238
8,97157,14421
8,97568,14980
8,97980,15900
8,98393,15025
8,98805,15816
8,99217,14856
8,99630,15093
9,00042,14692
9,00453,14264
9,00867,13985
9,01278,14469
9,01690,13367
9,02103,14928
9,02515,14333
9,02927,13802
9,03340,13943
9,03752,14733
9,04163,14086
9,04577,13479
9,04988,13919
9,05400,14554
9,05812,13882
9,06225,13944
9,06637,14729
9,07048,15235
9,07462,13778
9,07873,14269
9,08285,16641
9,08698,14654
9,09110,14626
9,09522,14256
9,09935,14381
9,10347,15752
9,10758,15049
9,11172,14629
9,11583,13318
9,11995,13314
9,12408,12806
9,12820,14413
9,13232,14809
9,13645,14453
9,14057,14185
9,14468,12573
9,14880,13010
9,15293,13840
9,15705,14131
9,16117,13762
9,16530,13510
9,16942,13946
9,17353,14227
9,17767,14009
9,18178,15120
9,18590,15553
9,19003,17776
9,19415,24868
9,19827,39791
9,20240,69952
9,20652,131701
9,21063,238678
9,21477,408684
9,21888,654480
9,22300,954498
9,22713,1313885
9,23125,1670826
9,23537,1967929
9,23948,2180004
9,24362,2286759
9,24773,2269064
9,25185,2163133
9,25598,1964244
9,26010,1698029
9,26422,1449410
9,26835,1201686
9,27247,982992
9,27658,792254
9,28072,632148
9,28483,513725
9,28895,416348
9,29308,333489
9,29720,271459
9,30132,227559
9,30545,195859
9,30957,164381
9,31368,140453
9,31782,121582
9,32193,111327
9,32605,97192
9,33017,86153
9,33430,77341
9,33842,72307
9,34253,67622
9,34667,61371
9,35078,57966
9,35490,54468
9,35903,53172
9,36315,46203
9,36727,43992
9,37140,43880
9,37552,40947
9,37963,38377
9,38377,38573
9,38788,34478
9,39200,32872
9,39613,32721
9,40025,29660
9,40437,29106
9,40850,28685
9,41262,27877
9,41673,28887
9,42085,27998
9,42498,25328
9,42910,26613
9,43322,24906
9,43735,23689
9,44147,24658
9,44558,21621
9,44972,22430
9,45383,21306
9,45795,23015
9,46208,19973
9,46620,20152
9,47032,20814
9,47445,19238
9,47857,20483
9,48268,19508
9,48682,19112
9,49093,18483
9,49505,17924
9,49918,18788
9,50330,17291
9,50742,19283
9,51153,18360
9,51567,17524
9,51978,16830
9,52390,17389
9,52803,17706
9,53215,16678
9,53627,18531
9,54040,16989
9,54452,17110
9,54863,16628
9,55277,16103
9,55688,16160
9,56100,16364
9,56513,16473
9,56925,15930
9,57337,16235
9,57750,16451
9,58162,14801
9,58573,15543
9,58987,15153
9,59398,14611
9,59810,13971
9,60223,16853
9,60635,15312
9,61047,14987
9,61458,14674
9,61872,15446
9,62283,14210
9,62695,15380
9,63108,15575
9,63520,14370
9,63932,14041
9,64345,13821
9,64757,14510
9,65168,15347
9,65582,13640
9,65993,14299
9,66405,14399
9,66818,14312
9,67230,14740
9,67642,13928
9,68055,12775
9,68467,14005
9,68878,13802
9,69292,13630
9,69703,17201
9,70115,15590
9,70527,15038
9,70940,15172
9,71352,16066
9,71763,16130
9,72177,16142
9,72588,15553
9,73000,15345
9,73413,15276
9,73825,14576
9,74237,14257
9,74650,15146
9,75062,14033
9,75473,14131
9,75887,13213
9,76298,14078
9,76710,13922
9,77123,13781
9,77535,13568
9,77947,13906
9,78360,14365
9,78772,14422
9,79183,16133
9,79595,16234
9,80008,16678
9,80420,19581
9,80832,20727
9,81245,20307
9,81657,24235
9,82068,24485
9,82482,24528
9,82893,24128
9,83305,26566
9,83718,24142
9,84130,23266
9,84542,24211
9,84955,22846
9,85367,21120
9,85778,19732
9,86192,18111
9,86603,18818
9,87015,16276
9,87428,16638
9,87840,15492
9,88252,14774
9,88663,14710
9,89077,15606
9,89488,13085
9,89900,12262
9,90313,15393
9,90725,13205
9,91137,13147
9,91550,13351
9,91962,12278
9,92373,13321
9,92787,12772
9,93198,12846
9,93610,12997
9,94023,12892
9,94435,13058
9,94847,13191
9,95260,12868
9,95672,13043
9,96083,12398
9,96497,12239
9,96908,12611
9,97320,11563
9,97732,11587
9,98145,11915
9,98557,11051
9,98968,11752
9,99382,12138
9,99793,12342
10,00205,11647
10,00618,11509
10,01030,12093
10,01442,12147
10,01855,12564
10,02267,13728
10,02678,13941
10,03092,18298
10,03503,23832
10,03915,43901
10,04328,80435
10,04740,142485
10,05152,245584
10,05565,389848
10,05977,577167
10,06388,796155
10,06800,1001844
10,07213,1171878
10,07625,1278889
10,08037,1292259
10,08450,1251848
10,08862,1138588
10,09273,985966
10,09687,836623
10,10098,676899
10,10510,545798
10,10923,437325
10,11335,346258
10,11747,271033
10,12160,217250
10,12572,177068
10,12983,147936
10,13397,123694
10,13808,104491
10,14220,89216
10,14633,75544
10,15045,69373
10,15457,62839
10,15868,55952
10,16282,51262
10,16693,49459
10,17105,42782
10,17518,40006
10,17930,36683
10,18342,33465
10,18755,32770
10,19167,31030
10,19578,29804
10,19992,29024
10,20403,25317
10,20815,24663
10,21228,25377
10,21640,25526
10,22052,23316
10,22465,21632
10,22877,20797
10,23288,21522
10,23702,21253
10,24113,18716
10,24525,18758
10,24937,19023
10,25350,18914
10,25762,19582
10,26173,15925
10,26587,16548
10,26998,16301
10,27410,17640
10,27823,17003
10,28235,16835
10,28647,15608
10,29060,15279
10,29472,15988
10,29883,15354
10,30297,16676
10,30708,15114
10,31120,14816
10,31533,14764
10,31945,13402
10,32357,14147
10,32770,14539
10,33182,13404
10,33593,12942
10,34005,14232
10,34418,13822
10,34830,13167
10,35242,13560
10,35655,12503
10,36067,13587
10,36478,12026
10,36892,11725
10,37303,13096
10,37715,13761
10,38128,12132
10,38540,13015
10,38952,12404
10,39365,12841
10,39777,12071
10,40188,12870
10,40602,12684
10,41013,12583
10,41425,10749
10,41838,12226
10,42250,11260
10,42662,12376
10,43073,13419
10,43487,12884
10,43898,12612
10,44310,12057
10,44723,11741
10,45135,12273
10,45547,12234
10,45960,11626
10,46372,13113
10,46783,12478
10,47197,14852
10,47608,14500
10,48020,15528
10,48433,15950
10,48845,17416
10,49257,16706
10,49670,18878
10,50082,16440
10,50493,16246
10,50907,14971
10,51318,14900
10,51730,14053
10,52142,14902
10,52555,11549
10,52967,12251
10,53378,12152
10,53792,12054
10,54203,12340
10,54615,12186
10,55028,11895
10,55440,11701
10,55852,12107
10,56265,11377
10,56677,10727
10,57088,10995
10,57502,11029
10,57913,11106
10,58325,11323
10,58738,11821
10,59150,11487
10,59562,10910
10,59975,10933
10,60387,11702
10,60798,11421
10,61210,11439
10,61623,11083
10,62035,12184
10,62447,11884
10,62860,12812
10,63272,13377
10,63683,14473
10,64097,15695
10,64508,16026
10,64920,16392
10,65333,16968
10,65745,18071
10,66157,17196
10,66570,15694
10,66982,16597
10,67393,15107
10,67807,15075
10,68218,14036
10,68630,14262
10,69043,12466
10,69455,12324
10,69867,12019
10,70278,11013
10,70692,10966
10,71103,10982
10,71515,12247
10,71928,10900
10,72340,11655
10,72752,13568
10,73165,12759
10,73577,12697
10,73988,12177
10,74402,11679
10,74813,10620
10,75225,11377
10,75638,11535
10,76050,11832
10,76462,10701
10,76875,11710
10,77287,10436
10,77698,9635
10,78112,10311
10,78523,10837
10,78935,11470
10,79347,10988
10,79760,11295
10,80172,10389
10,80583,10327
10,80997,10048
10,81408,10573
10,81820,11247
10,82233,9535
10,82645,9269
10,83057,10966
10,83470,10127
10,83882,10116
10,84293,10604
10,84707,11119
10,85118,12168
10,85530,15987
10,85943,23100
10,86355,44713
10,86767,91141
10,87180,182171
10,87592,340066
10,88003,591332
10,88415,967498
10,88828,1443298
10,89240,1931025
10,89652,2391033
10,90065,2725860
10,90477,2930610
10,90888,2911968
10,91302,2714099
10,91713,2379135
10,92125,1986190
10,92538,1620884
10,92950,1280944
10,93362,976610
10,93775,763127
10,94187,604584
10,94598,473854
10,95012,375473
10,95423,313279
10,95835,260578
10,96248,218271
10,96660,191541
10,97072,164922
10,97483,145751
10,97897,127525
10,98308,114936
10,98720,102440
10,99133,90578
10,99545,82009
10,99957,75923
11,00370,68901
11,00782,62201
11,01193,58214
11,01607,55102
11,02018,52067
11,02430,48345
11,02843,46694
11,03255,41722
11,03667,41283
11,04080,37211
11,04492,35994
11,04903,33685
11,05317,32237
11,05728,29660
11,06140,30543
11,06552,28442
11,06965,26325
11,07377,27170
11,07788,26780
11,08202,25905
11,08613,23944
11,09025,25633
11,09438,23061
11,09850,24895
11,10262,24005
11,10675,24384
11,11087,25417
11,11498,24966
11,11912,26773
11,12323,26011
11,12735,28550
11,13148,28724
11,13560,28178
11,13972,25524
11,14385,24797
11,14797,25505
11,15208,24573
11,15620,21732
11,16033,21664
11,16445,18732
11,16857,19301
11,17270,18174
11,17682,16521
11,18093,17692
11,18507,15228
11,18918,16453
11,19330,15819
11,19743,15860
11,20155,14998
11,20567,16044
11,20980,15028
11,21392,15464
11,21803,15384
11,22217,13457
11,22628,13690
11,23040,15077
11,23453,14503
11,23865,15263
11,24277,14104
11,24690,14017
11,25102,12857
11,25513,13245
11,25925,13182
11,26338,14994
11,26750,12800
11,27162,12343
11,27575,13375
11,27987,15002
11,28398,15962
11,28812,16172
11,29223,14380
11,29635,16857
11,30048,17004
11,30460,16407
11,30872,17201
11,31285,17634
11,31697,16373
11,32108,15801
11,32522,14537
11,32933,13068
11,33345,13808
11,33758,13445
11,34170,13724
11,34582,11815
11,34993,13152
11,35407,13310
11,35818,12951
11,36230,11535
11,36643,11616
11,37055,10813
11,37467,11041
11,37880,11520
11,38292,10431
11,38703,10544
11,39117,11095
11,39528,11590
11,39940,11311
11,40353,11199
11,40765,10354
11,41177,10787
11,41590,11202
11,42002,12738
11,42413,10787
11,42827,11534
11,43238,10877
11,43650,12287
11,44062,13844
11,44475,19631
11,44887,33087
11,45298,56917
11,45712,107056
11,46123,188523
11,46535,319913
11,46948,490373
11,47360,708121
11,47772,922556
11,48185,1122530
11,48597,1266186
11,49008,1336797
11,49422,1325071
11,49833,1205485
11,50245,1061479
11,50658,893042
11,51070,729288
11,51482,574735
11,51895,452457
11,52307,356748
11,52718,281628
11,53130,229337
11,53543,183922
11,53955,160609
11,54367,140461
11,54780,122710
11,55192,110049
11,55603,98937
11,56017,87410
11,56428,79638
11,56840,69647
11,57253,60075
11,57665,56292
11,58077,50218
11,58490,42863
11,58902,41316
11,59313,37846
11,59727,36871
11,60138,33070
11,60550,32890
11,60963,30736
11,61375,28537
11,61787,27192
11,62198,25056
11,62612,24125
11,63023,25519
11,63435,21806
11,63848,21337
11,64260,19446
11,64672,21794
11,65085,19941
11,65497,18977
11,65908,19161
11,66322,21798
11,66733,26705
11,67145,42197
11,67558,72189
11,67970,132254
11,68382,240855
11,68795,404264
11,69207,626259
11,69618,888423
11,70032,1160092
11,70443,1394053
11,70855,1538163
11,71267,1578707
11,71680,1516747
11,72092,1356515
11,72503,1148465
11,72917,936292
11,73328,747808
11,73740,580438
11,74153,442949
11,74565,352652
11,74977,275685
11,75390,223569
11,75802,180462
11,76213,150872
11,76627,124535
11,77038,111464
11,77450,93798
11,77863,80546
11,78275,72193
11,78687,65043
11,79100,58074
11,79512,52514
11,79923,48968
11,80335,46625
11,80748,41307
11,81160,39621
11,81572,38114
11,81985,34577
11,82397,32607
11,82808,31570
11,83222,29212
11,83633,27378
11,84045,26052
11,84458,25527
11,84870,24588
11,85282,23615
11,85695,22225
11,86107,21021
11,86518,19684
11,86932,21097
11,87343,19530
11,87755,19124
11,88168,19907
11,88580,17929
11,88992,18023
11,89403,18621
11,89817,17392
11,90228,17037
11,90640,17509
11,91053,16411
11,91465,17822
11,91877,16356
11,92290,14110
11,92702,14689
11,93113,15451
11,93527,15802
11,93938,14086
11,94350,13318
11,94763,12830
11,95175,14780
11,95587,11820
11,96000,12914
11,96412,13637
11,96823,13068
11,97237,13464
11,97648,12133
11,98060,13087
11,98472,13013
11,98885,11907
11,99297,12920
11,99708,12910
12,00122,12285
12,00533,11167
12,00945,11910
12,01358,11474
12,01770,12536
12,02182,11822
12,02595,11125
12,03007,9721
12,03418,10982
12,03832,12104
12,04243,10675
12,04655,10020
12,05068,11850
12,05480,11613
12,05892,11045
12,06305,10633
12,06717,10191
12,07128,10707
12,07540,10702
12,07953,13222
12,08365,13032
12,08777,12100
12,09190,11476
12,09602,12124
12,10013,11977
12,10427,11587
12,10838,11562
12,11250,13204
12,11663,12743
12,12075,12747
12,12487,12698
12,12900,12354
12,13312,12593
12,13723,11916
12,14137,12293
12,14548,12595
12,14960,11027
12,15373,12259
12,15785,11268
12,16197,11025
12,16608,11539
12,17022,11895
12,17433,12344
12,17845,10041
12,18258,10540
12,18670,10813
12,19082,9835
12,19495,11068
12,19907,9869
12,20318,9248
12,20732,8498
12,21143,12136
12,21555,9023
12,21968,11546
12,22380,11091
12,22792,11829
12,23205,11010
12,23617,12369
12,24028,15657
12,24442,24557
12,24853,38705
12,25265,68400
12,25677,133223
12,26090,243549
12,26502,403671
12,26913,624155
12,27327,878047
12,27738,1127229
12,28150,1339420
12,28563,1432570
12,28975,1455103
12,29387,1388208
12,29800,1246444
12,30212,1056808
12,30623,858459
12,31037,678209
12,31448,541819
12,31860,412869
12,32273,326170
12,32685,263511
12,33097,211544
12,33510,169904
12,33922,143834
12,34333,118485
12,34745,106751
12,35158,91901
12,35570,80841
12,35982,71420
12,36395,65517
12,36807,58163
12,37218,50928
12,37632,50924
12,38043,46069
12,38455,41441
12,38868,39694
12,39280,36528
12,39692,34524
12,40105,33048
12,40517,28406
12,40928,28147
12,41342,28474
12,41753,27368
12,42165,28398
12,42578,24594
12,42990,24595
12,43402,24094
12,43813,25282
12,44227,26660
12,44638,35842
12,45050,54100
12,45463,105002
12,45875,205216
12,46287,412981
12,46700,753080
12,47112,1251424
12,47523,1926308
12,47937,2751648
12,48348,3605036
12,48760,4340099
12,49173,4910558
12,49585,5139000
12,49997,5004114
12,50410,4559711
12,50822,3893278
12,51233,3140866
12,51647,2462247
12,52058,1881562
12,52470,1424161
12,52882,1095058
12,53295,849974
12,53707,675589
12,54118,548363
12,54532,454182
12,54943,381772
12,55355,321307
12,55768,278532
12,56180,242017
12,56592,208445
12,57005,189175
12,57417,167854
12,57828,148819
12,58242,136712
12,58653,123149
12,59065,112660
12,59478,105648
12,59890,96973
12,60302,89036
12,60715,85096
12,61127,74241
12,61538,73320
12,61950,67197
12,62363,64268
12,62775,60844
12,63187,56122
12,63600,52484
12,64012,49444
12,64423,48784
12,64837,44697
12,65248,43712
12,65660,43200
12,66073,40834
12,66485,38153
12,66897,35468
12,67310,36364
12,67722,34058
12,68133,34339
12,68547,34134
12,68958,31090
12,69370,29353
12,69783,29671
12,70195,28862
12,70607,27382
12,71018,24616
12,71432,26200
12,71843,24815
12,72255,25991
12,72668,24906
12,73080,23917
12,73492,23803
12,73905,23683
12,74317,20788
12,74728,20784
12,75142,21537
12,75553,21110
12,75965,18632
12,76378,20587
12,76790,18605
12,77202,19471
12,77615,19243
12,78027,21277
12,78438,19471
12,78852,21883
12,79263,19654
12,79675,21522
12,80087,20043
12,80500,21373
12,80912,20525
12,81323,19119
12,81737,19492
12,82148,18151
12,82560,17950
12,82973,17382
12,83385,16119
12,83797,15271
12,84210,16724
12,84622,15831
12,85033,14490
12,85447,15627
12,85858,14658
12,86270,14989
12,86683,16444
12,87095,16818
12,87507,16740
12,87920,17147
12,88332,18885
12,88743,17157
12,89157,17633
12,89568,15167
12,89980,15215
12,90392,17000
12,90805,18156
12,91217,22943
12,91628,36516
12,92042,63501
12,92453,115556
12,92865,211752
12,93278,358202
12,93690,556501
12,94102,810342
12,94515,1075716
12,94927,1318418
12,95338,1476697
12,95752,1552769
12,96163,1495972
12,96575,1374715
12,96988,1186184
12,97400,974768
12,97812,786269
12,98225,620864
12,98637,480291
12,99048,383526
12,99460,298144
12,99873,240302
13,00285,201305
13,00697,167255
13,01110,137936
13,01522,120845
13,01933,104388
13,02347,93318
13,02758,84644
13,03170,74839
13,03583,71665
13,03995,63646
13,04407,60516
13,04820,59005
13,05232,56572
13,05643,57956
13,06057,57320
13,06468,58827
13,06880,57187
13,07293,56858
13,07705,53652
13,08117,53570
13,08528,50374
13,08942,47047
13,09353,45592
13,09765,41315
13,10178,37374
13,10590,35939
13,11002,31162
13,11415,30967
13,11827,28718
13,12238,26798
13,12652,26450
13,13063,26954
13,13475,23455
13,13888,21071
13,14300,21539
13,14712,21320
13,15125,21190
13,15537,19317
13,15948,20344
13,16362,19187
13,16773,19272
13,17185,20935
13,17597,19481
13,18010,19631
13,18422,19353
13,18833,19144
13,19247,19121
13,19658,19697
13,20070,24441
13,20483,34747
13,20895,63897
13,21307,119573
13,21720,222018
13,22132,386652
13,22543,622466
13,22957,917284
13,23368,1255930
13,23780,1571161
13,24193,1767124
13,24605,1834477
13,25017,1791586
13,25430,1619847
13,25842,1387297
13,26253,1127249
13,26665,894187
13,27078,687775
13,27490,530770
13,27902,418183
13,28315,328240
13,28727,259650
13,29138,218773
13,29552,180380
13,29963,149198
13,30375,129900
13,30788,110651
13,31200,99349
13,31612,87622
13,32025,80125
13,32437,74080
13,32848,66184
13,33262,60726
13,33673,57240
13,34085,54490
13,34498,49288
13,34910,46285
13,35322,41485
13,35733,39372
13,36147,37120
13,36558,35592
13,36970,34437
13,37383,34000
13,37795,32580
13,38207,31274
13,38620,27826
13,39032,26954
13,39443,26061
13,39857,24845
13,40268,23410
13,40680,23956
13,41093,21883
13,41505,23195
13,41917,22119
13,42330,21382
13,42742,22701
13,43153,22368
13,43567,22295
13,43978,23114
13,44390,20899
13,44802,19858
13,45215,22076
13,45627,21655
13,46038,18498
13,46452,18879
13,46863,17292
13,47275,18407
13,47688,18132
13,48100,16815
13,48512,16471
13,48925,17084
13,49337,16553
13,49748,16581
13,50162,15864
13,50573,15818
13,50985,15415
13,51398,16193
13,51810,15613
13,52222,16189
13,52635,15685
13,53047,16285
13,53458,15713
13,53870,15455
13,54283,15318
13,54695,16162
13,55107,14652
13,55520,14368
13,55932,15737
13,56343,15515
13,56757,14259
13,57168,16583
13,57580,14854
13,57993,15611
13,58405,14953
13,58817,14055
13,59230,14374
13,59642,13733
13,60053,13666
13,60467,13244
13,60878,13709
13,61290,12575
13,61703,13072
13,62115,13591
13,62527,13024
13,62938,12805
13,63352,12693
13,63763,13621
13,64175,12799
13,64588,14457
13,65000,17720
13,65412,21607
13,65825,37360
13,66237,63791
13,66648,118594
13,67062,213561
13,67473,371579
13,67885,606921
13,68298,888152
13,68710,1191229
13,69122,1466882
13,69535,1652415
13,69947,1729185
13,70358,1677040
13,70772,1509396
13,71183,1304962
13,71595,1085545
13,72007,858546
13,72420,679565
13,72832,527352
13,73243,414558
13,73657,326364
13,74068,268260
13,74480,217975
13,74893,180373
13,75305,154305
13,75717,133220
13,76130,115239
13,76542,99095
13,76953,87703
13,77367,81106
13,77778,73454
13,78190,68028
13,78603,61196
13,79015,57713
13,79427,52082
13,79840,49207
13,80252,44546
13,80663,43295
13,81075,42598
13,81488,38334
13,81900,37765
13,82312,33904
13,82725,35515
13,83137,32878
13,83548,30709
13,83962,29636
13,84373,27263
13,84785,26788
13,85198,26388
13,85610,25503
13,86022,25776
13,86435,24791
13,86847,24744
13,87258,23266
13,87672,21334
13,88083,22099
13,88495,21741
13,88908,21417
13,89320,21125
13,89732,19613
13,90143,19285
13,90557,20549
13,90968,19841
13,91380,19577
13,91793,19618
13,92205,23212
13,92617,28379
13,93030,47460
13,93442,85461
13,93853,161803
13,94267,298488
13,94678,535087
13,95090,906128
13,95503,1419130
13,95915,2062797
13,96327,2776242
13,96740,3425657
13,97152,3866060
13,97563,4128412
13,97977,4034720
13,98388,3671919
13,98800,3144925
13,99212,2573580
13,99625,2022381
14,00037,1561738
14,00448,1210023
14,00862,931613
14,01273,730030
14,01685,591033
14,02098,485696
14,02510,401547
14,02922,342089
14,03335,290139
14,03747,253276
14,04158,221605
14,04572,191952
14,04983,171302
14,05395,154677
14,05808,141557
14,06220,127549
14,06632,116094
14,07045,106779
14,07457,102015
14,07868,93994
14,08280,88189
14,08693,81256
14,09105,76532
14,09517,71367
14,09930,68142
14,10342,65825
14,10753,59655
14,11167,56854
14,11578,58184
14,11990,53880
14,12403,51135
14,12815,46324
14,13227,44870
14,13640,44025
14,14052,41375
14,14463,41425
14,14877,39325
14,15288,37483
14,15700,36829
14,16113,36462
14,16525,32415
14,16937,34268
14,17348,34037
14,17762,37645
14,18173,46920
14,18585,68724
14,18998,111499
14,19410,185144
14,19822,322541
14,20235,529756
14,20647,804118
14,21058,1124933
14,21472,1436141
14,21883,1705758
14,22295,1852135
14,22708,1878628
14,23120,1803802
14,23532,1597715
14,23945,1351608
14,24357,1103220
14,24768,885213
14,25182,696883
14,25593,552722
14,26005,433567
14,26417,347661
14,26830,288639
14,27242,243057
14,27653,203212
14,28067,175698
14,28478,153441
14,28890,137840
14,29303,121375
14,29715,107184
14,30127,101255
14,30540,95199
14,30952,96468
14,31363,108535
14,31777,153760
14,32188,242670
14,32600,413593
14,33013,696318
14,33425,1096418
14,33837,1652271
14,34250,2295447
14,34662,2947815
14,35073,3445795
14,35485,3798916
14,35898,3828032
14,36310,3604767
14,36722,3214996
14,37135,2690194
14,37547,2176101
14,37958,1696875
14,38372,1331820
14,38783,1038369
14,39195,829596
14,39608,666165
14,40020,542660
14,40432,442100
14,40845,377075
14,41257,323334
14,41668,281681
14,42082,243995
14,42493,220442
14,42905,197279
14,43318,175849
14,43730,155986
14,44142,147089
14,44553,133960
14,44967,124256
14,45378,113058
14,45790,106128
14,46203,97666
14,46615,91242
14,47027,85610
14,47440,83312
14,47852,77768
14,48263,74569
14,48677,69801
14,49088,66584
14,49500,66872
14,49913,61136
14,50325,56755
14,50737,54881
14,51150,52503
14,51562,50932
14,51973,49798
14,52387,46264
14,52798,47148
14,53210,43710
14,53623,41688
14,54035,42488
14,54447,39829
14,54858,38839
14,55272,37012
14,55683,38225
14,56095,35707
14,56508,35031
14,56920,35012
14,57332,32800
14,57745,32680
14,58157,36576
14,58568,34360
14,58982,40361
14,59393,51702
14,59805,81359
14,60218,131500
14,60630,234473
14,61042,396045
14,61455,611809
14,61867,905871
14,62278,1214828
14,62692,1512444
14,63103,1745202
14,63515,1923685
14,63927,2018690
14,64340,2162498
14,64752,2351242
14,65163,2678616
14,65577,3117892
14,65988,3641330
14,66400,4130683
14,66813,4434774
14,67225,4470418
14,67637,4232896
14,68050,3777108
14,68462,3182080
14,68873,2569371
14,69287,2002844
14,69698,1566863
14,70110,1216776
14,70523,971548
14,70935,782874
14,71347,634420
14,71760,537052
14,72172,461027
14,72583,385706
14,72995,339711
14,73408,297814
14,73820,267675
14,74232,240419
14,74645,219501
14,75057,199932
14,75468,182377
14,75882,167564
14,76293,156161
14,76705,142105
14,77118,139601
14,77530,128511
14,77942,121695
14,78355,113840
14,78767,110889
14,79178,100476
14,79592,95321
14,80003,93699
14,80415,87841
14,80828,82410
14,81240,76644
14,81652,75077
14,82063,73766
14,82477,70234
14,82888,70382
14,83300,65288
14,83713,66024
14,84125,64539
14,84537,59824
14,84950,59975
14,85362,58143
14,85773,56051
14,86187,53864
14,86598,50748
14,87010,50344
14,87423,47236
14,87835,45853
14,88247,44677
14,88660,50572
14,89072,56796
14,89483,75330
14,89897,114557
14,90308,191847
14,90720,315587
14,91132,497329
14,91545,750514
14,91957,1036445
14,92368,1312850
14,92782,1515123
14,93193,1616645
14,93605,1611339
14,94018,1518248
14,94430,1324451
14,94842,1137219
14,95255,934026
14,95667,748947
14,96078,587414
14,96492,478894
14,96903,375169
14,97315,311595
14,97728,257650
14,98140,216719
14,98552,186508
14,98965,162344
14,99377,143127
14,99788,126735
15,00200,117368
15,00613,106491
15,01025,93433
15,01437,87827
15,01850,82275
15,02262,79219
15,02673,73240
15,03087,72059
15,03498,69223
15,03910,65497
15,04323,64567
15,04735,61090
15,05147,56669
15,05560,52960
15,05972,51709
15,06383,47920
15,06797,46446
15,07208,46841
15,07620,44256
15,08033,42547
15,08445,42433
15,08857,40470
15,09268,39222
15,09682,38698
15,10093,38707
15,10505,36752
15,10918,37432
15,11330,36911
15,11742,38065
15,12155,36267
15,12567,34937
15,12978,34917
15,13392,33999
15,13803,34638
15,14215,34228
15,14628,31796
15,15040,33124
15,15452,30981
15,15865,31169
15,16277,30561
15,16688,29897
15,17102,28633
15,17513,28956
15,17925,27305
15,18337,26919
15,18750,28756
15,19162,27988
15,19573,25463
15,19987,24771
15,20398,24969
15,20810,25774
15,21223,25221
15,21635,24771
15,22047,22042
15,22460,24154
15,22872,25282
15,23283,24938
15,23697,24475
15,24108,23141
15,24520,25338
15,24933,24001
15,25345,23842
15,25757,22449
15,26170,22612
15,26582,23477
15,26993,22262
15,27405,22592
15,27818,22735
15,28230,21752
15,28642,22519
15,29055,27134
15,29467,38762
15,29878,59327
15,30292,120128
15,30703,240887
15,31115,467295
15,31528,858311
15,31940,1447847
15,32352,2257923
15,32765,3220483
15,33177,4229705
15,33588,5181967
15,34002,5813476
15,34413,6040688
15,34825,5908602
15,35238,5353271
15,35650,4554518
15,36062,3706391
15,36473,2921591
15,36887,2276589
15,37298,1777899
15,37710,1420837
15,38123,1136621
15,38535,920075
15,38947,763943
15,39360,649987
15,39772,540533
15,40183,476693
15,40597,415031
15,41008,363979
15,41420,328775
15,41833,296912
15,42245,269175
15,42657,242174
15,43070,219819
15,43482,205936
15,43893,190172
15,44307,176249
15,44718,165256
15,45130,152653
15,45542,141070
15,45955,134134
15,46367,123750
15,46778,119146
15,47192,112987
15,47603,108951
15,48015,103268
15,48428,95118
15,48840,92066
15,49252,88226
15,49665,84005
15,50077,84903
15,50488,78218
15,50902,77167
15,51313,75349
15,51725,75479
15,52138,74382
15,52550,79441
15,52962,80051
15,53375,84913
15,53787,87750
15,54198,88312
15,54610,96382
15,55023,102814
15,55435,112721
15,55847,137112
15,56260,186819
15,56672,275191
15,57083,409620
15,57497,598266
15,57908,832039
15,58320,1066802
15,58733,1257177
15,59145,1395274
15,59557,1422942
15,59970,1360684
15,60382,1235865
15,60793,1065640
15,61207,884192
15,61618,731162
15,62030,583703
15,62443,473324
15,62855,378230
15,63267,312914
15,63678,255730
15,64092,220252
15,64503,189674
15,64915,169997
15,65328,155112
15,65740,154620
15,66152,167787
15,66565,210842
15,66977,306801
15,67388,456954
15,67802,703403
15,68213,1019335
15,68625,1390758
15,69038,1714994
15,69450,1986226
15,69862,2131281
15,70275,2125333
15,70687,1994237
15,71098,1750186
15,71512,1487174
15,71923,1219500
15,72335,981832
15,72747,786613
15,73160,627339
15,73572,514180
15,73983,430402
15,74397,363999
15,74808,317000
15,75220,269546
15,75633,236384
15,76045,209859
15,76457,193417
15,76870,173182
15,77282,158810
15,77693,146056
15,78107,133019
15,78518,125352
15,78930,115939
15,79343,111156
15,79755,105462
15,80167,97170
15,80580,92638
15,80992,86186
15,81403,84553
15,81815,81458
15,82228,77364
15,82640,72561
15,83052,68209
15,83465,68685
15,83877,64798
15,84288,65219
15,84702,61852
15,85113,62489
15,85525,60203
15,85938,59834
15,86350,58735
15,86762,55887
15,87175,55172
15,87587,52437
15,87998,52534
15,88412,53553
15,88823,51173
15,89235,47184
15,89648,45786
15,90060,47439
15,90472,44546
15,90883,44057
15,91297,42405
15,91708,43168
15,92120,44214
15,92533,42585
15,92945,41267
15,93357,42676
15,93770,48309
15,94182,60261
15,94593,84411
15,95007,145058
15,95418,248572
15,95830,427971
15,96243,708315
15,96655,1070070
15,97067,1499752
15,97480,1909420
15,97892,2246951
15,98303,2452875
15,98717,2410277
15,99128,2224600
15,99540,1919063
15,99952,1590249
16,00365,1299224
16,00777,1041235
16,01188,824018
16,01602,663909
16,02013,547481
16,02425,459249
16,02838,384284
16,03250,333772
16,03662,288486
16,04075,252253
16,04487,227621
16,04898,207521
16,05312,183747
16,05723,171279
16,06135,154401
16,06548,141819
16,06960,135358
16,07372,126007
16,07785,118202
16,08197,110844
16,08608,106321
16,09022,102540
16,09433,95973
16,09845,95474
16,10257,90773
16,10670,90731
16,11082,85594
16,11493,81881
16,11907,77165
16,12318,74533
16,12730,73907
16,13143,73564
16,13555,67957
16,13967,67100
16,14380,64543
16,14792,62849
16,15203,62761
16,15617,58613
16,16028,58203
16,16440,59764
16,16853,55816
16,17265,56190
16,17677,54039
16,18090,53132
16,18502,52534
16,18913,50497
16,19325,48990
16,19738,49814
16,20150,53955
16,20562,67817
16,20975,90506
16,21387,147343
16,21798,239801
16,22212,393218
16,22623,617818
16,23035,900196
16,23448,1227528
16,23860,1521514
16,24272,1740385
16,24685,1831728
16,25097,1773211
16,25508,1650720
16,25922,1431206
16,26333,1208280
16,26745,990962
16,27158,797280
16,27570,640567
16,27982,520761
16,28393,428072
16,28807,359608
16,29218,304585
16,29630,261968
16,30043,228996
16,30455,198051
16,30867,180481
16,31280,164218
16,31692,149670
16,32103,138628
16,32517,128433
16,32928,117840
16,33340,114086
16,33753,102676
16,34165,98732
16,34577,94067
16,34990,88293
16,35402,85930
16,35813,82074
16,36227,79036
16,36638,74064
16,37050,73512
16,37462,68807
16,37875,66426
16,38287,62911
16,38698,64374
16,39112,60328
16,39523,60672
16,39935,56439
16,40348,55819
16,40760,55857
16,41172,52551
16,41585,53315
16,41997,53118
16,42408,51225
16,42822,52347
16,43233,49577
16,43645,48319
16,44058,48033
16,44470,48305
16,44882,49441
16,45295,46432
16,45707,47524
16,46118,48983
16,46530,44719
16,46943,44531
16,47355,43202
16,47767,43045
16,48180,42320
16,48592,42407
16,49003,40908
16,49417,44099
16,49828,41613
16,50240,41911
16,50653,42091
16,51065,41002
16,51477,42599
16,51890,44604
16,52302,39384
16,52713,41923
16,53127,40215
16,53538,41874
16,53950,40914
16,54363,40038
16,54775,40189
16,55187,43522
16,55598,42244
16,56012,49413
16,56423,57607
16,56835,80020
16,57248,130401
16,57660,222577
16,58072,385648
16,58485,669868
16,58897,1091119
16,59308,1663359
16,59722,2379773
16,60133,3256546
16,60545,4125158
16,60958,4955707
16,61370,5574210
16,61782,5880008
16,62195,5794997
16,62607,5368173
16,63018,4826264
16,63432,4207367
16,63843,3600089
16,64255,3045336
16,64667,2523339
16,65080,2073463
16,65492,1699179
16,65903,1393987
16,66317,1162441
16,66728,970133
16,67140,815910
16,67553,697693
16,67965,615373
16,68377,545078
16,68790,483227
16,69202,431640
16,69613,386514
16,70027,360090
16,70438,327006
16,70850,303813
16,71263,280210
16,71675,262046
16,72087,248992
16,72500,229030
16,72912,214408
16,73323,197303
16,73735,192762
16,74148,181003
16,74560,172011
16,74972,164068
16,75385,162699
16,75797,152790
16,76208,144293
16,76622,137879
16,77033,132291
16,77445,130546
16,77858,128656
16,78270,123838
16,78682,124112
16,79095,117317
16,79507,115403
16,79918,113570
16,80332,111904
16,80743,109666
16,81155,105824
16,81568,106181
16,81980,106893
16,82392,113105
16,82803,123729
16,83217,158965
16,83628,212484
16,84040,307881
16,84453,464151
16,84865,684059
16,85277,938775
16,85690,1207756
16,86102,1467341
16,86513,1620680
16,86927,1661274
16,87338,1611619
16,87750,1464735
16,88163,1289367
16,88575,1107953
16,88987,955540
16,89400,872806
16,89812,845301
16,90223,905946
16,90637,1045151
16,91048,1231245
16,91460,1453431
16,91872,1673647
16,92285,1881470
16,92697,2068168
16,93108,2266300
16,93522,2452169
16,93933,2627258
16,94345,2807073
16,94758,2925148
16,95170,2907799
16,95582,2747522
16,95995,2529474
16,96407,2210055
16,96818,1864380
16,97232,1565037
16,97643,1300946
16,98055,1077910
16,98468,907357
16,98880,770942
16,99292,668028
16,99705,577096
17,00117,506803
17,00528,452342
17,00940,406437
17,01353,367027
17,01765,334729
17,02177,311232
17,02590,287162
17,03002,265742
17,03413,240597
17,03827,229416
17,04238,217912
17,04650,203133
17,05063,189952
17,05475,186316
17,05887,175821
17,06300,172404
17,06712,155794
17,07123,150385
17,07537,148571
17,07948,136752
17,08360,133403
17,08773,132815
17,09185,127459
17,09597,122518
17,10008,117139
17,10422,110725
17,10833,110300
17,11245,107813
17,11658,103559
17,12070,99517
17,12482,98886
17,12895,95358
17,13307,94173
17,13718,91131
17,14132,89259
17,14543,89741
17,14955,86740
17,15368,87067
17,15780,83182
17,16192,86027
17,16605,86153
17,17017,90705
17,17428,107415
17,17842,136637
17,18253,188081
17,18665,282809
17,19077,440909
17,19490,671768
17,19902,975716
17,20313,1344402
17,20727,1734519
17,21138,2087287
17,21550,2313816
17,21963,2386599
17,22375,2298052
17,22787,2071563
17,23200,1812946
17,23612,1524834
17,24023,1266806
17,24437,1035380
17,24848,868824
17,25260,728803
17,25673,624555
17,26085,537655
17,26497,474663
17,26910,420886
17,27322,374358
17,27733,341933
17,28145,312669
17,28558,285016
17,28970,267708
17,29382,247191
17,29795,230938
17,30207,217155
17,30618,203979
17,31032,192004
17,31443,181391
17,31855,177415
17,32268,175238
17,32680,165078
17,33092,160026
17,33505,152822
17,33917,146608
17,34328,142024
17,34742,137808
17,35153,130228
17,35565,125199
17,35978,121185
17,36390,115153
17,36802,111990
17,37213,107521
17,37627,104385
17,38038,101439
17,38450,102457
17,38863,94853
17,39275,94382
17,39687,90371
17,40100,92024
17,40512,93364
17,40923,92928
17,41337,91340
17,41748,89386
17,42160,86002
17,42573,85364
17,42985,84614
17,43397,83903
17,43810,83407
17,44222,83938
17,44633,85239
17,45047,101602
17,45458,123990
17,45870,173291
17,46282,254706
17,46695,391791
17,47107,586092
17,47518,822047
17,47932,1112907
17,48343,1389507
17,48755,1637944
17,49168,1759936
17,49580,1788542
17,49992,1720364
17,50405,1590993
17,50817,1407685
17,51228,1213965
17,51642,1020289
17,52053,858263
17,52465,728555
17,52878,618130
17,53290,528400
17,53702,458511
17,54115,407404
17,54527,370735
17,54938,347265
17,55350,337924
17,55763,358568
17,56175,411777
17,56587,493446
17,57000,616247
17,57412,759403
17,57823,931146
17,58237,1096031
17,58648,1216001
17,59060,1285454
17,59473,1291532
17,59885,1242350
17,60297,1140595
17,60710,1023903
17,61122,886412
17,61533,775205
17,61947,650981
17,62358,555778
17,62770,476099
17,63183,415350
17,63595,359671
17,64007,318075
17,64418,285063
17,64832,252117
17,65243,230130
17,65655,213461
17,66068,195561
17,66480,184770
17,66892,170330
17,67305,161554
17,67717,153274
17,68128,144321
17,68542,138997
17,68953,128089
17,69365,127401
17,69778,121844
17,70190,117721
17,70602,113369
17,71015,108935
17,71427,107619
17,71838,101589
17,72252,98568
17,72663,96062
17,73075,93408
17,73488,90119
17,73900,91541
17,74312,89267
17,74723,86937
17,75137,84472
17,75548,86821
17,75960,82326
17,76373,83738
17,76785,81146
17,77197,80445
17,77610,78248
17,78022,77079
17,78433,79171
17,78847,74092
17,79258,82717
17,79670,88201
17,80083,107365
17,80495,139715
17,80907,194719
17,81320,292513
17,81732,450405
17,82143,671031
17,82557,992449
17,82968,1390824
17,83380,1878989
17,83792,2436774
17,84205,3045007
17,84617,3559814
17,85028,4005986
17,85442,4244169
17,85853,4217136
17,86265,3936968
17,86678,3508891
17,87090,3021621
17,87502,2528805
17,87915,2097570
17,88327,1747417
17,88738,1466958
17,89152,1255923
17,89563,1072746
17,89975,939511
17,90388,824159
17,90800,729184
17,91212,651634
17,91625,589054
17,92037,527977
17,92448,493866
17,92860,460897
17,93273,425976
17,93685,390800
17,94097,371942
17,94510,344375
17,94922,323764
17,95333,302982
17,95747,289734
17,96158,273317
17,96570,260117
17,96983,244340
17,97395,235793
17,97807,223221
17,98220,216012
17,98632,207844
17,99043,195067
17,99457,191462
17,99868,182195
18,00280,173505
18,00693,172259
18,01105,162120
18,01517,159632
18,01928,156228
18,02342,152937
18,02753,146731
18,03165,143116
18,03578,141620
18,03990,134719
18,04402,136492
18,04815,129596
18,05227,125025
18,05638,123615
18,06052,124642
18,06463,117195
18,06875,117624
18,07288,112794
18,07700,112452
18,08112,109794
18,08525,109457
18,08937,108560
18,09348,102785
18,09762,102628
18,10173,102472
18,10585,100458
18,10997,96178
18,11410,97590
18,11822,98194
18,12233,93469
18,12647,93700
18,13058,91564
18,13470,90554
18,13883,89240
18,14295,88931
18,14707,89705
18,15120,88007
18,15532,88396
18,15943,91783
18,16357,99080
18,16768,112725
18,17180,140059
18,17593,189287
18,18005,263359
18,18417,371719
18,18830,543144
18,19242,747387
18,19653,1007929
18,20065,1256958
18,20478,1513368
18,20890,1707075
18,21302,1853198
18,21715,1882108
18,22127,1835334
18,22538,1697013
18,22952,1544311
18,23363,1357658
18,23775,1184855
18,24188,1016761
18,24600,888133
18,25012,763768
18,25425,670406
18,25837,589571
18,26248,527152
18,26662,472402
18,27073,429288
18,27485,393381
18,27898,349915
18,28310,327351
18,28722,304285
18,29133,283184
18,29547,268423
18,29958,258563
18,30370,233562
18,30783,222873
18,31195,214849
18,31607,203699
18,32020,198669
18,32432,187555
18,32843,178411
18,33257,171955
18,33668,164191
18,34080,158000
18,34493,156740
18,34905,149231
18,35317,143653
18,35730,137116
18,36142,132044
18,36553,129275
18,36967,126916
18,37378,125914
18,37790,121954
18,38202,115654
18,38615,117053
18,39027,113416
18,39438,112669
18,39852,107961
18,40263,105120
18,40675,100288
18,41088,102442
18,41500,99094
18,41912,96076
18,42325,97242
18,42737,91081
18,43148,92536
18,43562,91458
18,43973,89122
18,44385,86336
18,44798,83668
18,45210,87960
18,45622,89219
18,46035,83223
18,46447,86373
18,46858,80591
18,47270,82485
18,47683,80747
18,48095,83532
18,48507,79534
18,48920,79574
18,49332,77150
18,49743,79077
18,50157,76636
18,50568,76335
18,50980,75528
18,51393,73032
18,51805,73968
18,52217,74381
18,52630,72573
18,53042,75595
18,53453,73720
18,53867,72565
18,54278,75313
18,54690,72904
18,55103,74751
18,55515,71980
18,55927,72216
18,56338,71638
18,56752,70315
18,57163,71214
18,57575,69134
18,57988,66368
18,58400,66000
18,58812,67327
18,59225,65057
18,59637,63652
18,60048,63245
18,60462,62710
18,60873,63126
18,61285,62116
18,61698,62564
18,62110,59694
18,62522,61317
18,62935,59169
18,63347,62754
18,63758,64522
18,64172,66222
18,64583,66920
18,64995,73098
18,65407,81153
18,65820,88894
18,66232,98520
18,66643,104415
18,67057,112172
18,67468,121855
18,67880,126724
18,68293,128275
18,68705,126914
18,69117,119787
18,69530,123131
18,69942,111032
18,70353,107369
18,70767,96989
18,71178,91792
18,71590,92016
18,72003,81876
18,72415,82011
18,72827,75077
18,73240,73249
18,73652,69803
18,74063,67278
18,74475,66089
18,74888,64780
18,75300,63349
18,75712,63211
18,76125,62383
18,76537,63098
18,76948,59377
18,77362,60958
18,77773,60251
18,78185,60207
18,78598,59485
18,79010,58629
18,79422,55912
18,79835,58265
18,80247,56867
18,80658,57712
18,81072,54962
18,81483,54090
18,81895,54696
18,82308,55398
18,82720,54878
18,83132,52996
18,83543,50564
18,83957,57280
18,84368,52652
18,84780,51749
18,85193,51375
18,85605,52353
18,86017,49541
18,86430,52692
18,86842,51056
18,87253,52868
18,87667,51252
18,88078,49819
18,88490,53329
18,88903,52253
18,89315,50876
18,89727,53185
18,90140,50595
18,90552,48932
18,90963,51548
18,91377,51951
18,91788,52218
18,92200,52365
18,92612,49944
18,93025,50025
18,93437,49482
18,93848,47363
18,94262,50745
18,94673,52214
18,95085,48864
18,95498,49193
18,95910,47323
18,96322,48539
18,96735,47843
18,97147,46167
18,97558,47335
18,97972,49683
18,98383,49958
18,98795,46977
18,99208,49837
18,99620,48980
19,00032,48681
19,00445,49628
19,00857,50967
19,01268,49125
19,01680,46913
19,02093,50852
19,02505,48409
19,02917,46438
19,03330,44279
19,03742,46387
19,04153,47785
19,04567,48996
19,04978,45575
19,05390,45981
19,05803,45896
19,06215,47836
19,06627,45269
19,07040,45729
19,07452,47020
19,07863,45470
19,08277,46960
19,08688,47058
19,09100,47773
19,09513,45863
19,09925,46339
19,10337,46503
19,10748,47564
19,11162,48896
19,11573,48836
19,11985,46717
19,12398,47306
19,12810,45824
19,13222,45675
19,13635,46412
19,14047,46681
19,14458,47713
19,14872,45077
19,15283,44465
19,15695,45862
19,16108,42162
19,16520,44327
19,16932,42306
19,17345,43039
19,17757,46043
19,18168,43014
19,18582,43909
19,18993,42746
19,19405,43299
19,19817,45736
19,20230,42177
19,20642,43804
19,21053,46989
19,21467,45609
19,21878,47146
19,22290,44282
19,22703,45727
19,23115,45550
19,23527,41688
19,23940,43799
19,24352,45061
19,24763,46166
19,25177,44717
19,25588,44011
19,26000,46790
19,26413,46540
19,26825,52298
19,27237,60649
19,27650,71722
19,28062,95084
19,28473,121577
19,28885,170853
19,29298,226008
19,29710,300538
19,30122,390873
19,30535,489079
19,30947,585670
19,31358,672716
19,31772,738323
19,32183,790634
19,32595,806491
19,33008,798055
19,33420,768575
19,33832,723594
19,34245,661662
19,34657,606598
19,35068,533667
19,35482,477167
19,35893,431601
19,36305,387603
19,36718,342808
19,37130,309162
19,37542,276988
19,37953,252919
19,38367,229204
19,38778,212413
19,39190,194012
19,39603,182404
19,40015,170219
19,40427,158203
19,40840,149314
19,41252,141920
19,41663,134572
19,42077,127713
19,42488,119842
19,42900,114023
19,43313,110173
19,43725,108354
19,44137,104059
19,44550,100135
19,44962,98546
19,45373,93857
19,45787,91516
19,46198,87012
19,46610,85891
19,47023,85439
19,47435,82699
19,47847,81637
19,48258,77098
19,48672,75166
19,49083,75264
19,49495,73741
19,49908,75665
19,50320,71178
19,50732,68334
19,51145,68090
19,51557,66985
19,51968,68063
19,52382,65222
19,52793,64936
19,53205,65906
19,53618,65841
19,54030,67270
19,54442,62551
19,54855,65778
19,55267,62405
19,55678,61271
19,56092,63634
19,56503,59572
19,56915,57675
19,57327,60116
19,57740,59315
19,58152,59612
19,58563,59762
19,58977,57784
19,59388,56508
19,59800,56724
19,60213,56443
19,60625,56853
19,61037,52887
19,61450,54746
19,61862,55646
19,62273,53582
19,62687,51455
19,63098,53036
19,63510,53179
19,63923,52284
19,64335,48935
19,64747,52565
19,65160,50172
19,65572,51383
19,65983,50150
19,66395,48601
19,66808,50574
19,67220,48129
19,67632,48290
19,68045,50235
19,68457,50692
19,68868,46699
19,69282,49664
19,69693,50228
19,70105,47521
19,70518,49248
19,70930,47950
19,71342,47623
19,71755,46643
19,72167,47033
19,72578,48045
19,72992,47818
19,73403,47588
19,73815,48260
19,74228,49399
19,74640,47789
19,75052,47534
19,75463,47188
19,75877,46471
19,76288,45813
19,76700,46622
19,77113,46969
19,77525,46464
19,77937,50450
19,78350,46544
19,78762,47211
19,79173,45802
19,79587,45291
19,79998,45085
19,80410,45908
19,80823,45886
19,81235,43634
19,81647,42814
19,82060,46740
19,82472,45680
19,82883,44554
19,83297,44505
19,83708,41990
19,84120,46665
19,84532,44056
19,84945,45658
19,85357,44859
19,85768,44337
19,86182,44201
19,86593,43143
19,87005,44307
19,87418,44248
19,87830,46201
19,88242,43442
19,88655,44351
19,89067,45584
19,89478,43060
19,89892,42707
19,90303,44027
19,90715,42041
19,91128,45441
19,91540,42082
19,91952,43588
19,92365,41056
19,92777,46882
19,93188,43655
19,93600,44313
19,94013,42342
19,94425,43258
19,94837,42975
19,95250,44018
19,95662,44112
19,96073,44479
19,96487,44405
19,96898,45258
19,97310,46695
19,97723,45950
19,98135,44310
19,98547,43639
19,98960,46216
19,99372,43963
19,99783,44033
20,00197,43750
20,00608,43322
20,01020,42934
20,01433,41253
20,01845,43465
20,02257,45955
20,02668,43610
20,03082,41035
20,03493,42896
20,03905,44905
20,04318,42459
20,04730,44106
20,05142,44543
20,05555,44103
20,05967,41061
20,06378,44703
20,06792,44818
20,07203,42982
20,07615,43344
20,08028,41141
20,08440,42969
20,08852,42244
20,09265,42968
20,09677,41185
20,10088,41561
20,10502,44593
20,10913,40684
20,11325,42006
20,11737,41444
20,12150,41598
20,12562,39951
20,12973,41785
20,13387,42660
20,13798,41128
20,14210,41371
20,14623,40755
20,15035,41050
20,15447,41287
20,15860,41140
20,16272,43732
20,16683,42183
20,17097,41756
20,17508,41542
20,17920,43190
20,18333,41933
20,18745,41161
20,19157,40577
20,19570,40923
20,19982,43161
20,20393,40942
20,20805,40874
20,21218,44283
20,21630,41698
20,22042,42462
20,22455,42736
20,22867,40538
20,23278,40894
20,23692,40066
20,24103,42849
20,24515,41085
20,24928,40697
20,25340,41236
20,25752,41416
20,26165,41441
20,26577,41387
20,26988,41933
20,27402,43271
20,27813,38037
20,28225,40977
20,28638,42603
20,29050,40384
20,29462,41722
20,29873,43386
20,30287,42447
20,30698,40413
20,31110,43407
20,31523,41761
20,31935,43777
20,32347,41752
20,32760,40737
20,33172,42265
20,33583,42431
20,33997,42445
20,34408,42827
20,34820,42346
20,35233,40979
20,35645,43377
20,36057,41910
20,36470,42985
20,36882,39893
20,37293,43750
20,37707,43527
20,38118,39904
20,38530,42655
20,38942,43046
20,39355,43632
20,39767,42659
20,40178,43026
20,40592,42492
20,41003,43000
20,41415,43732
20,41828,41655
20,42240,43216
20,42652,46246
20,43065,44570
20,43477,44316
20,43888,44628
20,44302,44786
20,44713,43107
20,45125,42034
20,45538,43379
20,45950,43133
20,46362,40894
20,46775,40336
20,47187,42484
20,47598,41966
20,48010,42560
20,48423,39256
20,48835,43024
20,49247,40227
20,49660,42822
20,50072,40665
20,50483,42521
20,50897,41112
20,51308,42428
20,51720,39487
20,52133,42493
20,52545,39506
20,52957,39532
20,53370,38484
20,53782,41529
20,54193,41173
20,54607,40344
20,55018,42384
20,55430,41114
20,55843,39713
20,56255,42826
20,56667,41882
20,57078,41898
20,57492,43097
20,57903,39024
20,58315,41001
20,58728,40210
20,59140,40140
20,59552,41237
20,59965,38697
20,60377,42099
20,60788,39681
20,61202,39084
20,61613,41372
20,62025,41372
20,62438,42189
20,62850,41540
20,63262,38716
20,63675,37847
20,64087,37817
20,64498,40160
20,64912,40690
20,65323,39679
20,65735,38386
20,66147,37429
20,66560,39525
20,66972,39687
20,67383,36276
20,67797,38957
20,68208,36797
20,68620,42238
20,69033,40225
20,69445,38347
20,69857,39537
20,70270,38119
20,70682,37504
20,71093,37349
20,71507,39373
20,71918,37734
20,72330,37713
20,72743,37174
20,73155,38137
20,73567,39536
20,73980,40841
20,74392,40552
20,74803,38677
20,75215,41277
20,75628,41019
20,76040,43475
20,76452,40630
20,76865,40498
20,77277,39556
20,77688,41426
20,78102,39520
20,78513,41327
20,78925,40144
20,79338,39746
20,79750,39906
20,80162,40643
20,80575,41902
20,80987,38534
20,81398,41971
20,81812,40178
20,82223,40213
20,82635,38756
20,83048,41146
20,83460,38357
20,83872,42557
20,84283,42756
20,84697,40270
20,85108,40002
20,85520,38595
20,85933,40216
20,86345,41879
20,86757,41842
20,87170,36632
20,87582,39489
20,87993,40199
20,88407,39922
20,88818,37946
20,89230,40591
20,89643,36408
20,90055,38340
20,90467,37070
20,90880,36738
20,91292,38396
20,91703,38866
20,92117,36010
20,92528,37602
20,92940,40440
20,93352,40443
20,93765,39677
20,94177,38571
20,94588,39023
20,95002,39740
20,95413,36488
20,95825,37698
20,96238,39399
20,96650,38663
20,97062,38700
20,97475,37000
20,97887,37745
20,98298,38246
20,98712,36895
20,99123,40057
20,99535,38210
20,99948,39457
21,00360,37932
21,00772,36113
21,01185,37864
21,01597,38279
21,02008,36901
21,02420,37334
21,02833,37998
21,03245,37226
21,03657,39341
21,04070,37899
21,04482,38661
21,04893,37486
21,05307,39699
21,05718,38287
21,06130,38165
21,06543,38154
21,06955,37676
21,07367,37989
21,07780,36979
21,08192,36895
21,08603,36405
21,09017,40128
21,09428,40733
21,09840,36596
21,10253,36834
21,10665,39032
21,11077,38812
21,11490,37445
21,11902,36498
21,12313,38059
21,12725,40945
21,13138,36081
21,13550,36121
21,13962,40666
21,14375,38406
21,14787,38112
21,15198,39094
21,15612,38340
21,16023,37264
21,16435,33563
21,16848,35565
21,17260,35902
21,17672,38826
21,18085,37017
21,18497,37753
21,18908,38721
21,19322,37442
21,19733,36108
21,20145,37143
21,20558,37276
21,20970,37918
21,21382,38428
21,21793,38763
21,22207,37303
21,22618,38621
21,23030,40422
21,23443,37405
21,23855,39449
21,24267,37716
21,24680,38167
21,25092,35848
21,25503,41032
21,25917,39091
21,26328,38913
21,26740,37549
21,27153,36533
21,27565,36500
21,27977,36726
21,28390,38647
21,28802,36630
21,29213,39587
21,29627,36142
21,30038,39075
21,30450,37768
21,30862,37739
21,31275,36873
21,31687,36002
21,32098,36640
21,32512,38224
21,32923,37789
21,33335,37563
21,33748,37154
21,34160,39297
21,34572,39034
21,34985,36201
21,35397,37958
21,35808,39164
21,36222,40518
21,36633,38945
21,37045,37388
21,37458,38931
21,37870,41019
21,38282,40218
21,38695,39753
21,39107,39554
21,39518,41096
21,39930,38460
21,40343,38780
21,40755,40597
21,41167,40082
21,41580,42559
21,41992,39998
21,42403,39626
21,42817,38574
21,43228,36765
21,43640,36442
21,44053,38600
21,44465,41667
21,44877,37851
21,45290,38638
21,45702,37779
21,46113,39091
21,46527,40090
21,46938,38816
21,47350,39508
21,47763,40220
21,48175,37932
21,48587,35646
21,48998,38597
21,49412,37024
21,49823,35589
21,50235,37016
21,50648,38349
21,51060,37008
21,51472,38226
21,51885,39644
21,52297,38610
21,52708,38264
21,53122,38162
21,53533,37599
21,53945,38417
21,54358,38945
21,54770,37958
21,55182,38299
21,55595,38178
21,56007,36596
21,56418,40070
21,56832,36996
21,57243,40440
21,57655,35851
21,58067,37417
21,58480,38156
21,58892,36371
21,59303,39243
21,59717,37444
21,60128,39101
21,60540,36941
21,60953,36821
21,61365,37522
21,61777,34234
21,62190,40449
21,62602,35978
21,63013,39246
21,63427,37875
21,63838,38118
21,64250,39346
21,64663,37677
21,65075,36443
21,65487,37166
21,65900,37725
