D:\MassHunter\GCMS\1\data\Amal\Constant flow\130C\130C_1ml-min_8C-min_1.D Mon Jul 29 13:39:27 2024
Start of data points
5,59125	36718
5,59570	36586
5,60013	35992
5,60458	35529
5,60902	35418
5,61347	35753
5,61790	36349
5,62235	34783
5,62678	35035
5,63123	35019
5,63567	36610
5,64012	34440
5,64455	35443
5,64900	35561
5,65343	34174
5,65788	37093
5,66232	35317
5,66677	35502
5,67120	35554
5,67565	35390
5,68008	35026
5,68453	33208
5,68897	32957
5,69342	34909
5,69785	32683
5,70230	34355
5,70675	33581
5,71118	34248
5,71563	33070
5,72007	32860
5,72452	33132
5,72895	30646
5,73340	32562
5,73783	32149
5,74228	31704
5,74672	32577
5,75117	31652
5,75560	32630
5,76005	33365
5,76448	31689
5,76893	30524
5,77337	32062
5,77782	30989
5,78225	31542
5,78670	31087
5,79113	31753
5,79558	30862
5,80002	30041
5,80447	30125
5,80890	31009
5,81335	30574
5,81778	32474
5,82223	38045
5,82668	50761
5,83112	73951
5,83557	115390
5,84000	177398
5,84445	251814
5,84888	317595
5,85333	374627
5,85777	414409
5,86222	422217
5,86665	418169
5,87110	414589
5,87553	388546
5,87998	372641
5,88442	353969
5,88887	336971
5,89330	318666
5,89775	301042
5,90218	285678
5,90663	267749
5,91107	250937
5,91552	233764
5,91995	220278
5,92440	213092
5,92883	196916
5,93328	182814
5,93772	173243
5,94217	163039
5,94662	154275
5,95105	140525
5,95550	133844
5,95993	127140
5,96438	118308
5,96882	109215
5,97327	107139
5,97770	97379
5,98215	95117
5,98658	87287
5,99103	80725
5,99547	77953
5,99992	72339
6,00435	67117
6,00880	63510
6,01323	57628
6,01768	52845
6,02212	50983
6,02657	48234
6,03100	44594
6,03545	43772
6,03988	40121
6,04433	38582
6,04877	36028
6,05322	36043
6,05765	34713
6,06210	33006
6,06655	31357
6,07098	31579
6,07543	31540
6,07987	30325
6,08432	29081
6,08875	28803
6,09320	29602
6,09763	28244
6,10208	27409
6,10652	27470
6,11097	26975
6,11540	26797
6,11985	27215
6,12428	26389
6,12873	26506
6,13317	26680
6,13762	24754
6,14205	24077
6,14650	24410
6,15093	25800
6,15538	24440
6,15982	26023
6,16427	24980
6,16870	24337
6,17315	24552
6,17758	25680
6,18203	25431
6,18647	24539
6,19092	24035
6,19537	25118
6,19980	23489
6,20425	22873
6,20868	23787
6,21313	22141
6,21757	24253
6,22202	23138
6,22645	23641
6,23090	22023
6,23533	20913
6,23978	22062
6,24422	24539
6,24867	21787
6,25310	23338
6,25755	22782
6,26198	22895
6,26643	21928
6,27087	22603
6,27532	22645
6,27975	22612
6,28420	21412
6,28863	21950
6,29308	21435
6,29752	23348
6,30197	21712
6,30640	21661
6,31085	22112
6,31530	20728
6,31973	21229
6,32418	21034
6,32862	21807
6,33307	25462
6,33750	33290
6,34195	46053
6,34638	72504
6,35083	106341
6,35527	152947
6,35972	196290
6,36415	240263
6,36860	267718
6,37303	279257
6,37748	284574
6,38192	276599
6,38637	263633
6,39080	251756
6,39525	237911
6,39968	223058
6,40413	210788
6,40857	192992
6,41302	183678
6,41745	172577
6,42190	158966
6,42633	147146
6,43078	138251
6,43523	128776
6,43967	119782
6,44412	108774
6,44855	102535
6,45300	94826
6,45743	87203
6,46188	81155
6,46632	76154
6,47077	69708
6,47520	65657
6,47965	59299
6,48408	56204
6,48853	49007
6,49297	48241
6,49742	44452
6,50185	39944
6,50630	36249
6,51073	34218
6,51518	31228
6,51962	28860
6,52407	28484
6,52850	26175
6,53295	24831
6,53738	25553
6,54183	23060
6,54627	23010
6,55072	22558
6,55517	21761
6,55960	21111
6,56405	22248
6,56848	20422
6,57293	20066
6,57737	20531
6,58182	20398
6,58625	20552
6,59070	19421
6,59513	19837
6,59958	18954
6,60402	18749
6,60847	18402
6,61290	19250
6,61735	17786
6,62178	18288
6,62623	17591
6,63067	16951
6,63512	17305
6,63955	18564
6,64400	17585
6,64843	18099
6,65288	18796
6,65732	17904
6,66177	17682
6,66620	19004
6,67065	18030
6,67510	18375
6,67953	19123
6,68398	18340
6,68842	18087
6,69287	18802
6,69730	20438
6,70175	18694
6,70618	18879
6,71063	18803
6,71507	19006
6,71952	18405
6,72395	17911
6,72840	17853
6,73283	16617
6,73728	16780
6,74172	16336
6,74617	16885
6,75060	17326
6,75505	17501
6,75948	17657
6,76393	16713
6,76837	16316
6,77282	16564
6,77725	16749
6,78170	16303
6,78613	17268
6,79058	16492
6,79503	15823
6,79947	16462
6,80392	16950
6,80835	16564
6,81280	15922
6,81723	17093
6,82168	17098
6,82612	15653
6,83057	15484
6,83500	17061
6,83945	15758
6,84388	14516
6,84833	16123
6,85277	16630
6,85722	17109
6,86165	15991
6,86610	15217
6,87053	16589
6,87498	16172
6,87942	16109
6,88387	16297
6,88830	13984
6,89275	15785
6,89718	15890
6,90163	15184
6,90607	16150
6,91052	16955
6,91495	16656
6,91940	18517
6,92385	19342
6,92828	29614
6,93273	44563
6,93717	79571
6,94162	135692
6,94605	216416
6,95050	322140
6,95493	442300
6,95938	547083
6,96382	618748
6,96827	671050
6,97270	686503
6,97715	671215
6,98158	647946
6,98603	610485
6,99047	573630
6,99492	527776
6,99935	486567
7,00380	447216
7,00823	403897
7,01268	368269
7,01712	332002
7,02157	300254
7,02600	267156
7,03045	240235
7,03488	215888
7,03933	195982
7,04378	172987
7,04822	156319
7,05267	139163
7,05710	121363
7,06155	108779
7,06598	93134
7,07043	81758
7,07487	71681
7,07932	62990
7,08375	56393
7,08820	46835
7,09263	43319
7,09708	37590
7,10152	34362
7,10597	33202
7,11040	28872
7,11485	27803
7,11928	26146
7,12373	23602
7,12817	21910
7,13262	21946
7,13705	19468
7,14150	19145
7,14593	20644
7,15038	17515
7,15482	18349
7,15927	18531
7,16372	18137
7,16815	16075
7,17260	17060
7,17703	16016
7,18148	16750
7,18592	16912
7,19037	16674
7,19480	15025
7,19925	16105
7,20368	15765
7,20813	14893
7,21257	15726
7,21702	15958
7,22145	15028
7,22590	15723
7,23033	15217
7,23478	14089
7,23922	15126
7,24367	14904
7,24810	15147
7,25255	15409
7,25698	13955
7,26143	13927
7,26587	14018
7,27032	14410
7,27475	13434
7,27920	14688
7,28365	13809
7,28808	14379
7,29253	14170
7,29697	14360
7,30142	13581
7,30585	14692
7,31030	13808
7,31473	14413
7,31918	15178
7,32362	14038
7,32807	14017
7,33250	13555
7,33695	13516
7,34138	12519
7,34583	13268
7,35027	12752
7,35472	13092
7,35915	13724
7,36360	12966
7,36803	13467
7,37248	13757
7,37692	13523
7,38137	12710
7,38580	14723
7,39025	14153
7,39468	13184
7,39913	12415
7,40358	13553
7,40802	12427
7,41247	13635
7,41690	12779
7,42135	13520
7,42578	13845
7,43023	12628
7,43467	14054
7,43912	12219
7,44355	12627
7,44800	13003
7,45243	13266
7,45688	13723
7,46132	12750
7,46577	12527
7,47020	11872
7,47465	13443
7,47908	12672
7,48353	13368
7,48797	12584
7,49242	13337
7,49685	12770
7,50130	13037
7,50573	13147
7,51018	12800
7,51462	13823
7,51907	12957
7,52352	13087
7,52795	11891
7,53240	12697
7,53683	12641
7,54128	13480
7,54572	13017
7,55017	12519
7,55460	13079
7,55905	12683
7,56348	12233
7,56793	13198
7,57237	12931
7,57682	12839
7,58125	14201
7,58570	13923
7,59013	15268
7,59458	21273
7,59902	31931
7,60347	53123
7,60790	83429
7,61235	130962
7,61678	193018
7,62123	260243
7,62567	324612
7,63012	369740
7,63455	405621
7,63900	425927
7,64343	415048
7,64788	403971
7,65233	373590
7,65677	343205
7,66122	312315
7,66565	280405
7,67010	254038
7,67453	228026
7,67898	202825
7,68342	173955
7,68787	153545
7,69230	131040
7,69675	115538
7,70118	101711
7,70563	86729
7,71007	75008
7,71452	64259
7,71895	55031
7,72340	46073
7,72783	41835
7,73228	36019
7,73672	30360
7,74117	26660
7,74560	25387
7,75005	23351
7,75448	20821
7,75893	18893
7,76337	19409
7,76782	17521
7,77227	17559
7,77670	16049
7,78115	15612
7,78558	15758
7,79003	15262
7,79447	13764
7,79892	14673
7,80335	14398
7,80780	14238
7,81223	12936
7,81668	14250
7,82112	13659
7,82557	13079
7,83000	13510
7,83445	13905
7,83888	12346
7,84333	12819
7,84777	12092
7,85222	12056
7,85665	12251
7,86110	12260
7,86553	11135
7,86998	11733
7,87442	11367
7,87887	12018
7,88330	10253
7,88775	11049
7,89220	12511
7,89663	11773
7,90108	12258
7,90552	11392
7,90997	11323
7,91440	11174
7,91885	11791
7,92328	11459
7,92773	11546
7,93217	11659
7,93662	11555
7,94105	11006
7,94550	11583
7,94993	11798
7,95438	11313
7,95882	11017
7,96327	11608
7,96770	11805
7,97215	11824
7,97658	13479
7,98103	12369
7,98547	12764
7,98992	13429
7,99435	12334
7,99880	11573
8,00323	12846
8,00768	13110
8,01213	12773
8,01657	12428
8,02102	11991
8,02545	11499
8,02990	11273
8,03433	11209
8,03878	11240
8,04322	12303
8,04767	11924
8,05210	9959
8,05655	10770
8,06098	10657
8,06543	11197
8,06987	10985
8,07432	10951
8,07875	10296
8,08320	10848
8,08763	10703
8,09208	10574
8,09652	10737
8,10097	11254
8,10540	10207
8,10985	9454
8,11428	10522
8,11873	11074
8,12317	10203
8,12762	11512
8,13207	11277
8,13650	10490
8,14095	10393
8,14538	11376
8,14983	10215
8,15427	10798
8,15872	11211
8,16315	10962
8,16760	10174
8,17203	10130
8,17648	11168
8,18092	10024
8,18537	10294
8,18980	11224
8,19425	10511
8,19868	10366
8,20313	11543
8,20757	10500
8,21202	10873
8,21645	11128
8,22090	11491
8,22533	11118
8,22978	10968
8,23422	11329
8,23867	10830
8,24310	12694
8,24755	11847
8,25200	12503
8,25643	11457
8,26088	12939
8,26532	11704
8,26977	11846
8,27420	11670
8,27865	11077
8,28308	13242
8,28753	10916
8,29197	10408
8,29642	12416
8,30085	11352
8,30530	12864
8,30973	15932
8,31418	26013
8,31862	47300
8,32307	84145
8,32750	156211
8,33195	261948
8,33638	407598
8,34083	566200
8,34527	732432
8,34972	866092
8,35415	976045
8,35860	1019399
8,36303	1024733
8,36748	984324
8,37192	914091
8,37637	825701
8,38082	721136
8,38525	620437
8,38970	528508
8,39413	453095
8,39858	377431
8,40302	314561
8,40747	257404
8,41190	205843
8,41635	172302
8,42078	137878
8,42523	110189
8,42967	88911
8,43412	74146
8,43855	59513
8,44300	53646
8,44743	44144
8,45188	38389
8,45632	35816
8,46077	31134
8,46520	28012
8,46965	27682
8,47408	26419
8,47853	24342
8,48297	22723
8,48742	22135
8,49185	18575
8,49630	17858
8,50075	17936
8,50518	17219
8,50963	15475
8,51407	16036
8,51852	17024
8,52295	15868
8,52740	16977
8,53183	15974
8,53628	15376
8,54072	15671
8,54517	16691
8,54960	14510
8,55405	14678
8,55848	14009
8,56293	14305
8,56737	14145
8,57182	13974
8,57625	13381
8,58070	12919
8,58513	13358
8,58958	12791
8,59402	11598
8,59847	12035
8,60290	11170
8,60735	11610
8,61178	11476
8,61623	11512
8,62068	10510
8,62512	10778
8,62957	10374
8,63400	11174
8,63845	10656
8,64288	10677
8,64733	10663
8,65177	11221
8,65622	10413
8,66065	9884
8,66510	10158
8,66953	10361
8,67398	10496
8,67842	9397
8,68287	10426
8,68730	11869
8,69175	11022
8,69618	12028
8,70063	12206
8,70507	12433
8,70952	13018
8,71395	13564
8,71840	14334
8,72283	14709
8,72728	14459
8,73172	14151
8,73617	14778
8,74062	14169
8,74505	12335
8,74950	12201
8,75393	11652
8,75838	11379
8,76282	11591
8,76727	10327
8,77170	10296
8,77615	11635
8,78058	11036
8,78503	10051
8,78947	9568
8,79392	10806
8,79835	10422
8,80280	9470
8,80723	9853
8,81168	10565
8,81612	10315
8,82057	9062
8,82500	10012
8,82945	10370
8,83388	9916
8,83833	9418
8,84277	9002
8,84722	9455
8,85165	9326
8,85610	10734
8,86055	9991
8,86498	10129
8,86943	11332
8,87387	15860
8,87832	26661
8,88275	47782
8,88720	81051
8,89163	132188
8,89608	198477
8,90052	273701
8,90497	354254
8,90940	430160
8,91385	474418
8,91828	496836
8,92273	492444
8,92717	464907
8,93162	430924
8,93605	385998
8,94050	334185
8,94493	285701
8,94938	236694
8,95382	195349
8,95827	160035
8,96270	130890
8,96715	104887
8,97158	84069
8,97603	71026
8,98048	58068
8,98492	45890
8,98937	38320
8,99380	33226
8,99825	28241
9,00268	24971
9,00713	21376
9,01157	19815
9,01602	19406
9,02045	16868
9,02490	15171
9,02933	13923
9,03378	13949
9,03822	14217
9,04267	13719
9,04710	12429
9,05155	12260
9,05598	12822
9,06043	13501
9,06487	14744
9,06932	21836
9,07375	38277
9,07820	64856
9,08263	112500
9,08708	179121
9,09152	264231
9,09597	356542
9,10040	452872
9,10485	524858
9,10930	573330
9,11373	585532
9,11818	571328
9,12262	536559
9,12707	478768
9,13150	417412
9,13595	349357
9,14038	284000
9,14483	233774
9,14927	183505
9,15372	144066
9,15815	110983
9,16260	87883
9,16703	70384
9,17148	57790
9,17592	46787
9,18037	41103
9,18480	33109
9,18925	29068
9,19368	25923
9,19813	24264
9,20257	20703
9,20702	18447
9,21145	17536
9,21590	17429
9,22033	17229
9,22478	14904
9,22923	14467
9,23367	13370
9,23812	13716
9,24255	12583
9,24700	12689
9,25143	12925
9,25588	11623
9,26032	11230
9,26477	10576
9,26920	10309
9,27365	10516
9,27808	10368
9,28253	10653
9,28697	10427
9,29142	9518
9,29585	8870
9,30030	10882
9,30473	10242
9,30918	10837
9,31362	9902
9,31807	9082
9,32250	9766
9,32695	9412
9,33138	9450
9,33583	9465
9,34027	9449
9,34472	9242
9,34917	8844
9,35360	9005
9,35805	9147
9,36248	9763
9,36693	8923
9,37137	9860
9,37582	9750
9,38025	9293
9,38470	9040
9,38913	9779
9,39358	9342
9,39802	8924
9,40247	8977
9,40690	9345
9,41135	9509
9,41578	7959
9,42023	9546
9,42467	9609
9,42912	8812
9,43355	8520
9,43800	8602
9,44243	9048
9,44688	8525
9,45132	8254
9,45577	8195
9,46020	7927
9,46465	8573
9,46910	8475
9,47353	8890
9,47798	8908
9,48242	8825
9,48687	9165
9,49130	9130
9,49575	9167
9,50018	7994
9,50463	8520
9,50907	9043
9,51352	8377
9,51795	8536
9,52240	9391
9,52683	9312
9,53128	8476
9,53572	9205
9,54017	9076
9,54460	8563
9,54905	8760
9,55348	8768
9,55793	8095
9,56237	8803
9,56682	9016
9,57125	9198
9,57570	7833
9,58013	8598
9,58458	8855
9,58903	8714
9,59347	8425
9,59792	9380
9,60235	8312
9,60680	9631
9,61123	8387
9,61568	9046
9,62012	8687
9,62457	8727
9,62900	8970
9,63345	9085
9,63788	9671
9,64233	12065
9,64677	15626
9,65122	28249
9,65565	49894
9,66010	87487
9,66453	149287
9,66898	227076
9,67342	323474
9,67787	427455
9,68230	506055
9,68675	568670
9,69118	581828
9,69563	568323
9,70007	537915
9,70452	487873
9,70897	411103
9,71340	343771
9,71785	268456
9,72228	214820
9,72673	166298
9,73117	130969
9,73562	99517
9,74005	80281
9,74450	62229
9,74893	51689
9,75338	42155
9,75782	34269
9,76227	30581
9,76670	27073
9,77115	22998
9,77558	20441
9,78003	18618
9,78447	17388
9,78892	15491
9,79335	13849
9,79780	13442
9,80223	13328
9,80668	12486
9,81112	11640
9,81557	11467
9,82000	11467
9,82445	12261
9,82888	12996
9,83333	18551
9,83778	32516
9,84222	59631
9,84667	118165
9,85110	222145
9,85555	388421
9,85998	620046
9,86443	918337
9,86887	1254034
9,87332	1584797
9,87775	1872996
9,88220	2043538
9,88663	2110694
9,89108	2022430
9,89552	1799471
9,89997	1529210
9,90440	1225255
9,90885	948104
9,91328	714730
9,91773	529643
9,92217	393398
9,92662	295834
9,93105	221788
9,93550	175845
9,93993	138426
9,94438	112523
9,94882	93127
9,95327	77184
9,95772	69299
9,96215	58944
9,96660	53288
9,97103	46993
9,97548	40797
9,97992	37665
9,98437	34856
9,98880	31794
9,99325	29649
9,99768	26127
10,00213	24299
10,00657	23938
10,01102	21056
10,01545	21352
10,01990	20198
10,02433	17403
10,02878	18976
10,03322	17705
10,03767	16351
10,04210	16741
10,04655	14542
10,05098	16162
10,05543	14721
10,05987	14494
10,06432	12989
10,06875	15302
10,07320	13607
10,07765	13688
10,08208	13223
10,08653	12013
10,09097	11444
10,09542	12128
10,09985	11039
10,10430	10944
10,10873	11846
10,11318	12033
10,11762	11760
10,12207	11374
10,12650	13113
10,13095	13268
10,13538	13938
10,13983	12773
10,14427	12195
10,14872	11224
10,15315	10456
10,15760	10718
10,16203	10306
10,16648	8895
10,17092	9392
10,17537	9885
10,17980	8804
10,18425	9363
10,18868	10242
10,19313	10109
10,19758	9983
10,20202	9978
10,20647	9509
10,21090	9622
10,21535	10188
10,21978	9298
10,22423	9350
10,22867	9361
10,23312	9851
10,23755	9159
10,24200	9036
10,24643	9209
10,25088	9132
10,25532	9315
10,25977	9087
10,26420	9001
10,26865	9306
10,27308	9347
10,27753	9379
10,28197	8914
10,28642	9912
10,29085	9586
10,29530	9357
10,29973	10591
10,30418	9167
10,30862	9756
10,31307	11404
10,31752	11602
10,32195	15930
10,32640	27832
10,33083	47509
10,33528	85966
10,33972	142335
10,34417	229754
10,34860	337333
10,35305	455230
10,35748	552134
10,36193	617946
10,36637	657917
10,37082	644736
10,37525	587527
10,37970	510787
10,38413	419684
10,38858	331327
10,39302	256962
10,39747	194926
10,40190	148961
10,40635	112066
10,41078	85419
10,41523	70254
10,41967	56127
10,42412	44126
10,42855	38916
10,43300	32823
10,43745	29787
10,44188	24492
10,44633	25230
10,45077	22518
10,45522	22844
10,45965	19732
10,46410	19724
10,46853	19168
10,47298	18431
10,47742	17167
10,48187	17308
10,48630	14505
10,49075	13500
10,49518	12665
10,49963	12830
10,50407	11875
10,50852	12934
10,51295	10880
10,51740	10889
10,52183	10537
10,52628	12115
10,53072	11756
10,53517	11717
10,53960	13560
10,54405	13418
10,54848	14848
10,55293	16396
10,55737	14863
10,56182	13873
10,56627	14029
10,57070	14408
10,57515	13889
10,57958	12945
10,58403	12225
10,58847	11604
10,59292	10917
10,59735	11421
10,60180	11114
10,60623	11724
10,61068	16595
10,61512	27842
10,61957	52977
10,62400	101016
10,62845	169514
10,63288	271842
10,63733	393857
10,64177	531006
10,64622	642610
10,65065	725016
10,65510	761219
10,65953	739220
10,66398	657499
10,66842	558704
10,67287	443213
10,67730	338144
10,68175	259385
10,68620	188773
10,69063	141694
10,69508	103347
10,69952	83389
10,70397	65673
10,70840	52779
10,71285	42116
10,71728	37665
10,72173	32605
10,72617	29398
10,73062	27133
10,73505	22085
10,73950	20928
10,74393	20152
10,74838	17804
10,75282	16877
10,75727	16909
10,76170	15689
10,76615	14846
10,77058	14082
10,77503	14720
10,77947	13452
10,78392	11640
10,78835	11382
10,79280	12749
10,79723	12115
10,80168	11830
10,80613	12072
10,81057	10939
10,81502	11322
10,81945	11239
10,82390	9769
10,82833	8703
10,83278	9821
10,83722	10475
10,84167	10419
10,84610	10134
10,85055	9531
10,85498	9347
10,85943	9480
10,86387	11562
10,86832	9797
10,87275	9655
10,87720	9925
10,88163	9559
10,88608	9679
10,89052	9690
10,89497	9129
10,89940	8793
10,90385	8987
10,90828	8725
10,91273	9211
10,91717	8891
10,92162	9292
10,92607	9054
10,93050	9244
10,93495	7677
10,93938	8354
10,94383	8046
10,94827	9737
10,95272	9293
10,95715	7801
10,96160	9915
10,96603	8696
10,97048	9058
10,97492	8544
10,97937	7661
10,98380	9061
10,98825	9421
10,99268	8656
10,99713	9043
11,00157	8723
11,00602	7620
11,01045	8950
11,01490	8914
11,01933	8939
11,02378	8321
11,02822	8669
11,03267	7923
11,03710	9273
11,04155	9277
11,04600	9196
11,05043	9302
11,05488	9007
11,05932	8278
11,06377	8560
11,06820	9183
11,07265	8942
11,07708	8781
11,08153	9032
11,08597	10205
11,09042	10887
11,09485	17940
11,09930	29860
11,10373	53673
11,10818	96753
11,11262	173654
11,11707	274380
11,12150	393329
11,12595	520007
11,13038	635264
11,13483	701780
11,13927	721964
11,14372	690836
11,14815	624539
11,15260	517870
11,15703	416938
11,16148	321349
11,16593	240995
11,17037	178541
11,17482	134308
11,17925	105022
11,18370	81142
11,18813	62638
11,19258	53326
11,19702	42177
11,20147	39772
11,20590	32894
11,21035	30006
11,21478	25639
11,21923	23761
11,22367	21265
11,22812	20290
11,23255	20146
11,23700	16748
11,24143	16004
11,24588	14804
11,25032	14635
11,25477	14187
11,25920	13513
11,26365	11989
11,26808	12107
11,27253	12301
11,27697	11517
11,28142	10852
11,28585	11401
11,29030	10797
11,29475	9863
11,29918	9535
11,30363	9525
11,30807	10843
11,31252	10428
11,31695	9385
11,32140	8508
11,32583	9278
11,33028	10312
11,33472	10343
11,33917	9729
11,34360	9524
11,34805	8165
11,35248	9327
11,35693	9915
11,36137	9275
11,36582	10024
11,37025	12834
11,37470	17497
11,37913	30479
11,38358	62439
11,38802	120936
11,39247	222548
11,39690	362229
11,40135	567650
11,40578	821965
11,41023	1110638
11,41468	1387572
11,41912	1589118
11,42357	1668261
11,42800	1659103
11,43245	1489823
11,43688	1243620
11,44133	965585
11,44577	727682
11,45022	532327
11,45465	383599
11,45910	285287
11,46353	216226
11,46798	165065
11,47242	129234
11,47687	107278
11,48130	89448
11,48575	75398
11,49018	62274
11,49463	54909
11,49907	49793
11,50352	42594
11,50795	39675
11,51240	36502
11,51683	32607
11,52128	29291
11,52572	27772
11,53017	26994
11,53462	23532
11,53905	24426
11,54350	22297
11,54793	19759
11,55238	20187
11,55682	19561
11,56127	17636
11,56570	16763
11,57015	17839
11,57458	17534
11,57903	15977
11,58347	15588
11,58792	15871
11,59235	14977
11,59680	13817
11,60123	13322
11,60568	12901
11,61012	13543
11,61457	12074
11,61900	11764
11,62345	11655
11,62788	12271
11,63233	11305
11,63677	11624
11,64122	11599
11,64565	12612
11,65010	18202
11,65455	30613
11,65898	53342
11,66343	95249
11,66787	160846
11,67232	259103
11,67675	385847
11,68120	519349
11,68563	649317
11,69008	744326
11,69452	783984
11,69897	756736
11,70340	689623
11,70785	579840
11,71228	470918
11,71673	354442
11,72117	268402
11,72562	203895
11,73005	147392
11,73450	112770
11,73893	91704
11,74338	71643
11,74782	58265
11,75227	48942
11,75670	41874
11,76115	36222
11,76558	33273
11,77003	32838
11,77448	29842
11,77892	28490
11,78337	25278
11,78780	28495
11,79225	34064
11,79668	49208
11,80113	86437
11,80557	152088
11,81002	269807
11,81445	442131
11,81890	664879
11,82333	931610
11,82778	1208768
11,83222	1430706
11,83667	1567959
11,84110	1579811
11,84555	1449637
11,84998	1238997
11,85443	992991
11,85887	762154
11,86332	551422
11,86775	405538
11,87220	299018
11,87663	226322
11,88108	173491
11,88552	136496
11,88997	112163
11,89442	93807
11,89885	76830
11,90330	69670
11,90773	58678
11,91218	53571
11,91662	46787
11,92107	42895
11,92550	37740
11,92995	35745
11,93438	32918
11,93883	30661
11,94327	28583
11,94772	28035
11,95215	25385
11,95660	24070
11,96103	22244
11,96548	22080
11,96992	19110
11,97437	20134
11,97880	19119
11,98325	19668
11,98768	17017
11,99213	17167
11,99657	15731
12,00102	15358
12,00545	14610
12,00990	14557
12,01433	14634
12,01878	14486
12,02323	13214
12,02767	13220
12,03212	12597
12,03655	12300
12,04100	12789
12,04543	12589
12,04988	12288
12,05432	13398
12,05877	12579
12,06320	12306
12,06765	11548
12,07208	11364
12,07653	10850
12,08097	10924
12,08542	12415
12,08985	12858
12,09430	16441
12,09873	24845
12,10318	44498
12,10762	83644
12,11207	146293
12,11650	235053
12,12095	362613
12,12538	489742
12,12983	612657
12,13427	692683
12,13872	732049
12,14317	703108
12,14760	624747
12,15205	522611
12,15648	409324
12,16093	312009
12,16537	237238
12,16982	174963
12,17425	135726
12,17870	102198
12,18313	81293
12,18758	64896
12,19202	54015
12,19647	44815
12,20090	39375
12,20535	35337
12,20978	30280
12,21423	27501
12,21867	25927
12,22312	23581
12,22755	21365
12,23200	19092
12,23643	19006
12,24088	16391
12,24532	16912
12,24977	15983
12,25420	16167
12,25865	15117
12,26310	14737
12,26753	14017
12,27198	14516
12,27642	14717
12,28087	12100
12,28530	14508
12,28975	13773
12,29418	14783
12,29863	14640
12,30307	14526
12,30752	14383
12,31195	14454
12,31640	13659
12,32083	13884
12,32528	13592
12,32972	12998
12,33417	13727
12,33860	13261
12,34305	13482
12,34748	12891
12,35193	11885
12,35637	12749
12,36082	12295
12,36525	11061
12,36970	11863
12,37413	11377
12,37858	11471
12,38303	12002
12,38747	9952
12,39192	10430
12,39635	10269
12,40080	9782
12,40523	10838
12,40968	11201
12,41412	12492
12,41857	15561
12,42300	24741
12,42745	44268
12,43188	77784
12,43633	137849
12,44077	220261
12,44522	332326
12,44965	457086
12,45410	573364
12,45853	663128
12,46298	697172
12,46742	666338
12,47187	605009
12,47630	508782
12,48075	406075
12,48518	309687
12,48963	234443
12,49407	174227
12,49852	131709
12,50297	98291
12,50740	77814
12,51185	65334
12,51628	54406
12,52073	44989
12,52517	40044
12,52962	35079
12,53405	29640
12,53850	28944
12,54293	26900
12,54738	23659
12,55182	23082
12,55627	21508
12,56070	20972
12,56515	19831
12,56958	18818
12,57403	16966
12,57847	18323
12,58292	17043
12,58735	16226
12,59180	13993
12,59623	16204
12,60068	13528
12,60512	12809
12,60957	13273
12,61400	13684
12,61845	12805
12,62290	12176
12,62733	12550
12,63178	10697
12,63622	12388
12,64067	10357
12,64510	11782
12,64955	10304
12,65398	10896
12,65843	11583
12,66287	11269
12,66732	11782
12,67175	11809
12,67620	11797
12,68063	12437
12,68508	10918
12,68952	11846
12,69397	12633
12,69840	12530
12,70285	11754
12,70728	12730
12,71173	12146
12,71617	11344
12,72062	10316
12,72505	11168
12,72950	10284
12,73393	10690
12,73838	10505
12,74282	10725
12,74727	9597
12,75172	10879
12,75615	10574
12,76060	9603
12,76503	9817
12,76948	10155
12,77392	10971
12,77837	9838
12,78280	10299
12,78725	9852
12,79168	9202
12,79613	10634
12,80057	9766
12,80502	9785
12,80945	9803
12,81390	9838
12,81833	9850
12,82278	9450
12,82722	8963
12,83167	9555
12,83610	8838
12,84055	10025
12,84498	8720
12,84943	10406
12,85387	12315
12,85832	15229
12,86275	29370
12,86720	53631
12,87165	108633
12,87608	213160
12,88053	380051
12,88497	635324
12,88942	974524
12,89385	1377801
12,89830	1791426
12,90273	2176161
12,90718	2415869
12,91162	2479010
12,91607	2330305
12,92050	2036041
12,92495	1656408
12,92938	1246659
12,93383	911891
12,93827	668465
12,94272	490617
12,94715	362309
12,95160	279742
12,95603	220192
12,96048	173961
12,96492	148632
12,96937	125653
12,97380	106981
12,97825	93960
12,98268	83081
12,98713	72649
12,99158	64645
12,99602	58004
13,00047	54477
13,00490	50273
13,00935	46606
13,01378	44406
13,01823	39093
13,02267	37884
13,02712	34962
13,03155	33928
13,03600	31273
13,04043	29665
13,04488	26906
13,04932	25693
13,05377	24196
13,05820	24187
13,06265	24622
13,06708	24110
13,07153	22676
13,07597	20664
13,08042	20495
13,08485	20501
13,08930	19274
13,09373	18023
13,09818	19678
13,10262	19249
13,10707	20284
13,11152	22420
13,11595	23778
13,12040	24448
13,12483	27685
13,12928	27924
13,13372	28224
13,13817	30683
13,14260	34981
13,14705	45772
13,15148	64196
13,15593	104767
13,16037	166590
13,16482	260323
13,16925	368275
13,17370	476259
13,17813	563032
13,18258	616054
13,18702	612201
13,19147	565529
13,19590	483336
13,20035	406290
13,20478	313878
13,20923	237741
13,21367	181833
13,21812	135302
13,22255	102675
13,22700	80689
13,23145	67662
13,23588	57460
13,24033	48092
13,24477	43054
13,24922	37307
13,25365	37224
13,25810	38655
13,26253	47200
13,26698	66784
13,27142	103067
13,27587	171546
13,28030	265004
13,28475	393642
13,28918	533912
13,29363	679298
13,29807	783395
13,30252	836828
13,30695	833807
13,31140	752893
13,31583	621701
13,32028	497151
13,32472	375743
13,32917	281304
13,33360	215732
13,33805	165699
13,34248	131570
13,34693	106435
13,35137	89286
13,35582	77207
13,36027	65576
13,36470	56104
13,36915	50947
13,37358	45021
13,37803	40692
13,38247	37382
13,38692	33794
13,39135	31894
13,39580	30419
13,40023	29248
13,40468	25739
13,40912	26562
13,41357	22577
13,41800	23303
13,42245	21945
13,42688	21550
13,43133	23278
13,43577	21862
13,44022	19515
13,44465	18318
13,44910	18831
13,45353	18403
13,45798	16909
13,46242	16814
13,46687	15734
13,47130	17124
13,47575	17405
13,48020	15351
13,48463	15545
13,48908	16550
13,49352	14299
13,49797	15962
13,50240	13984
13,50685	15202
13,51128	14614
13,51573	14087
13,52017	14592
13,52462	14161
13,52905	14483
13,53350	12493
13,53793	13879
13,54238	13797
13,54682	12576
13,55127	13384
13,55570	13979
13,56015	12577
13,56458	14111
13,56903	14723
13,57347	17432
13,57792	26585
13,58235	43330
13,58680	75839
13,59123	137977
13,59568	228268
13,60013	357828
13,60457	525831
13,60902	698074
13,61345	846622
13,61790	933076
13,62233	934485
13,62678	867902
13,63122	750578
13,63567	591331
13,64010	452517
13,64455	339249
13,64898	255069
13,65343	188352
13,65787	147206
13,66232	119711
13,66675	97238
13,67120	79770
13,67563	72466
13,68008	59818
13,68452	53657
13,68897	46608
13,69340	45017
13,69785	40483
13,70228	37517
13,70673	33866
13,71117	33190
13,71562	31911
13,72007	27735
13,72450	27738
13,72895	29299
13,73338	25732
13,73783	26285
13,74227	25868
13,74672	24949
13,75115	22318
13,75560	23425
13,76003	21977
13,76448	22413
13,76892	21435
13,77337	19594
13,77780	19193
13,78225	18355
13,78668	18047
13,79113	18121
13,79557	16588
13,80002	18438
13,80445	17466
13,80890	17413
13,81333	18128
13,81778	17124
13,82222	16334
13,82667	17073
13,83110	15169
13,83555	14958
13,84000	16504
13,84443	15213
13,84888	16149
13,85332	16527
13,85777	18356
13,86220	20254
13,86665	28118
13,87108	49854
13,87553	86694
13,87997	149581
13,88442	243198
13,88885	361772
13,89330	495982
13,89773	628697
13,90218	709102
13,90662	743636
13,91107	711362
13,91550	628029
13,91995	522186
13,92438	405900
13,92883	313136
13,93327	234811
13,93772	176908
13,94215	136323
13,94660	108518
13,95103	89169
13,95548	72264
13,95993	62635
13,96437	53860
13,96882	49405
13,97325	43212
13,97770	38096
13,98213	37586
13,98658	32627
13,99102	30630
13,99547	30833
13,99990	29009
14,00435	26436
14,00878	25175
14,01323	21789
14,01767	21856
14,02212	23237
14,02655	23839
14,03100	20584
14,03543	21588
14,03988	21161
14,04432	18254
14,04877	18645
14,05320	19207
14,05765	19623
14,06208	17693
14,06653	17659
14,07097	17530
14,07542	18253
14,07985	17827
14,08430	17908
14,08875	15331
14,09318	14684
14,09763	16636
14,10207	15924
14,10652	15546
14,11095	16781
14,11540	16896
14,11983	16357
14,12428	15219
14,12872	16545
14,13317	15630
14,13760	15980
14,14205	14793
14,14648	16602
14,15093	15147
14,15537	15800
14,15982	15796
14,16425	13867
14,16870	15435
14,17313	13842
14,17758	14841
14,18202	14368
14,18647	15640
14,19090	14284
14,19535	16187
14,19978	14779
14,20423	15439
14,20868	15151
14,21312	14858
14,21757	14254
14,22200	14454
14,22645	13716
14,23088	15745
14,23533	15199
14,23977	14556
14,24422	15000
14,24865	14330
14,25310	15700
14,25753	15669
14,26198	16896
14,26642	19558
14,27087	29251
14,27530	45768
14,27975	83351
14,28418	148814
14,28863	250091
14,29307	408646
14,29752	623693
14,30195	908523
14,30640	1264946
14,31083	1637413
14,31528	2027417
14,31972	2338822
14,32417	2471370
14,32862	2420664
14,33305	2175114
14,33750	1836816
14,34193	1459996
14,34638	1138177
14,35082	876249
14,35527	660436
14,35970	501194
14,36415	390902
14,36858	308301
14,37303	250974
14,37747	207419
14,38192	173514
14,38635	146626
14,39080	129361
14,39523	116362
14,39968	100619
14,40412	92130
14,40857	83421
14,41300	75302
14,41745	74189
14,42188	67569
14,42633	63898
14,43077	58215
14,43522	53768
14,43965	51710
14,44410	50774
14,44855	46906
14,45298	44341
14,45743	40546
14,46187	41709
14,46632	38641
14,47075	38140
14,47520	36796
14,47963	37550
14,48408	34914
14,48852	35318
14,49297	36751
14,49740	34659
14,50185	33344
14,50628	31859
14,51073	32729
14,51517	30134
14,51962	28412
14,52405	28998
14,52850	27384
14,53293	28121
14,53738	28133
14,54182	29417
14,54627	32095
14,55070	36007
14,55515	49958
14,55958	76833
14,56403	122719
14,56848	195068
14,57292	286184
14,57737	404695
14,58180	520895
14,58625	621188
14,59068	678798
14,59513	677253
14,59957	620835
14,60402	540413
14,60845	439215
14,61290	351774
14,61733	294797
14,62178	267874
14,62622	280200
14,63067	324643
14,63510	404213
14,63955	499567
14,64398	588311
14,64843	656247
14,65287	692342
14,65732	682495
14,66175	656115
14,66620	652279
14,67063	667702
14,67508	730007
14,67952	808324
14,68397	904501
14,68842	959725
14,69285	970456
14,69730	922942
14,70173	805834
14,70618	673497
14,71062	533585
14,71507	414768
14,71950	318485
14,72395	260282
14,72838	201594
14,73283	167665
14,73727	138861
14,74172	121130
14,74615	105610
14,75060	100505
14,75503	85036
14,75948	77064
14,76392	71738
14,76837	66405
14,77280	60322
14,77725	55483
14,78168	53498
14,78613	51336
14,79057	47662
14,79502	44027
14,79945	44611
14,80390	41110
14,80833	39105
14,81278	37298
14,81723	36470
14,82167	34586
14,82612	34532
14,83055	34286
14,83500	33776
14,83943	33799
14,84388	32191
14,84832	31926
14,85277	34591
14,85720	35337
14,86165	31908
14,86608	32242
14,87053	29330
14,87497	27805
14,87942	25594
14,88385	26497
14,88830	26193
14,89273	28512
14,89718	24191
14,90162	26822
14,90607	23936
14,91050	24573
14,91495	23171
14,91938	25493
14,92383	23778
14,92827	26289
14,93272	25467
14,93717	29637
14,94160	39502
14,94605	57502
14,95048	93742
14,95493	151113
14,95937	241011
14,96382	372672
14,96825	534566
14,97270	707159
14,97713	847410
14,98158	946087
14,98602	956467
14,99047	888753
14,99490	763454
14,99935	611143
15,00378	471950
15,00823	371215
15,01267	280456
15,01712	219302
15,02155	175019
15,02600	145208
15,03043	125277
15,03488	107191
15,03932	93193
15,04377	82780
15,04820	73537
15,05265	67096
15,05710	63296
15,06153	59758
15,06598	54895
15,07042	52118
15,07487	50271
15,07930	46347
15,08375	42263
15,08818	43192
15,09263	39984
15,09707	41401
15,10152	39497
15,10595	38588
15,11040	37444
15,11483	37590
15,11928	37350
15,12372	33526
15,12817	32919
15,13260	32936
15,13705	31729
15,14148	30264
15,14593	29029
15,15037	29871
15,15482	30962
15,15925	28149
15,16370	29585
15,16813	28190
15,17258	30005
15,17703	30650
15,18147	28890
15,18592	26892
15,19035	27675
15,19480	26119
15,19923	27029
15,20368	25654
15,20812	23960
15,21257	26073
15,21700	27402
15,22145	28631
15,22588	36971
15,23033	49900
15,23477	81355
15,23922	131035
15,24365	209714
15,24810	311336
15,25253	440123
15,25698	572029
15,26142	694175
15,26587	756232
15,27030	746568
15,27475	698593
15,27918	612497
15,28363	501396
15,28807	395048
15,29252	310612
15,29697	242576
15,30140	189836
15,30585	154013
15,31028	130331
15,31473	114833
15,31917	104423
15,32362	107785
15,32805	121453
15,33250	159412
15,33693	212394
15,34138	286800
15,34582	373438
15,35027	456324
15,35470	523534
15,35915	559559
15,36358	558322
15,36803	508587
15,37247	454948
15,37692	376877
15,38135	299425
15,38580	244206
15,39023	192948
15,39468	154275
15,39912	125199
15,40357	106791
15,40800	90270
15,41245	79110
15,41690	68642
15,42133	61863
15,42578	57764
15,43022	52691
15,43467	50877
15,43910	47630
15,44355	43420
15,44798	39861
15,45243	40376
15,45687	39126
15,46132	35819
15,46575	37276
15,47020	36599
15,47463	32604
15,47908	33421
15,48352	31460
15,48797	30950
15,49240	32185
15,49685	31694
15,50128	29468
15,50573	29826
15,51017	29136
15,51462	27252
15,51905	28731
15,52350	28515
15,52793	28388
15,53238	28066
15,53683	25837
15,54127	26201
15,54572	26984
15,55015	27807
15,55460	26229
15,55903	25453
15,56348	23413
15,56792	23698
15,57237	25967
15,57680	25982
15,58125	24483
15,58568	24505
15,59013	25280
15,59457	24286
15,59902	24966
15,60345	26087
15,60790	32607
15,61233	41087
15,61678	62085
15,62122	95015
15,62567	148091
15,63010	231461
15,63455	352157
15,63898	508690
15,64343	705659
15,64787	935213
15,65232	1180906
15,65675	1423332
15,66120	1610311
15,66565	1723660
15,67008	1728253
15,67453	1573291
15,67897	1316717
15,68342	1039854
15,68785	798635
15,69230	609322
15,69673	471587
15,70118	370054
15,70562	301834
15,71007	256797
15,71450	215191
15,71895	185053
15,72338	166009
15,72783	151117
15,73227	131809
15,73672	118907
15,74115	110845
15,74560	102938
15,75003	94518
15,75448	89316
15,75892	81674
15,76337	76777
15,76780	72931
15,77225	69645
15,77668	67620
15,78113	62753
15,78558	60848
15,79002	58940
15,79447	55498
15,79890	53228
15,80335	52072
15,80778	50453
15,81223	49090
15,81667	46470
15,82112	45555
15,82555	46092
15,83000	42836
15,83443	40977
15,83888	42249
15,84332	39830
15,84777	40881
15,85220	39464
15,85665	38840
15,86108	37278
15,86553	38268
15,86997	36821
15,87442	35084
15,87885	35877
15,88330	34718
15,88773	34341
15,89218	35219
15,89662	35342
15,90107	35691
15,90552	35761
15,90995	32599
15,91440	33554
15,91883	33000
15,92328	31344
15,92772	28694
15,93217	31369
15,93660	29721
15,94105	32642
15,94548	30381
15,94993	29339
15,95437	28557
15,95882	29908
15,96325	29606
15,96770	29365
15,97213	27920
15,97658	27313
15,98102	29008
15,98547	29922
15,98990	31609
15,99435	36994
15,99878	45411
16,00323	65157
16,00767	97900
16,01212	145696
16,01655	215313
16,02100	312971
16,02545	425034
16,02988	548038
16,03433	662091
16,03877	748849
16,04322	788935
16,04765	778956
16,05210	711009
16,05653	625621
16,06098	525967
16,06542	430550
16,06987	342748
16,07430	276447
16,07875	231437
16,08318	188308
16,08763	160148
16,09207	140865
16,09652	124014
16,10095	109091
16,10540	97926
16,10983	86651
16,11428	84368
16,11872	76544
16,12317	69859
16,12760	67570
16,13205	62885
16,13648	58060
16,14093	55453
16,14538	52605
16,14982	49982
16,15427	47460
16,15870	45894
16,16315	45342
16,16758	44646
16,17203	41999
16,17647	40505
16,18092	40404
16,18535	37690
16,18980	36793
16,19423	35645
16,19868	36980
16,20312	35854
16,20757	33499
16,21200	35302
16,21645	33650
16,22088	34737
16,22533	31724
16,22977	32664
16,23422	31939
16,23865	30032
16,24310	28919
16,24753	29554
16,25198	29208
16,25642	28651
16,26087	29438
16,26530	29509
16,26975	28174
16,27420	27937
16,27863	28500
16,28308	26314
16,28752	26627
16,29197	26900
16,29640	26567
16,30085	26471
16,30528	26577
16,30973	26330
16,31417	28496
16,31862	25976
16,32305	27158
16,32750	28771
16,33193	28462
16,33638	27577
16,34082	27246
16,34527	28321
16,34970	29471
16,35415	30931
16,35858	31432
16,36303	31230
16,36747	35047
16,37192	32883
16,37635	32595
16,38080	30414
16,38523	31916
16,38968	27924
16,39413	26449
16,39857	28709
16,40302	27276
16,40745	25833
16,41190	26534
16,41633	26868
16,42078	24248
16,42522	24510
16,42967	24306
16,43410	23961
16,43855	24695
16,44298	23702
16,44743	24328
16,45187	23434
16,45632	24186
16,46075	22892
16,46520	24395
16,46963	24912
16,47408	24845
16,47852	24171
16,48297	24598
16,48740	26037
16,49185	23924
16,49628	24989
16,50073	24679
16,50517	23828
16,50962	24034
16,51407	24496
16,51850	23378
16,52295	24135
16,52738	23384
16,53183	23676
16,53627	22713
16,54072	24456
16,54515	24349
16,54960	22243
16,55403	23442
16,55848	21643
16,56292	25346
16,56737	22898
16,57180	23135
16,57625	24245
16,58068	24178
16,58513	24892
16,58957	22482
16,59402	24266
16,59845	24309
16,60290	24194
16,60733	24020
16,61178	23556
16,61622	25557
16,62067	23883
16,62510	22276
16,62955	23181
16,63400	22550
16,63843	21860
16,64288	22419
16,64732	22813
16,65177	22832
16,65620	22489
16,66065	22918
16,66508	22061
16,66953	22312
16,67397	21568
16,67842	24555
16,68285	20769
16,68730	22065
16,69173	22438
16,69618	23880
16,70062	22065
16,70507	23541
16,70950	21334
16,71395	23520
16,71838	24153
16,72283	23558
16,72727	24148
16,73172	23346
16,73615	24215
16,74060	23687
16,74503	22891
16,74948	22905
16,75393	22375
16,75837	25041
16,76282	21997
16,76725	23151
16,77170	24487
16,77613	22919
16,78058	23347
16,78502	21906
16,78947	24017
16,79390	22652
16,79835	19439
16,80278	22532
16,80723	21671
16,81167	24582
16,81612	21877
16,82055	22838
16,82500	22669
16,82943	22359
16,83388	22611
16,83832	22231
16,84277	22648
16,84720	23258
16,85165	22569
16,85608	23813
16,86053	24612
16,86497	21315
16,86942	22409
16,87387	22548
16,87830	22487
16,88275	21114
16,88718	22738
16,89163	22674
16,89607	22376
16,90052	24513
16,90495	22343
16,90940	22204
16,91383	22024
16,91828	21473
16,92272	22435
16,92717	22766
16,93160	24597
16,93605	24635
16,94048	23410
16,94493	23438
16,94937	24610
16,95382	23729
16,95825	25413
16,96270	23383
16,96713	21475
16,97158	23828
16,97602	22195
16,98047	23280
16,98490	21426
16,98935	22930
16,99378	20904
16,99823	22118
17,00268	23466
17,00712	21334
17,01157	21450
17,01600	21048
17,02045	22458
17,02488	22066
17,02933	22722
17,03377	22114
17,03822	21938
17,04265	21610
17,04710	22304
17,05153	22084
17,05598	22433
17,06042	23280
17,06487	22943
17,06930	22582
17,07375	23490
17,07818	24274
17,08263	23905
17,08707	22563
17,09152	23014
17,09595	22806
17,10040	24024
17,10483	23418
17,10928	23437
17,11372	24765
17,11817	21864
17,12262	23132
17,12705	25242
17,13150	25382
17,13593	29128
17,14038	35263
17,14482	45471
17,14927	66302
17,15370	87682
17,15815	125752
17,16258	174935
17,16703	227094
17,17147	280578
17,17592	337627
17,18035	372941
17,18480	399881
17,18923	404928
17,19368	385923
17,19812	362453
17,20257	323054
17,20700	283049
17,21145	238318
17,21588	200614
17,22033	172131
17,22477	143119
17,22922	127605
17,23365	108491
17,23810	92082
17,24255	83456
17,24698	76274
17,25143	69554
17,25587	61139
17,26032	57349
17,26475	52964
17,26920	50809
17,27363	45977
17,27808	44863
17,28252	42433
17,28697	42903
17,29140	40478
17,29585	41055
17,30028	35754
17,30473	38457
17,30917	36592
17,31362	36045
17,31805	32200
17,32250	33592
17,32693	32683
17,33138	33462
17,33582	30341
17,34027	32339
17,34470	31176
17,34915	30054
17,35358	28518
17,35803	27913
17,36248	27566
17,36692	27600
17,37137	28451
17,37580	26849
17,38025	29050
17,38468	28361
17,38913	27813
17,39357	29175
17,39802	28146
17,40245	27603
17,40690	26649
17,41133	28921
17,41578	25591
17,42022	25036
17,42467	25817
17,42910	27345
17,43355	25818
17,43798	27508
17,44243	25678
17,44687	25262
17,45132	25084
17,45575	27332
17,46020	26527
17,46463	27766
17,46908	27252
17,47352	26271
17,47797	25568
17,48242	24794
17,48685	25902
17,49130	25436
17,49573	26435
17,50018	26050
17,50462	24392
17,50907	25849
17,51350	25120
17,51795	24709
17,52238	23994
17,52683	25709
17,53127	22371
17,53572	24116
17,54015	24320
17,54460	24861
17,54903	24787
17,55348	24543
17,55792	22950
17,56237	23572
17,56680	24846
17,57125	25760
17,57568	24245
17,58013	22861
17,58457	23384
17,58902	22924
17,59345	25162
17,59790	23490
