D:\MassHunter\GCMS\1\data\Amal\Constant flow\120C\120C_1ml-min_7C-min_2.D Tue Sep 03 13:50:56 2024
Start of data points
5,19105	272285
5,19517	260632
5,19928	253492
5,20342	246847
5,20753	238336
5,21165	232335
5,21578	226171
5,21990	219364
5,22402	212711
5,22815	209384
5,23227	205076
5,23638	195382
5,24052	190441
5,24463	192830
5,24875	187118
5,25288	178503
5,25700	176886
5,26112	170575
5,26525	168995
5,26937	169017
5,27348	162090
5,27762	159407
5,28173	154842
5,28585	155779
5,28997	148696
5,29410	147166
5,29822	146222
5,30233	143565
5,30647	144671
5,31058	141243
5,31470	139312
5,31883	135415
5,32295	137701
5,32707	136537
5,33120	133763
5,33532	129501
5,33943	133139
5,34357	132290
5,34768	132311
5,35180	128262
5,35593	130202
5,36005	127375
5,36417	125295
5,36830	125190
5,37242	126173
5,37653	128994
5,38065	125700
5,38478	128193
5,38890	126885
5,39302	125549
5,39715	128964
5,40127	128932
5,40538	123434
5,40952	125118
5,41363	125408
5,41775	120774
5,42188	121811
5,42600	122035
5,43012	119145
5,43425	119325
5,43837	119729
5,44248	117717
5,44662	116194
5,45073	117255
5,45485	112688
5,45898	112929
5,46310	113451
5,46722	124101
5,47133	142272
5,47547	183444
5,47958	257095
5,48370	362073
5,48783	496554
5,49195	632056
5,49607	775816
5,50020	876947
5,50432	939287
5,50843	965722
5,51257	978148
5,51668	955224
5,52080	933177
5,52493	895026
5,52905	853186
5,53317	828032
5,53730	787447
5,54142	757677
5,54553	728657
5,54967	701769
5,55378	673357
5,55790	644241
5,56202	615401
5,56615	584573
5,57027	568360
5,57438	533160
5,57852	513341
5,58263	481794
5,58675	468268
5,59088	444964
5,59500	425145
5,59912	407640
5,60325	386299
5,60737	371342
5,61148	358741
5,61562	340102
5,61973	327844
5,62385	315170
5,62798	302040
5,63210	284575
5,63622	270349
5,64035	253862
5,64447	239301
5,64858	231327
5,65270	214835
5,65683	200216
5,66095	189764
5,66507	182337
5,66920	171634
5,67332	162435
5,67743	153488
5,68157	146161
5,68568	139556
5,68980	133909
5,69393	126821
5,69805	121504
5,70217	115940
5,70630	115844
5,71042	113169
5,71453	104040
5,71867	102664
5,72278	101335
5,72690	97818
5,73103	94951
5,73515	89832
5,73927	90269
5,74338	88849
5,74752	87449
5,75163	85017
5,75575	83560
5,75988	81482
5,76400	82351
5,76812	79312
5,77225	79660
5,77637	78960
5,78048	76676
5,78462	75343
5,78873	76176
5,79285	73874
5,79698	73610
5,80110	72089
5,80522	70028
5,80935	70558
5,81347	70793
5,81758	71641
5,82172	68575
5,82583	70087
5,82995	69527
5,83407	68142
5,83820	67937
5,84232	66373
5,84643	66944
5,85057	68476
5,85468	66512
5,85880	66165
5,86293	63306
5,86705	64609
5,87117	64741
5,87530	63806
5,87942	62868
5,88353	66670
5,88767	65382
5,89178	65948
5,89590	65684
5,90003	65639
5,90415	66881
5,90827	63345
5,91240	64399
5,91652	63329
5,92063	63336
5,92475	61672
5,92888	61752
5,93300	62092
5,93712	60446
5,94125	63189
5,94537	62311
5,94948	63638
5,95362	58057
5,95773	62850
5,96185	63193
5,96598	63299
5,97010	61944
5,97422	61174
5,97835	62791
5,98247	63936
5,98658	63504
5,99072	61579
5,99483	61358
5,99895	61415
6,00308	60857
6,00720	60268
6,01132	60870
6,01543	61201
6,01957	62173
6,02368	59027
6,02780	61283
6,03193	61519
6,03605	59346
6,04017	58573
6,04430	58796
6,04842	59284
6,05253	59036
6,05667	56564
6,06078	57077
6,06490	57080
6,06903	57282
6,07315	56380
6,07727	58309
6,08140	58087
6,08552	55968
6,08963	57827
6,09377	55387
6,09788	55542
6,10200	52930
6,10613	54546
6,11025	55716
6,11437	55012
6,11848	55069
6,12262	54301
6,12673	54911
6,13085	52390
6,13498	51788
6,13910	51701
6,14322	53609
6,14735	54191
6,15147	53493
6,15558	52270
6,15972	52442
6,16383	50559
6,16795	53113
6,17208	51099
6,17620	50839
6,18032	51202
6,18445	51006
6,18857	51231
6,19268	50846
6,19682	51173
6,20093	50559
6,20505	52312
6,20917	52236
6,21330	53467
6,21742	54151
6,22153	52726
6,22567	52858
6,22978	53835
6,23390	54676
6,23803	52486
6,24215	51660
6,24627	51361
6,25040	52498
6,25452	50154
6,25863	50615
6,26277	50652
6,26688	51217
6,27100	51885
6,27513	50112
6,27925	50814
6,28337	49976
6,28750	48893
6,29162	48141
6,29573	48306
6,29985	48237
6,30398	44777
6,30810	46933
6,31222	48597
6,31635	45986
6,32047	45788
6,32458	46183
6,32872	47037
6,33283	45818
6,33695	46703
6,34108	46039
6,34520	46608
6,34932	44269
6,35345	44744
6,35757	44677
6,36168	43717
6,36582	44368
6,36993	43655
6,37405	45342
6,37818	43804
6,38230	42813
6,38642	43175
6,39053	42285
6,39467	42439
6,39878	41511
6,40290	43208
6,40703	43512
6,41115	42195
6,41527	42065
6,41940	42466
6,42352	40984
6,42763	41743
6,43177	41235
6,43588	39636
6,44000	40813
6,44413	41523
6,44825	39668
6,45237	42336
6,45650	41313
6,46062	40403
6,46473	40555
6,46887	41553
6,47298	41121
6,47710	40050
6,48122	41388
6,48535	40428
6,48947	37840
6,49358	42199
6,49772	38496
6,50183	40483
6,50595	40199
6,51008	39386
6,51420	41092
6,51832	38411
6,52245	39966
6,52657	39883
6,53068	41557
6,53482	42382
6,53893	44644
6,54305	50718
6,54718	71272
6,55130	103548
6,55542	160206
6,55955	258012
6,56367	382152
6,56778	548320
6,57190	727276
6,57603	898507
6,58015	1047708
6,58427	1172376
6,58840	1236951
6,59252	1287533
6,59663	1267587
6,60077	1254630
6,60488	1214071
6,60900	1168546
6,61313	1110531
6,61725	1053328
6,62137	997928
6,62550	940456
6,62962	886338
6,63373	819634
6,63787	774985
6,64198	726626
6,64610	685337
6,65023	642603
6,65435	596721
6,65847	558230
6,66258	521569
6,66672	477548
6,67083	449385
6,67495	414043
6,67908	385328
6,68320	356855
6,68732	322526
6,69145	294396
6,69557	262809
6,69968	239447
6,70382	215579
6,70793	196344
6,71205	180679
6,71618	163218
6,72030	148611
6,72442	137292
6,72855	124379
6,73267	114922
6,73678	107007
6,74092	98213
6,74503	90550
6,74915	85762
6,75327	79875
6,75740	74264
6,76152	70728
6,76563	65066
6,76977	64072
6,77388	61039
6,77800	57990
6,78213	56894
6,78625	53902
6,79037	52165
6,79450	52036
6,79862	50034
6,80273	48584
6,80687	47627
6,81098	46801
6,81510	44219
6,81923	43019
6,82335	43168
6,82747	42201
6,83160	42827
6,83572	41256
6,83983	42394
6,84395	41901
6,84808	41656
6,85220	39628
6,85632	39654
6,86045	39376
6,86457	37220
6,86868	37680
6,87282	38077
6,87693	38874
6,88105	37679
6,88518	38537
6,88930	37768
6,89342	36852
6,89755	37716
6,90167	36768
6,90578	35800
6,90992	36735
6,91403	36638
6,91815	36236
6,92228	34197
6,92640	36210
6,93052	35916
6,93463	35927
6,93877	36327
6,94288	35244
6,94700	37333
6,95113	36071
6,95525	35866
6,95937	34681
6,96350	33459
6,96762	35056
6,97173	36775
6,97587	35331
6,97998	35321
6,98410	34442
6,98823	32967
6,99235	34820
6,99647	34949
7,00060	34225
7,00472	33931
7,00883	34623
7,01297	34774
7,01708	33709
7,02120	33451
7,02532	32347
7,02945	31416
7,03357	33564
7,03768	32551
7,04182	32073
7,04593	31932
7,05005	31238
7,05418	32077
7,05830	32229
7,06242	30359
7,06655	31102
7,07067	29851
7,07478	31073
7,07892	29768
7,08303	32635
7,08715	31054
7,09128	31267
7,09540	31345
7,09952	31211
7,10365	30432
7,10777	30335
7,11188	30568
7,11600	30107
7,12013	28339
7,12425	31948
7,12837	31147
7,13250	30620
7,13662	31423
7,14073	30937
7,14487	29871
7,14898	30425
7,15310	30172
7,15723	31792
7,16135	30580
7,16547	32527
7,16960	29669
7,17372	28320
7,17783	31137
7,18197	31039
7,18608	30532
7,19020	30047
7,19433	27884
7,19845	30218
7,20257	29087
7,20668	29784
7,21082	29259
7,21493	29774
7,21905	28053
7,22318	29474
7,22730	28185
7,23142	28415
7,23555	29284
7,23967	27422
7,24378	28961
7,24792	30822
7,25203	34017
7,25615	45996
7,26028	65783
7,26440	96003
7,26852	142743
7,27265	205844
7,27677	297747
7,28088	396221
7,28502	497760
7,28913	597744
7,29325	666695
7,29737	721461
7,30150	750558
7,30562	757994
7,30973	745758
7,31387	720775
7,31798	691283
7,32210	651963
7,32623	613374
7,33035	580078
7,33447	538090
7,33860	504846
7,34272	464753
7,34683	429255
7,35097	397677
7,35508	364100
7,35920	334159
7,36333	307499
7,36745	275026
7,37157	251733
7,37570	226218
7,37982	205517
7,38393	185708
7,38805	163406
7,39218	146964
7,39630	132484
7,40042	115537
7,40455	109001
7,40867	97328
7,41278	87989
7,41692	77704
7,42103	73182
7,42515	69474
7,42928	62700
7,43340	56747
7,43752	54628
7,44165	51618
7,44577	46768
7,44988	46307
7,45402	44828
7,45813	41848
7,46225	41749
7,46638	38992
7,47050	38842
7,47462	37476
7,47873	36278
7,48287	36815
7,48698	36450
7,49110	35114
7,49523	32496
7,49935	32349
7,50347	32527
7,50760	31842
7,51172	30786
7,51583	30467
7,51997	29845
7,52408	29905
7,52820	30184
7,53233	28400
7,53645	28675
7,54057	29368
7,54470	28913
7,54882	30142
7,55293	29841
7,55707	30417
7,56118	31651
7,56530	29555
7,56942	30979
7,57355	31027
7,57767	32536
7,58178	32965
7,58592	31508
7,59003	32205
7,59415	30714
7,59828	31476
7,60240	31578
7,60652	31281
7,61065	29515
7,61477	29405
7,61888	28687
7,62302	29174
7,62713	28540
7,63125	27872
7,63538	28105
7,63950	26951
7,64362	26767
7,64775	24918
7,65187	25423
7,65598	24128
7,66012	25057
7,66423	25725
7,66835	25041
7,67247	25294
7,67660	24379
7,68072	24540
7,68483	22695
7,68897	24519
7,69308	24828
7,69720	22892
7,70133	22855
7,70545	24112
7,70957	23981
7,71370	22507
7,71782	23575
7,72193	23179
7,72607	22084
7,73018	25743
7,73430	23713
7,73843	22698
7,74255	22882
7,74667	22438
7,75080	24283
7,75492	23564
7,75903	22497
7,76315	23246
7,76728	23037
7,77140	23875
7,77552	23170
7,77965	22965
7,78377	23298
7,78788	24142
7,79202	20966
7,79613	21643
7,80025	20863
7,80438	21853
7,80850	22450
7,81262	23249
7,81675	22854
7,82087	20879
7,82498	21144
7,82912	21215
7,83323	20971
7,83735	21601
7,84148	21078
7,84560	21974
7,84972	22286
7,85383	21456
7,85797	20926
7,86208	22320
7,86620	23684
7,87033	22786
7,87445	22532
7,87857	21776
7,88270	21148
7,88682	20592
7,89093	22613
7,89507	22084
7,89918	21586
7,90330	21450
7,90743	21862
7,91155	21867
7,91567	22190
7,91980	21086
7,92392	21203
7,92803	21838
7,93217	20964
7,93628	22792
7,94040	21354
7,94452	20474
7,94865	20591
7,95277	21522
7,95688	21970
7,96102	22402
7,96513	22658
7,96925	21473
7,97338	20955
7,97750	21680
7,98162	20893
7,98575	21368
7,98987	20340
7,99398	21311
7,99812	22077
8,00223	20644
8,00635	21441
8,01048	21302
8,01460	21485
8,01872	21196
8,02285	19891
8,02697	21825
8,03108	20604
8,03520	21558
8,03933	21446
8,04345	21026
8,04757	24345
8,05170	29145
8,05582	43004
8,05993	65492
8,06407	111948
8,06818	185064
8,07230	296902
8,07643	459041
8,08055	660678
8,08467	894516
8,08880	1153178
8,09292	1363462
8,09703	1587800
8,10117	1697353
8,10528	1774488
8,10940	1788404
8,11353	1746958
8,11765	1674157
8,12177	1578176
8,12588	1481151
8,13002	1363258
8,13413	1254247
8,13825	1125679
8,14238	1024143
8,14650	922695
8,15062	815207
8,15475	714214
8,15887	639679
8,16298	558116
8,16712	483839
8,17123	412727
8,17535	354298
8,17948	307343
8,18360	265787
8,18772	224079
8,19185	199852
8,19597	174219
8,20008	150591
8,20422	134652
8,20833	116877
8,21245	108288
8,21657	94876
8,22070	87728
8,22482	79140
8,22893	70940
8,23307	68846
8,23718	61974
8,24130	57298
8,24543	55254
8,24955	52454
8,25367	49568
8,25780	47824
8,26192	47058
8,26603	43109
8,27017	40646
8,27428	39036
8,27840	39771
8,28253	37655
8,28665	33884
8,29077	35187
8,29490	33859
8,29902	32833
8,30313	32007
8,30725	31590
8,31138	31056
8,31550	29840
8,31962	29066
8,32375	28749
8,32787	28807
8,33198	30316
8,33612	28072
8,34023	27494
8,34435	25708
8,34848	28119
8,35260	26928
8,35672	27433
8,36085	24721
8,36497	25110
8,36908	25008
8,37322	25841
8,37733	24440
8,38145	24727
8,38558	23113
8,38970	25198
8,39382	24560
8,39793	22843
8,40207	22698
8,40618	23603
8,41030	22618
8,41443	23180
8,41855	21032
8,42267	21673
8,42680	20538
8,43092	22336
8,43503	19749
8,43917	22174
8,44328	19426
8,44740	20302
8,45153	20534
8,45565	21304
8,45977	20600
8,46390	20635
8,46802	20115
8,47213	19527
8,47627	19447
8,48038	20341
8,48450	20584
8,48862	19480
8,49275	19584
8,49687	19813
8,50098	19360
8,50512	19197
8,50923	19211
8,51335	19835
8,51748	19543
8,52160	20179
8,52572	18973
8,52985	18455
8,53397	19473
8,53808	18159
8,54222	19904
8,54633	19422
8,55045	18488
8,55458	18761
8,55870	18813
8,56282	18125
8,56695	17812
8,57107	18097
8,57518	18845
8,57930	18961
8,58343	18120
8,58755	18150
8,59167	17796
8,59580	17815
8,59992	18232
8,60403	18625
8,60817	18441
8,61228	18784
8,61640	18177
8,62053	19664
8,62465	17698
8,62877	18871
8,63290	17548
8,63702	18905
8,64113	17773
8,64527	18795
8,64938	17970
8,65350	19040
8,65763	18519
8,66175	17761
8,66587	18375
8,66998	17941
8,67412	17414
8,67823	17895
8,68235	17257
8,68648	18803
8,69060	17826
8,69472	17678
8,69885	17215
8,70297	18404
8,70708	16659
8,71122	17587
8,71533	16853
8,71945	18528
8,72358	17081
8,72770	18239
8,73182	16897
8,73595	16804
8,74007	16013
8,74418	17056
8,74832	17385
8,75243	17470
8,75655	18198
8,76067	17839
8,76480	19380
8,76892	18300
8,77303	20485
8,77717	21344
8,78128	21138
8,78540	19696
8,78953	20925
8,79365	20995
8,79777	22396
8,80190	21241
8,80602	20221
8,81013	20603
8,81427	19431
8,81838	20900
8,82250	19712
8,82663	20169
8,83075	19183
8,83487	19994
8,83900	19096
8,84312	18661
8,84723	19564
8,85135	17838
8,85548	18856
8,85960	16843
8,86372	16661
8,86785	17900
8,87197	16513
8,87608	16355
8,88022	16584
8,88433	17511
8,88845	16984
8,89258	17003
8,89670	16561
8,90082	17661
8,90495	15607
8,90907	15822
8,91318	16205
8,91732	17583
8,92143	18673
8,92555	23545
8,92968	33473
8,93380	50402
8,93792	79796
8,94203	131493
8,94617	205944
8,95028	303915
8,95440	427401
8,95853	569689
8,96265	714141
8,96677	837871
8,97090	940098
8,97502	1019850
8,97913	1052303
8,98327	1055584
8,98738	1003100
8,99150	948827
8,99563	870702
8,99975	797885
9,00387	703696
9,00800	626980
9,01212	541854
9,01623	473373
9,02037	394455
9,02448	335813
9,02860	285807
9,03272	242426
9,03685	205875
9,04097	177711
9,04508	148049
9,04922	128109
9,05333	109769
9,05745	94713
9,06158	83581
9,06570	76220
9,06982	65848
9,07395	60265
9,07807	55032
9,08218	51569
9,08632	47900
9,09043	42557
9,09455	41852
9,09868	39654
9,10280	38192
9,10692	36337
9,11105	34113
9,11517	32652
9,11928	30196
9,12340	30250
9,12753	28374
9,13165	26435
9,13577	26746
9,13990	27242
9,14402	26506
9,14813	24384
9,15227	24683
9,15638	24342
9,16050	22337
9,16463	23059
9,16875	21887
9,17287	21953
9,17700	21277
9,18112	20982
9,18523	20408
9,18937	19546
9,19348	19753
9,19760	19618
9,20173	20298
9,20585	18704
9,20997	19032
9,21408	18218
9,21822	18272
9,22233	18847
9,22645	17550
9,23058	16833
9,23470	17225
9,23882	18121
9,24295	17863
9,24707	16738
9,25118	15810
9,25532	14846
9,25943	16989
9,26355	15953
9,26768	16616
9,27180	15907
9,27592	16260
9,28005	17135
9,28417	15807
9,28828	17120
9,29242	16024
9,29653	15626
9,30065	16165
9,30478	16354
9,30890	16327
9,31302	15057
9,31713	15139
9,32127	16779
9,32538	14872
9,32950	16120
9,33363	14420
9,33775	14461
9,34187	14929
9,34600	14359
9,35012	15620
9,35423	15452
9,35837	16056
9,36248	13544
9,36660	14381
9,37073	15982
9,37485	15127
9,37897	15065
9,38310	14670
9,38722	15822
9,39133	15322
9,39547	16324
9,39958	17588
9,40370	16150
9,40782	18303
9,41195	16450
9,41607	19317
9,42018	19401
9,42432	18974
9,42843	22395
9,43255	20261
9,43668	19588
9,44080	19277
9,44492	19438
9,44905	17755
9,45317	17186
9,45728	18263
9,46142	16156
9,46553	17109
9,46965	16251
9,47378	14452
9,47790	15162
9,48202	14624
9,48615	14888
9,49027	14838
9,49438	14578
9,49850	14367
9,50263	14081
9,50675	15185
9,51087	13180
9,51500	13582
9,51912	15069
9,52323	13264
9,52737	13690
9,53148	12787
9,53560	15452
9,53973	13905
9,54385	13821
9,54797	13874
9,55210	13653
9,55622	14143
9,56033	14165
9,56447	13436
9,56858	14046
9,57270	14929
9,57683	13663
9,58095	14093
9,58507	13218
9,58918	11897
9,59332	12332
9,59743	13048
9,60155	13363
9,60568	14375
9,60980	14372
9,61392	14832
9,61805	15312
9,62217	14822
9,62628	17100
9,63042	16316
9,63453	17195
9,63865	18787
9,64278	18663
9,64690	17973
9,65102	19828
9,65515	19806
9,65927	18652
9,66338	18985
9,66752	19009
9,67163	18576
9,67575	16529
9,67987	17156
9,68400	16940
9,68812	16431
9,69223	16369
9,69637	17339
9,70048	15311
9,70460	15800
9,70873	14771
9,71285	15696
9,71697	14879
9,72110	15540
9,72522	13632
9,72933	14589
9,73347	14160
9,73758	13371
9,74170	14078
9,74583	13911
9,74995	13771
9,75407	12955
9,75820	12142
9,76232	13351
9,76643	13442
9,77055	14102
9,77468	13764
9,77880	13385
9,78292	12596
9,78705	13580
9,79117	11955
9,79528	12694
9,79942	13288
9,80353	12287
9,80765	12305
9,81178	12493
9,81590	13015
9,82002	12719
9,82415	12880
9,82827	13911
9,83238	15597
9,83652	18809
9,84063	27617
9,84475	43166
9,84888	74922
9,85300	129891
9,85712	235655
9,86123	381029
9,86537	597450
9,86948	868799
9,87360	1194151
9,87773	1545825
9,88185	1873617
9,88597	2144725
9,89010	2336150
9,89422	2439231
9,89833	2466297
9,90247	2374969
9,90658	2193873
9,91070	1973763
9,91483	1717880
9,91895	1486588
9,92307	1246065
9,92720	1032084
9,93132	847103
9,93543	691852
9,93957	568817
9,94368	463184
9,94780	384648
9,95192	317678
9,95605	264398
9,96017	229841
9,96428	198990
9,96842	171424
9,97253	150424
9,97665	131163
9,98078	122602
9,98490	111400
9,98902	104776
9,99315	93930
9,99727	86449
10,00138	79362
10,00552	75508
10,00963	68155
10,01375	61956
10,01788	58453
10,02200	54566
10,02612	53883
10,03025	48162
10,03437	47426
10,03848	45194
10,04260	39569
10,04673	39846
10,05085	37075
10,05497	35685
10,05910	32058
10,06322	32060
10,06733	31684
10,07147	30478
10,07558	28919
10,07970	27483
10,08383	27857
10,08795	25222
10,09207	25385
10,09620	24836
10,10032	24382
10,10443	22994
10,10857	22323
10,11268	22567
10,11680	21859
10,12093	22062
10,12505	21619
10,12917	21326
10,13328	21906
10,13742	21227
10,14153	21426
10,14565	20129
10,14978	20387
10,15390	18806
10,15802	19133
10,16215	18882
10,16627	21654
10,17038	19564
10,17452	20952
10,17863	21469
10,18275	20570
10,18688	21127
10,19100	20075
10,19512	21214
10,19925	20586
10,20337	20360
10,20748	19721
10,21162	18784
10,21573	19873
10,21985	17549
10,22397	16607
10,22810	17359
10,23222	17764
10,23633	15921
10,24047	16036
10,24458	15621
10,24870	16235
10,25283	15070
10,25695	14335
10,26107	15454
10,26520	15369
10,26932	14590
10,27343	15041
10,27757	14788
10,28168	13079
10,28580	13186
10,28993	14344
10,29405	12412
10,29817	13459
10,30230	13398
10,30642	13977
10,31053	13858
10,31465	12846
10,31878	14694
10,32290	13699
10,32702	15501
10,33115	15568
10,33527	14957
10,33938	17230
10,34352	16434
10,34763	17850
10,35175	17133
10,35588	17234
10,36000	16349
10,36412	17355
10,36825	17305
10,37237	16405
10,37648	15633
10,38062	15696
10,38473	12435
10,38885	14634
10,39298	14025
10,39710	13841
10,40122	13588
10,40533	13120
10,40947	12705
10,41358	12319
10,41770	13053
10,42183	13704
10,42595	12527
10,43007	12592
10,43420	12883
10,43832	13568
10,44243	12235
10,44657	12416
10,45068	13309
10,45480	12149
10,45893	11917
10,46305	12709
10,46717	12916
10,47130	12866
10,47542	13073
10,47953	13430
10,48367	10938
10,48778	12889
10,49190	11287
10,49602	11892
10,50015	13770
10,50427	12536
10,50838	12709
10,51252	13240
10,51663	16434
10,52075	22819
10,52488	34031
10,52900	57919
10,53312	93617
10,53725	151715
10,54137	242479
10,54548	371063
10,54962	523140
10,55373	692333
10,55785	860920
10,56198	993981
10,56610	1118884
10,57022	1171934
10,57435	1172455
10,57847	1134992
10,58258	1064587
10,58670	957533
10,59083	844775
10,59495	720639
10,59907	608132
10,60320	516196
10,60732	424771
10,61143	351168
10,61557	290818
10,61968	244113
10,62380	203707
10,62793	173051
10,63205	150214
10,63617	129571
10,64030	111961
10,64442	100005
10,64853	86321
10,65267	80505
10,65678	70705
10,66090	62410
10,66503	57534
10,66915	52984
10,67327	46892
10,67738	43922
10,68152	41405
10,68563	37512
10,68975	35511
10,69388	34797
10,69800	32815
10,70212	32515
10,70625	30708
10,71037	27762
10,71448	27210
10,71862	29193
10,72273	25190
10,72685	25192
10,73098	25200
10,73510	22904
10,73922	22067
10,74335	21971
10,74747	21493
10,75158	21025
10,75572	19539
10,75983	19037
10,76395	19583
10,76807	20413
10,77220	20967
10,77632	27027
10,78043	33572
10,78457	54757
10,78868	89894
10,79280	150933
10,79693	245786
10,80105	363214
10,80517	543284
10,80930	724105
10,81342	938594
10,81753	1129227
10,82167	1268226
10,82578	1350855
10,82990	1378534
10,83403	1340915
10,83815	1233744
10,84227	1112638
10,84640	947564
10,85052	816474
10,85463	670815
10,85877	547314
10,86288	450817
10,86700	363036
10,87112	292706
10,87525	237436
10,87937	202937
10,88348	166361
10,88762	141707
10,89173	121076
10,89585	104436
10,89998	89829
10,90410	83483
10,90822	74071
10,91235	67977
10,91647	61207
10,92058	53740
10,92472	51129
10,92883	46328
10,93295	42494
10,93708	40004
10,94120	39100
10,94532	37785
10,94945	36087
10,95357	32053
10,95768	31670
10,96180	29333
10,96593	28981
10,97005	27351
10,97417	26241
10,97830	25555
10,98242	24776
10,98653	24204
10,99067	23196
10,99478	21592
10,99890	22376
11,00303	21055
11,00715	19414
11,01127	20171
11,01540	18682
11,01952	18693
11,02363	18785
11,02777	19352
11,03188	18326
11,03600	17315
11,04013	16637
11,04425	16547
11,04837	16494
11,05248	15812
11,05662	15953
11,06073	16932
11,06485	15536
11,06898	15083
11,07310	14707
11,07722	13666
11,08135	14966
11,08547	14813
11,08958	13391
11,09372	13432
11,09783	12327
11,10195	13524
11,10608	12648
11,11020	13637
11,11432	15092
11,11845	13463
11,12257	12646
11,12668	13049
11,13082	12623
11,13493	12161
11,13905	13203
11,14317	13550
11,14730	13315
11,15142	12121
11,15553	12864
11,15967	12562
11,16378	13534
11,16790	12429
11,17203	12395
11,17615	12883
11,18027	12443
11,18440	11669
11,18852	11832
11,19263	11445
11,19677	10835
11,20088	11539
11,20500	11252
11,20913	11840
11,21325	11147
11,21737	10734
11,22150	11150
11,22562	10899
11,22973	10177
11,23385	11723
11,23798	12198
11,24210	10688
11,24622	11774
11,25035	10705
11,25447	10192
11,25858	10016
11,26272	10473
11,26683	11458
11,27095	12186
11,27508	11861
11,27920	11123
11,28332	10628
11,28745	11071
11,29157	11756
11,29568	10525
11,29982	12071
11,30393	10679
11,30805	12181
11,31218	12031
11,31630	11770
11,32042	10810
11,32453	11662
11,32867	10479
11,33278	12146
11,33690	12257
11,34103	12372
11,34515	10876
11,34927	11965
11,35340	11282
11,35752	10938
11,36163	10747
11,36577	10325
11,36988	10954
11,37400	10879
11,37813	9719
11,38225	10555
11,38637	10501
11,39050	10360
11,39462	10732
11,39873	10840
11,40287	9670
11,40698	10357
11,41110	9327
11,41522	10121
11,41935	9887
11,42347	9648
11,42758	10234
11,43172	11895
11,43583	11680
11,43995	10829
11,44408	10538
11,44820	12041
11,45232	11800
11,45645	12290
11,46057	13561
11,46468	19099
11,46882	30044
11,47293	51364
11,47705	85299
11,48118	144111
11,48530	235259
11,48942	366404
11,49355	531810
11,49767	716807
11,50178	908097
11,50590	1095772
11,51003	1241523
11,51415	1311523
11,51827	1329925
11,52240	1271481
11,52652	1161200
11,53063	1024188
11,53477	888168
11,53888	750396
11,54300	617644
11,54713	504384
11,55125	405169
11,55537	330028
11,55950	267197
11,56362	223059
11,56773	184100
11,57187	152747
11,57598	134209
11,58010	114173
11,58423	100249
11,58835	85601
11,59247	77825
11,59658	69134
11,60072	63619
11,60483	58211
11,60895	53780
11,61308	49013
11,61720	45260
11,62132	40781
11,62545	38878
11,62957	35284
11,63368	33974
11,63782	33233
11,64193	32072
11,64605	29073
11,65018	29356
11,65430	27572
11,65842	25826
11,66255	23798
11,66667	25252
11,67078	22998
11,67492	23353
11,67903	21866
11,68315	22243
11,68727	21697
11,69140	19791
11,69552	20951
11,69963	21489
11,70377	21211
11,70788	26925
11,71200	35184
11,71613	58277
11,72025	105301
11,72437	190067
11,72850	336041
11,73262	563665
11,73673	904477
11,74087	1361147
11,74498	1898335
11,74910	2532111
11,75323	3164958
11,75735	3765467
11,76147	4265727
11,76560	4533906
11,76972	4571083
11,77383	4368307
11,77795	3946542
11,78208	3409241
11,78620	2834627
11,79032	2317146
11,79445	1836297
11,79857	1456032
11,80268	1163215
11,80682	937782
11,81093	749571
11,81505	608598
11,81918	503509
11,82330	416703
11,82742	362616
11,83155	309625
11,83567	269176
11,83978	238423
11,84392	208505
11,84803	189015
11,85215	170264
11,85628	153601
11,86040	137906
11,86452	124903
11,86863	113082
11,87277	107571
11,87688	98998
11,88100	93088
11,88513	86600
11,88925	79288
11,89337	74270
11,89750	70249
11,90162	63847
11,90573	61182
11,90987	61556
11,91398	56500
11,91810	52300
11,92223	50894
11,92635	47636
11,93047	46621
11,93460	43895
11,93872	41208
11,94283	40505
11,94697	38547
11,95108	36511
11,95520	33522
11,95932	32852
11,96345	32198
11,96757	32121
11,97168	29186
11,97582	27729
11,97993	29809
11,98405	27559
11,98818	26478
11,99230	27376
11,99642	25283
12,00055	25724
12,00467	23811
12,00878	23487
12,01292	22494
12,01703	22466
12,02115	22812
12,02528	22137
12,02940	20385
12,03352	19215
12,03765	19189
12,04177	19783
12,04588	19441
12,05000	19232
12,05413	18015
12,05825	18585
12,06237	18108
12,06650	18303
12,07062	17630
12,07473	17425
12,07887	17689
12,08298	16125
12,08710	15871
12,09123	16959
12,09535	15819
12,09947	16123
12,10360	16229
12,10772	15672
12,11183	16791
12,11597	16979
12,12008	16585
12,12420	16217
12,12833	17192
12,13245	16119
12,13657	15331
12,14068	15725
12,14482	16452
12,14893	15753
12,15305	15297
12,15718	14333
12,16130	14460
12,16542	13245
12,16955	14939
12,17367	13846
12,17778	13232
12,18192	14918
12,18603	13970
12,19015	13265
12,19428	13019
12,19840	12832
12,20252	12624
12,20665	12725
12,21077	13105
12,21488	13558
12,21902	13980
12,22313	13773
12,22725	14069
12,23137	13495
12,23550	15478
12,23962	14231
12,24373	14064
12,24787	14889
12,25198	14910
12,25610	14092
12,26023	14288
12,26435	13590
12,26847	13910
12,27260	16517
12,27672	19793
12,28083	30168
12,28497	47354
12,28908	79915
12,29320	137193
12,29733	219066
12,30145	336889
12,30557	507385
12,30970	709105
12,31382	925013
12,31793	1131831
12,32205	1302121
12,32618	1402722
12,33030	1397488
12,33442	1359972
12,33855	1237500
12,34267	1112223
12,34678	938426
12,35092	782820
12,35503	638026
12,35915	520421
12,36328	421439
12,36740	346423
12,37152	279441
12,37565	230230
12,37977	192994
12,38388	165527
12,38802	136607
12,39213	122032
12,39625	107766
12,40038	94211
12,40450	84309
12,40862	79673
12,41273	70582
12,41687	67532
12,42098	64225
12,42510	60189
12,42923	57698
12,43335	59740
12,43747	56079
12,44160	55745
12,44572	56788
12,44983	52998
12,45397	50799
12,45808	47111
12,46220	43678
12,46633	40756
12,47045	39429
12,47457	34632
12,47870	32541
12,48282	30297
12,48693	29069
12,49107	25919
12,49518	25872
12,49930	24854
12,50343	24002
12,50755	23159
12,51167	22693
12,51578	23132
12,51992	22312
12,52403	18979
12,52815	19198
12,53228	17938
12,53640	17147
12,54052	18993
12,54465	18579
12,54877	18867
12,55288	17716
12,55702	19283
12,56113	19196
12,56525	17205
12,56938	17430
12,57350	16563
12,57762	16303
12,58175	15798
12,58587	14831
12,58998	15983
12,59412	14950
12,59823	14746
12,60235	15960
12,60647	13057
12,61060	14044
12,61472	13019
12,61883	13300
12,62297	14762
12,62708	13517
12,63120	16040
12,63533	19181
12,63945	27121
12,64357	44761
12,64770	74797
12,65182	136558
12,65593	232588
12,66007	366796
12,66418	548091
12,66830	765899
12,67243	1016051
12,67655	1238333
12,68067	1450920
12,68480	1555570
12,68892	1594622
12,69303	1543961
12,69715	1422758
12,70128	1247740
12,70540	1064245
12,70952	873308
12,71365	715041
12,71777	563773
12,72188	453100
12,72602	371363
12,73013	305072
12,73425	247059
12,73838	203861
12,74250	171377
12,74662	149698
12,75075	127858
12,75487	111999
12,75898	98394
12,76312	88809
12,76723	78590
12,77135	72341
12,77548	65433
12,77960	61231
12,78372	54641
12,78783	50422
12,79197	48682
12,79608	44188
12,80020	40221
12,80433	40593
12,80845	38364
12,81257	34057
12,81670	33514
12,82082	33468
12,82493	29133
12,82907	27702
12,83318	28682
12,83730	27105
12,84143	26498
12,84555	24950
12,84967	23681
12,85380	23320
12,85792	22598
12,86203	22717
12,86617	20648
12,87028	21283
12,87440	21118
12,87852	19262
12,88265	19519
12,88677	21730
12,89088	19442
12,89502	19959
12,89913	18781
12,90325	18392
12,90738	18550
12,91150	17874
12,91562	17380
12,91975	17955
12,92387	16531
12,92798	15717
12,93212	16375
12,93623	15329
12,94035	15357
12,94448	15736
12,94860	15424
12,95272	16130
12,95685	14635
12,96097	15319
12,96508	14640
12,96920	14841
12,97333	13978
12,97745	14008
12,98157	14359
12,98570	13651
12,98982	13487
12,99393	14066
12,99807	14989
13,00218	13697
13,00630	13127
13,01043	14467
13,01455	13756
13,01867	13752
13,02280	13630
13,02692	13226
13,03103	14362
13,03517	13076
13,03928	13068
13,04340	12375
13,04753	12020
13,05165	12658
13,05577	13620
13,05988	12502
13,06402	11956
13,06813	11487
13,07225	10875
13,07638	11607
13,08050	12041
13,08462	11699
13,08875	11466
13,09287	12469
13,09698	11655
13,10112	11776
13,10523	11651
13,10935	10286
13,11348	11126
13,11760	12069
13,12172	12732
13,12585	11066
13,12997	11022
13,13408	11408
13,13822	10803
13,14233	11835
13,14645	11315
13,15057	11261
13,15470	12325
13,15882	11402
13,16293	12355
13,16707	11156
13,17118	13828
13,17530	13148
13,17943	12647
13,18355	13320
13,18767	14878
13,19180	18151
13,19592	23052
13,20003	35345
13,20417	56067
13,20828	97327
13,21240	168037
13,21653	269121
13,22065	420205
13,22477	616373
13,22890	838814
13,23302	1088370
13,23713	1288206
13,24125	1447766
13,24538	1523841
13,24950	1508399
13,25362	1441282
13,25775	1295278
13,26187	1129254
13,26598	938751
13,27012	773724
13,27423	628272
13,27835	501180
13,28248	408009
13,28660	336603
13,29072	269898
13,29485	220859
13,29897	187477
13,30308	164945
13,30722	139275
13,31133	120520
13,31545	107694
13,31958	95958
13,32370	86117
13,32782	77137
13,33193	71412
13,33607	64600
13,34018	60973
13,34430	54676
13,34843	51856
13,35255	48831
13,35667	44000
13,36080	39797
13,36492	38315
13,36903	36759
13,37317	35511
13,37728	33355
13,38140	30666
13,38553	32061
13,38965	29834
13,39377	27618
13,39790	25410
13,40202	26290
13,40613	25858
13,41027	23502
13,41438	23559
13,41850	21900
13,42262	22195
13,42675	21363
13,43087	19855
13,43498	20484
13,43912	18670
13,44323	19453
13,44735	18580
13,45148	17413
13,45560	18446
13,45972	16881
13,46385	17464
13,46797	17880
13,47208	17817
13,47622	16844
13,48033	19825
13,48445	19156
13,48858	22452
13,49270	22340
13,49682	25508
13,50095	26241
13,50507	27833
13,50918	29478
13,51330	30224
13,51743	29457
13,52155	28091
13,52567	27528
13,52980	26174
13,53392	27448
13,53803	28488
13,54217	37384
13,54628	50892
13,55040	86271
13,55453	149407
13,55865	256446
13,56277	430319
13,56690	682077
13,57102	1048192
13,57513	1472871
13,57927	1956182
13,58338	2451595
13,58750	2915890
13,59163	3277424
13,59575	3465296
13,59987	3460860
13,60398	3244293
13,60812	2944933
13,61223	2519835
13,61635	2086924
13,62048	1679419
13,62460	1334731
13,62872	1071905
13,63285	855421
13,63697	685953
13,64108	563673
13,64522	461486
13,64933	388123
13,65345	328937
13,65758	284056
13,66170	246361
13,66582	222139
13,66995	195817
13,67407	172558
13,67818	157430
13,68232	140185
13,68643	129782
13,69055	117178
13,69467	108577
13,69880	101026
13,70292	93487
13,70703	86459
13,71117	81295
13,71528	74959
13,71940	69439
13,72353	67518
13,72765	63438
13,73177	55709
13,73590	55267
13,74002	51059
13,74413	49460
13,74827	47709
13,75238	44717
13,75650	42906
13,76063	43187
13,76475	38921
13,76887	37409
13,77300	36263
13,77712	35365
13,78123	33973
13,78535	33528
13,78948	31523
13,79360	30555
13,79772	28539
13,80185	27529
13,80597	29021
13,81008	26679
13,81422	26315
13,81833	24181
13,82245	25704
13,82658	25927
13,83070	24001
13,83482	22697
13,83895	23840
13,84307	23971
13,84718	23609
13,85132	24639
13,85543	29531
13,85955	38685
13,86368	54405
13,86780	92543
13,87192	157520
13,87603	254704
13,88017	391175
13,88428	588099
13,88840	827393
13,89253	1071787
13,89665	1290173
13,90077	1489980
13,90490	1595051
13,90902	1630530
13,91313	1573718
13,91727	1459787
13,92138	1281037
13,92550	1082456
13,92963	907356
13,93375	748727
13,93787	606852
13,94200	491593
13,94612	399272
13,95023	330036
13,95437	272234
13,95848	230609
13,96260	193171
13,96672	172395
13,97085	145635
13,97497	130356
13,97908	116628
13,98322	104401
13,98733	95160
13,99145	87694
13,99558	81202
13,99970	72999
14,00382	65100
14,00795	66590
14,01207	63655
14,01618	68389
14,02032	86190
14,02443	115177
14,02855	179277
14,03268	293396
14,03680	469035
14,04092	726317
14,04505	1073156
14,04917	1486586
14,05328	1989220
14,05740	2488920
14,06153	2903894
14,06565	3203841
14,06977	3327781
14,07390	3271585
14,07802	3043703
14,08213	2693173
14,08627	2295992
14,09038	1895558
14,09450	1554319
14,09863	1251308
14,10275	1006354
14,10687	817615
14,11100	655392
14,11512	545475
14,11923	456857
14,12337	383456
14,12748	333934
14,13160	284093
14,13573	253693
14,13985	226708
14,14397	199781
14,14810	178000
14,15222	162912
14,15633	151627
14,16045	136834
14,16458	124165
14,16870	113463
14,17282	104835
14,17695	97892
14,18107	91750
14,18518	86275
14,18932	80801
14,19343	78158
14,19755	72065
14,20168	69801
14,20580	66879
14,20992	61532
14,21405	60703
14,21817	58952
14,22228	53552
14,22642	50827
14,23053	46019
14,23465	48087
14,23878	44521
14,24290	42981
14,24702	40957
14,25113	39763
14,25527	36723
14,25938	35776
14,26350	36408
14,26763	36070
14,27175	35237
14,27587	34640
14,28000	33391
14,28412	30847
14,28823	28498
14,29237	29905
14,29648	28124
14,30060	26280
14,30473	28371
14,30885	25218
14,31297	25189
14,31710	25760
14,32122	24075
14,32533	25224
14,32947	25191
14,33358	24362
14,33770	22983
14,34182	23382
14,34595	21218
14,35007	22400
14,35418	20978
14,35832	20455
14,36243	21269
14,36655	21538
14,37068	23280
14,37480	29100
14,37892	39396
14,38305	58603
14,38717	95309
14,39128	164654
14,39542	268861
14,39953	416242
14,40365	616417
14,40778	841180
14,41190	1082468
14,41602	1286052
14,42015	1441730
14,42427	1525797
14,42838	1548323
14,43250	1506772
14,43663	1489083
14,44075	1450251
14,44487	1516139
14,44900	1662297
14,45312	1950127
14,45723	2308130
14,46137	2727931
14,46548	3156783
14,46960	3501294
14,47373	3672155
14,47785	3682414
14,48197	3482109
14,48610	3128201
14,49022	2667190
14,49433	2213924
14,49847	1814075
14,50258	1449974
14,50670	1175713
14,51083	952740
14,51495	771025
14,51907	645243
14,52318	538255
14,52732	456484
14,53143	396174
14,53555	345507
14,53968	306450
14,54380	267195
14,54792	239221
14,55205	214221
14,55617	201631
14,56028	179602
14,56442	166025
14,56853	151602
14,57265	141872
14,57678	131944
14,58090	121337
14,58502	113198
14,58915	107315
14,59327	100067
14,59738	93550
14,60152	89865
14,60563	86392
14,60975	80461
14,61387	78293
14,61800	75145
14,62212	71287
14,62623	69132
14,63037	64001
14,63448	63083
14,63860	59136
14,64273	57621
14,64685	56368
14,65097	54477
14,65510	48643
14,65922	49136
14,66333	46621
14,66747	47247
14,67158	46496
14,67570	44869
14,67983	43441
14,68395	43770
14,68807	41389
14,69220	39367
14,69632	38806
14,70043	38444
14,70455	37680
14,70868	33264
14,71280	33831
14,71692	31863
14,72105	31290
14,72517	29975
14,72928	30330
14,73342	28453
14,73753	33115
14,74165	36228
14,74578	44297
14,74990	68220
14,75402	108735
14,75815	170695
14,76227	277820
14,76638	421222
14,77052	610289
14,77463	823059
14,77875	1041873
14,78288	1238600
14,78700	1377734
14,79112	1434827
14,79523	1438416
14,79937	1348120
14,80348	1215916
14,80760	1054901
14,81173	892230
14,81585	747647
14,81997	613197
14,82410	496396
14,82822	404408
14,83233	336469
14,83647	279301
14,84058	235235
14,84470	199759
14,84883	173269
14,85295	149359
14,85707	135544
14,86120	121503
14,86532	109097
14,86943	100169
14,87357	91867
14,87768	80159
14,88180	76011
14,88592	70656
14,89005	68985
14,89417	63767
14,89828	61173
14,90242	56347
14,90653	52913
14,91065	51256
14,91478	50422
14,91890	47242
14,92302	46792
14,92715	45044
14,93127	47910
14,93538	41859
14,93952	41532
14,94363	40087
14,94775	40147
14,95188	39622
14,95600	35266
14,96012	34609
14,96425	34102
14,96837	33945
14,97248	34160
14,97660	31325
14,98073	30855
14,98485	30100
14,98897	30081
14,99310	27428
14,99722	27462
15,00133	27375
15,00547	25628
15,00958	25766
15,01370	26490
15,01783	26212
15,02195	24163
15,02607	24862
15,03020	24501
15,03432	22354
15,03843	21936
15,04257	21270
15,04668	24697
15,05080	22565
15,05493	19660
15,05905	22075
15,06317	21930
15,06728	19567
15,07142	20624
15,07553	20831
15,07965	19273
15,08378	20406
15,08790	20482
15,09202	19452
15,09615	19000
15,10027	19903
15,10438	18128
15,10852	19850
15,11263	19125
15,11675	17918
15,12088	17630
15,12500	18168
15,12912	18099
15,13325	18913
15,13737	18025
15,14148	17907
15,14562	19133
15,14973	18477
15,15385	17603
15,15797	17329
15,16210	18789
15,16622	18312
15,17033	16700
15,17447	16357
15,17858	15729
15,18270	16587
15,18683	17051
15,19095	15004
15,19507	17002
15,19920	18003
15,20332	17092
15,20743	17174
15,21157	16665
15,21568	17735
15,21980	16909
15,22393	16071
15,22805	16624
15,23217	16097
15,23630	14972
15,24042	14472
15,24453	16273
15,24865	17911
15,25278	23925
15,25690	32594
15,26102	49506
15,26515	80894
15,26927	136313
15,27338	227111
15,27752	355049
15,28163	543880
15,28575	781290
15,28988	1079389
15,29400	1406499
15,29812	1748187
15,30225	2129090
15,30637	2516674
15,31048	2939643
15,31462	3379474
15,31873	3778246
15,32285	4094691
15,32698	4349838
15,33110	4389724
15,33522	4247967
15,33933	3882871
15,34347	3379998
15,34758	2834669
15,35170	2334871
15,35583	1895174
15,35995	1530755
15,36407	1232460
15,36820	1003638
15,37232	840807
15,37643	696335
15,38057	589277
15,38468	503838
15,38880	444577
15,39293	390669
15,39705	345046
15,40117	310621
15,40530	277757
15,40942	255668
15,41353	228494
15,41767	211231
15,42178	193507
15,42590	182757
15,43002	160888
15,43415	151963
15,43827	143542
15,44238	133584
15,44652	127667
15,45063	118785
15,45475	110638
15,45888	106019
15,46300	100840
15,46712	98357
15,47125	96029
15,47537	91864
15,47948	92190
15,48362	88180
15,48773	89390
15,49185	88296
15,49598	85754
15,50010	81380
15,50422	78226
15,50835	77395
15,51247	71299
15,51658	69464
15,52070	66370
15,52483	61732
15,52895	60882
15,53307	57448
15,53720	54638
15,54132	51691
15,54543	49076
15,54957	47724
15,55368	49516
15,55780	44324
15,56193	43484
15,56605	41938
15,57017	44863
15,57430	48322
15,57842	59567
15,58253	75557
15,58667	108736
15,59078	165338
15,59490	249925
15,59903	375160
15,60315	534837
15,60727	713757
15,61138	906843
15,61552	1079724
15,61963	1204880
15,62375	1257519
15,62788	1270032
15,63200	1200588
15,63612	1088783
15,64025	945906
15,64437	810638
15,64848	679296
15,65262	562972
15,65673	456636
15,66085	376035
15,66498	317330
15,66910	259896
15,67322	223715
15,67735	188301
15,68147	163947
15,68558	150577
15,68972	129204
15,69383	114234
15,69795	101984
15,70207	97478
15,70620	89251
15,71032	82490
15,71443	79621
15,71857	76308
15,72268	72254
15,72680	79043
15,73093	93677
15,73505	119771
15,73917	176466
15,74330	262416
15,74742	391217
15,75153	571147
15,75567	809768
15,75978	1082948
15,76390	1337855
15,76803	1566532
15,77215	1704209
15,77627	1761173
15,78040	1716995
15,78452	1602527
15,78863	1435167
15,79277	1229988
15,79688	1028325
15,80100	859998
15,80512	705116
15,80925	579963
15,81337	481874
15,81748	400859
15,82162	343834
15,82573	290224
15,82985	254229
15,83398	222728
15,83810	196498
15,84222	181674
15,84635	162105
15,85047	147032
15,85458	134156
15,85872	123912
15,86283	112129
15,86695	107154
15,87108	100588
15,87520	93143
15,87932	87529
15,88345	83332
15,88757	76437
15,89168	74059
15,89580	69563
15,89993	68553
15,90405	61253
15,90817	60293
15,91230	58856
15,91642	55420
15,92053	54925
15,92467	49801
15,92878	50155
15,93290	48891
15,93703	46724
15,94115	45629
15,94527	42634
15,94940	41025
15,95352	39753
15,95763	39372
15,96177	38114
15,96588	38013
15,97000	37109
15,97413	36754
15,97825	36748
15,98237	34488
15,98648	34857
15,99062	33557
15,99473	32825
15,99885	30121
16,00298	32104
16,00710	33389
16,01122	30438
16,01535	30941
16,01947	28304
16,02358	28920
16,02772	27248
16,03183	29564
16,03595	31127
16,04008	28415
16,04420	27941
16,04832	29298
16,05245	28979
16,05657	26683
16,06068	26932
16,06482	28124
16,06893	25806
16,07305	27117
16,07717	24890
16,08130	27789
16,08542	26392
16,08953	25192
16,09367	27649
16,09778	28577
16,10190	36116
16,10603	50818
16,11015	78892
16,11427	132059
16,11840	213468
16,12252	349537
16,12663	542055
16,13077	782817
16,13488	1084061
16,13900	1372672
16,14313	1630513
16,14725	1817588
16,15137	1894884
16,15550	1869031
16,15962	1749732
16,16373	1551753
16,16785	1344057
16,17198	1121310
16,17610	911032
16,18022	754297
16,18435	614353
16,18847	516950
16,19258	434927
16,19672	364434
16,20083	319900
16,20495	274787
16,20908	242836
16,21320	214425
16,21732	192420
16,22145	176142
16,22557	155603
16,22968	144378
16,23382	134145
16,23793	124170
16,24205	115610
16,24618	106990
16,25030	99524
16,25442	96639
16,25853	87680
16,26267	84406
16,26678	78598
16,27090	77377
16,27503	75965
16,27915	72374
16,28327	70083
16,28740	66137
16,29152	65132
16,29563	62776
16,29977	61880
16,30388	60703
16,30800	56660
16,31213	55236
16,31625	52320
16,32037	50389
16,32450	49034
16,32862	46418
16,33273	46287
16,33687	45587
16,34098	45635
16,34510	43589
16,34922	41271
16,35335	41314
16,35747	39409
16,36158	39935
16,36572	39873
16,36983	37131
16,37395	36356
16,37808	37513
16,38220	36609
16,38632	34862
16,39045	32696
16,39457	34788
16,39868	32661
16,40282	35461
16,40693	34332
16,41105	34930
16,41518	38403
16,41930	44715
16,42342	61836
16,42755	92801
16,43167	147713
16,43578	235488
16,43990	368297
16,44403	551153
16,44815	770190
16,45227	1013754
16,45640	1250114
16,46052	1419539
16,46463	1524425
16,46877	1524732
16,47288	1475756
16,47700	1352696
16,48113	1192996
16,48525	1024364
16,48937	850009
16,49350	708728
16,49762	584577
16,50173	477396
16,50587	410401
16,50998	338481
16,51410	293053
16,51823	251518
16,52235	218809
16,52647	191932
16,53058	174636
16,53472	154703
16,53883	138112
16,54295	126052
16,54708	116402
16,55120	110542
16,55532	100711
16,55945	91772
16,56357	84028
16,56768	81826
16,57182	80223
16,57593	73906
16,58005	67429
16,58418	66536
16,58830	66847
16,59242	60778
16,59655	59809
16,60067	57335
16,60478	55817
16,60892	50841
16,61303	52759
16,61715	51778
16,62127	49700
16,62540	49207
16,62952	46538
16,63363	45636
16,63777	43527
16,64188	42398
16,64600	41606
16,65013	40791
16,65425	37036
16,65837	42249
16,66250	37741
16,66662	37550
16,67073	36036
16,67487	34628
16,67898	34916
16,68310	35369
16,68723	34155
16,69135	34376
16,69547	34986
16,69960	33043
16,70372	32195
16,70783	30083
16,71195	32970
16,71608	32112
16,72020	30434
16,72432	32373
16,72845	29878
16,73257	30388
16,73668	28489
16,74082	29590
16,74493	28983
16,74905	28580
16,75318	29308
16,75730	27626
16,76142	29612
16,76555	27898
16,76967	29131
16,77378	29137
16,77792	27986
16,78203	29527
16,78615	26248
16,79028	27843
16,79440	27378
16,79852	28961
16,80263	28537
16,80677	28445
16,81088	29944
16,81500	29154
16,81913	27895
16,82325	28825
16,82737	26870
16,83150	25857
16,83562	25966
16,83973	28184
16,84387	27256
16,84798	25861
16,85210	25347
16,85623	24872
16,86035	28369
16,86447	25531
16,86860	26478
16,87272	25949
16,87683	25282
16,88097	27015
16,88508	25735
16,88920	27126
16,89332	30151
16,89745	35559
16,90157	46805
16,90568	69210
16,90982	119908
16,91393	206241
16,91805	362087
16,92218	601106
16,92630	964052
16,93042	1441038
16,93455	2045925
16,93867	2754090
16,94278	3469512
16,94692	4159249
16,95103	4700602
16,95515	5127091
16,95928	5269855
16,96340	5059950
16,96752	4610049
16,97165	4024245
16,97577	3381495
16,97988	2806918
16,98400	2277047
16,98813	1871937
16,99225	1527538
16,99637	1260465
17,00050	1063762
17,00462	899581
17,00873	781343
17,01287	670210
17,01698	596239
17,02110	528673
17,02523	474319
17,02935	420919
17,03347	382288
17,03760	345636
17,04172	322893
17,04583	300717
17,04997	277442
17,05408	256094
17,05820	241247
17,06233	225678
17,06645	212109
17,07057	191230
17,07468	185324
17,07882	174965
17,08293	166720
17,08705	157539
17,09118	148011
17,09530	141937
17,09942	134380
17,10355	129693
17,10767	127757
17,11178	122725
17,11592	113743
17,12003	110191
17,12415	106222
17,12828	102281
17,13240	96279
17,13652	97120
17,14065	92674
17,14477	89315
17,14888	87574
17,15302	83113
17,15713	81896
17,16125	79132
17,16537	77876
17,16950	76912
17,17362	74247
17,17773	72599
17,18187	71942
17,18598	71062
17,19010	68149
17,19423	64653
17,19835	68383
17,20247	69520
17,20660	80146
17,21072	99393
17,21483	132042
17,21897	188377
17,22308	282118
17,22720	415691
17,23133	579706
17,23545	783788
17,23957	978532
17,24370	1176183
17,24782	1339513
17,25193	1418039
17,25605	1417202
17,26018	1361474
17,26430	1251066
17,26842	1129522
17,27255	992791
17,27667	889669
17,28078	821707
17,28492	795812
17,28903	829798
17,29315	914208
17,29728	1039045
17,30140	1180924
17,30552	1325316
17,30965	1408792
17,31377	1454149
17,31788	1449016
17,32202	1360597
17,32613	1263305
17,33025	1128102
17,33438	1013897
17,33850	906251
17,34262	843727
17,34675	843973
17,35087	887074
17,35498	1016319
17,35910	1184689
17,36323	1395378
17,36735	1619303
17,37147	1810560
17,37560	1933744
17,37972	1941764
17,38383	1878489
17,38797	1733301
17,39208	1556540
17,39620	1348977
17,40033	1149738
17,40445	968016
17,40857	827584
17,41270	695217
17,41682	600035
17,42093	516905
17,42507	460351
17,42918	402612
17,43330	360125
17,43743	326986
17,44155	290115
17,44567	272144
17,44978	245071
17,45392	227279
17,45803	211823
17,46215	197794
17,46628	185009
17,47040	177581
17,47452	165720
17,47865	158550
17,48277	148714
17,48688	141676
17,49102	133059
17,49513	129981
17,49925	121825
17,50338	116501
17,50750	113557
17,51162	107530
17,51575	105030
17,51987	101996
17,52398	96483
17,52812	92397
17,53223	92265
17,53635	88989
17,54047	84157
17,54460	83504
17,54872	79090
17,55283	80066
17,55697	76145
17,56108	77602
17,56520	69696
17,56933	72066
17,57345	71156
17,57757	69111
17,58170	66485
17,58582	67183
17,58993	65393
17,59407	63743
17,59818	63870
17,60230	62543
17,60643	61343
17,61055	63136
17,61467	58856
17,61880	59708
17,62292	57928
17,62703	58071
17,63115	54360
17,63528	56851
17,63940	56909
17,64352	54299
17,64765	55094
17,65177	53440
17,65588	55257
17,66002	53257
17,66413	55156
17,66825	59682
17,67238	69063
17,67650	87665
17,68062	119431
17,68475	186014
17,68887	271042
17,69298	419732
17,69712	601687
17,70123	840468
17,70535	1098677
17,70948	1393845
17,71360	1624106
17,71772	1800493
17,72183	1880766
17,72597	1826308
17,73008	1709045
17,73420	1528737
17,73833	1311319
17,74245	1125044
17,74657	948659
17,75070	795026
17,75482	668162
17,75893	577108
17,76307	505182
17,76718	431886
17,77130	386976
17,77543	334076
17,77955	302806
17,78367	275831
17,78780	257222
17,79192	233315
17,79603	214961
17,80017	196074
17,80428	187534
17,80840	175215
17,81252	167213
17,81665	157149
17,82077	151018
17,82488	141351
17,82902	135638
17,83313	131661
17,83725	122594
17,84138	124397
17,84550	115711
17,84962	112895
17,85375	107815
17,85787	102731
17,86198	101965
17,86612	98550
17,87023	96268
17,87435	94754
17,87848	90207
17,88260	89300
17,88672	84979
17,89085	84631
17,89497	83149
17,89908	80694
17,90320	77974
17,90733	79247
17,91145	73710
17,91557	76702
17,91970	70809
17,92382	71332
17,92793	70365
17,93207	69815
17,93618	66746
17,94030	66715
17,94443	62983
17,94855	66347
17,95267	65642
17,95680	62930
17,96092	63140
17,96503	64312
17,96917	65151
17,97328	62190
17,97740	66224
17,98153	69836
17,98565	78916
17,98977	92995
17,99388	126957
17,99802	187942
18,00213	285753
18,00625	417286
18,01038	604142
18,01450	835277
18,01862	1069980
18,02275	1282250
18,02687	1428795
18,03098	1537550
18,03512	1562901
18,03923	1509568
18,04335	1375764
18,04748	1227583
18,05160	1063024
18,05572	909446
18,05985	769769
18,06397	656632
18,06808	560892
18,07222	496843
18,07633	453756
18,08045	438682
18,08457	457090
18,08870	510249
18,09282	598061
18,09693	719860
18,10107	861597
18,10518	1020835
18,10930	1147131
18,11343	1241071
18,11755	1290531
18,12167	1278582
18,12580	1227049
18,12992	1120195
18,13403	984305
18,13817	864173
18,14228	739121
18,14640	632199
18,15053	542009
18,15465	460491
18,15877	400892
18,16290	344296
18,16702	304526
18,17113	272953
18,17525	241559
18,17938	214940
18,18350	200653
18,18762	182952
18,19175	171751
18,19587	159805
18,19998	152087
18,20412	142469
18,20823	131548
18,21235	126486
18,21648	123531
18,22060	118851
18,22472	112814
18,22885	107490
18,23297	105133
18,23708	94378
18,24122	95723
18,24533	91863
18,24945	88300
18,25358	89867
18,25770	85274
18,26182	83599
18,26593	80441
18,27007	78603
18,27418	78025
18,27830	77729
18,28243	74396
18,28655	72505
18,29067	72100
18,29480	70551
18,29892	68481
18,30303	69441
18,30717	68926
18,31128	68906
18,31540	64517
18,31953	64400
18,32365	63436
18,32777	66184
18,33190	64608
18,33602	62184
18,34013	61383
18,34427	60356
18,34838	59205
18,35250	58534
18,35662	58574
18,36075	59107
18,36487	56898
18,36898	58334
18,37312	56750
18,37723	55406
18,38135	54686
18,38548	53686
18,38960	55954
18,39372	53866
18,39785	53407
18,40197	52655
18,40608	54745
18,41022	53611
18,41433	57865
18,41845	60811
18,42258	75586
18,42670	95766
18,43082	135729
18,43495	195631
18,43907	290043
18,44318	440565
18,44730	658545
18,45143	938172
18,45555	1305964
18,45967	1712929
18,46380	2190814
18,46792	2674529
18,47203	3109887
18,47617	3429239
18,48028	3639526
18,48440	3584512
18,48853	3323043
18,49265	2935746
18,49677	2510915
18,50090	2091284
18,50502	1734679
18,50913	1448495
18,51327	1216140
18,51738	1035621
18,52150	889142
18,52563	785718
18,52975	690211
18,53387	611853
18,53798	545917
18,54212	492567
18,54623	455042
18,55035	415842
18,55448	383059
18,55860	355181
18,56272	329068
18,56685	308328
18,57097	286791
18,57508	270924
18,57922	259752
18,58333	244450
18,58745	232112
18,59158	225249
18,59570	208860
18,59982	201720
18,60395	196857
18,60807	184832
18,61218	179602
18,61632	173996
18,62043	166999
18,62455	160005
18,62867	155036
18,63280	148920
18,63692	148211
18,64103	143000
18,64517	137231
18,64928	133719
18,65340	135483
18,65753	125463
18,66165	123717
18,66577	120947
18,66990	121303
18,67402	115022
18,67813	114178
18,68227	111477
18,68638	109771
18,69050	107095
18,69463	103202
18,69875	103589
18,70287	103001
18,70700	99500
18,71112	98540
18,71523	96858
18,71935	94667
18,72348	93349
18,72760	93046
18,73172	92274
18,73585	88734
18,73997	87545
18,74408	87371
18,74822	83937
18,75233	80997
18,75645	82400
18,76058	81120
18,76470	80891
18,76882	80436
18,77295	80092
18,77707	78390
18,78118	76009
18,78532	75423
18,78943	76472
18,79355	77558
18,79768	74199
18,80180	76264
18,80592	74048
18,81003	71858
18,81417	73423
18,81828	80120
18,82240	74132
18,82653	78713
18,83065	89399
18,83477	101826
18,83890	131670
18,84302	171307
18,84713	243609
18,85127	344344
18,85538	491562
18,85950	673837
18,86363	900616
18,86775	1142442
18,87187	1353978
18,87600	1529302
18,88012	1633068
18,88423	1656986
18,88837	1590554
18,89248	1474713
18,89660	1321619
18,90072	1159471
18,90485	1003936
18,90897	869308
18,91308	752230
18,91722	653254
18,92133	567242
18,92545	501099
18,92958	454911
18,93370	407641
18,93782	363716
18,94195	334418
18,94607	308863
18,95018	283331
18,95432	264289
18,95843	247386
18,96255	231575
18,96668	222501
18,97080	207458
18,97492	199827
18,97905	185945
18,98317	180339
18,98728	171708
18,99142	161799
18,99553	155831
18,99965	152565
19,00377	146361
19,00790	140859
19,01202	138020
19,01613	131041
19,02027	126915
19,02438	124450
19,02850	120499
19,03263	116629
19,03675	116143
19,04087	113689
19,04500	111453
19,04912	108095
19,05323	102042
19,05737	102940
19,06148	101641
19,06560	95981
19,06973	98234
19,07385	93761
19,07797	91285
19,08210	92136
19,08622	94153
19,09033	87829
19,09445	86935
19,09858	88099
19,10270	83207
19,10682	82197
19,11095	85257
19,11507	84221
19,11918	82201
19,12332	82794
19,12743	81404
19,13155	80183
19,13568	78267
19,13980	76486
19,14392	76037
19,14805	75713
19,15217	72827
19,15628	73720
19,16042	76060
19,16453	73065
19,16865	73644
19,17278	69572
19,17690	71394
19,18102	71716
19,18513	70754
19,18927	74888
19,19338	68150
19,19750	69415
19,20163	71660
19,20575	70614
19,20987	68525
19,21400	67966
19,21812	68694
19,22223	68560
19,22637	69626
19,23048	67359
19,23460	66747
19,23873	65293
19,24285	68784
19,24697	67054
19,25110	68762
19,25522	74645
19,25933	82941
19,26347	89216
19,26758	97362
19,27170	105241
19,27582	117135
19,27995	122668
19,28407	130567
19,28818	135829
19,29232	138447
19,29643	134717
19,30055	128242
19,30468	126481
19,30880	115314
19,31292	110232
19,31705	105502
19,32117	94587
19,32528	87375
19,32942	83973
19,33353	77167
19,33765	78393
19,34178	74873
19,34590	70525
19,35002	67168
19,35415	68682
19,35827	66658
19,36238	67226
19,36650	64094
19,37063	63110
19,37475	61153
19,37887	60086
19,38300	61494
19,38712	60281
19,39123	58201
19,39537	55064
19,39948	58009
19,40360	56799
19,40773	57969
19,41185	56155
19,41597	55670
19,42010	55917
19,42422	56865
19,42833	56566
19,43247	59271
19,43658	53611
19,44070	56678
19,44483	55641
19,44895	54632
19,45307	55906
19,45718	52412
19,46132	58650
19,46543	56953
19,46955	55975
19,47368	53252
19,47780	54761
19,48192	56307
19,48605	54546
19,49017	56891
19,49428	53702
19,49842	52312
19,50253	52259
19,50665	53278
19,51078	53865
19,51490	54151
19,51902	52214
19,52315	54024
19,52727	52475
19,53138	53289
19,53552	51496
19,53963	53117
19,54375	53158
19,54787	49620
19,55200	51320
19,55612	51284
19,56023	51528
19,56437	51284
19,56848	50126
19,57260	50523
19,57673	49689
19,58085	50515
19,58497	54315
19,58910	51519
19,59322	51663
19,59733	51178
19,60147	53128
19,60558	52114
19,60970	51101
19,61383	49280
19,61795	52775
19,62207	50230
19,62620	50155
19,63032	54686
19,63443	50782
19,63855	48819
19,64268	50462
19,64680	53721
19,65092	53622
19,65505	48631
19,65917	53891
19,66328	49143
19,66742	49249
19,67153	50424
19,67565	53237
19,67978	50220
19,68390	48205
19,68802	49947
19,69215	50080
19,69627	49682
19,70038	49191
19,70452	50418
19,70863	49074
19,71275	48927
19,71688	49680
19,72100	47758
19,72512	50032
19,72923	51951
19,73337	50184
19,73748	50248
19,74160	51937
19,74573	51908
19,74985	52581
19,75397	51827
19,75810	52425
19,76222	48286
19,76633	51544
19,77047	52419
19,77458	47628
19,77870	50033
19,78283	51305
19,78695	47344
19,79107	48415
19,79520	48985
19,79932	48314
19,80343	48278
19,80757	50592
19,81168	49924
19,81580	48702
19,81992	53438
19,82405	47870
19,82817	50061
19,83228	48214
19,83642	49352
19,84053	47552
19,84465	48126
19,84878	47822
19,85290	50114
19,85702	51030
19,86115	50613
19,86527	50177
19,86938	48765
19,87352	48160
19,87763	50361
19,88175	48695
19,88588	47704
19,89000	45786
19,89412	47634
19,89825	48018
19,90237	48573
19,90648	49284
19,91060	44878
19,91473	46582
19,91885	46208
19,92297	49716
19,92710	48481
19,93122	47695
19,93533	46550
19,93947	47417
19,94358	50129
19,94770	47306
19,95183	49679
19,95595	48680
19,96007	47509
19,96420	48630
19,96832	46452
19,97243	50290
19,97657	47920
19,98068	50373
19,98480	52049
19,98893	48691
19,99305	49991
19,99717	48712
20,00128	49561
20,00542	49146
20,00953	51226
20,01365	51833
20,01778	56966
20,02190	59728
20,02602	67330
20,03015	79828
20,03427	103521
20,03838	133147
20,04252	184556
20,04663	241856
20,05075	328624
20,05488	416844
20,05900	524598
20,06312	628289
20,06725	718558
20,07137	795360
20,07548	846013
20,07962	855248
20,08373	844535
20,08785	802802
20,09197	746450
20,09610	675587
20,10022	605517
20,10433	554080
20,10847	483164
20,11258	422986
20,11670	371602
20,12083	339774
20,12495	305441
20,12907	268911
20,13320	241450
20,13732	219994
20,14143	200454
20,14557	186754
20,14968	172933
20,15380	158096
20,15793	149930
20,16205	143428
20,16617	133571
20,17030	128607
20,17442	122327
20,17853	118484
20,18265	117252
20,18678	107921
20,19090	106189
20,19502	104123
20,19915	97949
20,20327	96102
20,20738	93014
20,21152	92808
20,21563	88712
20,21975	86220
20,22388	83682
20,22800	84626
20,23212	82744
20,23625	78294
20,24037	80004
20,24448	78982
20,24862	76152
20,25273	74883
20,25685	73672
20,26098	73579
20,26510	71566
20,26922	70633
20,27333	69067
20,27747	68063
20,28158	67573
20,28570	69294
20,28983	64680
20,29395	67373
20,29807	65966
20,30220	63481
20,30632	63334
20,31043	62010
20,31457	63745
20,31868	62252
20,32280	63306
20,32693	60420
20,33105	64001
20,33517	60559
20,33930	61102
20,34342	60151
20,34753	60244
20,35167	58713
20,35578	58205
20,35990	61334
20,36402	60311
20,36815	63403
20,37227	55797
20,37638	56946
20,38052	58659
20,38463	55825
20,38875	57966
20,39288	56713
20,39700	59090
20,40112	57754
20,40525	57959
20,40937	56234
20,41348	57100
20,41762	56585
20,42173	54604
20,42585	57296
20,42998	55003
20,43410	55018
20,43822	56086
20,44235	54958
20,44647	52591
20,45058	53923
20,45470	55179
20,45883	57451
20,46295	51972
20,46707	55083
20,47120	54438
20,47532	52098
20,47943	53184
20,48357	54288
20,48768	52003
20,49180	53086
20,49593	55473
20,50005	56320
20,50417	55501
20,50830	55015
20,51242	54648
20,51653	56046
20,52067	57517
20,52478	54853
20,52890	55882
20,53303	56203
20,53715	56033
20,54127	54489
20,54540	55660
20,54952	54440
20,55363	52284
20,55775	50932
20,56188	54656
20,56600	54995
20,57012	51588
20,57425	52338
20,57837	53663
20,58248	52620
20,58662	52238
20,59073	50951
20,59485	51563
20,59898	52416
20,60310	50557
20,60722	51617
20,61135	51162
20,61547	50993
20,61958	53292
20,62372	52865
20,62783	51004
20,63195	49733
20,63608	50153
20,64020	52378
20,64432	49789
20,64843	49796
20,65257	50432
20,65668	54218
20,66080	53632
20,66493	52051
20,66905	51390
20,67317	51132
20,67730	50383
20,68142	47799
20,68553	51926
20,68967	50449
20,69378	51092
20,69790	50208
20,70203	50535
20,70615	50195
20,71027	48949
20,71440	51354
20,71852	50472
20,72263	49842
20,72677	52315
20,73088	52272
20,73500	51394
20,73912	49842
20,74325	52089
20,74737	50823
20,75148	52338
20,75562	51720
20,75973	50847
20,76385	49841
20,76798	52744
20,77210	51537
20,77622	51002
20,78035	52014
20,78447	49822
20,78858	53478
20,79272	54801
20,79683	54089
20,80095	53161
20,80508	51230
20,80920	50944
20,81332	52873
20,81745	52729
20,82157	51672
20,82568	51769
20,82980	52322
20,83393	50153
20,83805	52466
20,84217	50418
20,84630	50146
20,85042	50459
20,85453	47492
20,85867	51384
20,86278	50228
20,86690	51746
20,87103	49857
20,87515	51083
20,87927	51104
20,88340	51380
20,88752	52887
20,89163	51103
20,89577	51703
20,89988	49133
20,90400	49843
20,90813	50662
20,91225	50982
20,91637	52242
20,92048	51017
20,92462	51162
20,92873	51658
20,93285	50374
20,93698	50035
20,94110	47404
20,94522	50395
20,94935	49534
20,95347	51857
20,95758	49819
20,96172	53379
20,96583	50085
20,96995	48892
20,97408	51253
20,97820	50618
20,98232	49330
20,98645	50792
20,99057	51466
20,99468	52612
20,99882	48907
21,00293	50665
21,00705	49074
21,01117	49169
21,01530	48285
21,01942	49116
21,02353	52357
21,02767	49382
21,03178	53219
21,03590	49546
21,04003	51122
21,04415	48558
21,04827	49208
21,05240	51534
21,05652	49349
21,06063	51143
21,06477	49840
21,06888	52303
21,07300	49439
21,07713	51205
21,08125	49498
21,08537	51360
21,08950	50582
21,09362	49942
21,09773	51467
21,10185	50360
21,10598	49649
21,11010	49171
21,11422	53040
21,11835	51281
21,12247	52246
21,12658	51514
21,13072	51139
21,13483	51369
21,13895	50471
21,14308	50758
21,14720	53682
21,15132	50750
21,15545	52788
21,15957	49797
21,16368	54788
21,16782	51043
21,17193	51821
21,17605	51217
21,18018	50474
21,18430	52522
21,18842	50917
21,19253	50681
21,19667	50715
21,20078	49670
21,20490	50389
21,20903	50333
21,21315	49565
21,21727	50619
21,22140	51605
21,22552	51596
21,22963	51662
21,23377	51475
21,23788	52675
21,24200	52198
21,24613	51249
21,25025	51104
21,25437	52385
21,25850	49032
21,26262	52258
21,26673	51870
21,27087	52676
21,27498	51560
21,27910	52313
21,28322	50471
21,28735	51963
21,29147	53948
21,29558	49821
21,29972	51509
21,30383	52111
21,30795	51950
21,31208	51733
21,31620	50230
21,32032	52333
21,32445	48417
21,32857	53134
21,33268	49404
21,33682	50101
21,34093	47775
21,34505	49206
21,34918	48495
21,35330	48990
21,35742	47839
21,36155	49491
21,36567	48593
21,36978	48517
21,37390	47877
21,37803	52112
21,38215	48847
21,38627	49617
21,39040	48201
21,39452	51351
21,39863	48852
21,40277	47793
21,40688	49462
21,41100	50194
21,41513	50091
21,41925	51254
21,42337	50782
21,42750	49303
21,43162	49958
21,43573	48614
21,43987	47760
21,44398	51092
21,44810	50628
21,45223	52530
21,45635	49555
21,46047	47315
21,46458	48583
21,46872	50388
21,47283	49231
21,47695	48406
21,48108	48389
21,48520	49580
21,48932	52420
21,49345	50891
21,49757	50663
21,50168	54964
21,50582	54099
21,50993	51602
21,51405	48770
21,51818	52995
21,52230	50708
21,52642	53938
21,53055	51818
21,53467	53811
21,53878	52034
21,54292	52628
21,54703	51960
21,55115	51694
21,55527	50262
21,55940	47955
21,56352	52022
21,56763	50266
21,57177	49577
21,57588	49783
21,58000	51104
21,58413	47561
21,58825	50366
21,59237	51385
21,59650	48458
21,60062	50215
21,60473	49595
21,60887	49243
21,61298	49317
21,61710	51487
21,62123	49600
21,62535	51008
21,62947	48675
21,63360	49821
21,63772	49978
21,64183	50260
21,64595	47821
21,65008	51064
21,65420	50525
21,65832	49904
21,66245	48977
21,66657	51444
21,67068	52962
21,67482	47742
21,67893	51369
21,68305	51394
21,68718	52293
21,69130	48702
21,69542	51865
21,69955	49719
21,70367	49020
21,70778	48297
21,71192	51645
21,71603	48171
21,72015	52932
21,72428	49969
21,72840	48985
21,73252	51429
21,73663	49978
21,74077	47911
21,74488	47461
21,74900	49704
21,75313	48073
21,75725	50391
21,76137	50553
21,76550	49347
21,76962	51959
21,77373	48674
21,77787	50536
21,78198	50172
21,78610	48288
21,79023	49515
21,79435	47731
21,79847	50000
21,80260	48242
21,80672	50502
21,81083	49125
21,81497	51220
21,81908	47584
21,82320	50566
21,82732	49445
21,83145	49640
21,83557	49689
21,83968	47885
21,84382	48051
21,84793	51892
21,85205	47525
21,85618	47910
21,86030	51818
21,86442	47728
21,86855	51772
21,87267	49722
21,87678	52398
21,88092	48329
21,88503	47937
21,88915	50220
21,89328	49684
