D:\MassHunter\GCMS\1\data\Amal\Constant flow\110C\110C_1ml-min_9C-min_2.D Tue Sep 03 19:24:36 2024
Start of data points
5,34083,120705
5,34495,117636
5,34907,113636
5,35320,116435
5,35732,115127
5,36143,115762
5,36555,111269
5,36968,108603
5,37380,110183
5,37792,106687
5,38205,106783
5,38617,105543
5,39028,104735
5,39442,101499
5,39853,102115
5,40265,102630
5,40678,101253
5,41090,102921
5,41502,99763
5,41915,99381
5,42327,99802
5,42738,96904
5,43152,95139
5,43563,95053
5,43975,93631
5,44388,96978
5,44800,92242
5,45212,92904
5,45623,92266
5,46037,92377
5,46448,87916
5,46860,91047
5,47273,93690
5,47685,92119
5,48097,89474
5,48510,90943
5,48922,87974
5,49333,85673
5,49747,86282
5,50158,86188
5,50570,86997
5,50983,88016
5,51395,87603
5,51807,91399
5,52220,86935
5,52632,89112
5,53043,88932
5,53457,90054
5,53868,90334
5,54280,89259
5,54692,90283
5,55105,93320
5,55517,89607
5,55928,90631
5,56342,91829
5,56753,90397
5,57165,92733
5,57578,91655
5,57990,95400
5,58402,95443
5,58815,93126
5,59227,94097
5,59638,97180
5,60052,94333
5,60463,94600
5,60875,93230
5,61288,93033
5,61700,92401
5,62112,93121
5,62525,91614
5,62937,92370
5,63348,91649
5,63762,91553
5,64173,89468
5,64585,86061
5,64997,87867
5,65410,86514
5,65822,87382
5,66233,86749
5,66647,85727
5,67058,83079
5,67470,82613
5,67883,82665
5,68295,82263
5,68707,81663
5,69120,87182
5,69532,91020
5,69943,111028
5,70357,152116
5,70768,220539
5,71180,321797
5,71593,453397
5,72005,602257
5,72417,744528
5,72830,848554
5,73242,910285
5,73653,945037
5,74065,942636
5,74478,936050
5,74890,910420
5,75302,870667
5,75715,829432
5,76127,796389
5,76538,764871
5,76952,747048
5,77363,706304
5,77775,683256
5,78188,646953
5,78600,622926
5,79012,588913
5,79425,563180
5,79837,543699
5,80248,513016
5,80662,491772
5,81073,465654
5,81485,442618
5,81898,410357
5,82310,390927
5,82722,359612
5,83133,340869
5,83547,313988
5,83958,285612
5,84370,264309
5,84783,243085
5,85195,228047
5,85607,212386
5,86020,192274
5,86432,178009
5,86843,165143
5,87257,152231
5,87668,145659
5,88080,137545
5,88493,126006
5,88905,121167
5,89317,113759
5,89730,107952
5,90142,101286
5,90553,95904
5,90967,94110
5,91378,86201
5,91790,85242
5,92202,81854
5,92615,80924
5,93027,76100
5,93438,75638
5,93852,75177
5,94263,71724
5,94675,68416
5,95088,68214
5,95500,65944
5,95912,63695
5,96325,64517
5,96737,58431
5,97148,61368
5,97562,62151
5,97973,60821
5,98385,59233
5,98798,60512
5,99210,58691
5,99622,58646
6,00035,56189
6,00447,58682
6,00858,57272
6,01270,58545
6,01683,56797
6,02095,57032
6,02507,57959
6,02920,57003
6,03332,55057
6,03743,55239
6,04157,55964
6,04568,53461
6,04980,54581
6,05393,51943
6,05805,53099
6,06217,53695
6,06630,52033
6,07042,54038
6,07453,51818
6,07867,52356
6,08278,51294
6,08690,47497
6,09103,54759
6,09515,52038
6,09927,51603
6,10338,51061
6,10752,50071
6,11163,49753
6,11575,51537
6,11988,49756
6,12400,53023
6,12812,50225
6,13225,49260
6,13637,51493
6,14048,50939
6,14462,47941
6,14873,46297
6,15285,48215
6,15698,49900
6,16110,47430
6,16522,51560
6,16935,51309
6,17347,48723
6,17758,47451
6,18172,50874
6,18583,49729
6,18995,51523
6,19407,48278
6,19820,48855
6,20232,48715
6,20643,49062
6,21057,46976
6,21468,45783
6,21880,46109
6,22293,47946
6,22705,47223
6,23117,47311
6,23530,46954
6,23942,49370
6,24353,47147
6,24767,45323
6,25178,46729
6,25590,45386
6,26003,45383
6,26415,46290
6,26827,46001
6,27240,47549
6,27652,46552
6,28063,45626
6,28475,45549
6,28888,45598
6,29300,43718
6,29712,44749
6,30125,43558
6,30537,43998
6,30948,43840
6,31362,43019
6,31773,44958
6,32185,43091
6,32598,42696
6,33010,43067
6,33422,41928
6,33835,40939
6,34247,41920
6,34658,41362
6,35072,41612
6,35483,40239
6,35895,42008
6,36308,41394
6,36720,40983
6,37132,39043
6,37543,39735
6,37957,40742
6,38368,38941
6,38780,39198
6,39193,42265
6,39605,37641
6,40017,37482
6,40430,39784
6,40842,38907
6,41253,38240
6,41667,38381
6,42078,37433
6,42490,39047
6,42903,38761
6,43315,35856
6,43727,37497
6,44140,37256
6,44552,37491
6,44963,39352
6,45377,41020
6,45788,39316
6,46200,40663
6,46612,40112
6,47025,38276
6,47437,38290
6,47848,38752
6,48262,39867
6,48673,38266
6,49085,41014
6,49498,38744
6,49910,37580
6,50322,37769
6,50735,37489
6,51147,35895
6,51558,37720
6,51972,37746
6,52383,36438
6,52795,36741
6,53208,37021
6,53620,36914
6,54032,36900
6,54445,35251
6,54857,36271
6,55268,34383
6,55680,35200
6,56093,35821
6,56505,35948
6,56917,33640
6,57330,35621
6,57742,36463
6,58153,35193
6,58567,36889
6,58978,34911
6,59390,35481
6,59803,33819
6,60215,34334
6,60627,34892
6,61040,33883
6,61452,33929
6,61863,35137
6,62277,32968
6,62688,33911
6,63100,33118
6,63513,34749
6,63925,34325
6,64337,34856
6,64748,34798
6,65162,34601
6,65573,32228
6,65985,33149
6,66398,32764
6,66810,34296
6,67222,31976
6,67635,34049
6,68047,33503
6,68458,32693
6,68872,33199
6,69283,34237
6,69695,32863
6,70108,32571
6,70520,32706
6,70932,32940
6,71345,31941
6,71757,31515
6,72168,31476
6,72582,32121
6,72993,31177
6,73405,32801
6,73817,30889
6,74230,30825
6,74642,31605
6,75053,29654
6,75467,31799
6,75878,31828
6,76290,31819
6,76703,33667
6,77115,33772
6,77527,33850
6,77940,32937
6,78352,31102
6,78763,31811
6,79177,33158
6,79588,31207
6,80000,31047
6,80413,32095
6,80825,32717
6,81237,32764
6,81650,29862
6,82062,30370
6,82473,34147
6,82885,38711
6,83298,52529
6,83710,80007
6,84122,128533
6,84535,218694
6,84947,354599
6,85358,518142
6,85772,727908
6,86183,940742
6,86595,1110251
6,87008,1252531
6,87420,1367295
6,87832,1417515
6,88245,1407801
6,88657,1375505
6,89068,1326191
6,89482,1257338
6,89893,1194361
6,90305,1117084
6,90718,1030090
6,91130,969701
6,91542,897283
6,91953,819253
6,92367,759935
6,92778,680366
6,93190,609078
6,93603,540667
6,94015,478241
6,94427,421033
6,94840,369130
6,95252,315583
6,95663,281626
6,96077,244003
6,96488,210363
6,96900,184744
6,97313,162503
6,97725,142626
6,98137,130183
6,98550,111724
6,98962,104017
6,99373,93321
6,99787,83192
7,00198,77619
7,00610,70523
7,01022,65193
7,01435,63251
7,01847,58069
7,02258,54632
7,02672,52848
7,03083,51890
7,03495,45883
7,03908,46489
7,04320,43837
7,04732,43086
7,05145,43254
7,05557,40765
7,05968,38109
7,06382,37441
7,06793,38169
7,07205,37665
7,07618,37124
7,08030,36861
7,08442,35113
7,08855,34746
7,09267,34118
7,09678,34771
7,10090,33398
7,10503,33097
7,10915,31213
7,11327,33389
7,11740,32637
7,12152,32398
7,12563,32354
7,12977,32958
7,13388,30296
7,13800,29453
7,14213,31494
7,14625,31264
7,15037,28944
7,15450,30453
7,15862,29792
7,16273,30285
7,16687,28122
7,17098,29939
7,17510,30751
7,17923,30891
7,18335,29113
7,18747,30387
7,19160,28894
7,19572,27390
7,19983,28656
7,20395,29819
7,20808,29277
7,21220,28817
7,21632,30279
7,22045,28752
7,22457,29134
7,22868,29170
7,23282,28353
7,23693,29650
7,24105,29670
7,24518,28631
7,24930,29235
7,25342,27641
7,25755,26056
7,26167,27364
7,26578,29610
7,26992,25900
7,27403,27520
7,27815,26973
7,28228,28513
7,28640,27805
7,29052,26795
7,29463,27510
7,29877,26866
7,30288,27296
7,30700,27050
7,31113,26580
7,31525,25603
7,31937,28068
7,32350,26667
7,32762,25191
7,33173,24617
7,33587,24604
7,33998,25177
7,34410,24696
7,34823,25885
7,35235,24956
7,35647,26049
7,36060,24036
7,36472,24273
7,36883,26736
7,37297,24749
7,37708,24656
7,38120,25296
7,38532,25450
7,38945,24215
7,39357,23066
7,39768,25468
7,40182,25971
7,40593,25986
7,41005,25041
7,41418,24469
7,41830,26382
7,42242,25729
7,42655,26387
7,43067,25681
7,43478,24246
7,43892,24782
7,44303,24406
7,44715,23454
7,45128,25155
7,45540,23746
7,45952,22923
7,46365,23966
7,46777,22908
7,47188,24742
7,47600,23525
7,48013,22529
7,48425,23750
7,48837,22472
7,49250,23642
7,49662,24114
7,50073,22424
7,50487,22699
7,50898,23121
7,51310,24294
7,51723,24362
7,52135,25485
7,52547,30525
7,52960,40152
7,53372,60981
7,53783,98100
7,54197,158608
7,54608,242559
7,55020,358353
7,55433,487905
7,55845,626313
7,56257,739729
7,56668,824579
7,57082,867025
7,57493,885873
7,57905,876008
7,58318,839119
7,58730,800776
7,59142,736536
7,59555,668217
7,59967,602932
7,60378,542511
7,60792,486419
7,61203,425401
7,61615,363980
7,62028,319315
7,62440,266325
7,62852,232955
7,63265,195907
7,63677,165847
7,64088,140766
7,64502,121773
7,64913,102979
7,65325,92244
7,65737,81899
7,66150,71245
7,66562,65178
7,66973,59988
7,67387,52516
7,67798,51830
7,68210,47087
7,68623,45194
7,69035,43461
7,69447,39332
7,69860,38914
7,70272,37586
7,70683,33580
7,71097,34996
7,71508,31425
7,71920,31693
7,72333,30951
7,72745,30562
7,73157,28910
7,73570,27951
7,73982,27922
7,74393,26985
7,74805,27410
7,75218,27359
7,75630,25530
7,76042,26546
7,76455,25295
7,76867,24730
7,77278,26695
7,77692,24461
7,78103,26128
7,78515,25331
7,78928,24892
7,79340,24874
7,79752,26867
7,80165,27071
7,80577,25528
7,80988,26605
7,81402,27206
7,81813,27318
7,82225,28301
7,82638,27163
7,83050,26857
7,83462,27433
7,83873,28440
7,84287,28961
7,84698,26584
7,85110,27732
7,85523,27582
7,85935,26550
7,86347,24478
7,86760,25821
7,87172,24686
7,87583,24153
7,87997,24161
7,88408,22605
7,88820,21049
7,89233,21221
7,89645,21324
7,90057,20621
7,90470,19779
7,90882,20513
7,91293,20032
7,91707,21197
7,92118,20243
7,92530,19648
7,92942,20845
7,93355,19031
7,93767,20503
7,94178,19598
7,94592,18920
7,95003,18635
7,95415,20140
7,95828,20401
7,96240,20288
7,96652,18884
7,97065,20322
7,97477,18724
7,97888,19386
7,98302,20246
7,98713,19275
7,99125,18477
7,99538,19308
7,99950,18677
8,00362,19329
8,00775,18853
8,01187,18439
8,01598,19671
8,02010,18761
8,02423,18166
8,02835,18314
8,03247,20791
8,03660,19711
8,04072,20023
8,04483,18407
8,04897,19159
8,05308,18907
8,05720,18102
8,06133,17789
8,06545,18857
8,06957,18548
8,07370,17983
8,07782,17156
8,08193,17946
8,08607,18611
8,09018,19454
8,09430,18031
8,09843,20425
8,10255,19239
8,10667,18746
8,11078,19030
8,11492,20012
8,11903,19954
8,12315,19550
8,12728,18438
8,13140,18251
8,13552,17656
8,13965,17677
8,14377,17681
8,14788,19754
8,15202,18465
8,15613,17835
8,16025,17723
8,16438,18414
8,16850,18625
8,17262,16788
8,17675,18556
8,18087,18464
8,18498,19510
8,18912,19751
8,19323,19454
8,19735,18953
8,20147,19091
8,20560,18928
8,20972,17307
8,21383,18431
8,21797,18884
8,22208,18738
8,22620,16696
8,23033,17617
8,23445,17964
8,23857,17858
8,24270,17966
8,24682,18997
8,25093,16979
8,25507,17131
8,25918,18737
8,26330,19004
8,26743,22313
8,27155,30520
8,27567,48660
8,27980,86701
8,28392,159902
8,28803,284962
8,29215,474741
8,29628,732152
8,30040,1047467
8,30452,1371104
8,30865,1683937
8,31277,1925970
8,31688,2077935
8,32102,2154195
8,32513,2141831
8,32925,2030035
8,33338,1863902
8,33750,1686761
8,34162,1452797
8,34575,1240422
8,34987,1057731
8,35398,869000
8,35812,715813
8,36223,579087
8,36635,474370
8,37048,383836
8,37460,315495
8,37872,258726
8,38283,216955
8,38697,177187
8,39108,149746
8,39520,128484
8,39933,113063
8,40345,101694
8,40757,85696
8,41170,79738
8,41582,73084
8,41993,65950
8,42407,59814
8,42818,58076
8,43230,53562
8,43643,49819
8,44055,44840
8,44467,44386
8,44880,40186
8,45292,37944
8,45703,37840
8,46117,36848
8,46528,34978
8,46940,34793
8,47352,33220
8,47765,32405
8,48177,30128
8,48588,30649
8,49002,27703
8,49413,29226
8,49825,28175
8,50238,27169
8,50650,27372
8,51062,27939
8,51475,26880
8,51887,26009
8,52298,27206
8,52712,24362
8,53123,25306
8,53535,23676
8,53948,21937
8,54360,22211
8,54772,21945
8,55185,21938
8,55597,22214
8,56008,21358
8,56420,21006
8,56833,20636
8,57245,20571
8,57657,21416
8,58070,20878
8,58482,19630
8,58893,19293
8,59307,21008
8,59718,19756
8,60130,17751
8,60543,20618
8,60955,19001
8,61367,20636
8,61780,19606
8,62192,19312
8,62603,19689
8,63017,17716
8,63428,18719
8,63840,17102
8,64253,17273
8,64665,19795
8,65077,18142
8,65488,18162
8,65902,17983
8,66313,17683
8,66725,17829
8,67138,16201
8,67550,16873
8,67962,17989
8,68375,16239
8,68787,16649
8,69198,16913
8,69612,17930
8,70023,15743
8,70435,16704
8,70848,15749
8,71260,16857
8,71672,17373
8,72085,16209
8,72497,16082
8,72908,17347
8,73322,16365
8,73733,16865
8,74145,15839
8,74558,15558
8,74970,16148
8,75382,14874
8,75793,17286
8,76207,17370
8,76618,15851
8,77030,16779
8,77443,15456
8,77855,15040
8,78267,16103
8,78680,16504
8,79092,16015
8,79503,16750
8,79917,16884
8,80328,14689
8,80740,15862
8,81153,16714
8,81565,15807
8,81977,16211
8,82390,16043
8,82802,15327
8,83213,16147
8,83627,15996
8,84038,14896
8,84450,17272
8,84862,16264
8,85275,17289
8,85687,16272
8,86098,16022
8,86512,15186
8,86923,15657
8,87335,17329
8,87748,14621
8,88160,15651
8,88572,16711
8,88985,15901
8,89397,15940
8,89808,16297
8,90222,17533
8,90633,20134
8,91045,18998
8,91458,18201
8,91870,20686
8,92282,21134
8,92695,21326
8,93107,21272
8,93518,19851
8,93930,19649
8,94343,20060
8,94755,18463
8,95167,19805
8,95580,18222
8,95992,18465
8,96403,18112
8,96817,17168
8,97228,18258
8,97640,16042
8,98053,15651
8,98465,14689
8,98877,15352
8,99290,14901
8,99702,16119
9,00113,13371
9,00527,14725
9,00938,14931
9,01350,14452
9,01763,14746
9,02175,14836
9,02587,14781
9,02998,13972
9,03412,13520
9,03823,14699
9,04235,16623
9,04648,18688
9,05060,26754
9,05472,45486
9,05885,79524
9,06297,142415
9,06708,240495
9,07122,382536
9,07533,560351
9,07945,769351
9,08358,969609
9,08770,1127434
9,09182,1234327
9,09595,1262883
9,10007,1227580
9,10418,1124008
9,10832,987750
9,11243,857910
9,11655,719837
9,12067,575485
9,12480,463062
9,12892,365208
9,13303,294417
9,13717,232457
9,14128,186076
9,14540,152885
9,14953,123910
9,15365,103551
9,15777,91115
9,16190,77195
9,16602,69380
9,17013,61457
9,17427,55296
9,17838,48452
9,18250,46406
9,18663,42404
9,19075,38858
9,19487,37017
9,19900,33446
9,20312,31435
9,20723,29727
9,21135,27291
9,21548,27528
9,21960,25694
9,22372,26702
9,22785,25563
9,23197,24894
9,23608,23373
9,24022,24791
9,24433,23229
9,24845,21326
9,25258,22220
9,25670,20239
9,26082,21399
9,26495,20106
9,26907,20724
9,27318,19704
9,27732,18390
9,28143,18210
9,28555,18065
9,28968,17990
9,29380,16651
9,29792,17714
9,30203,15471
9,30617,17521
9,31028,17142
9,31440,16534
9,31853,15533
9,32265,15437
9,32677,15825
9,33090,16773
9,33502,15105
9,33913,16765
9,34327,15077
9,34738,16222
9,35150,15007
9,35563,15983
9,35975,14446
9,36387,15644
9,36800,13858
9,37212,14055
9,37623,14770
9,38037,16144
9,38448,15147
9,38860,14210
9,39272,14113
9,39685,13566
9,40097,15839
9,40508,14641
9,40922,13851
9,41333,14092
9,41745,14468
9,42158,14091
9,42570,14129
9,42982,12650
9,43395,13338
9,43807,12494
9,44218,13452
9,44632,13521
9,45043,15509
9,45455,13802
9,45868,15191
9,46280,15968
9,46692,15971
9,47105,17602
9,47517,19119
9,47928,18188
9,48340,19397
9,48753,20849
9,49165,19852
9,49577,17876
9,49990,18080
9,50402,16706
9,50813,16548
9,51227,15875
9,51638,14868
9,52050,14782
9,52463,15308
9,52875,15752
9,53287,13739
9,53700,13958
9,54112,12589
9,54523,13911
9,54937,13896
9,55348,13099
9,55760,13526
9,56173,12984
9,56585,14045
9,56997,12985
9,57408,11998
9,57822,12404
9,58233,12607
9,58645,13435
9,59058,12813
9,59470,13928
9,59882,13391
9,60295,13843
9,60707,12536
9,61118,12722
9,61532,12367
9,61943,11439
9,62355,13206
9,62768,12848
9,63180,13176
9,63592,12274
9,64005,11229
9,64417,13881
9,64828,14286
9,65242,13907
9,65653,15072
9,66065,14783
9,66477,18310
9,66890,16292
9,67302,18292
9,67713,19241
9,68127,18785
9,68538,19526
9,68950,17870
9,69363,16119
9,69775,17511
9,70187,16888
9,70600,16976
9,71012,16519
9,71423,16446
9,71837,14764
9,72248,15307
9,72660,13795
9,73073,15531
9,73485,13674
9,73897,13076
9,74310,13584
9,74722,13707
9,75133,11820
9,75545,13448
9,75958,12052
9,76370,13630
9,76782,12725
9,77195,12361
9,77607,13179
9,78018,12020
9,78432,11878
9,78843,10475
9,79255,12655
9,79668,11339
9,80080,11858
9,80492,12534
9,80905,11528
9,81317,11322
9,81728,11823
9,82142,13691
9,82553,14500
9,82965,19696
9,83378,32535
9,83790,62001
9,84202,119092
9,84613,228971
9,85027,421849
9,85438,700040
9,85850,1081204
9,86263,1531601
9,86675,2004323
9,87087,2431082
9,87500,2728609
9,87912,2834999
9,88323,2753127
9,88737,2505636
9,89148,2142140
9,89560,1784831
9,89973,1418046
9,90385,1094419
9,90797,848451
9,91210,644370
9,91622,497924
9,92033,384088
9,92447,306308
9,92858,250647
9,93270,208575
9,93682,173639
9,94095,146233
9,94507,130427
9,94918,113388
9,95332,101085
9,95743,95408
9,96155,85000
9,96568,80060
9,96980,71900
9,97392,71092
9,97805,65187
9,98217,61305
9,98628,55964
9,99042,52335
9,99453,50047
9,99865,43476
10,00278,41582
10,00690,40164
10,01102,36614
10,01515,35146
10,01927,32465
10,02338,30819
10,02750,30072
10,03163,27941
10,03575,27851
10,03987,25756
10,04400,24137
10,04812,25985
10,05223,23652
10,05637,23966
10,06048,21562
10,06460,22913
10,06873,20292
10,07285,20734
10,07697,21017
10,08110,20771
10,08522,19076
10,08933,18910
10,09347,18752
10,09758,17975
10,10170,17679
10,10583,18554
10,10995,18406
10,11407,18886
10,11818,19413
10,12232,19192
10,12643,21545
10,13055,19840
10,13468,21315
10,13880,21745
10,14292,21018
10,14705,21031
10,15117,22602
10,15528,21471
10,15942,20580
10,16353,18614
10,16765,17885
10,17178,17301
10,17590,18552
10,18002,17277
10,18415,18233
10,18827,15666
10,19238,15354
10,19652,15797
10,20063,14078
10,20475,13692
10,20887,13626
10,21300,13747
10,21712,13160
10,22123,12604
10,22537,13280
10,22948,14294
10,23360,13494
10,23773,14487
10,24185,15076
10,24597,16006
10,25010,16980
10,25422,17958
10,25833,18172
10,26247,18146
10,26658,18452
10,27070,18154
10,27483,17980
10,27895,16534
10,28307,16286
10,28720,15361
10,29132,14309
10,29543,14115
10,29957,14011
10,30368,13785
10,30780,12999
10,31192,12556
10,31605,13379
10,32017,13872
10,32428,12935
10,32842,11711
10,33253,13190
10,33665,11569
10,34078,12489
10,34490,11754
10,34902,11345
10,35315,12796
10,35727,12115
10,36138,12592
10,36552,11310
10,36963,10503
10,37375,11177
10,37788,12232
10,38200,11581
10,38612,12904
10,39025,13683
10,39437,15629
10,39848,16808
10,40260,24206
10,40673,40516
10,41085,75119
10,41497,132886
10,41910,236703
10,42322,385478
10,42733,582899
10,43147,812050
10,43558,1032487
10,43970,1202783
10,44383,1312013
10,44795,1312745
10,45207,1253935
10,45620,1133080
10,46032,959586
10,46443,786725
10,46857,625983
10,47268,496694
10,47680,390128
10,48093,306601
10,48505,242427
10,48917,199618
10,49328,162404
10,49742,138611
10,50153,115709
10,50565,98879
10,50978,84427
10,51390,73075
10,51802,66423
10,52215,57258
10,52627,50188
10,53038,49285
10,53452,42928
10,53863,39788
10,54275,37641
10,54688,34421
10,55100,29823
10,55512,29620
10,55925,29493
10,56337,27732
10,56748,27295
10,57162,26422
10,57573,23897
10,57985,24583
10,58397,23296
10,58810,22508
10,59222,22392
10,59633,22601
10,60047,20841
10,60458,20839
10,60870,25436
10,61283,31976
10,61695,52416
10,62107,90933
10,62520,163097
10,62932,285618
10,63343,460901
10,63757,693638
10,64168,948584
10,64580,1194838
10,64993,1374376
10,65405,1462866
10,65817,1443564
10,66230,1328802
10,66642,1168928
10,67053,971067
10,67465,759381
10,67878,599528
10,68290,454199
10,68702,350743
10,69115,269571
10,69527,211792
10,69938,166590
10,70352,140998
10,70763,114701
10,71175,99775
10,71588,82349
10,72000,73900
10,72412,64729
10,72825,58870
10,73237,52783
10,73648,46463
10,74062,43869
10,74473,41214
10,74885,35539
10,75298,34721
10,75710,34258
10,76122,30661
10,76533,30233
10,76947,30528
10,77358,25852
10,77770,27304
10,78183,24984
10,78595,24134
10,79007,22648
10,79420,21174
10,79832,20792
10,80243,20000
10,80657,20762
10,81068,19207
10,81480,20734
10,81893,18265
10,82305,18077
10,82717,18125
10,83130,17279
10,83542,16563
10,83953,15749
10,84367,16632
10,84778,15620
10,85190,17555
10,85602,15681
10,86015,14423
10,86427,15423
10,86838,15775
10,87252,15569
10,87663,14168
10,88075,14115
10,88488,15135
10,88900,13063
10,89312,13790
10,89725,14184
10,90137,12067
10,90548,12504
10,90962,12583
10,91373,13919
10,91785,12937
10,92198,12842
10,92610,12762
10,93022,13038
10,93435,12319
10,93847,13672
10,94258,12853
10,94670,13601
10,95083,12356
10,95495,13089
10,95907,12422
10,96320,13367
10,96732,11395
10,97143,12536
10,97557,12340
10,97968,13201
10,98380,11841
10,98793,11480
10,99205,12140
10,99617,11768
11,00030,13163
11,00442,11678
11,00853,10558
11,01267,12558
11,01678,13381
11,02090,12250
11,02503,12167
11,02915,12391
11,03327,12574
11,03738,12982
11,04152,12117
11,04563,11404
11,04975,11774
11,05388,11775
11,05800,13090
11,06212,12253
11,06625,12560
11,07037,11910
11,07448,12910
11,07862,12972
11,08273,12859
11,08685,11516
11,09098,11519
11,09510,12221
11,09922,12599
11,10335,11471
11,10747,12108
11,11158,13197
11,11572,12433
11,11983,14043
11,12395,11488
11,12807,11398
11,13220,11800
11,13632,12358
11,14043,11606
11,14457,10865
11,14868,11406
11,15280,12304
11,15693,11643
11,16105,11708
11,16517,12681
11,16930,13883
11,17342,16195
11,17753,22764
11,18167,36966
11,18578,70415
11,18990,129155
11,19403,231060
11,19815,387644
11,20227,600343
11,20640,839485
11,21052,1084436
11,21463,1289321
11,21875,1407477
11,22288,1422049
11,22700,1323923
11,23112,1152856
11,23525,972170
11,23937,774013
11,24348,609083
11,24762,468685
11,25173,362974
11,25585,281890
11,25998,219764
11,26410,176043
11,26822,143239
11,27235,115289
11,27647,99894
11,28058,83427
11,28472,72942
11,28883,67596
11,29295,58128
11,29708,52954
11,30120,47017
11,30532,46550
11,30943,42091
11,31357,38852
11,31768,34196
11,32180,33486
11,32593,32328
11,33005,28414
11,33417,29721
11,33830,25411
11,34242,25961
11,34653,26222
11,35067,24935
11,35478,23073
11,35890,23232
11,36303,23156
11,36715,25280
11,37127,32869
11,37540,53291
11,37952,98848
11,38363,196496
11,38777,378081
11,39188,698063
11,39600,1169514
11,40012,1835108
11,40425,2598340
11,40837,3422562
11,41248,4114763
11,41662,4564047
11,42073,4627876
11,42485,4398497
11,42898,3861602
11,43310,3194053
11,43722,2515533
11,44135,1895835
11,44547,1423059
11,44958,1063130
11,45372,801832
11,45783,622566
11,46195,499305
11,46608,399930
11,47020,332369
11,47432,274115
11,47845,239580
11,48257,202486
11,48668,176299
11,49080,157438
11,49493,137407
11,49905,122862
11,50317,115459
11,50730,103100
11,51142,93757
11,51553,84136
11,51967,78546
11,52378,73001
11,52790,69022
11,53203,64050
11,53615,59677
11,54027,53253
11,54440,53290
11,54852,49237
11,55263,47357
11,55677,43598
11,56088,44203
11,56500,39455
11,56913,37794
11,57325,37846
11,57737,34026
11,58148,33496
11,58562,31211
11,58973,30859
11,59385,30753
11,59798,29185
11,60210,28071
11,60622,27332
11,61035,27056
11,61447,24404
11,61858,25337
11,62272,24916
11,62683,24624
11,63095,23544
11,63508,22917
11,63920,21006
11,64332,21440
11,64745,20246
11,65157,20526
11,65568,20450
11,65982,20356
11,66393,19049
11,66805,18957
11,67217,18053
11,67630,17529
11,68042,19340
11,68453,16995
11,68867,17430
11,69278,18570
11,69690,16191
11,70103,18510
11,70515,19237
11,70927,17862
11,71340,18313
11,71752,18553
11,72163,18349
11,72577,19339
11,72988,17118
11,73400,17538
11,73813,17524
11,74225,16310
11,74637,14966
11,75050,16765
11,75462,16650
11,75873,14701
11,76285,15631
11,76698,14570
11,77110,14620
11,77522,13182
11,77935,15005
11,78347,16358
11,78758,15361
11,79172,15600
11,79583,15743
11,79995,17809
11,80408,15550
11,80820,16385
11,81232,15460
11,81645,15592
11,82057,15185
11,82468,16236
11,82882,17764
11,83293,22272
11,83705,35162
11,84118,63277
11,84530,118425
11,84942,215228
11,85353,366163
11,85767,575044
11,86178,831848
11,86590,1084468
11,87003,1286220
11,87415,1403999
11,87827,1422105
11,88240,1334310
11,88652,1187310
11,89063,992854
11,89477,791107
11,89888,621559
11,90300,476216
11,90713,366381
11,91125,290369
11,91537,226435
11,91950,181752
11,92362,150834
11,92773,124230
11,93187,108662
11,93598,92937
11,94010,81585
11,94423,72711
11,94835,67452
11,95247,60193
11,95658,55987
11,96072,53261
11,96483,51646
11,96895,48550
11,97308,48580
11,97720,46876
11,98132,44454
11,98545,42517
11,98957,40074
11,99368,37733
11,99782,36299
12,00193,36777
12,00605,34973
12,01018,36048
12,01430,36809
12,01842,35616
12,02255,36014
12,02667,35438
12,03078,30171
12,03492,31690
12,03903,28924
12,04315,28162
12,04727,25121
12,05140,24249
12,05552,23837
12,05963,20741
12,06377,20985
12,06788,18360
12,07200,18492
12,07613,17711
12,08025,18404
12,08437,18410
12,08850,18479
12,09262,18134
12,09673,18886
12,10087,18022
12,10498,19596
12,10910,19852
12,11323,25388
12,11735,34356
12,12147,56260
12,12560,105568
12,12972,195177
12,13383,346961
12,13795,568962
12,14208,839685
12,14620,1123889
12,15032,1376460
12,15445,1532508
12,15857,1573884
12,16268,1495227
12,16682,1315361
12,17093,1102387
12,17505,880832
12,17918,687533
12,18330,520684
12,18742,397563
12,19155,307028
12,19567,244149
12,19978,188886
12,20392,157584
12,20803,132554
12,21215,110724
12,21628,96531
12,22040,83669
12,22452,74124
12,22863,67841
12,23277,60370
12,23688,54852
12,24100,51275
12,24513,48219
12,24925,42465
12,25337,40803
12,25750,37934
12,26162,36546
12,26573,34414
12,26987,32145
12,27398,29976
12,27810,29513
12,28223,28135
12,28635,29087
12,29047,25831
12,29460,25064
12,29872,25372
12,30283,22672
12,30697,23850
12,31108,22242
12,31520,21845
12,31932,22622
12,32345,20972
12,32757,21906
12,33168,19583
12,33582,19760
12,33993,19119
12,34405,18488
12,34818,19826
12,35230,18205
12,35642,19139
12,36055,18111
12,36467,18458
12,36878,19545
12,37292,17196
12,37703,17647
12,38115,18440
12,38528,17008
12,38940,17375
12,39352,16445
12,39765,15114
12,40177,14338
12,40588,15057
12,41000,15445
12,41413,14869
12,41825,15779
12,42237,14784
12,42650,14525
12,43062,14511
12,43473,16721
12,43887,15435
12,44298,15361
12,44710,14342
12,45123,15075
12,45535,15056
12,45947,15440
12,46360,15040
12,46772,14030
12,47183,15663
12,47597,14059
12,48008,13576
12,48420,13355
12,48833,14837
12,49245,14282
12,49657,14946
12,50068,13337
12,50482,14181
12,50893,14506
12,51305,14044
12,51718,14562
12,52130,14938
12,52542,13192
12,52955,13794
12,53367,13503
12,53778,13538
12,54192,13964
12,54603,14016
12,55015,13554
12,55428,14109
12,55840,14920
12,56252,19078
12,56665,28080
12,57077,46369
12,57488,87805
12,57902,164490
12,58313,299486
12,58725,491530
12,59137,737555
12,59550,1019763
12,59962,1266758
12,60373,1420279
12,60787,1506623
12,61198,1475125
12,61610,1330906
12,62023,1132783
12,62435,923868
12,62847,719011
12,63260,565749
12,63672,432239
12,64083,331631
12,64497,262416
12,64908,208978
12,65320,171220
12,65733,142341
12,66145,121402
12,66557,103427
12,66970,90193
12,67382,79815
12,67793,71677
12,68205,65158
12,68618,58315
12,69030,52833
12,69442,51261
12,69855,48732
12,70267,43420
12,70678,42432
12,71092,39006
12,71503,37055
12,71915,34459
12,72328,32651
12,72740,29568
12,73152,31948
12,73565,29463
12,73977,28128
12,74388,26430
12,74802,27260
12,75213,25050
12,75625,23717
12,76038,23482
12,76450,23007
12,76862,23077
12,77273,23400
12,77687,20966
12,78098,20039
12,78510,20968
12,78923,20434
12,79335,18371
12,79747,19692
12,80160,19550
12,80572,18643
12,80983,20415
12,81397,18279
12,81808,19540
12,82220,18461
12,82633,19306
12,83045,26068
12,83457,36616
12,83870,69623
12,84282,134068
12,84693,265160
12,85107,500083
12,85518,870946
12,85930,1369477
12,86342,1945696
12,86755,2551518
12,87167,3016315
12,87578,3315203
12,87992,3330369
12,88403,3115717
12,88815,2707900
12,89228,2241204
12,89640,1763818
12,90052,1350872
12,90465,1037731
12,90877,789171
12,91288,608482
12,91702,485292
12,92113,386260
12,92525,319295
12,92938,262454
12,93350,219656
12,93762,195298
12,94175,172669
12,94587,148065
12,94998,132298
12,95410,119713
12,95823,108975
12,96235,97844
12,96647,91728
12,97060,82259
12,97472,75873
12,97883,74081
12,98297,66370
12,98708,63776
12,99120,58426
12,99533,55328
12,99945,53605
13,00357,50431
13,00770,48942
13,01182,46916
13,01593,44204
13,02007,42102
13,02418,42736
13,02830,41042
13,03243,39081
13,03655,37573
13,04067,36178
13,04478,31947
13,04892,32085
13,05303,31600
13,05715,30579
13,06128,31112
13,06540,28985
13,06952,29205
13,07365,27845
13,07777,30995
13,08188,34765
13,08602,39797
13,09013,61900
13,09425,108372
13,09838,182719
13,10250,319738
13,10662,522527
13,11075,782703
13,11487,1064516
13,11898,1314759
13,12312,1508083
13,12723,1579173
13,13135,1545604
13,13547,1386768
13,13960,1196693
13,14372,979067
13,14783,767151
13,15197,602601
13,15608,472346
13,16020,361877
13,16433,289256
13,16845,233148
13,17257,191348
13,17670,160402
13,18082,134500
13,18493,120194
13,18907,108458
13,19318,94432
13,19730,89448
13,20143,74835
13,20555,71835
13,20967,70592
13,21380,75899
13,21792,94011
13,22203,140063
13,22615,235768
13,23028,410870
13,23440,699297
13,23852,1103946
13,24265,1633980
13,24677,2197125
13,25088,2711295
13,25502,3071274
13,25913,3218832
13,26325,3092882
13,26738,2770300
13,27150,2338461
13,27562,1888817
13,27975,1472831
13,28387,1124564
13,28798,862277
13,29212,666979
13,29623,530274
13,30035,423021
13,30448,347659
13,30860,291059
13,31272,251575
13,31683,216919
13,32097,185589
13,32508,167068
13,32920,153165
13,33333,134882
13,33745,124319
13,34157,114572
13,34570,104449
13,34982,95070
13,35393,90373
13,35807,84687
13,36218,80767
13,36630,73731
13,37043,72435
13,37455,66460
13,37867,65545
13,38280,59641
13,38692,58620
13,39103,56213
13,39517,53082
13,39928,49822
13,40340,47379
13,40752,47415
13,41165,45261
13,41577,41966
13,41988,41135
13,42402,39689
13,42813,38606
13,43225,38621
13,43638,37109
13,44050,35924
13,44462,35819
13,44875,33173
13,45287,32764
13,45698,32833
13,46112,33304
13,46523,32623
13,46935,29779
13,47348,29892
13,47760,31024
13,48172,29547
13,48585,30846
13,48997,31826
13,49408,41138
13,49820,58952
13,50233,103896
13,50645,183025
13,51057,312600
13,51470,510578
13,51882,749576
13,52293,1025718
13,52707,1279302
13,53118,1475803
13,53530,1618733
13,53943,1727507
13,54355,1863600
13,54767,2044185
13,55180,2332733
13,55592,2754049
13,56003,3155389
13,56417,3432299
13,56828,3573755
13,57240,3471700
13,57653,3129965
13,58065,2635042
13,58477,2113753
13,58890,1656338
13,59302,1281461
13,59713,981060
13,60125,768492
13,60538,612340
13,60950,502902
13,61362,419737
13,61775,354829
13,62187,297012
13,62598,262071
13,63012,228887
13,63423,204882
13,63835,184926
13,64248,168130
13,64660,152262
13,65072,137375
13,65485,129246
13,65897,117093
13,66308,110257
13,66722,103262
13,67133,96866
13,67545,93113
13,67958,88939
13,68370,86814
13,68782,84182
13,69193,77801
13,69607,75664
13,70018,71506
13,70430,66537
13,70843,63750
13,71255,60377
13,71667,58986
13,72080,59002
13,72492,54387
13,72903,52893
13,73317,52474
13,73728,51010
13,74140,49579
13,74553,47574
13,74965,46491
13,75377,46872
13,75790,42881
13,76202,42362
13,76613,40196
13,77027,41546
13,77438,38588
13,77850,39705
13,78262,39461
13,78675,41155
13,79087,47846
13,79498,63256
13,79912,99025
13,80323,164344
13,80735,275805
13,81148,443145
13,81560,660815
13,81972,913592
13,82385,1153452
13,82797,1313131
13,83208,1403791
13,83622,1385593
13,84033,1262565
13,84445,1091692
13,84858,897323
13,85270,724237
13,85682,564064
13,86095,444919
13,86507,346605
13,86918,282584
13,87330,227304
13,87743,187649
13,88155,161239
13,88567,139561
13,88980,119878
13,89392,105298
13,89803,96853
13,90217,87763
13,90628,79509
13,91040,73886
13,91453,70278
13,91865,64665
13,92277,63611
13,92690,58445
13,93102,55597
13,93513,53749
13,93927,55009
13,94338,52264
13,94750,50436
13,95163,46534
13,95575,44886
13,95987,43251
13,96398,39939
13,96812,41255
13,97223,36970
13,97635,39364
13,98048,39109
13,98460,34428
13,98872,34823
13,99285,34059
13,99697,35526
14,00108,33443
14,00522,33686
14,00933,32443
14,01345,30852
14,01758,30627
14,02170,28849
14,02582,31528
14,02995,30440
14,03407,29074
14,03818,29919
14,04232,29013
14,04643,30596
14,05055,28953
14,05467,29845
14,05880,28993
14,06292,27278
14,06703,27366
14,07117,26878
14,07528,26826
14,07940,26036
14,08353,25575
14,08765,25481
14,09177,24948
14,09590,25572
14,10002,25154
14,10413,25960
14,10827,25975
14,11238,25680
14,11650,25613
14,12063,26223
14,12475,23597
14,12887,25208
14,13300,23697
14,13712,24578
14,14123,25412
14,14535,24444
14,14948,24801
14,15360,23475
14,15772,22971
14,16185,23362
14,16597,23352
14,17008,22582
14,17422,24051
14,17833,22790
14,18245,23207
14,18658,27732
14,19070,32886
14,19482,50980
14,19895,92086
14,20307,181736
14,20718,356947
14,21132,677341
14,21543,1177306
14,21955,1862326
14,22368,2658345
14,22780,3510964
14,23192,4266299
14,23603,4730730
14,24017,4814011
14,24428,4499159
14,24840,3945038
14,25253,3311069
14,25665,2635679
14,26077,2030341
14,26490,1567426
14,26902,1219233
14,27313,957003
14,27727,771506
14,28138,624250
14,28550,526525
14,28963,440508
14,29375,379640
14,29787,328452
14,30200,288210
14,30612,254631
14,31023,232252
14,31437,212532
14,31848,190770
14,32260,168553
14,32672,160502
14,33085,148451
14,33497,138260
14,33908,128339
14,34322,123929
14,34733,111645
14,35145,108401
14,35558,102491
14,35970,97151
14,36382,92157
14,36795,88722
14,37207,82029
14,37618,80472
14,38032,73821
14,38443,71047
14,38855,69076
14,39268,70088
14,39680,65961
14,40092,64005
14,40505,62705
14,40917,58737
14,41328,56760
14,41740,55735
14,42153,56994
14,42565,56182
14,42977,58237
14,43390,58648
14,43802,61822
14,44213,66984
14,44627,72177
14,45038,80549
14,45450,98245
14,45863,131267
14,46275,198241
14,46687,304709
14,47100,463273
14,47512,653005
14,47923,853156
14,48337,1058721
14,48748,1180719
14,49160,1236092
14,49573,1204710
14,49985,1087980
14,50397,932340
14,50808,767447
14,51222,621182
14,51633,492545
14,52045,388008
14,52458,310804
14,52870,252077
14,53282,207556
14,53695,176781
14,54107,155096
14,54518,137256
14,54932,124988
14,55343,121754
14,55755,133968
14,56168,172770
14,56580,244150
14,56992,377656
14,57405,569256
14,57817,826830
14,58228,1122357
14,58642,1386705
14,59053,1571405
14,59465,1654715
14,59877,1613391
14,60290,1464114
14,60702,1263330
14,61113,1047654
14,61527,842195
14,61938,674960
14,62350,536390
14,62763,434874
14,63175,361428
14,63587,297946
14,64000,253930
14,64412,223103
14,64823,195308
14,65237,174762
14,65648,160197
14,66060,140737
14,66473,130397
14,66885,121994
14,67297,109015
14,67710,102908
14,68122,101377
14,68533,89534
14,68945,90925
14,69358,83323
14,69770,77124
14,70182,75249
14,70595,72317
14,71007,69939
14,71418,65424
14,71832,64147
14,72243,62716
14,72655,59450
14,73068,60650
14,73480,57018
14,73892,56665
14,74305,55849
14,74717,51929
14,75128,52403
14,75542,49594
14,75953,49973
14,76365,48339
14,76778,48354
14,77190,47168
14,77602,45178
14,78013,44382
14,78427,45036
14,78838,44163
14,79250,43885
14,79663,43920
14,80075,43313
14,80487,42527
14,80900,41176
14,81312,41621
14,81723,39739
14,82137,40981
14,82548,40982
14,82960,42193
14,83373,45502
14,83785,56335
14,84197,82881
14,84610,140252
14,85022,234313
14,85433,396209
14,85847,629952
14,86258,930274
14,86670,1258566
14,87082,1545961
14,87495,1736644
14,87907,1764723
14,88318,1669259
14,88732,1469282
14,89143,1235290
14,89555,1007811
14,89968,807314
14,90380,649178
14,90792,524095
14,91205,432702
14,91617,360238
14,92028,300272
14,92442,264346
14,92853,229023
14,93265,207099
14,93678,179715
14,94090,166511
14,94502,148963
14,94915,138760
14,95327,126185
14,95738,119954
14,96150,111044
14,96563,105984
14,96975,96637
14,97387,89521
14,97800,89618
14,98212,85836
14,98623,80176
14,99037,77984
14,99448,76739
14,99860,76557
15,00273,73147
15,00685,71505
15,01097,67986
15,01510,66833
15,01922,64082
15,02333,61992
15,02747,59567
15,03158,60639
15,03570,58005
15,03983,56708
15,04395,53371
15,04807,55730
15,05218,52181
15,05632,52230
15,06043,53017
15,06455,49515
15,06868,49577
15,07280,49477
15,07692,49231
15,08105,47816
15,08517,47239
15,08928,45831
15,09342,48127
15,09753,53397
15,10165,63591
15,10578,90321
15,10990,146171
15,11402,233454
15,11815,388408
15,12227,588010
15,12638,836202
15,13052,1108934
15,13463,1317065
15,13875,1459380
15,14287,1453584
15,14700,1350647
15,15112,1194902
15,15523,999502
15,15937,815245
15,16348,655722
15,16760,515322
15,17173,421437
15,17585,349854
15,17997,288470
15,18410,244400
15,18822,209172
15,19233,183329
15,19647,163552
15,20058,146684
15,20470,131872
15,20883,120366
15,21295,115420
15,21707,105039
15,22120,100032
15,22532,92439
15,22943,88799
15,23357,83452
15,23768,79397
15,24180,77495
15,24592,73517
15,25005,72019
15,25417,65701
15,25828,68306
15,26242,65258
15,26653,63061
15,27065,59020
15,27478,58447
15,27890,58401
15,28302,56711
15,28715,54732
15,29127,52691
15,29538,52821
15,29952,50633
15,30363,51638
15,30775,47894
15,31188,52854
15,31600,49512
15,32012,47859
15,32425,45063
15,32837,46924
15,33248,49238
15,33660,45744
15,34073,45284
15,34485,47530
15,34897,45738
15,35310,47354
15,35722,43598
15,36133,47820
15,36547,44653
15,36958,44707
15,37370,42450
15,37783,44284
15,38195,44632
15,38607,41023
15,39020,43046
15,39432,42744
15,39843,44015
15,40257,43388
15,40668,42788
15,41080,42665
15,41493,41434
15,41905,41645
15,42317,39785
15,42728,40346
15,43142,43519
15,43553,39808
15,43965,40780
15,44378,42946
15,44790,40700
15,45202,45801
15,45615,50582
15,46027,62722
15,46438,89340
15,46852,152466
15,47263,273950
15,47675,482668
15,48088,824365
15,48500,1294997
15,48912,1942240
15,49325,2600127
15,49737,3280117
15,50148,3797974
15,50562,4067145
15,50973,4083946
15,51385,3929997
15,51797,3637019
15,52210,3301289
15,52622,2937200
15,53033,2584815
15,53447,2194865
15,53858,1852059
15,54270,1534612
15,54683,1265285
15,55095,1036154
15,55507,852915
15,55920,704537
15,56332,599260
15,56743,512939
15,57157,452077
15,57568,394867
15,57980,354681
15,58393,316781
15,58805,289942
15,59217,269014
15,59630,244379
15,60042,226318
15,60453,214861
15,60865,197503
15,61278,190151
15,61690,179133
15,62102,169576
15,62515,162016
15,62927,154640
15,63338,148589
15,63752,142623
15,64163,135824
15,64575,129843
15,64988,123621
15,65400,121626
15,65812,114541
15,66225,115170
15,66637,109813
15,67048,104960
15,67462,105129
15,67873,102113
15,68285,100969
15,68698,96349
15,69110,98005
15,69522,94771
15,69933,95075
15,70347,87632
15,70758,89937
15,71170,92417
15,71583,93657
15,71995,101374
15,72407,120349
15,72820,162833
15,73232,234721
15,73643,355075
15,74057,513509
15,74468,718757
15,74880,945382
15,75293,1138756
15,75705,1269734
15,76117,1324842
15,76530,1276426
15,76942,1175452
15,77353,1027211
15,77767,881369
15,78178,748009
15,78590,660490
15,79002,641184
15,79415,677675
15,79827,775636
15,80238,931331
15,80652,1124456
15,81063,1308982
15,81475,1479002
15,81888,1615857
15,82300,1763169
15,82712,1879100
15,83125,1977781
15,83537,2089096
15,83948,2150420
15,84362,2133647
15,84773,2040619
15,85185,1849797
15,85598,1640932
15,86010,1375442
15,86422,1152547
15,86835,960523
15,87247,792268
15,87658,666552
15,88070,566642
15,88483,489355
15,88895,431246
15,89307,388938
15,89720,338961
15,90132,309449
15,90543,282011
15,90957,260640
15,91368,243125
15,91780,223996
15,92193,206219
15,92605,192883
15,93017,186291
15,93430,175592
15,93842,166395
15,94253,156876
15,94667,151838
15,95078,142535
15,95490,134899
15,95903,133463
15,96315,128066
15,96727,123126
15,97138,117523
15,97552,110871
15,97963,109972
15,98375,105441
15,98788,107302
15,99200,99062
15,99612,94507
16,00025,94600
16,00437,92055
16,00848,92243
16,01262,88819
16,01673,87054
16,02085,85116
16,02498,81620
16,02910,80966
16,03322,82259
16,03735,79104
16,04147,75628
16,04558,80241
16,04972,75397
16,05383,73828
16,05795,78216
16,06207,77957
16,06620,81637
16,07032,100458
16,07443,120389
16,07857,182131
16,08268,276041
16,08680,415675
16,09093,630242
16,09505,887988
16,09917,1178612
16,10330,1433263
16,10742,1610383
16,11153,1648836
16,11567,1576544
16,11978,1420714
16,12390,1235166
16,12803,1056478
16,13215,883864
16,13627,738445
16,14040,615710
16,14452,527952
16,14863,463176
16,15275,399987
16,15688,354997
16,16100,315650
16,16512,284953
16,16925,262304
16,17337,238860
16,17748,224599
16,18162,203758
16,18573,195665
16,18985,184399
16,19398,173026
16,19810,169446
16,20222,161477
16,20635,154794
16,21047,149934
16,21458,148822
16,21872,136976
16,22283,133033
16,22695,129517
16,23108,127986
16,23520,120324
16,23932,115006
16,24343,113662
16,24757,111014
16,25168,108797
16,25580,102624
16,25993,98864
16,26405,98196
16,26817,91593
16,27230,94796
16,27642,90803
16,28053,91335
16,28467,87066
16,28878,83664
16,29290,82060
16,29703,84580
16,30115,83688
16,30527,78129
16,30940,80754
16,31352,77277
16,31763,75586
16,32177,79267
16,32588,75929
16,33000,75022
16,33412,75860
16,33825,78235
16,34237,87910
16,34648,104116
16,35062,137289
16,35473,199351
16,35885,301505
16,36298,454379
16,36710,640680
16,37122,852152
16,37535,1052338
16,37947,1235326
16,38358,1327847
16,38772,1346991
16,39183,1274773
16,39595,1151962
16,40008,1005436
16,40420,866938
16,40832,729077
16,41245,612389
16,41657,515183
16,42068,447429
16,42480,381334
16,42893,338224
16,43305,298260
16,43717,272374
16,44130,259277
16,44542,256686
16,44953,271070
16,45367,316516
16,45778,387306
16,46190,502174
16,46603,629259
16,47015,780803
16,47427,917046
16,47840,1025509
16,48252,1075801
16,48663,1079119
16,49077,1033558
16,49488,937774
16,49900,835743
16,50313,718862
16,50725,615929
16,51137,521690
16,51548,437285
16,51962,371506
16,52373,325740
16,52785,281596
16,53198,250653
16,53610,222012
16,54022,200326
16,54435,183792
16,54847,172751
16,55258,159631
16,55672,148582
16,56083,142850
16,56495,131225
16,56908,125991
16,57320,120029
16,57732,115664
16,58145,113386
16,58557,108504
16,58968,103773
16,59382,101782
16,59793,101671
16,60205,98238
16,60617,91807
16,61030,93421
16,61442,92490
16,61853,85842
16,62267,82286
16,62678,84918
16,63090,83963
16,63503,80212
16,63915,80481
16,64327,81235
16,64740,77148
16,65152,76496
16,65563,76544
16,65977,75611
16,66388,72791
16,66800,70582
16,67213,71049
16,67625,70157
16,68037,71274
16,68450,72767
16,68862,79376
16,69273,86068
16,69685,106501
16,70098,141294
16,70510,208772
16,70922,317094
16,71335,483317
16,71747,726205
16,72158,1064425
16,72572,1488236
16,72983,1927037
16,73395,2394285
16,73808,2729775
16,74220,2968965
16,74632,2967984
16,75045,2802973
16,75457,2520443
16,75868,2158191
16,76282,1837686
16,76693,1529536
16,77105,1290701
16,77518,1084566
16,77930,945636
16,78342,814827
16,78755,710785
16,79167,627324
16,79578,562834
16,79990,502780
16,80403,464158
16,80815,425306
16,81227,386265
16,81640,358425
16,82052,335560
16,82463,313954
16,82877,289694
16,83288,276996
16,83700,265760
16,84113,249325
16,84525,234346
16,84937,223550
16,85350,216998
16,85762,206019
16,86173,197475
16,86587,187890
16,86998,181696
16,87410,175518
16,87823,165367
16,88235,158116
16,88647,154727
16,89058,152814
16,89472,146895
16,89883,143928
16,90295,140165
16,90708,136957
16,91120,134587
16,91532,128377
16,91945,127914
16,92357,117931
16,92768,118095
16,93182,115909
16,93593,116751
16,94005,112446
16,94418,112673
16,94830,107355
16,95242,107854
16,95655,107533
16,96067,102384
16,96478,101961
16,96892,98527
16,97303,99719
16,97715,95315
16,98127,95936
16,98540,94259
16,98952,93045
16,99363,90320
16,99777,91617
17,00188,88571
17,00600,91951
17,01013,91446
17,01425,85968
17,01837,85599
17,02250,83538
17,02662,87625
17,03073,84250
17,03487,83355
17,03898,82375
17,04310,80171
17,04723,83292
17,05135,86326
17,05547,82799
17,05960,96675
17,06372,110880
17,06783,138539
17,07195,182225
17,07608,258795
17,08020,362043
17,08432,500157
17,08845,681944
17,09257,874631
17,09668,1063039
17,10082,1216201
17,10493,1294333
17,10905,1320470
17,11318,1278590
17,11730,1197364
17,12142,1072045
17,12555,955496
17,12967,824851
17,13378,723878
17,13792,637413
17,14203,548074
17,14615,494570
17,15028,437320
17,15440,393899
17,15852,355747
17,16263,327874
17,16677,300861
17,17088,283450
17,17500,258728
17,17913,242982
17,18325,228981
17,18737,215404
17,19150,206009
17,19562,192240
17,19973,186152
17,20387,179147
17,20798,171220
17,21210,164831
17,21623,158271
17,22035,150174
17,22447,144042
17,22860,141052
17,23272,139819
17,23683,131554
17,24097,130188
17,24508,124086
17,24920,122347
17,25332,117754
17,25745,113819
17,26157,114973
17,26568,112923
17,26982,107013
17,27393,104562
17,27805,105219
17,28218,104477
17,28630,98304
17,29042,98158
17,29455,95992
17,29867,94161
17,30278,90789
17,30692,93132
17,31103,93635
17,31515,88790
17,31928,88838
17,32340,87826
17,32752,86257
17,33165,90253
17,33577,84394
17,33988,85242
17,34400,83844
17,34813,83129
17,35225,80574
17,35637,82121
17,36050,82042
17,36462,82744
17,36873,76071
17,37287,78115
17,37698,75749
17,38110,75627
17,38523,75689
17,38935,77426
17,39347,76354
17,39760,76666
17,40172,74925
17,40583,72793
17,40997,71225
17,41408,69744
17,41820,70721
17,42233,70666
17,42645,72817
17,43057,73028
17,43468,72576
17,43882,69373
17,44293,67765
17,44705,69069
17,45118,69669
17,45530,71715
17,45942,69898
17,46355,68519
17,46767,65600
17,47178,67851
17,47592,65872
17,48003,65172
17,48415,67200
17,48828,64640
17,49240,64084
17,49652,65427
17,50065,65071
17,50477,61826
17,50888,62885
17,51302,62883
17,51713,61951
17,52125,63776
17,52537,63285
17,52950,64936
17,53362,64957
17,53773,68892
17,54187,71543
17,54598,72580
17,55010,83224
17,55423,89033
17,55835,99761
17,56247,106792
17,56660,114837
17,57072,117619
17,57483,121423
17,57897,124402
17,58308,121679
17,58720,115123
17,59133,110211
17,59545,107325
17,59957,98935
17,60370,94278
17,60782,89076
17,61193,83463
17,61605,79847
17,62018,74657
17,62430,71490
17,62842,70144
17,63255,71056
17,63667,67260
17,64078,67167
17,64492,67127
17,64903,64904
17,65315,61931
17,65728,60499
17,66140,61020
17,66552,62335
17,66965,61754
17,67377,57938
17,67788,59834
17,68202,59868
17,68613,58767
17,69025,61288
17,69438,58612
17,69850,57893
17,70262,57481
17,70673,55692
17,71087,56901
17,71498,57322
17,71910,54594
17,72323,57298
17,72735,56186
17,73147,57476
17,73560,58438
17,73972,56034
17,74383,55602
17,74797,55384
17,75208,55619
17,75620,55911
17,76033,57662
17,76445,57655
17,76857,57710
17,77270,54762
17,77682,56784
17,78093,58282
17,78507,57219
17,78918,56132
17,79330,58000
17,79742,56678
17,80155,57038
17,80567,56054
17,80978,56918
17,81392,56442
17,81803,54513
17,82215,61050
17,82628,55468
17,83040,56809
17,83452,55661
17,83865,56658
17,84277,51714
17,84688,56037
17,85102,55270
17,85513,56111
17,85925,54836
17,86338,56836
17,86750,54430
17,87162,55191
17,87575,51865
17,87987,51364
17,88398,56309
17,88810,53188
17,89223,53675
17,89635,54546
17,90047,57081
17,90460,55346
17,90872,52245
17,91283,55355
17,91697,53935
17,92108,52668
17,92520,53856
17,92933,54199
17,93345,52565
17,93757,55207
17,94170,53684
17,94582,50227
17,94993,54210
17,95407,52778
17,95818,52989
17,96230,51639
17,96643,51982
17,97055,52506
17,97467,54085
17,97878,52982
17,98292,54730
17,98703,54540
17,99115,54544
17,99528,55962
17,99940,54069
18,00352,54130
18,00765,54412
18,01177,52187
18,01588,52566
18,02002,55502
18,02413,51433
18,02825,54438
18,03238,50600
18,03650,54644
18,04062,55976
18,04475,53108
18,04887,52541
18,05298,51784
18,05712,55683
18,06123,51756
18,06535,49978
18,06947,51096
18,07360,51994
18,07772,52940
18,08183,51069
18,08597,51684
18,09008,53309
18,09420,50704
18,09833,53665
18,10245,52259
18,10657,51658
18,11070,51763
18,11482,53599
18,11893,53772
18,12307,52269
18,12718,53930
18,13130,53161
18,13543,52224
18,13955,52788
18,14367,55893
18,14780,52172
18,15192,55716
18,15603,55098
18,16015,60609
18,16428,62959
18,16840,71646
18,17252,86236
18,17665,107551
18,18077,142288
18,18488,184663
18,18902,244469
18,19313,318556
18,19725,403214
18,20138,485003
18,20550,562591
18,20962,621554
18,21375,658017
18,21787,676095
18,22198,666575
18,22612,635287
18,23023,592940
18,23435,543888
18,23848,492909
18,24260,442682
18,24672,392697
18,25083,354059
18,25497,314047
18,25908,286496
18,26320,257548
18,26733,232086
18,27145,212267
18,27557,197154
18,27970,178618
18,28382,165965
18,28793,154418
18,29207,142386
18,29618,140866
18,30030,131746
18,30443,122623
18,30855,118946
18,31267,113146
18,31680,109076
18,32092,109170
18,32503,101070
18,32917,98162
18,33328,93768
18,33740,93036
18,34152,91331
18,34565,88519
18,34977,89466
18,35388,88910
18,35802,84622
18,36213,81864
18,36625,80592
18,37038,81356
18,37450,76982
18,37862,76418
18,38275,73251
18,38687,76899
18,39098,74694
18,39512,73064
18,39923,74364
18,40335,73293
18,40748,71085
18,41160,71106
18,41572,70626
18,41985,68583
18,42397,71206
18,42808,68443
18,43222,65955
18,43633,67338
18,44045,66499
18,44457,65804
18,44870,66882
18,45282,66516
18,45693,65770
18,46107,65449
18,46518,64237
18,46930,64846
18,47343,64008
18,47755,61282
18,48167,62389
18,48580,62495
18,48992,64014
18,49403,61425
18,49817,60490
18,50228,59668
18,50640,59946
18,51053,57111
18,51465,60703
18,51877,59689
18,52290,56344
18,52702,60830
18,53113,61132
18,53525,57283
18,53938,58495
18,54350,57625
18,54762,57010
18,55175,56280
18,55587,56286
18,55998,60140
18,56412,55930
18,56823,57487
18,57235,56359
18,57648,55839
18,58060,58100
18,58472,55968
18,58885,57476
18,59297,57326
18,59708,54700
18,60122,58030
18,60533,56917
18,60945,57462
18,61358,56529
18,61770,55539
18,62182,56723
18,62593,55656
18,63007,54885
18,63418,55818
18,63830,53144
18,64243,56370
18,64655,54382
18,65067,57675
18,65480,55980
18,65892,55336
18,66303,55692
18,66717,55430
18,67128,52801
18,67540,53706
18,67953,54165
18,68365,52861
18,68777,55598
18,69190,53458
18,69602,55168
18,70013,57388
18,70427,54997
18,70838,52256
18,71250,55698
18,71662,54778
18,72075,54744
18,72487,55038
18,72898,57256
18,73312,57795
18,73723,55419
18,74135,53776
18,74548,57371
18,74960,54646
18,75372,53805
18,75785,53666
18,76197,56009
18,76608,52441
18,77022,52219
18,77433,55575
18,77845,54001
18,78258,54172
18,78670,53997
18,79082,54597
18,79495,54024
18,79907,55034
18,80318,52291
18,80730,50558
18,81143,55195
18,81555,54125
18,81967,52770
18,82380,55288
18,82792,53954
18,83203,54395
18,83617,52249
18,84028,55407
18,84440,52910
18,84853,55543
18,85265,52698
18,85677,55207
18,86090,52900
18,86502,54893
