D:\MassHunter\GCMS\1\data\Amal\Constant flow\90C\90C_1ml-min_7C-min_3.D Thu Sep 19 17:13:15 2024
Start of data points
5,89083	317351
5,89495	311389
5,89907	299723
5,90320	286435
5,90732	269676
5,91143	255665
5,91555	246255
5,91968	228432
5,92380	213306
5,92792	204393
5,93205	196749
5,93617	185714
5,94028	174954
5,94442	169709
5,94853	160837
5,95265	152278
5,95678	145212
5,96090	135485
5,96502	134791
5,96915	126974
5,97327	125175
5,97738	118105
5,98152	111288
5,98563	109070
5,98975	106267
5,99388	102300
5,99800	98783
6,00212	98432
6,00625	94350
6,01037	92859
6,01448	92336
6,01860	87405
6,02273	85284
6,02685	85308
6,03097	83331
6,03510	79380
6,03922	80730
6,04333	77946
6,04747	77169
6,05158	76114
6,05570	74904
6,05983	72496
6,06395	72503
6,06807	71366
6,07220	71385
6,07632	71261
6,08043	68824
6,08457	67394
6,08868	66618
6,09280	69260
6,09693	66538
6,10105	69996
6,10517	67701
6,10928	64667
6,11342	63015
6,11753	62498
6,12165	66344
6,12578	64641
6,12990	64216
6,13402	63825
6,13815	63998
6,14227	61749
6,14638	61919
6,15052	61252
6,15463	60295
6,15875	62230
6,16288	62182
6,16700	60860
6,17112	61002
6,17525	58553
6,17937	58176
6,18348	58051
6,18762	60881
6,19173	59261
6,19585	61047
6,19997	60547
6,20410	59016
6,20822	56903
6,21233	57370
6,21647	58446
6,22058	58201
6,22470	58078
6,22883	57212
6,23295	57663
6,23707	59171
6,24120	58219
6,24532	58368
6,24943	55627
6,25357	58565
6,25768	56461
6,26180	55113
6,26593	56527
6,27005	55523
6,27417	54241
6,27830	56134
6,28242	55562
6,28653	56769
6,29065	57271
6,29478	55523
6,29890	57764
6,30302	55752
6,30715	57758
6,31127	55529
6,31538	53480
6,31952	55610
6,32363	55381
6,32775	56093
6,33188	53304
6,33600	53665
6,34012	52376
6,34425	52748
6,34837	53680
6,35248	52025
6,35662	51652
6,36073	54596
6,36485	50761
6,36898	50364
6,37310	51047
6,37722	50789
6,38133	49846
6,38547	51598
6,38958	49036
6,39370	48156
6,39783	49328
6,40195	49280
6,40607	47396
6,41020	46607
6,41432	47480
6,41843	44554
6,42257	46499
6,42668	46956
6,43080	47840
6,43493	47325
6,43905	47602
6,44317	47107
6,44730	44481
6,45142	45481
6,45553	44091
6,45967	46396
6,46378	45978
6,46790	46794
6,47202	46770
6,47615	46692
6,48027	45705
6,48438	47123
6,48852	46602
6,49263	45946
6,49675	44841
6,50088	45005
6,50500	43944
6,50912	43880
6,51325	44035
6,51737	44757
6,52148	45089
6,52562	44732
6,52973	44312
6,53385	44380
6,53798	43295
6,54210	43879
6,54622	41699
6,55035	40530
6,55447	43519
6,55858	42284
6,56270	41032
6,56683	40310
6,57095	41895
6,57507	39034
6,57920	41345
6,58332	40270
6,58743	42602
6,59157	43182
6,59568	40455
6,59980	41465
6,60393	40504
6,60805	41595
6,61217	40448
6,61630	38992
6,62042	39905
6,62453	39546
6,62867	37559
6,63278	39190
6,63690	39487
6,64103	38591
6,64515	39199
6,64927	39008
6,65338	38607
6,65752	40692
6,66163	37864
6,66575	40065
6,66988	39048
6,67400	36898
6,67812	36832
6,68225	37406
6,68637	36153
6,69048	35137
6,69462	35640
6,69873	38116
6,70285	37576
6,70698	37215
6,71110	37586
6,71522	36924
6,71935	37223
6,72347	40650
6,72758	38603
6,73172	39495
6,73583	39990
6,73995	39841
6,74407	39025
6,74820	41503
6,75232	42740
6,75643	46510
6,76057	44167
6,76468	45352
6,76880	43679
6,77293	45311
6,77705	45838
6,78117	46594
6,78530	44818
6,78942	44853
6,79353	46358
6,79767	43586
6,80178	44877
6,80590	44722
6,81003	43827
6,81415	47599
6,81827	45704
6,82240	47554
6,82652	49353
6,83063	47790
6,83475	50677
6,83888	48979
6,84300	51367
6,84712	52708
6,85125	50511
6,85537	51930
6,85948	50706
6,86362	48933
6,86773	49752
6,87185	50871
6,87598	50095
6,88010	50990
6,88422	47891
6,88835	46956
6,89247	44895
6,89658	46601
6,90072	46553
6,90483	45472
6,90895	44267
6,91308	45490
6,91720	43812
6,92132	43199
6,92543	44226
6,92957	43268
6,93368	42820
6,93780	40310
6,94193	39659
6,94605	40494
6,95017	40076
6,95430	39271
6,95842	39940
6,96253	40049
6,96667	38484
6,97078	38250
6,97490	39017
6,97903	37079
6,98315	37469
6,98727	39992
6,99140	38601
6,99552	39225
6,99963	36711
7,00377	36795
7,00788	37536
7,01200	37141
7,01612	38366
7,02025	34880
7,02437	36556
7,02848	35396
7,03262	34902
7,03673	34530
7,04085	35363
7,04498	33799
7,04910	36068
7,05322	33515
7,05735	34356
7,06147	35411
7,06558	35524
7,06972	35107
7,07383	37470
7,07795	34839
7,08208	34437
7,08620	35762
7,09032	34619
7,09445	34492
7,09857	34935
7,10268	33749
7,10680	34196
7,11093	33945
7,11505	33852
7,11917	32717
7,12330	32489
7,12742	34303
7,13153	34832
7,13567	32675
7,13978	35220
7,14390	31687
7,14803	31922
7,15215	34050
7,15627	33807
7,16040	32012
7,16452	31382
7,16863	31989
7,17277	32056
7,17688	31168
7,18100	31366
7,18513	30515
7,18925	32166
7,19337	32524
7,19748	30037
7,20162	29740
7,20573	30020
7,20985	30758
7,21398	29143
7,21810	28740
7,22222	31484
7,22635	32178
7,23047	34991
7,23458	44934
7,23872	57762
7,24283	82255
7,24695	126908
7,25108	190041
7,25520	283024
7,25932	395608
7,26345	534698
7,26757	681809
7,27168	834316
7,27582	977513
7,27993	1090888
7,28405	1178285
7,28817	1220098
7,29230	1227668
7,29642	1207307
7,30053	1170970
7,30467	1117328
7,30878	1065172
7,31290	979556
7,31703	909780
7,32115	838515
7,32527	781063
7,32940	708300
7,33352	655149
7,33763	583740
7,34177	527798
7,34588	481508
7,35000	432576
7,35413	388764
7,35825	343013
7,36237	310114
7,36650	268966
7,37062	242374
7,37473	213176
7,37885	193709
7,38298	168318
7,38710	155474
7,39122	138037
7,39535	123290
7,39947	111455
7,40358	102587
7,40772	95657
7,41183	87224
7,41595	81939
7,42008	75480
7,42420	72807
7,42832	66548
7,43245	63812
7,43657	61342
7,44068	57784
7,44482	56011
7,44893	51875
7,45305	50718
7,45718	48724
7,46130	45919
7,46542	44222
7,46953	44474
7,47367	43657
7,47778	43644
7,48190	41377
7,48603	40294
7,49015	39933
7,49427	40910
7,49840	41859
7,50252	39141
7,50663	37475
7,51077	37503
7,51488	36712
7,51900	35674
7,52313	35350
7,52725	34666
7,53137	33392
7,53550	35463
7,53962	32863
7,54373	33775
7,54787	32189
7,55198	31347
7,55610	31024
7,56023	32400
7,56435	32135
7,56847	30881
7,57258	32078
7,57672	32710
7,58083	31185
7,58495	30271
7,58908	30585
7,59320	29815
7,59732	31384
7,60145	29191
7,60557	30280
7,60968	31300
7,61382	28878
7,61793	29088
7,62205	29203
7,62618	28611
7,63030	27233
7,63442	29632
7,63855	27951
7,64267	26495
7,64678	27321
7,65092	27986
7,65503	26121
7,65915	28617
7,66327	26785
7,66740	27179
7,67152	26781
7,67563	25592
7,67977	27029
7,68388	26200
7,68800	26054
7,69213	25494
7,69625	25635
7,70037	26543
7,70450	26930
7,70862	24990
7,71273	25034
7,71687	26336
7,72098	24628
7,72510	26121
7,72923	25552
7,73335	24075
7,73747	25813
7,74160	24437
7,74572	24996
7,74983	25677
7,75395	24117
7,75808	24408
7,76220	24367
7,76632	25562
7,77045	24655
7,77457	24095
7,77868	25229
7,78282	24590
7,78693	24889
7,79105	24997
7,79518	23630
7,79930	25786
7,80342	23172
7,80755	23898
7,81167	24093
7,81578	24029
7,81992	25719
7,82403	24182
7,82815	22157
7,83228	23539
7,83640	25229
7,84052	25333
7,84463	24117
7,84877	23084
7,85288	25480
7,85700	22119
7,86113	24428
7,86525	22926
7,86937	24126
7,87350	23702
7,87762	24000
7,88173	22896
7,88587	23470
7,88998	22937
7,89410	22559
7,89823	23054
7,90235	24140
7,90647	23471
7,91060	21970
7,91472	22259
7,91883	22251
7,92297	21327
7,92708	22200
7,93120	21953
7,93532	21232
7,93945	23006
7,94357	22668
7,94768	21759
7,95182	23372
7,95593	24604
7,96005	23021
7,96418	23088
7,96830	23690
7,97242	23584
7,97655	23932
7,98067	22931
7,98478	21801
7,98892	22734
7,99303	23361
7,99715	22460
8,00128	22460
8,00540	23702
8,00952	22881
8,01365	21878
8,01777	22351
8,02188	23712
8,02600	22995
8,03013	23767
8,03425	22488
8,03837	21539
8,04250	23173
8,04662	22935
8,05073	22005
8,05487	21872
8,05898	22466
8,06310	24124
8,06723	21964
8,07135	21003
8,07547	22890
8,07960	22316
8,08372	20828
8,08783	21185
8,09197	23208
8,09608	20215
8,10020	22111
8,10433	22597
8,10845	21311
8,11257	19903
8,11668	21087
8,12082	20425
8,12493	20418
8,12905	19677
8,13318	21551
8,13730	20772
8,14142	20412
8,14555	19898
8,14967	19599
8,15378	18828
8,15792	19542
8,16203	20115
8,16615	19400
8,17028	20612
8,17440	20014
8,17852	18330
8,18265	20153
8,18677	19958
8,19088	19547
8,19502	19973
8,19913	18951
8,20325	19830
8,20737	20392
8,21150	20099
8,21562	19340
8,21973	19496
8,22387	20245
8,22798	20480
8,23210	20690
8,23623	20817
8,24035	19702
8,24447	22193
8,24860	21239
8,25272	22066
8,25683	21555
8,26097	21357
8,26508	22155
8,26920	21827
8,27333	20966
8,27745	21062
8,28157	21858
8,28570	20752
8,28982	20705
8,29393	20074
8,29805	19655
8,30218	19177
8,30630	18698
8,31042	18386
8,31455	19384
8,31867	19280
8,32278	19629
8,32692	19817
8,33103	18810
8,33515	19853
8,33928	21118
8,34340	21021
8,34752	18721
8,35165	18655
8,35577	19454
8,35988	18778
8,36402	19810
8,36813	19181
8,37225	17590
8,37638	18024
8,38050	19240
8,38462	18902
8,38873	19843
8,39287	19227
8,39698	20880
8,40110	20311
8,40523	21509
8,40935	20346
8,41347	23307
8,41760	23816
8,42172	23663
8,42583	22238
8,42997	23963
8,43408	22579
8,43820	23934
8,44233	22677
8,44645	23087
8,45057	24094
8,45470	23215
8,45882	21910
8,46293	22415
8,46707	20904
8,47118	20494
8,47530	21731
8,47942	21503
8,48355	20752
8,48767	20117
8,49178	20186
8,49592	19361
8,50003	18769
8,50415	20471
8,50828	17137
8,51240	18676
8,51652	19274
8,52065	17658
8,52477	19444
8,52888	18360
8,53302	18597
8,53713	18100
8,54125	17345
8,54538	18373
8,54950	16868
8,55362	18229
8,55775	17352
8,56187	16200
8,56598	18212
8,57010	19186
8,57423	17049
8,57835	16954
8,58247	17459
8,58660	17565
8,59072	18218
8,59483	17174
8,59897	17004
8,60308	17022
8,60720	17106
8,61133	18258
8,61545	17802
8,61957	18132
8,62370	16572
8,62782	17560
8,63193	15866
8,63607	18029
8,64018	17077
8,64430	17749
8,64843	17668
8,65255	17104
8,65667	17819
8,66078	18612
8,66492	16708
8,66903	16015
8,67315	16790
8,67728	16695
8,68140	16445
8,68552	16637
8,68965	15523
8,69377	17814
8,69788	17496
8,70202	17174
8,70613	18375
8,71025	17504
8,71438	16988
8,71850	17207
8,72262	15841
8,72675	16492
8,73087	15970
8,73498	15909
8,73912	16234
8,74323	15399
8,74735	15739
8,75147	15054
8,75560	16408
8,75972	15567
8,76383	16197
8,76797	15835
8,77208	14884
8,77620	16572
8,78033	14879
8,78445	16526
8,78857	16763
8,79270	15752
8,79682	16911
8,80093	16850
8,80507	16839
8,80918	16227
8,81330	16145
8,81743	14970
8,82155	16531
8,82567	15253
8,82980	14239
8,83392	15109
8,83803	14981
8,84215	15585
8,84628	15934
8,85040	15123
8,85452	14180
8,85865	14710
8,86277	15147
8,86688	14796
8,87102	15370
8,87513	16728
8,87925	14984
8,88338	15508
8,88750	16043
8,89162	15957
8,89575	15196
8,89987	16047
8,90398	13921
8,90812	15022
8,91223	15532
8,91635	16460
8,92048	15521
8,92460	16990
8,92872	17182
8,93283	14943
8,93697	16416
8,94108	14631
8,94520	16426
8,94933	15638
8,95345	16017
8,95757	16946
8,96170	16311
8,96582	16171
8,96993	15647
8,97407	15580
8,97818	14678
8,98230	15184
8,98643	15529
8,99055	14471
8,99467	17043
8,99880	15259
9,00292	14911
9,00703	15369
9,01117	14693
9,01528	15069
9,01940	15579
9,02352	14514
9,02765	16240
9,03177	15692
9,03588	15263
9,04002	15231
9,04413	15379
9,04825	16523
9,05238	16126
9,05650	15444
9,06062	16077
9,06475	15511
9,06887	15854
9,07298	15734
9,07712	15370
9,08123	15927
9,08535	14954
9,08948	14225
9,09360	15593
9,09772	14879
9,10185	16772
9,10597	15116
9,11008	15763
9,11420	14673
9,11833	16821
9,12245	15528
9,12657	15528
9,13070	13600
9,13482	12999
9,13893	15561
9,14307	14909
9,14718	14090
9,15130	14447
9,15543	14891
9,15955	14046
9,16367	13209
9,16780	13760
9,17192	14801
9,17603	15018
9,18017	15053
9,18428	14339
9,18840	15053
9,19253	14725
9,19665	14524
9,20077	15535
9,20488	13604
9,20902	14675
9,21313	14652
9,21725	15033
9,22138	14901
9,22550	12956
9,22962	15945
9,23375	14077
9,23787	14256
9,24198	14499
9,24612	14411
9,25023	14919
9,25435	14450
9,25848	16253
9,26260	18163
9,26672	24974
9,27085	34699
9,27497	56798
9,27908	91320
9,28322	151691
9,28733	241867
9,29145	365964
9,29558	540690
9,29970	730854
9,30382	955878
9,30793	1199917
9,31207	1412088
9,31618	1606559
9,32030	1735101
9,32443	1806353
9,32855	1831890
9,33267	1778906
9,33680	1688630
9,34092	1568871
9,34503	1420237
9,34917	1255083
9,35328	1095094
9,35740	955464
9,36153	825345
9,36565	707716
9,36977	598346
9,37390	504969
9,37802	427093
9,38213	369813
9,38627	310198
9,39038	264732
9,39450	230670
9,39862	201823
9,40275	176338
9,40687	155345
9,41098	139110
9,41512	124711
9,41923	111387
9,42335	103524
9,42748	97008
9,43160	87381
9,43572	80675
9,43985	77886
9,44397	72969
9,44808	68007
9,45222	64508
9,45633	57296
9,46045	54083
9,46458	52205
9,46870	50343
9,47282	48767
9,47695	48639
9,48107	41962
9,48518	41135
9,48930	39640
9,49343	38397
9,49755	38082
9,50167	35674
9,50580	35609
9,50992	34367
9,51403	31973
9,51817	32324
9,52228	30010
9,52640	29801
9,53053	29434
9,53465	27356
9,53877	27274
9,54290	27439
9,54702	24971
9,55113	25237
9,55527	24036
9,55938	24240
9,56350	24055
9,56763	22829
9,57175	23099
9,57587	22861
9,57998	21754
9,58412	22049
9,58823	20876
9,59235	22774
9,59648	20807
9,60060	20425
9,60472	20152
9,60885	19804
9,61297	19781
9,61708	19551
9,62122	19417
9,62533	19922
9,62945	19905
9,63358	19660
9,63770	18667
9,64182	18912
9,64595	19407
9,65007	20855
9,65418	18728
9,65832	18230
9,66243	18469
9,66655	19728
9,67067	17523
9,67480	18066
9,67892	16228
9,68303	17045
9,68717	18056
9,69128	17529
9,69540	17594
9,69953	17933
9,70365	16263
9,70777	17334
9,71190	16488
9,71602	16263
9,72013	15070
9,72427	17138
9,72838	15472
9,73250	16057
9,73663	16360
9,74075	16819
9,74487	15663
9,74900	15235
9,75312	14880
9,75723	14976
9,76135	14702
9,76548	15365
9,76960	16242
9,77372	15004
9,77785	15579
9,78197	16102
9,78608	16645
9,79022	15617
9,79433	14881
9,79845	14809
9,80258	15987
9,80670	14041
9,81082	15868
9,81495	15225
9,81907	15134
9,82318	15734
9,82732	14269
9,83143	14923
9,83555	15398
9,83968	15292
9,84380	14766
9,84792	14176
9,85203	14150
9,85617	14142
9,86028	14891
9,86440	14281
9,86853	13503
9,87265	14008
9,87677	14253
9,88090	14130
9,88502	14713
9,88913	13373
9,89327	14675
9,89738	14938
9,90150	15528
9,90563	14502
9,90975	16019
9,91387	13863
9,91800	14696
9,92212	15047
9,92623	15033
9,93037	14265
9,93448	14018
9,93860	14744
9,94272	15615
9,94685	13904
9,95097	15019
9,95508	13389
9,95922	13917
9,96333	12936
9,96745	12869
9,97158	13174
9,97570	12608
9,97982	13776
9,98395	13732
9,98807	12349
9,99218	12735
9,99632	13049
10,00043	12345
10,00455	13481
10,00868	11352
10,01280	11927
10,01692	13809
10,02105	13441
10,02517	12291
10,02928	11799
10,03340	11448
10,03753	12786
10,04165	11812
10,04577	12784
10,04990	12660
10,05402	11834
10,05813	11496
10,06227	11568
10,06638	11915
10,07050	13259
10,07463	13008
10,07875	13220
10,08287	14594
10,08700	13809
10,09112	14590
10,09523	15141
10,09937	14382
10,10348	14332
10,10760	13871
10,11173	14063
10,11585	13250
10,11997	13389
10,12408	12441
10,12822	13539
10,13233	14865
10,13645	13379
10,14058	14292
10,14470	12515
10,14882	13548
10,15295	13745
10,15707	13472
10,16118	12914
10,16532	11835
10,16943	13534
10,17355	13409
10,17768	12932
10,18180	13092
10,18592	14026
10,19005	14132
10,19417	13421
10,19828	12431
10,20242	13526
10,20653	13388
10,21065	13744
10,21477	13031
10,21890	13106
10,22302	14482
10,22713	14166
10,23127	13694
10,23538	13565
10,23950	13062
10,24363	12688
10,24775	11831
10,25187	11608
10,25600	11992
10,26012	12994
10,26423	12595
10,26837	12565
10,27248	12066
10,27660	11616
10,28073	11357
10,28485	11860
10,28897	11108
10,29310	11806
10,29722	11175
10,30133	11116
10,30545	11638
10,30958	11716
10,31370	11364
10,31782	10817
10,32195	11960
10,32607	11394
10,33018	11311
10,33432	11696
10,33843	11413
10,34255	11908
10,34668	12313
10,35080	11466
10,35492	11432
10,35905	11450
10,36317	11474
10,36728	10927
10,37142	11694
10,37553	11677
10,37965	11772
10,38378	12377
10,38790	15001
10,39202	18472
10,39613	27706
10,40027	42332
10,40438	69571
10,40850	111683
10,41263	167596
10,41675	255284
10,42087	363587
10,42500	495988
10,42912	633319
10,43323	776920
10,43737	898868
10,44148	984085
10,44560	1035720
10,44973	1048931
10,45385	1036842
10,45797	975668
10,46210	890273
10,46622	792632
10,47033	683353
10,47447	582486
10,47858	502161
10,48270	417590
10,48682	352108
10,49095	296901
10,49507	253707
10,49918	212670
10,50332	184695
10,50743	155397
10,51155	135602
10,51568	119057
10,51980	109674
10,52392	97040
10,52805	86400
10,53217	78382
10,53628	72647
10,54042	64951
10,54453	58134
10,54865	56063
10,55278	53330
10,55690	46796
10,56102	46016
10,56515	42054
10,56927	40597
10,57338	38372
10,57750	36087
10,58163	35410
10,58575	32629
10,58987	32546
10,59400	31099
10,59812	28716
10,60223	28387
10,60637	27691
10,61048	25632
10,61460	25500
10,61873	26104
10,62285	23480
10,62697	22820
10,63110	20906
10,63522	20878
10,63933	22049
10,64347	21350
10,64758	20791
10,65170	20942
10,65583	19108
10,65995	19279
10,66407	18548
10,66818	18976
10,67232	18080
10,67643	18283
10,68055	17796
10,68468	16528
10,68880	18544
10,69292	17223
10,69705	16848
10,70117	15963
10,70528	15142
10,70942	14788
10,71353	15621
10,71765	15859
10,72178	14346
10,72590	15355
10,73002	13610
10,73415	14815
10,73827	13942
10,74238	13095
10,74652	14403
10,75063	13140
10,75475	13745
10,75887	14167
10,76300	14319
10,76712	12726
10,77123	14359
10,77537	14405
10,77948	12991
10,78360	12508
10,78773	12169
10,79185	12980
10,79597	12662
10,80010	13389
10,80422	12981
10,80833	13211
10,81247	13584
10,81658	12067
10,82070	12072
10,82483	12153
10,82895	13024
10,83307	11158
10,83720	13496
10,84132	12932
10,84543	13473
10,84955	12296
10,85368	13036
10,85780	13235
10,86192	13311
10,86605	15139
10,87017	16047
10,87428	14961
10,87842	16017
10,88253	16286
10,88665	16606
10,89078	16149
10,89490	14941
10,89902	15560
10,90315	14501
10,90727	14907
10,91138	13255
10,91552	13628
10,91963	11710
10,92375	12588
10,92788	10889
10,93200	11354
10,93612	13035
10,94025	11497
10,94437	11292
10,94848	10635
10,95260	12744
10,95673	10500
10,96085	11676
10,96497	11729
10,96910	11961
10,97322	11353
10,97733	11007
10,98147	10758
10,98558	10083
10,98970	10651
10,99383	11157
10,99795	10536
11,00207	10914
11,00620	11153
11,01032	10934
11,01443	11101
11,01857	10638
11,02268	10558
11,02680	10749
11,03093	10472
11,03505	11330
11,03917	10213
11,04328	10954
11,04742	10655
11,05153	9850
11,05565	11165
11,05978	9713
11,06390	11125
11,06802	10119
11,07215	9410
11,07627	10941
11,08038	11906
11,08452	9598
11,08863	10661
11,09275	11140
11,09688	9738
11,10100	10081
11,10512	9544
11,10925	9876
11,11337	9940
11,11748	10516
11,12162	11109
11,12573	11043
11,12985	11350
11,13397	12790
11,13810	11142
11,14222	12882
11,14633	10669
11,15047	9853
11,15458	11178
11,15870	10057
11,16283	10426
11,16695	10213
11,17107	9725
11,17520	10361
11,17932	9739
11,18343	10821
11,18757	9492
11,19168	8906
11,19580	9664
11,19993	10248
11,20405	10160
11,20817	10622
11,21230	10227
11,21642	10135
11,22053	10246
11,22465	9573
11,22878	8891
11,23290	10686
11,23702	9273
11,24115	10850
11,24527	9057
11,24938	8535
11,25352	9390
11,25763	9470
11,26175	9733
11,26588	9980
11,27000	9493
11,27412	9900
11,27825	10066
11,28237	8990
11,28648	9888
11,29062	10106
11,29473	9979
11,29885	9696
11,30298	10015
11,30710	9373
11,31122	10664
11,31533	10829
11,31947	11718
11,32358	10983
11,32770	11258
11,33183	10936
11,33595	10537
11,34007	11153
11,34420	10320
11,34832	10570
11,35243	11877
11,35657	11962
11,36068	10780
11,36480	11022
11,36893	11250
11,37305	11320
11,37717	11615
11,38130	10786
11,38542	10319
11,38953	11082
11,39367	10207
11,39778	11003
11,40190	10868
11,40602	11402
11,41015	12260
11,41427	10420
11,41838	11000
11,42252	9539
11,42663	10169
11,43075	10496
11,43488	9147
11,43900	9661
11,44312	10103
11,44725	9921
11,45137	11283
11,45548	10478
11,45962	9971
11,46373	9151
11,46785	10101
11,47198	9671
11,47610	9198
11,48022	10132
11,48435	9051
11,48847	9560
11,49258	9472
11,49670	9437
11,50083	9772
11,50495	9630
11,50907	8654
11,51320	8676
11,51732	9211
11,52143	11228
11,52557	15941
11,52968	22873
11,53380	38757
11,53793	66791
11,54205	119653
11,54617	202092
11,55030	329844
11,55442	516938
11,55853	761033
11,56267	1059135
11,56678	1359236
11,57090	1678000
11,57503	1977621
11,57915	2186478
11,58327	2326402
11,58738	2332213
11,59152	2292216
11,59563	2142405
11,59975	1925661
11,60388	1668878
11,60800	1440088
11,61212	1199047
11,61625	981424
11,62037	807646
11,62448	663084
11,62862	548255
11,63273	462293
11,63685	382911
11,64098	329547
11,64510	280104
11,64922	244566
11,65335	214055
11,65747	183483
11,66158	168299
11,66572	147198
11,66983	134465
11,67395	121529
11,67807	112827
11,68220	100981
11,68632	91314
11,69043	86906
11,69457	79920
11,69868	70861
11,70280	66825
11,70693	63673
11,71105	59655
11,71517	55886
11,71930	51436
11,72342	50391
11,72753	48236
11,73167	46807
11,73578	43486
11,73990	42184
11,74403	38490
11,74815	39350
11,75227	37271
11,75640	33631
11,76052	33580
11,76463	31456
11,76875	30465
11,77288	29469
11,77700	29564
11,78112	26768
11,78525	28851
11,78937	25423
11,79348	24675
11,79762	25576
11,80173	22999
11,80585	23321
11,80998	22195
11,81410	22658
11,81822	21526
11,82235	22413
11,82647	20666
11,83058	20815
11,83472	21093
11,83883	18671
11,84295	19599
11,84708	18274
11,85120	19158
11,85532	19601
11,85943	17966
11,86357	16519
11,86768	17204
11,87180	15991
11,87593	16130
11,88005	16578
11,88417	15947
11,88830	16572
11,89242	16286
11,89653	14776
11,90067	15264
11,90478	13799
11,90890	14719
11,91303	13919
11,91715	14673
11,92127	14450
11,92540	14081
11,92952	13422
11,93363	13953
11,93777	14522
11,94188	12362
11,94600	14089
11,95012	13898
11,95425	11991
11,95837	11338
11,96248	13126
11,96662	12332
11,97073	12586
11,97485	13147
11,97898	12860
11,98310	12921
11,98722	13284
11,99135	12768
11,99547	13262
11,99958	12440
12,00372	13348
12,00783	11505
12,01195	10938
12,01608	12817
12,02020	12886
12,02432	11790
12,02845	11164
12,03257	11484
12,03668	10714
12,04080	11602
12,04493	11392
12,04905	11921
12,05317	11605
12,05730	10701
12,06142	10694
12,06553	10976
12,06967	11189
12,07378	10805
12,07790	10647
12,08203	11995
12,08615	10776
12,09027	11844
12,09440	11200
12,09852	12395
12,10263	11548
12,10677	12014
12,11088	11848
12,11500	11234
12,11913	11607
12,12325	12307
12,12737	13515
12,13148	13033
12,13562	13639
12,13973	15481
12,14385	13980
12,14798	16923
12,15210	18977
12,15622	18397
12,16035	19993
12,16447	22078
12,16858	22097
12,17272	21610
12,17683	23342
12,18095	21476
12,18508	22753
12,18920	19824
12,19332	21259
12,19745	17908
12,20157	18531
12,20568	16327
12,20982	16924
12,21393	14793
12,21805	14191
12,22217	13820
12,22630	13862
12,23042	11462
12,23453	11512
12,23867	10347
12,24278	12102
12,24690	11060
12,25103	11847
12,25515	10715
12,25927	11412
12,26340	10659
12,26752	10749
12,27163	11263
12,27577	11012
12,27988	10542
12,28400	9264
12,28813	9821
12,29225	10047
12,29637	10213
12,30050	10174
12,30462	9697
12,30873	9516
12,31285	10099
12,31698	9634
12,32110	8648
12,32522	9091
12,32935	9228
12,33347	8003
12,33758	9692
12,34172	9444
12,34583	9186
12,34995	8144
12,35408	8260
12,35820	9114
12,36232	9001
12,36645	8997
12,37057	10098
12,37468	9638
12,37882	9199
12,38293	9595
12,38705	9611
12,39118	8369
12,39530	8528
12,39942	8367
12,40353	8631
12,40767	8486
12,41178	8894
12,41590	8876
12,42003	8056
12,42415	8840
12,42827	8339
12,43240	8351
12,43652	8624
12,44063	7884
12,44477	8384
12,44888	8554
12,45300	8699
12,45713	8692
12,46125	8890
12,46537	9768
12,46950	9067
12,47362	8264
12,47773	9217
12,48187	7885
12,48598	9318
12,49010	9085
12,49423	9718
12,49835	8999
12,50247	8283
12,50658	8942
12,51072	8299
12,51483	9293
12,51895	8628
12,52308	9124
12,52720	9728
12,53132	8145
12,53545	8993
12,53957	8363
12,54368	6859
12,54782	9338
12,55193	9481
12,55605	8464
12,56018	8403
12,56430	8906
12,56842	8155
12,57255	7949
12,57667	8263
12,58078	8669
12,58492	7062
12,58903	8874
12,59315	9365
12,59727	9212
12,60140	9275
12,60552	9484
12,60963	8645
12,61377	8690
12,61788	9425
12,62200	9469
12,62613	8630
12,63025	10883
12,63437	9602
12,63850	9412
12,64262	8149
12,64673	10854
12,65087	11629
12,65498	16879
12,65910	21961
12,66323	36652
12,66735	64665
12,67147	108605
12,67560	174942
12,67972	276925
12,68383	401132
12,68795	574618
12,69208	754109
12,69620	948838
12,70032	1101024
12,70445	1216754
12,70857	1278350
12,71268	1276940
12,71682	1221945
12,72093	1122932
12,72505	984251
12,72918	849907
12,73330	712637
12,73742	593497
12,74155	487544
12,74567	407388
12,74978	331462
12,75392	274075
12,75803	228712
12,76215	193553
12,76628	167425
12,77040	143944
12,77452	123072
12,77863	108846
12,78277	100514
12,78688	87374
12,79100	78116
12,79513	71819
12,79925	65906
12,80337	57698
12,80750	52387
12,81162	49111
12,81573	46568
12,81987	43692
12,82398	39584
12,82810	38455
12,83223	34109
12,83635	33253
12,84047	33568
12,84460	30162
12,84872	28652
12,85283	26199
12,85697	26685
12,86108	25130
12,86520	22703
12,86932	23410
12,87345	21539
12,87757	20761
12,88168	20968
12,88582	20189
12,88993	18502
12,89405	20198
12,89818	18325
12,90230	18872
12,90642	17983
12,91055	17272
12,91467	14918
12,91878	16398
12,92292	14553
12,92703	16178
12,93115	15074
12,93528	15169
12,93940	15478
12,94352	14321
12,94765	14293
12,95177	13697
12,95588	13403
12,96000	13897
12,96413	11950
12,96825	12550
12,97237	12316
12,97650	12877
12,98062	12793
12,98473	12084
12,98887	12059
12,99298	11505
12,99710	11254
13,00123	11804
13,00535	11340
13,00947	13430
13,01360	11645
13,01772	11401
13,02183	12651
13,02597	11475
13,03008	10255
13,03420	11264
13,03833	10963
13,04245	11098
13,04657	10020
13,05068	10704
13,05482	10416
13,05893	9570
13,06305	10036
13,06718	8751
13,07130	9924
13,07542	8998
13,07955	9380
13,08367	10384
13,08778	9571
13,09192	9035
13,09603	9356
13,10015	9473
13,10428	8414
13,10840	8363
13,11252	8748
13,11665	9490
13,12077	8040
13,12488	9031
13,12902	8196
13,13313	7883
13,13725	9001
13,14137	8082
13,14550	8240
13,14962	8882
13,15373	8594
13,15787	7875
13,16198	8784
13,16610	9087
13,17023	9792
13,17435	8737
13,17847	9014
13,18260	7761
13,18672	8334
13,19083	8722
13,19497	7699
13,19908	8260
13,20320	8217
13,20733	9231
13,21145	8589
13,21557	8515
13,21970	9186
13,22382	7811
13,22793	8020
13,23205	8310
13,23618	8942
13,24030	8727
13,24442	10738
13,24855	11448
13,25267	10934
13,25678	12951
13,26092	13191
13,26503	13460
13,26915	13286
13,27328	12392
13,27740	12196
13,28152	12569
13,28565	11206
13,28977	11980
13,29388	11111
13,29802	9658
13,30213	9237
13,30625	9611
13,31038	10179
13,31450	10294
13,31862	10297
13,32273	11317
13,32687	12035
13,33098	12004
13,33510	12711
13,33923	14014
13,34335	12068
13,34747	13182
13,35160	14282
13,35572	13450
13,35983	14037
13,36397	11521
13,36808	12058
13,37220	11594
13,37633	10040
13,38045	11973
13,38457	9222
13,38870	9621
13,39282	10118
13,39693	9615
13,40107	10155
13,40518	8628
13,40930	9042
13,41342	7543
13,41755	7515
13,42167	8465
13,42578	8875
13,42992	7874
13,43403	8293
13,43815	7787
13,44228	7211
13,44640	8134
13,45052	7620
13,45465	9140
13,45877	7287
13,46288	8122
13,46702	7309
13,47113	6970
13,47525	8293
13,47938	8391
13,48350	7932
13,48762	7836
13,49175	7846
13,49587	7882
13,49998	8664
13,50410	7075
13,50823	6856
13,51235	7662
13,51647	7504
13,52060	6642
13,52472	7541
13,52883	6693
13,53297	8119
13,53708	7570
13,54120	8886
13,54533	9426
13,54945	7937
13,55357	9850
13,55770	8803
13,56182	8595
13,56593	7865
13,57007	9143
13,57418	7562
13,57830	7647
13,58243	7946
13,58655	7208
13,59067	8100
13,59478	6542
13,59892	7569
13,60303	7809
13,60715	7831
13,61128	7611
13,61540	7503
13,61952	8049
13,62365	7663
13,62777	7567
13,63188	6842
13,63602	7833
13,64013	7179
13,64425	6767
13,64838	7256
13,65250	7103
13,65662	6845
13,66075	7464
13,66487	8123
13,66898	7435
13,67312	6461
13,67723	7224
13,68135	7465
13,68547	6548
13,68960	7141
13,69372	6987
13,69783	7661
13,70197	7210
13,70608	8147
13,71020	8687
13,71433	8815
13,71845	11526
13,72257	11546
13,72670	12840
13,73082	13936
13,73493	14805
13,73907	15925
13,74318	16159
13,74730	18441
13,75143	23427
13,75555	34001
13,75967	56546
13,76380	96516
13,76792	171720
13,77203	288559
13,77615	472053
13,78028	730638
13,78440	1040316
13,78852	1430187
13,79265	1818643
13,79677	2204517
13,80088	2546728
13,80502	2765236
13,80913	2845347
13,81325	2798065
13,81738	2593434
13,82150	2324592
13,82562	2017490
13,82975	1708049
13,83387	1403066
13,83798	1143572
13,84212	929868
13,84623	755142
13,85035	622012
13,85448	509049
13,85860	428671
13,86272	365688
13,86683	312615
13,87097	268246
13,87508	233816
13,87920	208998
13,88333	183073
13,88745	168518
13,89157	151970
13,89570	132298
13,89982	122959
13,90393	115469
13,90807	106512
13,91218	98771
13,91630	93132
13,92043	86378
13,92455	80874
13,92867	75155
13,93280	69669
13,93692	66628
13,94103	63179
13,94517	59474
13,94928	56999
13,95340	52959
13,95752	48482
13,96165	45320
13,96577	43880
13,96988	41176
13,97402	39445
13,97813	36995
13,98225	33158
13,98638	33192
13,99050	31928
13,99462	30182
13,99875	29202
14,00287	28518
14,00698	28037
14,01112	26860
14,01523	25476
14,01935	24248
14,02348	23417
14,02760	24145
14,03172	21026
14,03585	20982
14,03997	20575
14,04408	21629
14,04822	19187
14,05233	19682
14,05645	19291
14,06057	19030
14,06470	17213
14,06882	18657
14,07293	17113
14,07707	17011
14,08118	17391
14,08530	16062
14,08943	16480
14,09355	15701
14,09767	16029
14,10180	13727
14,10592	14557
14,11003	14877
14,11417	14335
14,11828	15063
14,12240	13570
14,12653	14376
14,13065	15344
14,13477	14238
14,13890	14802
14,14302	13215
14,14713	12991
14,15125	12804
14,15538	13691
14,15950	13388
14,16362	13057
14,16775	13016
14,17187	12818
14,17598	11787
14,18012	13995
14,18423	12890
14,18835	11829
14,19248	12702
14,19660	10345
14,20072	11333
14,20485	11135
14,20897	9979
14,21308	9073
14,21722	9850
14,22133	10195
14,22545	9793
14,22958	9187
14,23370	8606
14,23782	9028
14,24193	9795
14,24607	9335
14,25018	9753
14,25430	8281
14,25843	9714
14,26255	8928
14,26667	9265
14,27080	8736
14,27492	9404
14,27903	9225
14,28317	8184
14,28728	10576
14,29140	10009
14,29553	9307
14,29965	10357
14,30377	9476
14,30790	9478
14,31202	10983
14,31613	10973
14,32027	10536
14,32438	12350
14,32850	11676
14,33262	13017
14,33675	12797
14,34087	12626
14,34498	12395
14,34912	11775
14,35323	13054
14,35735	12712
14,36148	11330
14,36560	10741
14,36972	11280
14,37385	8824
14,37797	10575
14,38208	8993
14,38622	8594
14,39033	8480
14,39445	8524
14,39858	8217
14,40270	7840
14,40682	9382
14,41095	8054
14,41507	8127
14,41918	8717
14,42330	8609
14,42743	9023
14,43155	8664
14,43567	8654
14,43980	9329
14,44392	8011
14,44803	8065
14,45217	8494
14,45628	8375
14,46040	8636
14,46453	8584
14,46865	7606
14,47277	8895
14,47690	7736
14,48102	7575
14,48513	8699
14,48927	8485
14,49338	8857
14,49750	9008
14,50163	12955
14,50575	18694
14,50987	32152
14,51398	53711
14,51812	90363
14,52223	151189
14,52635	244657
14,53048	365993
14,53460	528392
14,53872	710756
14,54285	908538
14,54697	1081129
14,55108	1207146
14,55522	1272406
14,55933	1270979
14,56345	1227579
14,56758	1128500
14,57170	1018674
14,57582	887826
14,57995	758035
14,58407	627320
14,58818	514015
14,59232	432854
14,59643	357247
14,60055	290344
14,60467	247043
14,60880	211193
14,61292	175051
14,61703	154181
14,62117	137329
14,62528	116548
14,62940	105810
14,63353	91700
14,63765	84708
14,64177	75253
14,64590	70680
14,65002	64586
14,65413	57963
14,65827	52940
14,66238	52874
14,66650	49210
14,67063	47556
14,67475	45476
14,67887	40912
14,68300	43464
14,68712	41611
14,69123	40555
14,69535	40505
14,69948	41971
14,70360	40330
14,70772	36961
14,71185	34655
14,71597	31280
14,72008	31981
14,72422	28521
14,72833	26742
14,73245	25375
14,73658	24445
14,74070	22836
14,74482	20365
14,74895	19629
14,75307	19850
14,75718	19309
14,76132	17633
14,76543	17194
14,76955	17669
14,77368	16869
14,77780	16070
14,78192	15263
14,78603	15665
14,79017	15147
14,79428	15805
14,79840	13994
14,80253	13595
14,80665	15126
14,81077	14901
14,81490	19812
14,81902	29718
14,82313	46358
14,82727	79985
14,83138	140318
14,83550	225770
14,83963	348674
14,84375	518095
14,84787	725747
14,85200	941817
14,85612	1152405
14,86023	1345157
14,86437	1452806
14,86848	1495244
14,87260	1447938
14,87672	1365559
14,88085	1208737
14,88497	1042561
14,88908	892448
14,89322	737913
14,89733	606561
14,90145	494571
14,90558	402672
14,90970	331916
14,91382	277225
14,91795	231959
14,92207	197308
14,92618	172916
14,93032	147956
14,93443	129000
14,93855	114700
14,94268	98309
14,94680	91749
14,95092	80854
14,95505	75722
14,95917	67807
14,96328	62585
14,96740	58157
14,97153	52583
14,97565	48971
14,97977	45341
14,98390	43644
14,98802	40510
14,99213	36686
14,99627	34607
15,00038	34155
15,00450	31147
15,00863	28628
15,01275	27405
15,01687	27488
15,02100	25249
15,02512	25417
15,02923	24627
15,03337	22466
15,03748	22071
15,04160	22192
15,04573	20967
15,04985	20343
15,05397	18500
15,05808	19717
15,06222	17643
15,06633	18706
15,07045	16664
15,07458	15807
15,07870	17808
15,08282	14911
15,08695	14661
15,09107	16249
15,09518	13371
15,09932	14619
15,10343	15633
15,10755	12873
15,11168	14533
15,11580	12524
15,11992	13501
15,12405	11525
15,12817	12708
15,13228	12228
15,13642	11586
15,14053	11932
15,14465	12018
15,14877	11997
15,15290	11988
15,15702	11750
15,16113	12197
15,16527	10894
15,16938	10528
15,17350	11314
15,17763	9848
15,18175	10488
15,18587	9681
15,19000	10894
15,19412	9834
15,19823	10056
15,20237	10680
15,20648	10518
15,21060	11094
15,21473	10508
15,21885	10282
15,22297	10431
15,22710	10880
15,23122	9973
15,23533	9731
15,23945	11037
15,24358	11437
15,24770	10951
15,25182	10958
15,25595	10705
15,26007	10788
15,26418	11668
15,26832	11190
15,27243	11129
15,27655	9161
15,28068	10833
15,28480	10187
15,28892	9168
15,29305	10447
15,29717	9573
15,30128	9684
15,30542	9517
15,30953	9501
15,31365	8499
15,31778	7953
15,32190	9777
15,32602	9022
15,33013	7706
15,33427	8177
15,33838	9580
15,34250	8364
15,34663	8103
15,35075	9015
15,35487	9277
15,35900	9471
15,36312	8400
15,36723	9471
15,37137	9004
15,37548	9583
15,37960	8535
15,38373	8273
15,38785	8916
15,39197	8793
15,39610	8027
15,40022	9349
15,40433	8492
15,40847	8982
15,41258	9102
15,41670	7961
15,42082	7409
15,42495	8100
15,42907	7415
15,43318	8328
15,43732	8153
15,44143	7325
15,44555	8128
15,44968	7694
15,45380	8182
15,45792	7730
15,46205	6859
15,46617	8713
15,47028	7997
15,47442	8264
15,47853	7034
15,48265	6262
15,48678	9292
15,49090	6821
15,49502	5904
15,49915	7306
15,50327	7802
15,50738	7780
15,51152	8564
15,51563	8286
15,51975	7207
15,52387	7621
15,52800	8052
15,53212	7317
15,53623	6946
15,54037	8525
15,54448	9943
15,54860	13492
15,55273	21258
15,55685	35249
15,56097	59219
15,56510	103093
15,56922	178494
15,57333	278565
15,57747	432119
15,58158	606505
15,58570	807967
15,58983	1002690
15,59395	1185209
15,59807	1306978
15,60220	1371221
15,60632	1363819
15,61043	1298318
15,61455	1177059
15,61868	1046205
15,62280	899356
15,62692	753265
15,63105	628392
15,63517	514713
15,63928	425546
15,64342	354902
15,64753	294467
15,65165	246553
15,65578	207505
15,65990	179597
15,66402	154764
15,66815	133722
15,67227	115898
15,67638	103221
15,68052	92722
15,68463	85344
15,68875	78350
15,69288	70640
15,69700	62402
15,70112	56748
15,70523	52956
15,70937	49364
15,71348	46937
15,71760	43955
15,72173	41081
15,72585	37634
15,72997	36333
15,73410	33422
15,73822	31534
15,74233	31125
15,74647	28781
15,75058	26943
15,75470	25706
15,75883	23865
15,76295	22186
15,76707	23668
15,77120	20492
15,77532	22288
15,77943	20442
15,78357	19810
15,78768	18529
15,79180	19350
15,79592	17867
15,80005	16213
15,80417	16016
15,80828	14515
15,81242	15825
15,81653	16218
15,82065	16283
15,82478	14848
15,82890	16292
15,83302	21092
15,83715	30246
15,84127	49165
15,84538	92411
15,84952	168617
15,85363	296042
15,85775	497139
15,86188	804646
15,86600	1213391
15,87012	1715671
15,87425	2318708
15,87837	2952776
15,88248	3562908
15,88660	4116727
15,89073	4445707
15,89485	4667155
15,89897	4575395
15,90310	4250324
15,90722	3800148
15,91133	3221149
15,91547	2680320
15,91958	2191558
15,92370	1768458
15,92783	1421064
15,93195	1161219
15,93607	939209
15,94020	789282
15,94432	656064
15,94843	559790
15,95257	476357
15,95668	412581
15,96080	362397
15,96493	323522
15,96905	281519
15,97317	251046
15,97728	223280
15,98142	208824
15,98553	189169
15,98965	173714
15,99378	157066
15,99790	145847
16,00202	133008
16,00615	125991
16,01027	112404
16,01438	103971
16,01852	101543
16,02263	93612
16,02675	88497
16,03088	80664
16,03500	74174
16,03912	71973
16,04325	67664
16,04737	65634
16,05148	61549
16,05562	56822
16,05973	56784
16,06385	53317
16,06797	50555
16,07210	50097
16,07622	47546
16,08033	43983
16,08447	42295
16,08858	40573
16,09270	38585
16,09683	37731
16,10095	37545
16,10507	33335
16,10920	33462
16,11332	31506
16,11743	30360
16,12157	30305
16,12568	28533
16,12980	29510
16,13393	27406
16,13805	26695
16,14217	25523
16,14630	25968
16,15042	22845
16,15453	25141
16,15865	22558
16,16278	21370
16,16690	21785
16,17102	20058
16,17515	19916
16,17927	19894
16,18338	20382
16,18752	18705
16,19163	19590
16,19575	17735
16,19988	18651
16,20400	17292
16,20812	17651
16,21225	18055
16,21637	17401
16,22048	16496
16,22462	15678
16,22873	15846
16,23285	15374
16,23698	14962
16,24110	14886
16,24522	15182
16,24933	15147
16,25347	15390
16,25758	14811
16,26170	15193
16,26583	14244
16,26995	15465
16,27407	16017
16,27820	15460
16,28232	14781
16,28643	14080
16,29057	14861
16,29468	13417
16,29880	14295
16,30293	13285
16,30705	13025
16,31117	11779
16,31530	13371
16,31942	11990
16,32353	11584
16,32767	12965
16,33178	11635
16,33590	10862
16,34002	11620
16,34415	11586
16,34827	13032
16,35238	11398
16,35652	12809
16,36063	12202
16,36475	11867
16,36888	13214
16,37300	13882
16,37712	13101
16,38125	13936
16,38537	13532
16,38948	12898
16,39362	14674
16,39773	12189
16,40185	14404
16,40598	12515
16,41010	12138
16,41422	13580
16,41835	15349
16,42247	17810
16,42658	25175
16,43070	39998
16,43483	67029
16,43895	116537
16,44307	191523
16,44720	307192
16,45132	461126
16,45543	647727
16,45957	855888
16,46368	1066816
16,46780	1241382
16,47193	1374346
16,47605	1420322
16,48017	1402438
16,48430	1322389
16,48842	1202840
16,49253	1056443
16,49667	905827
16,50078	752784
16,50490	623404
16,50903	516311
16,51315	427409
16,51727	353961
16,52138	292368
16,52552	244785
16,52963	208873
16,53375	182359
16,53788	156938
16,54200	140912
16,54612	121504
16,55025	110867
16,55437	97759
16,55848	88736
16,56262	80555
16,56673	75048
16,57085	67965
16,57498	64838
16,57910	63441
16,58322	58685
16,58735	55422
16,59147	52137
16,59558	52080
16,59972	50245
16,60383	49920
16,60795	48447
16,61207	47434
16,61620	44911
16,62032	41368
16,62443	39873
16,62857	36615
16,63268	36148
16,63680	33836
16,64093	30936
16,64505	29522
16,64917	28432
16,65330	26369
16,65742	24630
16,66153	23925
16,66567	20180
16,66978	22328
16,67390	22058
16,67803	20314
16,68215	20386
16,68627	19849
16,69040	18120
16,69452	17987
16,69863	16081
16,70275	16660
16,70688	17465
16,71100	15897
16,71512	17717
16,71925	15387
16,72337	15998
16,72748	15693
16,73162	14715
16,73573	14986
16,73985	13472
16,74398	13127
16,74810	14434
16,75222	12589
16,75635	12963
16,76047	12651
16,76458	13555
16,76872	13505
16,77283	14389
16,77695	12393
16,78108	11601
16,78520	12442
16,78932	12137
16,79343	12292
16,79757	12180
16,80168	12377
16,80580	13278
16,80993	13406
16,81405	15874
16,81817	20229
16,82230	33018
16,82642	52871
16,83053	94112
16,83467	160377
16,83878	266229
16,84290	410311
16,84703	597136
16,85115	827909
16,85527	1066799
16,85940	1285626
16,86352	1448833
16,86763	1533065
16,87177	1553641
16,87588	1489107
16,88000	1369069
16,88412	1202498
16,88825	1028890
16,89237	854169
16,89648	699831
16,90062	576180
16,90473	470268
16,90885	386184
16,91298	317896
16,91710	270345
16,92122	225527
16,92535	195199
16,92947	167647
16,93358	146881
16,93772	132026
16,94183	117597
16,94595	105320
16,95008	93466
16,95420	83739
16,95832	73724
16,96245	71753
16,96657	65976
16,97068	59500
16,97480	56081
16,97893	50709
16,98305	46897
16,98717	46574
16,99130	43914
16,99542	40800
16,99953	40687
17,00367	34918
17,00778	34729
17,01190	32825
17,01603	31688
17,02015	30588
17,02427	29707
17,02840	29706
17,03252	27017
17,03663	25999
17,04077	25804
17,04488	26552
17,04900	25527
17,05313	25031
17,05725	23617
17,06137	22582
17,06548	21187
17,06962	22178
17,07373	20676
17,07785	19551
17,08198	19269
17,08610	17990
17,09022	18915
17,09435	17309
17,09847	18373
17,10258	15935
17,10672	17172
17,11083	17031
17,11495	14993
17,11908	16850
17,12320	16649
17,12732	14311
17,13145	14336
17,13557	14288
17,13968	14836
17,14382	12800
17,14793	12025
17,15205	13499
17,15618	14243
17,16030	13070
17,16442	12291
17,16853	13315
17,17267	13666
17,17678	12669
17,18090	11054
17,18503	11781
17,18915	13137
17,19327	12820
17,19740	11620
17,20152	10381
17,20563	11832
17,20977	13468
17,21388	11707
17,21800	10753
17,22213	11238
17,22625	12186
17,23037	12067
17,23450	11416
17,23862	12349
17,24273	10372
17,24687	10914
17,25098	10755
17,25510	9593
17,25922	10488
17,26335	10779
17,26747	9993
17,27158	9866
17,27572	10059
17,27983	8703
17,28395	10373
17,28808	11527
17,29220	10320
17,29632	12058
17,30045	11749
17,30457	9830
17,30868	10829
17,31282	9910
17,31693	10705
17,32105	10097
17,32518	10356
17,32930	10146
17,33342	11336
17,33755	9293
17,34167	10090
17,34578	9771
17,34990	10923
17,35403	9508
17,35815	10114
17,36227	9672
17,36640	9352
17,37052	9291
17,37463	10712
17,37877	10334
17,38288	12406
17,38700	17193
17,39113	22004
17,39525	39166
17,39937	65651
17,40350	112191
17,40762	189077
17,41173	310575
17,41587	470041
17,41998	655754
17,42410	889309
17,42823	1094669
17,43235	1283567
17,43647	1413870
17,44058	1451572
17,44472	1447003
17,44883	1362404
17,45295	1235706
17,45708	1099552
17,46120	943587
17,46532	779952
17,46945	640663
17,47357	527851
17,47768	434455
17,48182	367095
17,48593	304218
17,49005	257247
17,49418	217473
17,49830	189318
17,50242	164206
17,50655	143275
17,51067	125181
17,51478	115389
17,51892	99669
17,52303	92261
17,52715	82207
17,53127	75845
17,53540	70370
17,53952	64620
17,54363	60150
17,54777	53868
17,55188	51924
17,55600	49898
17,56013	46379
17,56425	44878
17,56837	39012
17,57250	40229
17,57662	37022
17,58073	33633
17,58487	34843
17,58898	33307
17,59310	30788
17,59723	30134
17,60135	28850
17,60547	30133
17,60960	29063
17,61372	28958
17,61783	32545
17,62195	33649
17,62608	36225
17,63020	39665
17,63432	43282
17,63845	45105
17,64257	45613
17,64668	45641
17,65082	45539
17,65493	44917
17,65905	41738
17,66318	38284
17,66730	37411
17,67142	34018
17,67555	30611
17,67967	28310
17,68378	26261
17,68792	26117
17,69203	24168
17,69615	23856
17,70028	22135
17,70440	20686
17,70852	20396
17,71263	20347
17,71677	17596
17,72088	18201
17,72500	18635
17,72913	16629
17,73325	16790
17,73737	16432
17,74150	16508
17,74562	15492
17,74973	16476
17,75387	17797
17,75798	20501
17,76210	28638
17,76623	44613
17,77035	79441
17,77447	141802
17,77860	245635
17,78272	404618
17,78683	643209
17,79097	973848
17,79508	1375793
17,79920	1822686
17,80332	2313969
17,80745	2756197
17,81157	3099333
17,81568	3342753
17,81982	3355687
17,82393	3229082
17,82805	2934992
17,83218	2575125
17,83630	2177137
17,84042	1791691
17,84455	1452439
17,84867	1187767
17,85278	973717
17,85692	806445
17,86103	664271
17,86515	552117
17,86928	474343
17,87340	409270
17,87752	353844
17,88165	312672
17,88577	273499
17,88988	241579
17,89400	217633
17,89813	196090
17,90225	178191
17,90637	161226
17,91050	149594
17,91462	135602
17,91873	122385
17,92287	114194
17,92698	107007
17,93110	100188
17,93523	92158
17,93935	88116
17,94347	81356
17,94760	77164
17,95172	72305
17,95583	70390
17,95997	63981
17,96408	60610
17,96820	56354
17,97233	56052
17,97645	51540
17,98057	49078
17,98468	47218
17,98882	45668
17,99293	42302
17,99705	41140
18,00118	40119
18,00530	37217
18,00942	38213
18,01355	36584
18,01767	35952
18,02178	33817
18,02592	32958
18,03003	31562
18,03415	31821
18,03828	27929
18,04240	28580
18,04652	28062
18,05065	27591
18,05477	26839
18,05888	25646
18,06302	24717
18,06713	26188
18,07125	25919
18,07537	27134
18,07950	33611
18,08362	46933
18,08773	68805
18,09187	110535
18,09598	173037
18,10010	280046
18,10423	421973
18,10835	596839
18,11247	814886
18,11660	1050778
18,12072	1256455
18,12483	1422831
18,12897	1521541
18,13308	1536841
18,13720	1485058
18,14133	1378577
18,14545	1240572
18,14957	1070399
18,15370	906555
18,15782	762204
18,16193	632450
18,16605	519386
18,17018	435880
18,17430	370110
18,17842	307342
18,18255	262945
18,18667	227354
18,19078	197112
18,19492	174023
18,19903	150441
18,20315	138861
18,20728	124088
18,21140	113349
18,21552	104139
18,21965	90968
18,22377	85693
18,22788	81085
18,23202	76491
18,23613	76186
18,24025	83789
18,24438	93715
18,24850	128643
18,25262	187382
18,25673	295725
18,26087	458083
18,26498	701543
18,26910	1018718
18,27323	1414518
18,27735	1855822
18,28147	2279942
18,28560	2702225
18,28972	2961120
18,29383	3118416
18,29797	3128759
18,30208	2947832
18,30620	2696450
18,31033	2352303
18,31445	2009626
18,31857	1662166
18,32270	1370998
18,32682	1134498
18,33093	928635
18,33507	785058
18,33918	648842
18,34330	554516
18,34742	473843
18,35155	408450
18,35567	351515
18,35978	315613
18,36392	281414
18,36803	247761
18,37215	222610
18,37628	204887
18,38040	185960
18,38452	169336
18,38865	153179
18,39277	142797
18,39688	134062
18,40102	121268
18,40513	114032
18,40925	107960
18,41338	101828
18,41750	95248
18,42162	89877
18,42575	84039
18,42987	81867
18,43398	74847
18,43810	73858
18,44223	67283
18,44635	64921
18,45047	61606
18,45460	59764
18,45872	55373
18,46283	54968
18,46697	52580
18,47108	48224
18,47520	48344
18,47933	46851
18,48345	44687
18,48757	43694
18,49170	41882
18,49582	38853
18,49993	38627
18,50407	35518
18,50818	36158
18,51230	34716
18,51643	34405
18,52055	32503
18,52467	32405
18,52878	30384
18,53292	30520
18,53703	30105
18,54115	30638
18,54528	28545
18,54940	27239
18,55352	27472
18,55765	26497
18,56177	24468
18,56588	24115
18,57002	24182
18,57413	24557
18,57825	25111
18,58238	22672
18,58650	22743
18,59062	19821
18,59475	21440
18,59887	22307
18,60298	24011
18,60712	26735
18,61123	33046
18,61535	48311
18,61947	75724
18,62360	125591
18,62772	199628
18,63183	315336
18,63597	469677
18,64008	655636
18,64420	871277
18,64833	1076758
18,65245	1241163
18,65657	1343623
18,66070	1385013
18,66482	1383652
18,66893	1328100
18,67307	1241827
18,67718	1188184
18,68130	1172565
18,68543	1244514
18,68955	1405541
18,69367	1658194
18,69780	1989608
18,70192	2387533
18,70603	2797776
18,71015	3146830
18,71428	3402046
18,71840	3506698
18,72252	3415380
18,72665	3199966
18,73077	2841985
18,73488	2419637
18,73902	2034731
18,74313	1688440
18,74725	1380930
18,75138	1141398
18,75550	936696
18,75962	785935
18,76375	666872
18,76787	569917
18,77198	493308
18,77612	429107
18,78023	381418
18,78435	342739
18,78848	305521
18,79260	271964
18,79672	251292
18,80083	226720
18,80497	207041
18,80908	187085
18,81320	171992
18,81733	158493
18,82145	152022
18,82557	144080
18,82970	132632
18,83382	124471
18,83793	114844
18,84207	109682
18,84618	103798
18,85030	101920
18,85443	96123
18,85855	91617
18,86267	86188
18,86680	81647
18,87092	79837
18,87503	75076
18,87917	73831
18,88328	69672
18,88740	65940
18,89152	61537
18,89565	61053
18,89977	60658
18,90388	57369
18,90802	55370
18,91213	53424
18,91625	52820
18,92038	51794
18,92450	53495
18,92862	47501
18,93275	44576
18,93687	46704
18,94098	43287
18,94512	43374
18,94923	43564
18,95335	39265
18,95748	37725
18,96160	38420
18,96572	37102
18,96985	36218
18,97397	39492
18,97808	42089
18,98222	52746
18,98633	72944
18,99045	108506
18,99457	169227
18,99870	250375
19,00282	373397
19,00693	540933
19,01107	726008
19,01518	929204
19,01930	1088621
19,02343	1230183
19,02755	1294869
19,03167	1328616
19,03580	1279543
19,03992	1187573
19,04403	1067263
19,04817	928583
19,05228	790304
19,05640	661989
19,06053	556285
19,06465	467684
19,06877	388742
19,07290	328099
19,07702	277693
19,08113	243559
19,08525	205076
19,08938	185327
19,09350	161282
19,09762	145169
19,10175	131928
19,10587	117682
19,10998	107231
19,11412	100375
19,11823	88244
19,12235	85753
19,12648	76983
19,13060	73081
19,13472	70131
19,13885	65342
19,14297	63821
19,14708	59016
19,15122	56779
19,15533	53281
19,15945	53502
19,16358	49197
19,16770	49087
19,17182	47481
19,17593	45295
19,18007	44128
19,18418	43967
19,18830	40312
19,19243	40390
19,19655	38485
19,20067	38418
19,20480	34993
19,20892	34592
19,21303	34397
19,21717	33444
19,22128	32219
19,22540	30923
19,22953	29769
19,23365	29043
19,23777	26619
19,24190	25472
19,24602	28731
19,25013	27295
19,25427	24483
19,25838	25736
19,26250	25156
19,26662	24533
19,27075	23844
19,27487	24947
19,27898	23173
19,28312	22095
19,28723	22977
19,29135	21675
19,29548	23043
19,29960	20802
19,30372	20975
19,30785	22160
19,31197	19418
19,31608	19857
19,32022	20616
19,32433	19915
19,32845	19373
19,33258	19569
19,33670	17406
19,34082	18506
19,34495	17431
19,34907	18168
19,35318	18063
19,35730	18625
19,36143	18250
19,36555	16482
19,36967	16529
19,37380	16154
19,37792	18324
19,38203	16552
19,38617	16826
19,39028	17443
19,39440	17398
19,39853	18331
19,40265	17027
19,40677	17897
19,41090	17903
19,41502	17136
19,41913	15898
19,42327	17417
19,42738	16427
19,43150	17274
19,43563	15499
19,43975	15583
19,44387	14432
19,44798	15225
19,45212	15864
19,45623	15507
19,46035	15146
19,46448	14795
19,46860	14308
19,47272	16446
19,47685	14713
19,48097	15337
19,48508	14279
19,48922	17482
19,49333	19405
19,49745	23389
19,50158	33507
19,50570	53221
19,50982	84514
19,51395	138885
19,51807	221239
19,52218	345419
19,52632	487360
19,53043	655003
19,53455	837025
19,53867	1017488
19,54280	1188591
19,54692	1347432
19,55103	1487419
19,55517	1647602
19,55928	1834380
19,56340	2093058
19,56753	2406737
19,57165	2790179
19,57577	3212688
19,57990	3564605
19,58402	3876389
19,58813	3994395
19,59227	3984666
19,59638	3768371
19,60050	3383290
19,60463	2916422
19,60875	2475371
19,61287	2070841
19,61700	1701990
19,62112	1405427
19,62523	1163599
19,62935	971548
19,63348	820314
19,63760	697933
19,64172	609753
19,64585	531263
19,64997	471387
19,65408	416617
19,65822	371656
19,66233	330267
19,66645	306444
19,67058	282292
19,67470	258095
19,67882	237259
19,68295	223899
19,68707	207381
19,69118	198015
19,69532	186808
19,69943	180598
19,70355	174989
19,70768	164385
19,71180	161211
19,71592	158908
19,72003	148562
19,72417	142023
19,72828	134037
19,73240	124949
19,73653	118009
19,74065	113934
19,74477	103963
19,74890	99907
19,75302	92752
19,75713	87845
19,76127	83594
19,76538	77959
19,76950	74476
19,77363	70344
19,77775	69314
19,78187	68820
19,78600	62603
19,79012	62280
19,79423	59308
19,79837	55874
19,80248	56431
19,80660	53613
19,81072	52828
19,81485	54717
19,81897	53346
19,82308	55487
19,82722	67231
19,83133	79633
19,83545	110019
19,83958	156811
19,84370	232985
19,84782	337299
19,85195	484370
19,85607	640362
19,86018	795667
19,86432	950853
19,86843	1068429
19,87255	1137824
19,87668	1149569
19,88080	1120662
19,88492	1036521
19,88905	934652
19,89317	813085
19,89728	698366
19,90140	587675
19,90553	498667
19,90965	420745
19,91377	347973
19,91790	299384
19,92202	258661
19,92613	221697
19,93027	192402
19,93438	172836
19,93850	154879
19,94263	137016
19,94675	124697
19,95087	112744
19,95500	102297
19,95912	97207
19,96323	88637
19,96737	82711
19,97148	80520
19,97560	77142
19,97973	82718
19,98385	80935
19,98797	94197
19,99208	128496
19,99622	176092
20,00033	263331
20,00445	378012
20,00858	552966
20,01270	780109
20,01682	1008740
20,02095	1262379
20,02507	1480416
20,02918	1634119
20,03332	1681816
20,03743	1682691
20,04155	1591467
20,04568	1433375
20,04980	1262307
20,05392	1092420
20,05805	925560
20,06217	782988
20,06628	656205
20,07042	553079
20,07453	465381
20,07865	400131
20,08277	343022
20,08690	299949
20,09102	265335
20,09513	234566
20,09927	213388
20,10338	194507
20,10750	174598
20,11163	159325
20,11575	150317
20,11987	138793
20,12400	129357
20,12812	118294
20,13223	113716
20,13637	104214
20,14048	97072
20,14460	92195
20,14873	87786
20,15285	83927
20,15697	78578
20,16110	74831
20,16522	68708
20,16933	67977
20,17345	67395
20,17758	63621
20,18170	62455
20,18582	60101
20,18995	56336
20,19407	54919
20,19818	53309
20,20232	50463
20,20643	47872
20,21055	46335
20,21468	45600
20,21880	45716
20,22292	44233
20,22705	43478
20,23117	39573
20,23528	40345
20,23942	39052
20,24353	40894
20,24765	38214
20,25178	35304
20,25590	36758
20,26002	36682
20,26413	36639
20,26827	34427
20,27238	32077
20,27650	33241
20,28063	33879
20,28475	32899
20,28887	32385
20,29300	31957
20,29712	29413
20,30123	30422
20,30537	28666
20,30948	29953
20,31360	29759
20,31773	27790
20,32185	28378
20,32597	28087
20,33010	28112
20,33422	27732
20,33833	27357
20,34247	27094
20,34658	28081
20,35070	24803
20,35482	24320
20,35895	29554
20,36307	31769
20,36718	39480
20,37132	60220
20,37543	94491
20,37955	150687
20,38368	240125
20,38780	382288
20,39192	588468
20,39605	834042
20,40017	1123392
20,40428	1401472
20,40842	1649329
20,41253	1827666
20,41665	1900568
20,42078	1892275
20,42490	1794203
20,42902	1607833
20,43315	1393199
20,43727	1189509
20,44138	998434
20,44550	835250
20,44963	695630
20,45375	585691
20,45787	498929
20,46200	424063
20,46612	374207
20,47023	324419
20,47437	293956
20,47848	259615
20,48260	230478
20,48673	213180
20,49085	192956
20,49497	176183
20,49910	160923
20,50322	150430
20,50733	141215
20,51147	134785
20,51558	121075
20,51970	114843
20,52383	106567
20,52795	101157
20,53207	96992
20,53620	91056
20,54032	87748
20,54443	85396
20,54855	81033
20,55268	79479
20,55680	76255
20,56092	69840
20,56505	70719
20,56917	66025
20,57328	64940
20,57742	58901
20,58153	58116
20,58565	55415
20,58978	56098
20,59390	50725
20,59802	51581
20,60215	48836
20,60627	48230
20,61038	46558
20,61452	45521
20,61863	42536
20,62275	43295
20,62688	43273
20,63100	42875
20,63512	41993
20,63923	40918
20,64337	40731
20,64748	38393
20,65160	37237
20,65573	38919
20,65985	37957
20,66397	36638
20,66810	36008
20,67222	36437
20,67633	40086
20,68047	41486
20,68458	52098
20,68870	73478
20,69283	110487
20,69695	165751
20,70107	262794
20,70520	390188
20,70932	559691
20,71343	757484
20,71757	972310
20,72168	1170738
20,72580	1320026
20,72992	1403982
20,73405	1414408
20,73817	1368970
20,74228	1273693
20,74642	1120923
20,75053	982650
20,75465	842713
20,75878	717121
20,76290	608132
20,76702	509577
20,77115	434619
20,77527	371553
20,77938	320558
20,78352	273498
20,78763	247195
20,79175	217756
20,79588	198613
20,80000	175556
20,80412	158567
20,80825	144615
20,81237	134906
20,81648	124152
20,82060	117782
20,82473	106767
20,82885	99635
20,83297	93349
20,83710	89132
20,84122	83864
20,84533	79809
20,84947	76149
20,85358	72598
20,85770	70127
20,86183	65781
20,86595	61780
20,87007	60432
20,87420	58853
20,87832	55576
20,88243	53789
20,88657	54103
20,89068	48454
20,89480	49794
20,89893	47803
20,90305	46955
20,90717	45436
20,91128	44475
20,91542	40564
20,91953	42112
20,92365	39489
20,92778	41317
20,93190	39094
20,93602	38345
20,94015	38195
20,94427	36301
20,94838	36506
20,95252	36830
20,95663	35570
20,96075	35184
20,96488	32034
20,96900	32182
20,97312	33587
20,97725	31161
20,98137	30838
20,98548	31536
20,98962	29346
20,99373	30853
20,99785	30498
21,00197	29193
21,00610	29455
21,01022	28565
21,01433	29332
21,01847	28829
21,02258	28441
21,02670	29355
21,03083	27277
21,03495	26930
21,03907	25983
21,04320	27121
21,04732	27919
21,05143	26096
21,05557	27568
21,05968	27885
21,06380	28279
21,06793	30323
21,07205	28047
21,07617	28680
21,08030	28341
21,08442	28020
21,08853	27379
21,09265	26986
21,09678	26284
21,10090	27443
21,10502	25620
21,10915	24295
21,11327	25474
21,11738	23862
21,12152	26324
21,12563	25234
21,12975	23663
21,13388	23329
21,13800	25707
21,14212	23566
21,14625	23244
21,15037	24157
21,15448	25393
21,15862	26293
21,16273	28920
21,16685	33893
21,17098	45289
21,17510	71382
21,17922	118564
21,18333	205532
21,18747	356132
21,19158	588144
21,19570	922727
21,19983	1373264
21,20395	1922688
21,20807	2542508
21,21220	3196008
21,21632	3834222
21,22043	4412092
21,22457	4856408
21,22868	5076551
21,23280	5049287
21,23693	4834257
21,24105	4382900
21,24517	3851657
21,24930	3286997
21,25342	2744776
21,25753	2282990
21,26167	1891093
21,26578	1587003
21,26990	1343032
21,27402	1137292
21,27815	987349
21,28227	869805
21,28638	759766
21,29052	663866
21,29463	595037
21,29875	543995
21,30288	486469
21,30700	445767
21,31112	408870
21,31525	379699
21,31937	351486
21,32348	319654
21,32762	294794
21,33173	275225
21,33585	255946
21,33998	244316
21,34410	229463
21,34822	218160
21,35235	201217
21,35647	194341
21,36058	183084
21,36470	175720
21,36883	165332
21,37295	156875
21,37707	152436
21,38120	142632
21,38532	137604
21,38943	136084
21,39357	129133
21,39768	120875
21,40180	119097
21,40593	114301
21,41005	110142
21,41417	107101
21,41830	105692
21,42242	100723
21,42653	98039
21,43067	95672
21,43478	91419
21,43890	89103
21,44303	87369
21,44715	82546
21,45127	82748
21,45538	79816
21,45952	76776
21,46363	78763
21,46775	77346
21,47188	83691
21,47600	93323
21,48012	110473
21,48425	147043
21,48837	206223
21,49248	290014
21,49662	412203
21,50073	560010
21,50485	754054
21,50898	927892
21,51310	1095236
21,51722	1219311
21,52135	1302441
21,52547	1310218
21,52958	1270163
21,53372	1185772
21,53783	1081989
21,54195	981635
21,54607	901334
21,55020	856438
21,55432	859205
21,55843	893536
21,56257	967537
21,56668	1068618
21,57080	1167093
21,57493	1264410
21,57905	1335980
21,58317	1359450
21,58730	1326385
21,59142	1256842
21,59553	1162525
21,59967	1053018
21,60378	950821
21,60790	857678
21,61203	804919
21,61615	791054
21,62027	833978
21,62440	935446
21,62852	1097651
21,63263	1309012
21,63675	1521129
21,64088	1726463
21,64500	1896957
21,64912	1984122
21,65325	1982923
21,65737	1906362
21,66148	1746170
21,66562	1563421
21,66973	1363323
21,67385	1181155
21,67798	1013459
21,68210	864116
21,68622	750506
21,69035	647115
21,69447	569394
21,69858	507772
21,70272	449884
21,70683	402610
21,71095	366918
21,71508	339031
21,71920	308836
21,72332	284464
21,72743	264009
21,73157	246868
21,73568	231774
21,73980	215818
21,74393	200795
21,74805	187443
21,75217	180730
21,75630	168680
21,76042	161417
21,76453	154467
21,76867	146562
21,77278	141021
21,77690	133978
21,78103	128790
21,78515	121235
21,78927	118731
21,79340	113417
21,79752	106886
21,80163	103390
21,80577	97315
21,80988	94890
21,81400	90788
21,81812	93465
21,82225	89879
21,82637	87704
21,83048	84601
21,83462	83552
21,83873	79844
21,84285	77164
21,84698	78842
21,85110	72190
21,85522	74188
21,85935	72897
21,86347	68365
21,86758	68706
21,87172	67859
21,87583	65958
21,87995	65849
21,88408	62955
21,88820	63633
21,89232	61122
21,89645	62302
21,90057	61043
21,90468	59199
21,90880	56855
21,91293	58424
21,91705	55204
21,92117	55538
21,92530	54939
21,92942	55265
21,93353	56505
21,93767	56073
21,94178	60227
21,94590	73984
21,95003	92137
21,95415	128806
21,95827	180159
21,96240	265797
21,96652	401946
21,97063	589363
21,97477	836503
21,97888	1116550
21,98300	1418299
21,98713	1711050
21,99125	1923268
21,99537	2013610
21,99948	1993458
22,00362	1875491
22,00773	1702341
22,01185	1513758
22,01598	1307684
22,02010	1110467
22,02422	940467
22,02835	803452
22,03247	692708
22,03658	604851
22,04072	528941
22,04483	465998
22,04895	417535
22,05308	381683
22,05720	340400
22,06132	312523
22,06545	285784
22,06957	262908
22,07368	239121
22,07782	228293
22,08193	211322
22,08605	198244
22,09017	188780
22,09430	180550
22,09842	167374
22,10253	159633
22,10667	156892
22,11078	146075
22,11490	143942
22,11903	138112
22,12315	130409
22,12727	125623
22,13140	124513
22,13552	117070
22,13963	114883
22,14377	109460
22,14788	106658
22,15200	104067
22,15613	97822
22,16025	97712
22,16437	93203
22,16850	94314
22,17262	91444
22,17673	89444
22,18087	84238
22,18498	83907
22,18910	78467
22,19322	79718
22,19735	79710
22,20147	77688
22,20558	77659
22,20972	74246
22,21383	76141
22,21795	74952
22,22208	71116
22,22620	72514
22,23032	70418
22,23445	68261
22,23857	66887
22,24268	66391
22,24682	66091
22,25093	69283
22,25505	70048
22,25918	76997
22,26330	93620
22,26742	121171
22,27155	174980
22,27567	255793
22,27978	374760
22,28390	540704
22,28803	740503
22,29215	953704
22,29627	1181580
22,30040	1393149
22,30452	1507942
22,30863	1560779
22,31277	1535457
22,31688	1447620
22,32100	1304569
22,32513	1154779
22,32925	1001499
22,33337	876352
22,33750	746767
22,34162	656176
22,34573	574498
22,34987	532670
22,35398	517761
22,35810	524612
22,36223	563641
22,36635	643030
22,37047	740939
22,37458	861890
22,37872	979754
22,38283	1077922
22,38695	1164199
22,39108	1173638
22,39520	1170881
22,39932	1115983
22,40345	1037362
22,40757	934387
22,41168	831384
22,41582	724606
22,41993	633125
22,42405	551559
22,42818	474305
22,43230	420800
22,43642	369247
22,44055	326731
22,44467	297497
22,44878	264548
22,45292	239250
22,45703	221913
22,46115	203743
22,46527	188851
22,46940	171362
22,47352	163672
22,47763	158870
22,48177	146751
22,48588	137790
22,49000	134432
22,49413	125644
22,49825	119013
22,50237	110904
22,50650	110048
22,51062	104399
22,51473	102190
22,51887	98525
22,52298	99189
22,52710	92400
22,53123	88722
22,53535	87324
22,53947	84057
22,54360	83799
22,54772	79745
22,55183	79879
22,55595	75911
22,56008	74816
22,56420	75560
22,56832	72408
22,57245	72106
22,57657	71224
22,58068	67916
22,58482	66503
22,58893	68330
22,59305	69479
22,59718	67442
22,60130	63178
22,60542	64236
22,60955	63319
22,61367	62601
22,61778	61734
22,62192	60993
22,62603	60511
22,63015	58191
22,63428	57995
22,63840	55561
22,64252	54666
22,64663	53012
22,65077	54595
22,65488	52423
22,65900	52720
22,66313	51284
22,66725	52241
22,67137	51011
22,67550	49936
22,67962	50315
22,68373	51426
22,68787	53409
22,69198	57289
22,69610	66893
22,70023	80349
22,70435	110957
22,70847	153137
22,71260	229576
22,71672	343083
22,72083	514906
22,72497	740127
22,72908	1054177
22,73320	1444048
22,73732	1901849
22,74145	2395270
22,74557	2911280
22,74968	3379210
22,75382	3750202
22,75793	3922868
22,76205	3873788
22,76618	3659179
22,77030	3293927
22,77442	2859822
22,77855	2427232
22,78267	2035077
22,78678	1708541
22,79092	1441329
22,79503	1242573
22,79915	1070255
22,80328	933915
22,80740	829921
22,81152	736112
22,81565	659062
22,81977	605557
22,82388	549715
22,82800	501278
22,83213	461195
22,83625	424242
22,84037	402877
22,84450	372859
22,84862	348187
22,85273	327232
22,85687	305362
22,86098	291678
22,86510	277383
22,86923	265025
22,87335	246256
22,87747	240133
22,88160	232252
22,88572	214732
22,88983	210426
22,89397	199556
22,89808	189486
22,90220	184298
22,90633	175055
22,91045	169100
22,91457	168020
22,91868	160408
22,92282	157972
22,92693	151758
22,93105	147607
22,93518	141509
22,93930	138600
22,94342	135860
22,94755	130817
22,95167	123211
22,95578	123594
22,95992	121166
22,96403	122597
22,96815	119645
22,97228	117784
22,97640	115765
22,98052	111686
22,98465	109347
22,98877	103465
22,99288	101551
22,99702	104156
23,00113	99691
23,00525	94827
23,00937	100654
23,01350	91490
23,01762	87589
23,02173	89871
23,02587	88510
23,02998	90026
23,03410	89737
23,03823	88117
23,04235	89150
23,04647	85967
23,05060	84972
23,05472	79826
23,05883	81910
23,06297	78586
23,06708	79109
23,07120	78593
23,07533	78440
23,07945	75428
23,08357	77505
23,08770	74604
23,09182	74082
23,09593	75756
23,10005	80418
23,10418	83232
23,10830	96541
23,11242	114271
23,11655	145484
23,12067	195925
23,12478	271828
23,12892	390673
23,13303	551118
23,13715	759670
23,14128	993087
23,14540	1239721
23,14952	1458657
23,15365	1657004
23,15777	1763441
23,16188	1768046
23,16602	1724326
23,17013	1609248
23,17425	1456483
23,17838	1290164
23,18250	1125884
23,18662	976607
23,19073	853609
23,19487	753195
23,19898	656833
23,20310	581816
23,20723	522474
23,21135	471501
23,21547	429486
23,21960	395880
23,22372	354757
23,22783	335043
23,23197	305685
23,23608	287397
23,24020	266919
23,24433	254562
23,24845	237288
23,25257	219537
23,25670	214800
23,26082	205559
23,26493	195408
23,26907	185111
23,27318	177594
23,27730	168549
23,28142	164169
23,28555	155073
23,28967	152597
23,29378	143641
23,29792	142452
23,30203	138181
23,30615	133103
23,31028	131865
23,31440	125590
23,31852	120213
23,32265	117559
23,32677	112753
23,33088	113683
23,33502	111018
23,33913	109181
23,34325	105802
23,34738	103163
23,35150	103369
23,35562	97316
23,35975	99985
23,36387	97953
23,36798	95794
23,37210	94274
23,37623	89565
23,38035	87746
23,38447	88830
23,38860	86194
23,39272	85641
23,39683	86742
23,40097	81308
23,40508	80442
23,40920	77999
23,41333	77772
23,41745	78215
23,42157	76307
23,42570	76195
23,42982	74989
23,43393	73942
23,43807	71421
23,44218	74604
23,44630	70979
23,45043	75810
23,45455	73673
23,45867	75183
23,46278	72184
23,46692	75211
23,47103	76812
23,47515	76030
23,47928	76027
23,48340	72856
23,48752	70697
23,49165	72717
23,49577	68841
23,49988	71155
23,50402	70359
23,50813	68850
23,51225	68251
23,51638	68506
23,52050	74012
23,52462	74233
23,52875	81189
23,53287	83628
23,53698	91801
23,54112	99390
23,54523	106949
23,54935	114480
23,55347	123711
23,55760	124223
23,56172	130119
23,56583	130759
23,56997	127556
23,57408	122389
23,57820	117995
23,58233	110600
23,58645	107576
23,59057	95030
23,59470	95961
23,59882	85097
23,60293	78566
23,60707	78666
23,61118	76427
23,61530	74653
23,61943	67862
23,62355	64109
23,62767	65722
23,63180	64672
23,63592	60403
23,64003	62791
23,64415	60923
23,64828	61559
23,65240	59303
23,65652	59947
23,66065	58166
23,66477	57590
23,66888	57505
23,67302	57838
23,67713	58152
23,68125	53946
23,68538	57334
23,68950	54819
23,69362	55296
23,69775	53484
23,70187	54186
23,70598	55637
23,71012	54423
23,71423	55349
23,71835	53820
23,72248	52785
23,72660	55954
23,73072	51782
23,73483	52874
23,73897	52858
23,74308	53281
23,74720	54762
23,75133	54825
23,75545	53110
23,75957	51805
23,76370	53396
23,76782	50286
23,77193	49717
23,77607	51283
23,78018	48592
23,78430	46608
23,78843	48617
23,79255	48412
23,79667	47551
23,80080	47597
23,80492	47530
23,80903	47433
23,81317	48101
23,81728	46157
23,82140	44473
23,82553	46756
23,82965	47149
23,83377	46859
23,83788	46492
23,84202	46297
23,84613	41957
23,85025	46247
23,85438	45809
23,85850	45886
23,86262	43277
23,86675	46572
23,87087	48120
23,87498	45540
23,87912	46287
23,88323	46843
23,88735	45071
23,89148	46675
23,89560	47048
23,89972	46784
23,90385	47144
23,90797	45796
23,91208	46413
23,91622	43737
23,92033	46227
23,92445	46014
23,92857	47617
23,93270	47442
23,93682	43745
23,94093	46998
23,94507	47354
23,94918	44451
23,95330	45514
23,95743	44405
23,96155	41440
23,96567	44527
23,96980	45320
23,97392	44286
23,97803	46000
23,98217	45781
23,98628	46516
23,99040	43484
23,99453	46064
23,99865	45408
24,00277	44087
24,00690	45643
24,01102	46534
24,01513	45879
24,01925	44642
24,02338	45760
24,02750	44225
24,03162	46167
24,03575	47653
24,03987	45982
24,04398	43455
24,04812	43872
24,05223	46365
24,05635	43782
24,06048	43368
24,06460	46003
24,06872	43395
24,07285	44062
24,07697	43221
24,08108	42222
24,08522	44709
24,08933	42696
24,09345	43861
24,09758	42609
24,10170	45419
24,10582	43922
24,10993	44457
24,11407	43815
24,11818	43278
24,12230	42945
24,12643	43748
24,13055	43404
24,13467	43708
24,13880	43963
24,14292	43207
24,14703	40697
24,15117	42146
24,15528	40089
24,15940	42256
24,16353	42085
24,16765	41023
24,17177	41699
24,17590	41503
24,18002	40449
24,18413	39367
24,18827	39971
24,19238	41219
24,19650	41915
24,20062	41926
24,20475	40573
24,20887	41384
24,21298	40703
24,21712	40889
24,22123	40721
24,22535	41089
24,22948	42514
24,23360	39987
24,23772	40740
24,24185	41959
24,24597	38619
24,25008	38826
24,25422	37959
24,25833	39558
24,26245	40969
24,26658	40626
24,27070	40875
24,27482	39657
24,27895	43163
24,28307	42461
24,28718	42139
24,29130	43360
24,29543	44453
24,29955	50997
24,30367	57973
24,30780	71477
24,31192	91488
24,31603	117927
24,32017	153657
24,32428	209123
24,32840	274721
24,33253	360612
24,33665	445890
24,34077	538201
24,34490	614682
24,34902	683541
24,35313	722307
24,35727	760104
24,36138	754886
24,36550	731785
24,36963	698862
24,37375	650330
24,37787	601821
24,38198	538945
24,38612	485829
24,39023	440488
24,39435	389695
24,39848	350977
24,40260	317926
24,40672	287225
24,41085	257591
24,41497	236428
24,41908	222734
24,42322	199766
24,42733	185963
24,43145	176119
24,43558	158329
24,43970	152894
24,44382	142074
24,44795	133371
24,45207	130316
24,45618	121325
24,46032	116187
24,46443	110531
24,46855	106757
24,47267	101754
24,47680	99685
24,48092	95528
24,48503	91852
24,48917	90682
24,49328	88087
24,49740	82728
24,50153	82271
24,50565	81767
24,50977	80990
24,51390	77093
24,51802	76717
24,52213	73436
24,52627	72220
24,53038	69450
24,53450	67004
24,53863	66906
24,54275	67385
24,54687	63558
24,55100	60325
24,55512	64325
24,55923	63684
24,56335	63466
24,56748	63162
24,57160	61602
24,57572	61043
24,57985	56765
24,58397	57797
24,58808	59256
24,59222	59318
24,59633	58744
24,60045	57856
24,60458	57251
24,60870	54987
24,61282	53875
24,61695	52929
24,62107	51875
24,62518	53773
24,62932	55641
24,63343	53220
24,63755	52400
24,64168	50850
24,64580	53785
24,64992	48871
24,65403	52095
24,65817	50692
24,66228	51598
24,66640	50355
24,67053	51433
24,67465	50104
24,67877	48413
24,68290	48235
24,68702	50642
24,69113	50384
24,69527	48764
24,69938	49434
24,70350	47363
24,70763	48745
24,71175	49303
24,71587	46121
24,72000	48004
24,72412	44830
24,72823	48374
24,73237	47613
24,73648	46815
24,74060	45601
24,74472	44832
24,74885	47813
24,75297	45535
24,75708	45164
24,76122	47964
24,76533	47418
24,76945	45663
24,77358	44806
24,77770	47381
24,78182	47173
24,78595	45502
24,79007	47109
24,79418	47096
24,79832	50321
24,80243	47427
24,80655	47440
24,81068	46561
24,81480	45218
24,81892	44964
24,82305	46295
24,82717	45560
24,83128	47450
24,83540	45641
24,83953	44351
24,84365	44943
24,84777	46004
24,85190	47496
24,85602	47335
24,86013	42539
24,86427	44341
24,86838	44700
24,87250	42413
24,87663	44148
24,88075	42925
24,88487	43235
24,88900	41299
24,89312	42795
24,89723	41265
24,90137	41239
24,90548	40834
24,90960	41637
24,91373	44020
24,91785	42211
24,92197	44579
24,92608	42536
24,93022	40509
24,93433	42638
24,93845	45211
24,94258	42969
24,94670	41456
24,95082	40235
24,95495	43046
24,95907	40409
24,96318	40899
24,96732	41664
24,97143	43104
24,97555	43531
24,97968	42612
24,98380	42612
24,98792	40471
24,99205	41357
24,99617	40275
25,00028	39928
25,00442	42028
25,00853	42081
25,01265	44902
25,01677	43171
25,02090	41601
25,02502	43448
25,02913	46148
25,03327	41220
25,03738	40982
25,04150	41006
25,04563	43786
25,04975	41229
25,05387	43717
25,05800	43993
25,06212	44120
25,06623	44795
25,07037	39508
25,07448	40401
25,07860	42439
25,08273	44591
25,08685	42091
25,09097	43334
25,09510	40872
25,09922	42593
25,10333	43780
25,10745	43568
25,11158	40912
25,11570	39944
25,11982	40807
25,12395	42724
25,12807	44260
25,13218	40752
25,13632	42706
25,14043	42212
25,14455	40603
25,14868	39724
25,15280	41580
25,15692	40813
25,16105	39724
25,16517	44445
25,16928	42008
25,17342	40174
25,17753	41986
25,18165	42451
25,18578	40395
25,18990	42512
25,19402	42731
25,19813	39723
25,20227	39672
25,20638	42194
25,21050	40457
25,21463	42534
25,21875	40602
25,22287	37583
25,22700	42087
25,23112	41023
25,23523	40171
25,23937	38310
25,24348	41653
25,24760	40639
25,25173	40831
25,25585	38055
25,25997	39918
25,26410	39165
25,26822	40124
25,27233	39804
25,27647	38414
25,28058	40665
25,28470	37577
25,28882	40452
25,29295	41883
25,29707	39074
25,30118	41018
25,30532	38866
25,30943	40828
25,31355	40270
25,31768	39868
25,32180	41533
25,32592	40181
25,33005	39587
25,33417	38801
25,33828	40504
25,34242	39821
25,34653	41527
25,35065	40684
25,35478	40313
25,35890	38135
25,36302	39035
25,36715	39098
25,37127	40874
25,37538	42144
25,37950	41571
25,38363	39272
25,38775	42277
25,39187	40576
25,39600	38813
25,40012	40732
25,40423	40440
25,40837	39395
25,41248	39431
25,41660	39928
25,42073	43594
25,42485	42328
25,42897	42547
25,43310	41814
25,43722	44137
25,44133	45251
25,44547	43328
25,44958	43965
25,45370	43210
25,45783	39055
25,46195	40296
25,46607	45041
25,47020	43964
25,47432	43310
25,47843	45062
25,48255	41377
25,48668	42678
25,49080	40037
25,49492	42076
25,49905	41629
25,50317	41353
25,50728	41513
25,51142	40656
25,51553	44229
25,51965	39200
25,52378	41978
25,52790	40764
25,53202	39987
25,53615	40511
25,54027	38764
25,54438	41287
25,54852	42012
25,55263	41932
25,55675	40400
25,56088	41750
25,56500	40089
25,56912	40794
25,57323	40431
25,57737	39872
25,58148	40860
25,58560	40008
25,58973	37900
25,59385	38660
25,59797	38318
25,60210	39093
25,60622	38917
25,61033	38620
25,61447	40845
25,61858	38534
25,62270	40415
25,62683	39622
25,63095	36418
25,63507	37961
25,63920	39408
25,64332	38487
25,64743	37702
25,65157	40181
25,65568	36705
25,65980	39459
25,66392	36814
25,66805	37692
25,67217	38343
25,67628	40206
25,68042	38759
25,68453	37505
25,68865	40258
25,69278	39096
25,69690	38609
25,70102	39198
25,70515	37813
25,70927	40916
25,71338	37948
25,71752	35487
25,72163	39320
25,72575	39869
25,72988	38709
25,73400	40257
25,73812	40378
25,74225	37517
25,74637	39335
25,75048	38921
25,75460	39714
25,75873	38978
25,76285	38424
25,76697	39245
25,77110	39645
25,77522	35566
25,77933	38724
25,78347	37776
25,78758	41703
25,79170	41872
25,79583	39036
25,79995	38289
25,80407	39992
25,80820	40057
25,81232	40883
25,81643	39827
25,82057	42653
25,82468	39073
25,82880	38295
25,83293	39116
25,83705	40109
25,84117	38854
25,84528	40993
25,84942	36950
