D:\MassHunter\GCMS\1\data\Amal\Constant flow\110C\110C_1ml-min_7C-min_3.D Tue Sep 17 15:31:17 2024
Start of data points
5,29113,263637
5,29525,250779
5,29938,242920
5,30350,237648
5,30762,231578
5,31173,222766
5,31587,220132
5,31998,211578
5,32410,207106
5,32823,198644
5,33235,191787
5,33647,191624
5,34060,184402
5,34472,181119
5,34883,179446
5,35297,173344
5,35708,170715
5,36120,167658
5,36533,165717
5,36945,158090
5,37357,158133
5,37770,154374
5,38182,151687
5,38593,146780
5,39007,148873
5,39418,144750
5,39830,143361
5,40242,140477
5,40655,139200
5,41067,137417
5,41478,135891
5,41892,133680
5,42303,131889
5,42715,133925
5,43128,131247
5,43540,128097
5,43952,124657
5,44365,127538
5,44777,128754
5,45188,124409
5,45602,122934
5,46013,121715
5,46425,123503
5,46838,119189
5,47250,120329
5,47662,119576
5,48075,115692
5,48487,116117
5,48898,116610
5,49310,115247
5,49723,114627
5,50135,116150
5,50547,112931
5,50960,111515
5,51372,112219
5,51783,110207
5,52197,108032
5,52608,110838
5,53020,105668
5,53433,108141
5,53845,107151
5,54257,106275
5,54670,103959
5,55082,102665
5,55493,104184
5,55907,103281
5,56318,104468
5,56730,103564
5,57143,102713
5,57555,103118
5,57967,103739
5,58378,100789
5,58792,100327
5,59203,99714
5,59615,98882
5,60028,99264
5,60440,100098
5,60852,97241
5,61265,96735
5,61677,97116
5,62088,97867
5,62502,95486
5,62913,97704
5,63325,96046
5,63738,96458
5,64150,97026
5,64562,97935
5,64975,95425
5,65387,97975
5,65798,94229
5,66212,98589
5,66623,97075
5,67035,94269
5,67447,94380
5,67860,96185
5,68272,101140
5,68683,99003
5,69097,99385
5,69508,97428
5,69920,99045
5,70333,98262
5,70745,102415
5,71157,100894
5,71570,99519
5,71982,100172
5,72393,100625
5,72807,100635
5,73218,100337
5,73630,102827
5,74043,102792
5,74455,101589
5,74867,101410
5,75280,102447
5,75692,105444
5,76103,103486
5,76515,102088
5,76928,103650
5,77340,103566
5,77752,103515
5,78165,106119
5,78577,102713
5,78988,103119
5,79402,103677
5,79813,102078
5,80225,103730
5,80638,101658
5,81050,100422
5,81462,100202
5,81875,98231
5,82287,102115
5,82698,104002
5,83112,98694
5,83523,100245
5,83935,98696
5,84348,97631
5,84760,92916
5,85172,95543
5,85583,94539
5,85997,94306
5,86408,95151
5,86820,91735
5,87233,90441
5,87645,90414
5,88057,89505
5,88470,91864
5,88882,86934
5,89293,88438
5,89707,85609
5,90118,89584
5,90530,87950
5,90943,85465
5,91355,89229
5,91767,95032
5,92180,106494
5,92592,134533
5,93003,184846
5,93417,260727
5,93828,370019
5,94240,509981
5,94652,654543
5,95065,800826
5,95477,913936
5,95888,992149
5,96302,1052260
5,96713,1062965
5,97125,1052947
5,97538,1017019
5,97950,988334
5,98362,936848
5,98775,890128
5,99187,855694
5,99598,815263
6,00012,766566
6,00423,740563
6,00835,695751
6,01248,656880
6,01660,627270
6,02072,601278
6,02485,566344
6,02897,534301
6,03308,505749
6,03720,479176
6,04133,453547
6,04545,426123
6,04957,407520
6,05370,391554
6,05782,373490
6,06193,355155
6,06607,332117
6,07018,313086
6,07430,297225
6,07843,280342
6,08255,265937
6,08667,248293
6,09080,232663
6,09492,220344
6,09903,205190
6,10317,195433
6,10728,183516
6,11140,165453
6,11553,158631
6,11965,152745
6,12377,142537
6,12788,137254
6,13202,129660
6,13613,123889
6,14025,118946
6,14438,113689
6,14850,107125
6,15262,103347
6,15675,101507
6,16087,95234
6,16498,92490
6,16912,90219
6,17323,86425
6,17735,85391
6,18148,85740
6,18560,83402
6,18972,80904
6,19385,79443
6,19797,75945
6,20208,77535
6,20622,76563
6,21033,72421
6,21445,72651
6,21857,70617
6,22270,69502
6,22682,71405
6,23093,71801
6,23507,68026
6,23918,67486
6,24330,68351
6,24743,67253
6,25155,64280
6,25567,65925
6,25980,63813
6,26392,64816
6,26803,61933
6,27217,62585
6,27628,60666
6,28040,60806
6,28453,59758
6,28865,59354
6,29277,59251
6,29690,57021
6,30102,56414
6,30513,58166
6,30925,61125
6,31338,58151
6,31750,57112
6,32162,56877
6,32575,58671
6,32987,55214
6,33398,57020
6,33812,57044
6,34223,55649
6,34635,54320
6,35048,55454
6,35460,54323
6,35872,53173
6,36285,53585
6,36697,52767
6,37108,53528
6,37522,53703
6,37933,52223
6,38345,52830
6,38758,52181
6,39170,51890
6,39582,50820
6,39993,51326
6,40407,52482
6,40818,50361
6,41230,50716
6,41643,50045
6,42055,49473
6,42467,50644
6,42880,50969
6,43292,50576
6,43703,52068
6,44117,49956
6,44528,51239
6,44940,51365
6,45353,50500
6,45765,50177
6,46177,49339
6,46590,48685
6,47002,48303
6,47413,48477
6,47827,48032
6,48238,47900
6,48650,48182
6,49062,45685
6,49475,46446
6,49887,47088
6,50298,45751
6,50712,45176
6,51123,45022
6,51535,47437
6,51948,45733
6,52360,45948
6,52772,46370
6,53185,45913
6,53597,47906
6,54008,44153
6,54422,45963
6,54833,45758
6,55245,46508
6,55658,45678
6,56070,44394
6,56482,44886
6,56895,43616
6,57307,44973
6,57718,45511
6,58130,43608
6,58543,45015
6,58955,45311
6,59367,44317
6,59780,43671
6,60192,45909
6,60603,45968
6,61017,46251
6,61428,46046
6,61840,44694
6,62253,45020
6,62665,46421
6,63077,45702
6,63490,46123
6,63902,45631
6,64313,45442
6,64727,44221
6,65138,43451
6,65550,43867
6,65963,43936
6,66375,42811
6,66787,42632
6,67198,43735
6,67612,43169
6,68023,43584
6,68435,44637
6,68848,43575
6,69260,43204
6,69672,41801
6,70085,41312
6,70497,43182
6,70908,41704
6,71322,41627
6,71733,38889
6,72145,40501
6,72558,41499
6,72970,39775
6,73382,40106
6,73795,41638
6,74207,41841
6,74618,40372
6,75032,41613
6,75443,40577
6,75855,38721
6,76267,40920
6,76680,38875
6,77092,39578
6,77503,39153
6,77917,37596
6,78328,39395
6,78740,41368
6,79153,40165
6,79565,40373
6,79977,41313
6,80390,41837
6,80802,42614
6,81213,42587
6,81627,40561
6,82038,42363
6,82450,41173
6,82863,42981
6,83275,41675
6,83687,41811
6,84100,41359
6,84512,41920
6,84923,41419
6,85337,40441
6,85748,39662
6,86160,39503
6,86572,39777
6,86985,40484
6,87397,41294
6,87808,39002
6,88222,37323
6,88633,38089
6,89045,38064
6,89458,38337
6,89870,38614
6,90282,37125
6,90695,37247
6,91107,36188
6,91518,37593
6,91932,36146
6,92343,37486
6,92755,36314
6,93168,36894
6,93580,35896
6,93992,36167
6,94405,36834
6,94817,35688
6,95228,35175
6,95640,36589
6,96053,36212
6,96465,34859
6,96877,36604
6,97290,35119
6,97702,35723
6,98113,34633
6,98527,33744
6,98938,34206
6,99350,35027
6,99763,35545
7,00175,35152
7,00587,35832
7,01000,33948
7,01412,35511
7,01823,34264
7,02237,35168
7,02648,34381
7,03060,35721
7,03473,35195
7,03885,34745
7,04297,35310
7,04708,35474
7,05122,34511
7,05533,34541
7,05945,34260
7,06358,35570
7,06770,36657
7,07182,34035
7,07595,34097
7,08007,33213
7,08418,33284
7,08832,33786
7,09243,32366
7,09655,32904
7,10068,34156
7,10480,33843
7,10892,31837
7,11305,31230
7,11717,32768
7,12128,33622
7,12542,31257
7,12953,31494
7,13365,32233
7,13777,32318
7,14190,31290
7,14602,31985
7,15013,32902
7,15427,31507
7,15838,32953
7,16250,32607
7,16663,32016
7,17075,32265
7,17487,34059
7,17900,32824
7,18312,31303
7,18723,33286
7,19137,34216
7,19548,33967
7,19960,32624
7,20373,32040
7,20785,33408
7,21197,33637
7,21610,30644
7,22022,33435
7,22433,31982
7,22845,30930
7,23258,31470
7,23670,32610
7,24082,32957
7,24495,31122
7,24907,32431
7,25318,32040
7,25732,31829
7,26143,30449
7,26555,31449
7,26968,32444
7,27380,30828
7,27792,31561
7,28205,30687
7,28617,31325
7,29028,34521
7,29442,41011
7,29853,51228
7,30265,75605
7,30678,117734
7,31090,186780
7,31502,285659
7,31913,426433
7,32327,601544
7,32738,798244
7,33150,979973
7,33563,1156461
7,33975,1292647
7,34387,1384974
7,34800,1451746
7,35212,1466755
7,35623,1443911
7,36037,1396941
7,36448,1342308
7,36860,1269688
7,37273,1188187
7,37685,1107238
7,38097,1041473
7,38510,964608
7,38922,882476
7,39333,809025
7,39747,749543
7,40158,687641
7,40570,644640
7,40982,580686
7,41395,525583
7,41807,479197
7,42218,431957
7,42632,391714
7,43043,353466
7,43455,310165
7,43868,278640
7,44280,250912
7,44692,222194
7,45105,199953
7,45517,177937
7,45928,162385
7,46342,144073
7,46753,129827
7,47165,119762
7,47578,111695
7,47990,104265
7,48402,92844
7,48815,88276
7,49227,78699
7,49638,78550
7,50050,71304
7,50463,67106
7,50875,65011
7,51287,60525
7,51700,59010
7,52112,56646
7,52523,54981
7,52937,51468
7,53348,50491
7,53760,48564
7,54173,47086
7,54585,47896
7,54997,46570
7,55410,43757
7,55822,43992
7,56233,43245
7,56647,41888
7,57058,39591
7,57470,40985
7,57883,39863
7,58295,38296
7,58707,38539
7,59118,37016
7,59532,38085
7,59943,38598
7,60355,35798
7,60768,36659
7,61180,35051
7,61592,36400
7,62005,33927
7,62417,34377
7,62828,33979
7,63242,34023
7,63653,33608
7,64065,33157
7,64478,31373
7,64890,32971
7,65302,32820
7,65715,30840
7,66127,32359
7,66538,31194
7,66952,30676
7,67363,30494
7,67775,31081
7,68187,30709
7,68600,29806
7,69012,30681
7,69423,30288
7,69837,30505
7,70248,30770
7,70660,29304
7,71073,29403
7,71485,29498
7,71897,29846
7,72310,30628
7,72722,30063
7,73133,30149
7,73547,31600
7,73958,29725
7,74370,29253
7,74783,31136
7,75195,29863
7,75607,31227
7,76020,28581
7,76432,30180
7,76843,29888
7,77255,29120
7,77668,29219
7,78080,28762
7,78492,29899
7,78905,29014
7,79317,29490
7,79728,28391
7,80142,28085
7,80553,28625
7,80965,28736
7,81378,28618
7,81790,27981
7,82202,28482
7,82615,26232
7,83027,27809
7,83438,27005
7,83852,27543
7,84263,26608
7,84675,25725
7,85088,26228
7,85500,26425
7,85912,26687
7,86323,25306
7,86737,26801
7,87148,26969
7,87560,27060
7,87973,24775
7,88385,28003
7,88797,25458
7,89210,26384
7,89622,27269
7,90033,27457
7,90447,25189
7,90858,27286
7,91270,25244
7,91683,26009
7,92095,26776
7,92507,25960
7,92920,25457
7,93332,24631
7,93743,25079
7,94157,25815
7,94568,26186
7,94980,26227
7,95392,24955
7,95805,25621
7,96217,27214
7,96628,25939
7,97042,26932
7,97453,27053
7,97865,27080
7,98278,25824
7,98690,24427
7,99102,26533
7,99515,26680
7,99927,26490
8,00338,24724
8,00752,24700
8,01163,23885
8,01575,23783
8,01988,24383
8,02400,25535
8,02812,24998
8,03225,25234
8,03637,23302
8,04048,23135
8,04460,23005
8,04873,23043
8,05285,24607
8,05697,24302
8,06110,23224
8,06522,23196
8,06933,24581
8,07347,25544
8,07758,23610
8,08170,23335
8,08583,23460
8,08995,23299
8,09407,23218
8,09820,23220
8,10232,23520
8,10643,23709
8,11057,23087
8,11468,23822
8,11880,23175
8,12293,23906
8,12705,22937
8,13117,25134
8,13528,24432
8,13942,23271
8,14353,24970
8,14765,24808
8,15178,27082
8,15590,29293
8,16002,36725
8,16415,53081
8,16827,73626
8,17238,115929
8,17652,175116
8,18063,255232
8,18475,352995
8,18888,457655
8,19300,577086
8,19712,683831
8,20125,778535
8,20537,848364
8,20948,884059
8,21362,877813
8,21773,871091
8,22185,845029
8,22597,796351
8,23010,745150
8,23422,688274
8,23833,639680
8,24247,574087
8,24658,515028
8,25070,479232
8,25483,418226
8,25895,371776
8,26307,330525
8,26720,294132
8,27132,259330
8,27543,230096
8,27957,206866
8,28368,177657
8,28780,158119
8,29193,140304
8,29605,123178
8,30017,109815
8,30430,98076
8,30842,89648
8,31253,79470
8,31665,73702
8,32078,68049
8,32490,62637
8,32902,57321
8,33315,54989
8,33727,50548
8,34138,46701
8,34552,44240
8,34963,45406
8,35375,43046
8,35788,40110
8,36200,38657
8,36612,37219
8,37025,36518
8,37437,36241
8,37848,35543
8,38262,34160
8,38673,34102
8,39085,32789
8,39498,33023
8,39910,33416
8,40322,32097
8,40733,33653
8,41147,31824
8,41558,32496
8,41970,31778
8,42383,32385
8,42795,31856
8,43207,32003
8,43620,32859
8,44032,30492
8,44443,31797
8,44857,30942
8,45268,29605
8,45680,30545
8,46093,29620
8,46505,29258
8,46917,26551
8,47330,26742
8,47742,28416
8,48153,27855
8,48567,26770
8,48978,26805
8,49390,27029
8,49803,25901
8,50215,22581
8,50627,25118
8,51038,28127
8,51452,24361
8,51863,24114
8,52275,25926
8,52688,23830
8,53100,25586
8,53512,27604
8,53925,27216
8,54337,27214
8,54748,26219
8,55162,26930
8,55573,26880
8,55985,27460
8,56398,26244
8,56810,24350
8,57222,25604
8,57635,24498
8,58047,24702
8,58458,23605
8,58872,22148
8,59283,23413
8,59695,23313
8,60107,22231
8,60520,22372
8,60932,21443
8,61343,22697
8,61757,22384
8,62168,21047
8,62580,22185
8,62993,22332
8,63405,21327
8,63817,19403
8,64230,19855
8,64642,20753
8,65053,21333
8,65467,20563
8,65878,17670
8,66290,19493
8,66703,20087
8,67115,20450
8,67527,18536
8,67940,18959
8,68352,20474
8,68763,20919
8,69175,20911
8,69588,20557
8,70000,20387
8,70412,20707
8,70825,19540
8,71237,20022
8,71648,18281
8,72062,19751
8,72473,18910
8,72885,18907
8,73298,20485
8,73710,19592
8,74122,18880
8,74535,19923
8,74947,18895
8,75358,21319
8,75772,20532
8,76183,17862
8,76595,20112
8,77008,19112
8,77420,19006
8,77832,18573
8,78243,18825
8,78657,19765
8,79068,19368
8,79480,19728
8,79893,18395
8,80305,18210
8,80717,19733
8,81130,18364
8,81542,18704
8,81953,18197
8,82367,20085
8,82778,19494
8,83190,20143
8,83603,20362
8,84015,19442
8,84427,18298
8,84840,18775
8,85252,19553
8,85663,20236
8,86077,18240
8,86488,20472
8,86900,20183
8,87312,18282
8,87725,18787
8,88137,18880
8,88548,18499
8,88962,18408
8,89373,20324
8,89785,18508
8,90198,19191
8,90610,18013
8,91022,19851
8,91435,17965
8,91847,18138
8,92258,17185
8,92672,18596
8,93083,19215
8,93495,17450
8,93908,18776
8,94320,19524
8,94732,18704
8,95145,20397
8,95557,18666
8,95968,19833
8,96380,18881
8,96793,19706
8,97205,19306
8,97617,19922
8,98030,18229
8,98442,19288
8,98853,19297
8,99267,18368
8,99678,17936
9,00090,18842
9,00503,18604
9,00915,18857
9,01327,19235
9,01740,17322
9,02152,17128
9,02563,18732
9,02977,18185
9,03388,18813
9,03800,18001
9,04213,18217
9,04625,17353
9,05037,17110
9,05448,18018
9,05862,18453
9,06273,18627
9,06685,17738
9,07098,16692
9,07510,18403
9,07922,17822
9,08335,19529
9,08747,23154
9,09158,29175
9,09572,43603
9,09983,69226
9,10395,111785
9,10808,186658
9,11220,298239
9,11632,461160
9,12045,679848
9,12457,938598
9,12868,1204598
9,13282,1469554
9,13693,1712994
9,14105,1898010
9,14517,2038288
9,14930,2108259
9,15342,2090080
9,15753,2019463
9,16167,1879892
9,16578,1740015
9,16990,1568078
9,17403,1396294
9,17815,1234631
9,18227,1075901
9,18640,926177
9,19052,806945
9,19463,691075
9,19877,588137
9,20288,500248
9,20700,421484
9,21113,354754
9,21525,306120
9,21937,265614
9,22350,226190
9,22762,198787
9,23173,177688
9,23585,157235
9,23998,138311
9,24410,122999
9,24822,114125
9,25235,100880
9,25647,94166
9,26058,86423
9,26472,79869
9,26883,75127
9,27295,68959
9,27708,66956
9,28120,62310
9,28532,60074
9,28945,56049
9,29357,54468
9,29768,51238
9,30182,48746
9,30593,45979
9,31005,43885
9,31418,43358
9,31830,41608
9,32242,39147
9,32653,39160
9,33067,38023
9,33478,38317
9,33890,34309
9,34303,34164
9,34715,34900
9,35127,33077
9,35540,33501
9,35952,30906
9,36363,30770
9,36777,30077
9,37188,29280
9,37600,27704
9,38013,29351
9,38425,27706
9,38837,27458
9,39250,27480
9,39662,27953
9,40073,26310
9,40487,25931
9,40898,25165
9,41310,25610
9,41722,23961
9,42135,24598
9,42547,24031
9,42958,24581
9,43372,23575
9,43783,23741
9,44195,23707
9,44608,23184
9,45020,23320
9,45432,22063
9,45845,23404
9,46257,23199
9,46668,20961
9,47082,20609
9,47493,20472
9,47905,21008
9,48318,21352
9,48730,20865
9,49142,19892
9,49555,21065
9,49967,21087
9,50378,21359
9,50790,20836
9,51203,19672
9,51615,21547
9,52027,20544
9,52440,19392
9,52852,21313
9,53263,19257
9,53677,19491
9,54088,21154
9,54500,20515
9,54913,19809
9,55325,21074
9,55737,19058
9,56150,18497
9,56562,18213
9,56973,18950
9,57387,17830
9,57798,18991
9,58210,18417
9,58623,18259
9,59035,19590
9,59447,17553
9,59858,18618
9,60272,18266
9,60683,17346
9,61095,17359
9,61508,18284
9,61920,18229
9,62332,18809
9,62745,16573
9,63157,17458
9,63568,17139
9,63982,18185
9,64393,17380
9,64805,16710
9,65218,17505
9,65630,16987
9,66042,18538
9,66455,17010
9,66867,19228
9,67278,17339
9,67692,18059
9,68103,17470
9,68515,19678
9,68927,18291
9,69340,19274
9,69752,17709
9,70163,18530
9,70577,20014
9,70988,18045
9,71400,18706
9,71813,17576
9,72225,17717
9,72637,17536
9,73050,17558
9,73462,18281
9,73873,16581
9,74287,17137
9,74698,17074
9,75110,17003
9,75523,16168
9,75935,16905
9,76347,17072
9,76760,18628
9,77172,18476
9,77583,18893
9,77995,19882
9,78408,20475
9,78820,20824
9,79232,23003
9,79645,22653
9,80057,23190
9,80468,25247
9,80882,26389
9,81293,25454
9,81705,27131
9,82118,25809
9,82530,25290
9,82942,25857
9,83355,26297
9,83767,23438
9,84178,24957
9,84592,23319
9,85003,22558
9,85415,22004
9,85828,20815
9,86240,20356
9,86652,19702
9,87063,19108
9,87477,19020
9,87888,19142
9,88300,17958
9,88713,17006
9,89125,18734
9,89537,17934
9,89950,16679
9,90362,16092
9,90773,15197
9,91187,16230
9,91598,17189
9,92010,16483
9,92423,15535
9,92835,14707
9,93247,15897
9,93660,15615
9,94072,14742
9,94483,15269
9,94897,15607
9,95308,14933
9,95720,15282
9,96132,15430
9,96545,14952
9,96957,15040
9,97368,14695
9,97782,16134
9,98193,16164
9,98605,15418
9,99018,16410
9,99430,14909
9,99842,14349
10,00255,13805
10,00667,14935
10,01078,14291
10,01492,13815
10,01903,15188
10,02315,15105
10,02728,14274
10,03140,14253
10,03552,14632
10,03965,13930
10,04377,14318
10,04788,13938
10,05200,13305
10,05613,14730
10,06025,15606
10,06437,16127
10,06850,16657
10,07262,18989
10,07673,25740
10,08087,38846
10,08498,58322
10,08910,96613
10,09323,156457
10,09735,243512
10,10147,355618
10,10560,504934
10,10972,659110
10,11383,825090
10,11797,981606
10,12208,1097939
10,12620,1183605
10,13033,1209260
10,13445,1197306
10,13857,1139347
10,14270,1046245
10,14682,950762
10,15093,838614
10,15505,721593
10,15918,620717
10,16330,524352
10,16742,439235
10,17155,363103
10,17567,305971
10,17978,262463
10,18392,215350
10,18803,185357
10,19215,153670
10,19628,135474
10,20040,118742
10,20452,105569
10,20865,95362
10,21277,82832
10,21688,76340
10,22102,71990
10,22513,63575
10,22925,58144
10,23338,55633
10,23750,48335
10,24162,47420
10,24573,44893
10,24987,40708
10,25398,37891
10,25810,38595
10,26223,35550
10,26635,34703
10,27047,32854
10,27460,32197
10,27872,30974
10,28283,30157
10,28697,29988
10,29108,26819
10,29520,27324
10,29933,27086
10,30345,26864
10,30757,27686
10,31170,23077
10,31582,23505
10,31993,23250
10,32407,24119
10,32818,23597
10,33230,21716
10,33642,21357
10,34055,23464
10,34467,23441
10,34878,21642
10,35292,19571
10,35703,19913
10,36115,19104
10,36528,19680
10,36940,19854
10,37352,19510
10,37765,18557
10,38177,17363
10,38588,18623
10,39002,18914
10,39413,18602
10,39825,18095
10,40238,18344
10,40650,18412
10,41062,18005
10,41475,17740
10,41887,15547
10,42298,17701
10,42710,17386
10,43123,18306
10,43535,16369
10,43947,16465
10,44360,16311
10,44772,16419
10,45183,16465
10,45597,16401
10,46008,14530
10,46420,15851
10,46833,15651
10,47245,14595
10,47657,15416
10,48070,14732
10,48482,16186
10,48893,15273
10,49307,15654
10,49718,15495
10,50130,15904
10,50543,15723
10,50955,15885
10,51367,14643
10,51778,15433
10,52192,16022
10,52603,15113
10,53015,14481
10,53428,14920
10,53840,14403
10,54252,14717
10,54665,14786
10,55077,14306
10,55488,15082
10,55902,15318
10,56313,14887
10,56725,15036
10,57138,14907
10,57550,15399
10,57962,14551
10,58375,14488
10,58787,13902
10,59198,15141
10,59612,16145
10,60023,16667
10,60435,17265
10,60847,17050
10,61260,16888
10,61672,18235
10,62083,20262
10,62497,17252
10,62908,19496
10,63320,19598
10,63733,19514
10,64145,18900
10,64557,17886
10,64970,17946
10,65382,16998
10,65793,16261
10,66207,16661
10,66618,15205
10,67030,15110
10,67443,14206
10,67855,13071
10,68267,14984
10,68680,14920
10,69092,14774
10,69503,12865
10,69915,13395
10,70328,13133
10,70740,13287
10,71152,14521
10,71565,12428
10,71977,13081
10,72388,13166
10,72802,13731
10,73213,12091
10,73625,14008
10,74038,14086
10,74450,13758
10,74862,13814
10,75275,13115
10,75687,13706
10,76098,14393
10,76512,16115
10,76923,16322
10,77335,15869
10,77748,16974
10,78160,18845
10,78572,18896
10,78983,19421
10,79397,18363
10,79808,20287
10,80220,18883
10,80633,17821
10,81045,18377
10,81457,19481
10,81870,18484
10,82282,18259
10,82693,17741
10,83107,17054
10,83518,16378
10,83930,15543
10,84343,15321
10,84755,14571
10,85167,14655
10,85580,15284
10,85992,14699
10,86403,14046
10,86817,14505
10,87228,14589
10,87640,14094
10,88052,12653
10,88465,12425
10,88877,15192
10,89288,14568
10,89702,13656
10,90113,14187
10,90525,14020
10,90938,14713
10,91350,14126
10,91762,14361
10,92175,13249
10,92587,14111
10,92998,12845
10,93412,14044
10,93823,12216
10,94235,13794
10,94648,13594
10,95060,12767
10,95472,13325
10,95885,13340
10,96297,13483
10,96708,12970
10,97120,13949
10,97533,13291
10,97945,11827
10,98357,13644
10,98770,13268
10,99182,12755
10,99593,12075
11,00007,11948
11,00418,11859
11,00830,11900
11,01243,12322
11,01655,12532
11,02067,12453
11,02480,12628
11,02892,12057
11,03303,12319
11,03717,12391
11,04128,13074
11,04540,13880
11,04953,13691
11,05365,12022
11,05777,13544
11,06188,14132
11,06602,15817
11,07013,18608
11,07425,26458
11,07838,44804
11,08250,76701
11,08662,139337
11,09075,239723
11,09487,399263
11,09898,623198
11,10312,910806
11,10723,1263510
11,11135,1662520
11,11548,2018047
11,11960,2354165
11,12372,2589115
11,12785,2737844
11,13197,2720485
11,13608,2616958
11,14022,2424163
11,14433,2168019
11,14845,1892932
11,15257,1606814
11,15670,1322578
11,16082,1087970
11,16493,882081
11,16907,730397
11,17318,595750
11,17730,486223
11,18143,408655
11,18555,351011
11,18967,300429
11,19380,254130
11,19792,224595
11,20203,197603
11,20617,173108
11,21028,153496
11,21440,141053
11,21853,126375
11,22265,111625
11,22677,101615
11,23090,97862
11,23502,90680
11,23913,81316
11,24325,79515
11,24738,69903
11,25150,69870
11,25562,62553
11,25975,60589
11,26387,57556
11,26798,54021
11,27212,50057
11,27623,48047
11,28035,45832
11,28448,44375
11,28860,42707
11,29272,39983
11,29685,39845
11,30097,37310
11,30508,37662
11,30922,34816
11,31333,34321
11,31745,34923
11,32158,33383
11,32570,33324
11,32982,33586
11,33393,35726
11,33807,33986
11,34218,34675
11,34630,33185
11,35043,33095
11,35455,33554
11,35867,32716
11,36280,31329
11,36692,31346
11,37103,28827
11,37517,29787
11,37928,28307
11,38340,27291
11,38753,24529
11,39165,24156
11,39577,23614
11,39990,22308
11,40402,21146
11,40813,21034
11,41227,21657
11,41638,20670
11,42050,19193
11,42462,20150
11,42875,20823
11,43287,18800
11,43698,18609
11,44112,18056
11,44523,17945
11,44935,18003
11,45348,17947
11,45760,17072
11,46172,16799
11,46585,18059
11,46997,17256
11,47408,17342
11,47822,15796
11,48233,17607
11,48645,16750
11,49058,16539
11,49470,16780
11,49882,16424
11,50295,16932
11,50707,17095
11,51118,15796
11,51530,15665
11,51943,16432
11,52355,16901
11,52767,14853
11,53180,15255
11,53592,15235
11,54003,15725
11,54417,16088
11,54828,14840
11,55240,14871
11,55653,15269
11,56065,16543
11,56477,14652
11,56890,14991
11,57302,14234
11,57713,14467
11,58127,14918
11,58538,15243
11,58950,16399
11,59363,16607
11,59775,15698
11,60187,15677
11,60598,17378
11,61012,17499
11,61423,17484
11,61835,18796
11,62248,17967
11,62660,19607
11,63072,17806
11,63485,17884
11,63897,17416
11,64308,17139
11,64722,16892
11,65133,15578
11,65545,15001
11,65958,15138
11,66370,13600
11,66782,13486
11,67195,13548
11,67607,13660
11,68018,12614
11,68432,14053
11,68843,12783
11,69255,13587
11,69668,13092
11,70080,13533
11,70492,12611
11,70903,14330
11,71317,13946
11,71728,13151
11,72140,11833
11,72553,12262
11,72965,14255
11,73377,13337
11,73790,12378
11,74202,11256
11,74613,12623
11,75027,12060
11,75438,12606
11,75850,12636
11,76263,12215
11,76675,13413
11,77087,12489
11,77500,12021
11,77912,13349
11,78323,15196
11,78737,19403
11,79148,27269
11,79560,45243
11,79972,72769
11,80385,117049
11,80797,187034
11,81208,292024
11,81622,433306
11,82033,600367
11,82445,788195
11,82858,970112
11,83270,1124755
11,83682,1224033
11,84095,1290962
11,84507,1272442
11,84918,1196989
11,85332,1108041
11,85743,988748
11,86155,851164
11,86568,725617
11,86980,601982
11,87392,495400
11,87805,415443
11,88217,342956
11,88628,284473
11,89040,240053
11,89453,202752
11,89865,172860
11,90277,150737
11,90690,133834
11,91102,120042
11,91513,109436
11,91927,103343
11,92338,94660
11,92750,85858
11,93163,83539
11,93575,80120
11,93987,73371
11,94400,70892
11,94812,62172
11,95223,59240
11,95637,53729
11,96048,49375
11,96460,47653
11,96873,41499
11,97285,41018
11,97697,35547
11,98108,37208
11,98522,34234
11,98933,31639
11,99345,30278
11,99758,32208
12,00170,27348
12,00582,26716
12,00995,25522
12,01407,25291
12,01818,24757
12,02232,23010
12,02643,21089
12,03055,23131
12,03468,23163
12,03880,22113
12,04292,20051
12,04705,20807
12,05117,20770
12,05528,20130
12,05942,19595
12,06353,20625
12,06765,23821
12,07177,29457
12,07590,42065
12,08002,69179
12,08413,114908
12,08827,191721
12,09238,298224
12,09650,450671
12,10063,636813
12,10475,846704
12,10887,1055533
12,11300,1253325
12,11712,1379462
12,12123,1463127
12,12537,1461969
12,12948,1420914
12,13360,1293998
12,13773,1154698
12,14185,999973
12,14597,832234
12,15010,681427
12,15422,568451
12,15833,463551
12,16245,379769
12,16658,312946
12,17070,261896
12,17482,219359
12,17895,183115
12,18307,158185
12,18718,137029
12,19132,119306
12,19543,104801
12,19955,97798
12,20368,84217
12,20780,78068
12,21192,71155
12,21605,63289
12,22017,61489
12,22428,58670
12,22842,52991
12,23253,50635
12,23665,47628
12,24078,44902
12,24490,40094
12,24902,38730
12,25313,35896
12,25727,35545
12,26138,34433
12,26550,32920
12,26963,30006
12,27375,30737
12,27787,28684
12,28200,28251
12,28612,25531
12,29023,25233
12,29437,25094
12,29848,25904
12,30260,23121
12,30673,24694
12,31085,21992
12,31497,21929
12,31910,22994
12,32322,20935
12,32733,21653
12,33147,20826
12,33558,20476
12,33970,20613
12,34382,19534
12,34795,17850
12,35207,18494
12,35618,17026
12,36032,18155
12,36443,16835
12,36855,19635
12,37268,17388
12,37680,16980
12,38092,17461
12,38505,16065
12,38917,16751
12,39328,16669
12,39742,15638
12,40153,16575
12,40565,15452
12,40978,15559
12,41390,14435
12,41802,14770
12,42215,15011
12,42627,15442
12,43038,14524
12,43450,13991
12,43863,14827
12,44275,14114
12,44687,14122
12,45100,14415
12,45512,14482
12,45923,13837
12,46337,14896
12,46748,14146
12,47160,14316
12,47573,13889
12,47985,13906
12,48397,15298
12,48810,14392
12,49222,13721
12,49633,13972
12,50047,13177
12,50458,13502
12,50870,11846
12,51283,12984
12,51695,12815
12,52107,13442
12,52518,13157
12,52932,14338
12,53343,13610
12,53755,13102
12,54168,13495
12,54580,12661
12,54992,13373
12,55405,13024
12,55817,14308
12,56228,13288
12,56642,13248
12,57053,14102
12,57465,13752
12,57878,14940
12,58290,12945
12,58702,13581
12,59115,14228
12,59527,13693
12,59938,15099
12,60352,14250
12,60763,11900
12,61175,13201
12,61587,12577
12,62000,12915
12,62412,13551
12,62823,12863
12,63237,12933
12,63648,11819
12,64060,13371
12,64473,12362
12,64885,11274
12,65297,13033
12,65710,11785
12,66122,12355
12,66533,13579
12,66947,13883
12,67358,12360
12,67770,11943
12,68183,12999
12,68595,12430
12,69007,11790
12,69420,12712
12,69832,11448
12,70243,13836
12,70655,12874
12,71068,11966
12,71480,11051
12,71892,12674
12,72305,12410
12,72717,11134
12,73128,13016
12,73542,11472
12,73953,11273
12,74365,10650
12,74778,12743
12,75190,12279
12,75602,12079
12,76015,12186
12,76427,11828
12,76838,13316
12,77252,13428
12,77663,14967
12,78075,16950
12,78488,26739
12,78900,39698
12,79312,65523
12,79723,110890
12,80137,183022
12,80548,284416
12,80960,434953
12,81373,609735
12,81785,793375
12,82197,986874
12,82610,1185757
12,83022,1303539
12,83433,1379696
12,83847,1383504
12,84258,1320660
12,84670,1215461
12,85083,1074264
12,85495,929614
12,85907,769161
12,86320,644370
12,86732,525778
12,87143,430531
12,87557,361767
12,87968,294550
12,88380,247242
12,88792,207410
12,89205,173766
12,89617,156065
12,90028,137217
12,90442,117167
12,90853,104517
12,91265,95386
12,91678,84943
12,92090,76872
12,92502,70848
12,92915,63574
12,93327,60701
12,93738,56382
12,94152,52755
12,94563,47681
12,94975,47649
12,95388,45344
12,95800,42839
12,96212,40332
12,96625,37061
12,97037,35199
12,97448,34122
12,97860,34997
12,98273,30807
12,98685,31758
12,99097,29148
12,99510,26113
12,99922,26318
13,00333,24771
13,00747,25354
13,01158,23082
13,01570,21652
13,01983,22775
13,02395,21251
13,02807,21847
13,03220,22028
13,03632,21525
13,04043,21301
13,04457,27920
13,04868,37446
13,05280,59751
13,05693,99787
13,06105,180658
13,06517,311303
13,06928,526781
13,07342,851579
13,07753,1278043
13,08165,1804599
13,08578,2450928
13,08990,3083054
13,09402,3769760
13,09815,4336899
13,10227,4712878
13,10638,4920679
13,11052,4763381
13,11463,4396967
13,11875,3902071
13,12288,3329289
13,12700,2760433
13,13112,2254357
13,13525,1815029
13,13937,1446604
13,14348,1172955
13,14762,950223
13,15173,788460
13,15585,652867
13,15997,552746
13,16410,471001
13,16822,410241
13,17233,357019
13,17647,314945
13,18058,279850
13,18470,246835
13,18883,225556
13,19295,205998
13,19707,180398
13,20120,169928
13,20532,153709
13,20943,141412
13,21357,133564
13,21768,122482
13,22180,113727
13,22593,107366
13,23005,99123
13,23417,96281
13,23830,88499
13,24242,82674
13,24653,80829
13,25065,73022
13,25478,69532
13,25890,67727
13,26302,63130
13,26715,61648
13,27127,58895
13,27538,56274
13,27952,52958
13,28363,51911
13,28775,48792
13,29188,46094
13,29600,44034
13,30012,42867
13,30425,41686
13,30837,40075
13,31248,38975
13,31662,38666
13,32073,35583
13,32485,36022
13,32898,35440
13,33310,33007
13,33722,32638
13,34135,32619
13,34547,32971
13,34958,30612
13,35370,30550
13,35783,31210
13,36195,28118
13,36607,27061
13,37020,27024
13,37432,27520
13,37843,25933
13,38257,25681
13,38668,24586
13,39080,25661
13,39493,23070
13,39905,25226
13,40317,23163
13,40730,22806
13,41142,22356
13,41553,21043
13,41967,20980
13,42378,20551
13,42790,20743
13,43203,20578
13,43615,21127
13,44027,19243
13,44438,21516
13,44852,19941
13,45263,19859
13,45675,20311
13,46088,19742
13,46500,20080
13,46912,19144
13,47325,20352
13,47737,19778
13,48148,20954
13,48562,20983
13,48973,19102
13,49385,19527
13,49798,18318
13,50210,18181
13,50622,18530
13,51035,17568
13,51447,17602
13,51858,16387
13,52272,16416
13,52683,17013
13,53095,16862
13,53507,15329
13,53920,14636
13,54332,13912
13,54743,16201
13,55157,17036
13,55568,15667
13,55980,15591
13,56393,14367
13,56805,17730
13,57217,17302
13,57630,18473
13,58042,16775
13,58453,16838
13,58867,16612
13,59278,17423
13,59690,16178
13,60103,17486
13,60515,17182
13,60927,16928
13,61340,17250
13,61752,17967
13,62163,19165
13,62575,21944
13,62988,34707
13,63400,51162
13,63812,87857
13,64225,147071
13,64637,237312
13,65048,363137
13,65462,541088
13,65873,743241
13,66285,961511
13,66698,1152488
13,67110,1325901
13,67522,1413236
13,67935,1468690
13,68347,1424037
13,68758,1326645
13,69172,1198846
13,69583,1036631
13,69995,869669
13,70408,724980
13,70820,604884
13,71232,496383
13,71643,409315
13,72057,341187
13,72468,279335
13,72880,241501
13,73293,210546
13,73705,183171
13,74117,165223
13,74530,144560
13,74942,130478
13,75353,119620
13,75767,112383
13,76178,100748
13,76590,94549
13,77003,87170
13,77415,80875
13,77827,75768
13,78240,70491
13,78652,66615
13,79063,61051
13,79477,61076
13,79888,57118
13,80300,53218
13,80712,53901
13,81125,51108
13,81537,47670
13,81948,44800
13,82362,42603
13,82773,41705
13,83185,37547
13,83598,35130
13,84010,31909
13,84422,33944
13,84835,30703
13,85247,31476
13,85658,29166
13,86072,29213
13,86483,28014
13,86895,29548
13,87308,26588
13,87720,25586
13,88132,24736
13,88545,25728
13,88957,25146
13,89368,23442
13,89780,23194
13,90193,22551
13,90605,22160
13,91017,23976
13,91430,21498
13,91842,19596
13,92253,19704
13,92667,20183
13,93078,19848
13,93490,18306
13,93903,18168
13,94315,18222
13,94727,17602
13,95140,17271
13,95552,16183
13,95963,17180
13,96377,17113
13,96788,16359
13,97200,16084
13,97613,17394
13,98025,16190
13,98437,15927
13,98848,15091
13,99262,16502
13,99673,18666
14,00085,21856
14,00498,30984
14,00910,48364
14,01322,85214
14,01735,146262
14,02147,239848
14,02558,370543
14,02972,562478
14,03383,789193
14,03795,1025226
14,04208,1268476
14,04620,1479573
14,05032,1641746
14,05445,1717867
14,05857,1688629
14,06268,1583390
14,06682,1409232
14,07093,1216475
14,07505,1019784
14,07917,840336
14,08330,689481
14,08742,566404
14,09153,457237
14,09567,374336
14,09978,313585
14,10390,259984
14,10803,225129
14,11215,185627
14,11627,163938
14,12040,146613
14,12452,129368
14,12863,112034
14,13277,103954
14,13688,93686
14,14100,86472
14,14513,78965
14,14925,72528
14,15337,66950
14,15750,60783
14,16162,58767
14,16573,53779
14,16985,49889
14,17398,46933
14,17810,48364
14,18222,41915
14,18635,41614
14,19047,39200
14,19458,37770
14,19872,36494
14,20283,34444
14,20695,32401
14,21108,32425
14,21520,30675
14,21932,31112
14,22345,28143
14,22757,28719
14,23168,28240
14,23582,29010
14,23993,28630
14,24405,24879
14,24818,27513
14,25230,25826
14,25642,23828
14,26053,24714
14,26467,24653
14,26878,22278
14,27290,22434
14,27703,22343
14,28115,21607
14,28527,20530
14,28940,20229
14,29352,20252
14,29763,20555
14,30177,19554
14,30588,19289
14,31000,18639
14,31413,19865
14,31825,18980
14,32237,18326
14,32650,19668
14,33062,17651
14,33473,17898
14,33887,17307
14,34298,17017
14,34710,17222
14,35122,16655
14,35535,16365
14,35947,17860
14,36358,17021
14,36772,16180
14,37183,17565
14,37595,15067
14,38008,14850
14,38420,16632
14,38832,16532
14,39245,15956
14,39657,16266
14,40068,15812
14,40482,15380
14,40893,16317
14,41305,15852
14,41718,16378
14,42130,13785
14,42542,14868
14,42955,15600
14,43367,12977
14,43778,16292
14,44190,15765
14,44603,14505
14,45015,13863
14,45427,13750
14,45840,14927
14,46252,14305
14,46663,13298
14,47077,14166
14,47488,14180
14,47900,13563
14,48313,12721
14,48725,13511
14,49137,13487
14,49550,13690
14,49962,13819
14,50373,13435
14,50787,13737
14,51198,13324
14,51610,13512
14,52023,15179
14,52435,13772
14,52847,13405
14,53258,15201
14,53672,14659
14,54083,13728
14,54495,14624
14,54908,14389
14,55320,13948
14,55732,15679
14,56145,17231
14,56557,19967
14,56968,27439
14,57382,40554
14,57793,67103
14,58205,114484
14,58618,190423
14,59030,308320
14,59442,459536
14,59855,665496
14,60267,899077
14,60678,1150128
14,61092,1348181
14,61503,1503301
14,61915,1590046
14,62327,1587097
14,62740,1520294
14,63152,1389256
14,63563,1211038
14,63977,1041288
14,64388,882882
14,64800,719600
14,65213,591427
14,65625,487998
14,66037,403927
14,66450,338423
14,66862,275169
14,67273,235503
14,67687,202821
14,68098,174690
14,68510,153812
14,68923,137710
14,69335,120376
14,69747,112166
14,70160,97173
14,70572,90239
14,70983,81857
14,71395,75804
14,71808,68700
14,72220,64649
14,72632,61765
14,73045,57763
14,73457,55000
14,73868,51985
14,74282,50405
14,74693,45684
14,75105,44251
14,75518,43016
14,75930,38657
14,76342,39507
14,76755,38331
14,77167,34859
14,77578,35179
14,77992,31601
14,78403,31468
14,78815,29259
14,79228,28835
14,79640,29631
14,80052,27242
14,80463,27293
14,80877,25656
14,81288,26777
14,81700,27686
14,82113,27657
14,82525,25949
14,82937,32109
14,83350,30855
14,83762,35732
14,84173,38506
14,84587,42182
14,84998,45302
14,85410,48293
14,85823,47575
14,86235,46894
14,86647,45629
14,87060,46130
14,87472,45281
14,87883,39774
14,88297,38421
14,88708,35776
14,89120,31568
14,89532,30931
14,89945,27719
14,90357,26738
14,90768,26783
14,91182,24800
14,91593,23992
14,92005,25526
14,92418,30002
14,92830,37036
14,93242,57786
14,93655,95478
14,94067,163997
14,94478,280905
14,94892,461685
14,95303,714057
14,95715,1067964
14,96128,1463931
14,96540,1955018
14,96952,2471455
14,97365,2969705
14,97777,3391040
14,98188,3654099
14,98602,3717093
14,99013,3633526
14,99425,3368638
14,99837,2974405
15,00250,2497234
15,00662,2081297
15,01073,1684506
15,01487,1358543
15,01898,1106446
15,02310,894846
15,02723,737372
15,03135,613676
15,03547,515461
15,03960,436489
15,04372,382332
15,04783,335384
15,05197,289697
15,05608,258531
15,06020,230868
15,06433,209528
15,06845,190419
15,07257,174724
15,07670,156115
15,08082,140653
15,08493,135065
15,08905,122860
15,09318,115527
15,09730,105950
15,10142,100612
15,10555,91982
15,10967,88520
15,11378,81886
15,11792,78453
15,12203,72674
15,12615,72762
15,13028,64219
15,13440,62963
15,13852,60763
15,14265,58002
15,14677,55223
15,15088,52596
15,15502,50671
15,15913,49941
15,16325,48730
15,16738,45614
15,17150,42245
15,17562,43638
15,17973,42056
15,18387,38346
15,18798,39382
15,19210,36849
15,19623,36318
15,20035,34462
15,20447,33988
15,20860,34275
15,21272,30204
15,21683,31593
15,22097,30511
15,22508,29955
15,22920,30804
15,23333,30086
15,23745,30899
15,24157,33130
15,24570,40274
15,24982,54107
15,25393,81313
15,25807,128397
15,26218,209210
15,26630,321833
15,27042,481378
15,27455,683985
15,27867,910781
15,28278,1162425
15,28692,1394751
15,29103,1596994
15,29515,1704542
15,29928,1735832
15,30340,1688057
15,30752,1561428
15,31165,1387709
15,31577,1193982
15,31988,1019541
15,32402,831959
15,32813,686930
15,33225,570839
15,33638,467144
15,34050,388469
15,34462,327014
15,34875,276928
15,35287,240215
15,35698,207198
15,36110,186022
15,36523,157731
15,36935,145425
15,37347,133217
15,37760,122484
15,38172,109816
15,38583,99981
15,38997,95294
15,39408,87038
15,39820,84724
15,40233,84485
15,40645,90963
15,41057,111661
15,41470,149506
15,41882,227696
15,42293,358129
15,42707,562582
15,43118,834089
15,43530,1191145
15,43943,1623490
15,44355,2103907
15,44767,2568165
15,45178,3002427
15,45592,3326808
15,46003,3510341
15,46415,3484486
15,46828,3308443
15,47240,2973758
15,47652,2598787
15,48065,2203300
15,48477,1822708
15,48888,1497522
15,49302,1221021
15,49713,992729
15,50125,821224
15,50538,679617
15,50950,567347
15,51362,489040
15,51775,420380
15,52187,369432
15,52598,326331
15,53012,290351
15,53423,257384
15,53835,235311
15,54247,211444
15,54660,194836
15,55072,175992
15,55483,164954
15,55897,150251
15,56308,135646
15,56720,128963
15,57133,119149
15,57545,114724
15,57957,106466
15,58370,101924
15,58782,94339
15,59193,93441
15,59607,87059
15,60018,83481
15,60430,80312
15,60843,73042
15,61255,71597
15,61667,65975
15,62080,63984
15,62492,61755
15,62903,58810
15,63315,58765
15,63728,52713
15,64140,54009
15,64552,52960
15,64965,51594
15,65377,47774
15,65788,48121
15,66202,47397
15,66613,43528
15,67025,41917
15,67438,39830
15,67850,39602
15,68262,40002
15,68675,39243
15,69087,38529
15,69498,36446
15,69912,36202
15,70323,34107
15,70735,32416
15,71148,31375
15,71560,32609
15,71972,31789
15,72383,29697
15,72797,30923
15,73208,30729
15,73620,30406
15,74033,28765
15,74445,27720
15,74857,25751
15,75270,28340
15,75682,27687
15,76093,28298
15,76507,30947
15,76918,35236
15,77330,46962
15,77743,68051
15,78155,107983
15,78567,171614
15,78980,273225
15,79392,428198
15,79803,619352
15,80217,839222
15,80628,1068862
15,81040,1290056
15,81452,1439280
15,81865,1554009
15,82277,1600529
15,82688,1578147
15,83102,1534685
15,83513,1485629
15,83925,1468275
15,84338,1539790
15,84750,1706785
15,85162,1968628
15,85575,2367593
15,85987,2792693
15,86398,3240671
15,86812,3653456
15,87223,3906573
15,87635,4029077
15,88048,3881436
15,88460,3591065
15,88872,3161349
15,89285,2709061
15,89697,2249005
15,90108,1856703
15,90520,1510994
15,90933,1217258
15,91345,998242
15,91757,827931
15,92170,703730
15,92582,599078
15,92993,512144
15,93407,450819
15,93818,394724
15,94230,355083
15,94643,320402
15,95055,284166
15,95467,262158
15,95880,236468
15,96292,216486
15,96703,199647
15,97117,187552
15,97528,173298
15,97940,163064
15,98353,149221
15,98765,141501
15,99177,130696
15,99588,126869
16,00002,118090
16,00413,112974
16,00825,106910
16,01238,101789
16,01650,96329
16,02062,92564
16,02475,90823
16,02887,83950
16,03298,81842
16,03712,80787
16,04123,76900
16,04535,71455
16,04948,70954
16,05360,69919
16,05772,63590
16,06185,63191
16,06597,62419
16,07008,60090
16,07422,55913
16,07833,58619
16,08245,55281
16,08657,54414
16,09070,53746
16,09482,52102
16,09893,48759
16,10307,47107
16,10718,43564
16,11130,44198
16,11543,45065
16,11955,42983
16,12367,40077
16,12780,43426
16,13192,43159
16,13603,46235
16,14017,52940
16,14428,70586
16,14840,102680
16,15253,154773
16,15665,239640
16,16077,358627
16,16490,518250
16,16902,718334
16,17313,940808
16,17725,1160763
16,18138,1335341
16,18550,1461370
16,18962,1502485
16,19375,1485288
16,19787,1398945
16,20198,1269089
16,20612,1117003
16,21023,944173
16,21435,783235
16,21848,656335
16,22260,550285
16,22672,448890
16,23085,379385
16,23497,320253
16,23908,276364
16,24322,239692
16,24733,207977
16,25145,182339
16,25558,162588
16,25970,142692
16,26382,134955
16,26793,118058
16,27207,111190
16,27618,100595
16,28030,96840
16,28443,88360
16,28855,82179
16,29267,77280
16,29680,76415
16,30092,71071
16,30503,68204
16,30917,63697
16,31328,61309
16,31740,58114
16,32153,55507
16,32565,56692
16,32977,54704
16,33390,54354
16,33802,52725
16,34213,53339
16,34627,46927
16,35038,47423
16,35450,43746
16,35862,43323
16,36275,40800
16,36687,41858
16,37098,40339
16,37512,38148
16,37923,39927
16,38335,35875
16,38748,34377
16,39160,34023
16,39572,33448
16,39985,32682
16,40397,31509
16,40808,32194
16,41222,33906
16,41633,30681
16,42045,29238
16,42458,28722
16,42870,27137
16,43282,27006
16,43695,26990
16,44107,26655
16,44518,27217
16,44930,27290
16,45343,26124
16,45755,26363
16,46167,24622
16,46580,24305
16,46992,25304
16,47403,25584
16,47817,24128
16,48228,26174
16,48640,25657
16,49053,23955
16,49465,23735
16,49877,23139
16,50290,23122
16,50702,24311
16,51113,22129
16,51527,23379
16,51938,23176
16,52350,21803
16,52763,23359
16,53175,21677
16,53587,23375
16,54000,22977
16,54412,21114
16,54823,23728
16,55235,21298
16,55648,22609
16,56060,21756
16,56472,22383
16,56885,21641
16,57297,21342
16,57708,20803
16,58122,21711
16,58533,21174
16,58945,20517
16,59358,22623
16,59770,21236
16,60182,21489
16,60595,22230
16,61007,19466
16,61418,20749
16,61832,20954
16,62243,20666
16,62655,20440
16,63068,21055
16,63480,21506
16,63892,20144
16,64303,20738
16,64717,22134
16,65128,27407
16,65540,33985
16,65953,47256
16,66365,77337
16,66777,121536
16,67190,197595
16,67602,306565
16,68013,465363
16,68427,648552
16,68838,879161
16,69250,1131825
16,69663,1379080
16,70075,1630226
16,70487,1881355
16,70900,2164224
16,71312,2470412
16,71723,2832230
16,72137,3213777
16,72548,3644841
16,72960,4049262
16,73372,4364822
16,73785,4538792
16,74197,4552833
16,74608,4379754
16,75022,3969878
16,75433,3462444
16,75845,2898860
16,76258,2391624
16,76670,1956385
16,77082,1581884
16,77495,1309989
16,77907,1082781
16,78318,909894
16,78732,777277
16,79143,661551
16,79555,575733
16,79968,506837
16,80380,451418
16,80792,401130
16,81205,360962
16,81617,329601
16,82028,299179
16,82440,270925
16,82853,248382
16,83265,231914
16,83677,217095
16,84090,198877
16,84502,188661
16,84913,177659
16,85327,164870
16,85738,162995
16,86150,154490
16,86563,152244
16,86975,149125
16,87387,143463
16,87800,145263
16,88212,137339
16,88623,137877
16,89037,130336
16,89448,126397
16,89860,120299
16,90273,110693
16,90685,107756
16,91097,100979
16,91508,93657
16,91922,90571
16,92333,85452
16,92745,81387
16,93158,79130
16,93570,72801
16,93982,68492
16,94395,67166
16,94807,64969
16,95218,63009
16,95632,60730
16,96043,58267
16,96455,57325
16,96868,57222
16,97280,55279
16,97692,63122
16,98105,70905
16,98517,90878
16,98928,124978
16,99342,180795
16,99753,265995
17,00165,386557
17,00577,534588
17,00990,712778
17,01402,894274
17,01813,1059747
17,02227,1189537
17,02638,1279668
17,03050,1301011
17,03463,1262466
17,03875,1185115
17,04287,1074589
17,04700,932141
17,05112,785705
17,05523,660741
17,05937,556892
17,06348,467176
17,06760,390210
17,07173,327513
17,07585,281636
17,07997,242510
17,08410,210160
17,08822,187720
17,09233,167446
17,09645,148646
17,10058,134887
17,10470,121483
17,10882,114340
17,11295,105000
17,11707,98550
17,12118,93465
17,12532,89211
17,12943,88111
17,13355,93711
17,13768,110842
17,14180,144559
17,14592,198293
17,15005,297065
17,15417,435366
17,15828,622996
17,16242,858057
17,16653,1134763
17,17065,1400806
17,17478,1643013
17,17890,1839100
17,18302,1916667
17,18713,1894284
17,19127,1807638
17,19538,1651938
17,19950,1449975
17,20363,1237715
17,20775,1061381
17,21187,876016
17,21600,735288
17,22012,609662
17,22423,514636
17,22837,441047
17,23248,376788
17,23660,328161
17,24073,292531
17,24485,261339
17,24897,227723
17,25310,208190
17,25722,187591
17,26133,171485
17,26547,156655
17,26958,146997
17,27370,135572
17,27782,125093
17,28195,117506
17,28607,113294
17,29018,103616
17,29432,99238
17,29843,93961
17,30255,91399
17,30668,85524
17,31080,83207
17,31492,76907
17,31905,71545
17,32317,72539
17,32728,67908
17,33142,65150
17,33553,65857
17,33965,60257
17,34378,58600
17,34790,59685
17,35202,56686
17,35615,53624
17,36027,52142
17,36438,51635
17,36850,49164
17,37263,49119
17,37675,47077
17,38087,47114
17,38500,45765
17,38912,44928
17,39323,45135
17,39737,45293
17,40148,42157
17,40560,41287
17,40973,41563
17,41385,41395
17,41797,38770
17,42210,40880
17,42622,38476
17,43033,37366
17,43447,37082
17,43858,37585
17,44270,36404
17,44683,34473
17,45095,35331
17,45507,35378
17,45918,34924
17,46332,34164
17,46743,33735
17,47155,33667
17,47568,35122
17,47980,30039
17,48392,29950
17,48805,30420
17,49217,32586
17,49628,33537
17,50042,32580
17,50453,32499
17,50865,37458
17,51278,48341
17,51690,65523
17,52102,99385
17,52515,161329
17,52927,266054
17,53338,427241
17,53752,637408
17,54163,911989
17,54575,1201215
17,54987,1514668
17,55400,1795585
17,55812,1998928
17,56223,2111739
17,56637,2105312
17,57048,1992265
17,57460,1810627
17,57873,1583822
17,58285,1343689
17,58697,1108722
17,59110,936859
17,59522,775135
17,59933,643395
17,60347,535684
17,60758,463070
17,61170,396095
17,61583,344996
17,61995,299625
17,62407,269906
17,62820,240952
17,63232,212909
17,63643,194264
17,64055,180933
17,64468,164308
17,64880,154632
17,65292,143569
17,65705,135560
17,66117,125355
17,66528,120064
17,66942,112691
17,67353,107012
17,67765,101677
17,68178,97326
17,68590,95987
17,69002,89152
17,69415,88067
17,69827,84029
17,70238,78626
17,70652,77826
17,71063,74840
17,71475,72314
17,71888,68650
17,72300,64055
17,72712,65843
17,73123,61571
17,73537,59087
17,73948,57941
17,74360,54121
17,74773,56208
17,75185,52978
17,75597,51579
17,76010,50689
17,76422,51088
17,76833,51157
17,77247,48494
17,77658,46935
17,78070,45517
17,78483,45032
17,78895,44382
17,79307,43749
17,79720,42597
17,80132,41732
17,80543,39059
17,80957,41194
17,81368,39806
17,81780,39160
17,82192,42402
17,82605,44746
17,83017,56817
17,83428,74636
17,83842,109901
17,84253,164226
17,84665,259722
17,85078,392312
17,85490,572425
17,85902,799867
17,86315,1033862
17,86727,1280270
17,87138,1463645
17,87552,1591587
17,87963,1650856
17,88375,1612982
17,88788,1507390
17,89200,1349463
17,89612,1178539
17,90025,1017060
17,90437,845983
17,90848,721584
17,91260,595426
17,91673,499981
17,92085,427131
17,92497,360477
17,92910,315026
17,93322,275013
17,93733,241464
17,94147,215415
17,94558,191924
17,94970,174060
17,95383,161178
17,95795,145913
17,96207,132721
17,96620,126842
17,97032,117928
17,97443,109641
17,97857,103448
17,98268,98520
17,98680,93331
17,99093,88988
17,99505,83277
17,99917,79200
18,00328,75274
18,00742,72837
18,01153,72408
18,01565,66783
18,01978,66377
18,02390,65726
18,02802,63207
18,03215,61736
18,03627,59819
18,04038,57712
18,04452,57252
18,04863,56619
18,05275,52683
18,05688,49495
18,06100,49594
18,06512,48075
18,06925,46339
18,07337,45056
18,07748,46213
18,08162,43395
18,08573,41418
18,08985,41568
18,09397,41066
18,09810,41401
18,10222,42936
18,10633,40412
18,11047,39889
18,11458,37719
18,11870,39894
18,12283,37952
18,12695,38115
18,13107,38561
18,13520,36525
18,13932,38468
18,14343,35515
18,14757,34871
18,15168,35064
18,15580,35893
18,15993,33548
18,16405,35906
18,16817,32223
18,17230,31336
18,17642,31520
18,18053,30956
18,18467,33169
18,18878,32059
18,19290,31480
18,19702,34239
18,20115,33578
18,20527,31792
18,20938,34785
18,21352,34937
18,21763,32481
18,22175,34052
18,22588,32972
18,23000,33314
18,23412,32608
18,23825,31462
18,24237,31893
18,24648,30588
18,25062,30859
18,25473,31488
18,25885,28622
18,26298,29449
18,26710,29040
18,27122,30155
18,27535,27787
18,27947,28535
18,28358,28851
18,28770,29442
18,29183,29581
18,29595,30074
18,30007,29549
18,30420,31124
18,30832,33008
18,31243,41109
18,31657,59762
18,32068,97437
18,32480,158109
18,32893,270586
18,33305,455053
18,33717,740292
18,34130,1140998
18,34542,1658219
18,34953,2276885
18,35367,2966434
18,35778,3702308
18,36190,4376679
18,36603,4983398
18,37015,5410489
18,37427,5592998
18,37838,5528594
18,38252,5188271
18,38663,4693041
18,39075,4074044
18,39488,3404515
18,39900,2812758
18,40312,2325076
18,40725,1911496
18,41137,1590673
18,41548,1327118
18,41962,1125190
18,42373,971898
18,42785,841467
18,43198,739892
18,43610,651302
18,44022,582329
18,44435,533118
18,44847,475191
18,45258,431423
18,45672,401239
18,46083,370928
18,46495,336622
18,46907,312130
18,47320,291645
18,47732,274990
18,48143,257121
18,48557,244158
18,48968,233796
18,49380,212708
18,49793,206563
18,50205,193409
18,50617,184350
18,51030,173491
18,51442,167194
18,51853,156477
18,52267,150424
18,52678,146763
18,53090,142518
18,53503,134284
18,53915,128708
18,54327,124982
18,54740,118784
18,55152,116829
18,55563,114611
18,55975,108174
18,56388,108262
18,56800,103503
18,57212,102155
18,57625,96239
18,58037,91789
18,58448,92716
18,58862,90791
18,59273,87082
18,59685,83557
18,60098,84051
18,60510,81441
18,60922,82697
18,61335,84675
18,61747,89545
18,62158,102811
18,62572,127572
18,62983,172323
18,63395,242366
18,63808,351481
18,64220,492211
18,64632,674650
18,65043,891078
18,65457,1100272
18,65868,1289945
18,66280,1435580
18,66693,1512554
18,67105,1499636
18,67517,1427753
18,67930,1338809
18,68342,1212823
18,68753,1078627
18,69167,978785
18,69578,935198
18,69990,927547
18,70403,977006
18,70815,1051560
18,71227,1160062
18,71640,1293149
18,72052,1414227
18,72463,1505541
18,72877,1553200
18,73288,1503800
18,73700,1429774
18,74112,1321650
18,74525,1199368
18,74937,1086647
18,75348,991386
18,75762,937503
18,76173,952820
18,76585,1009882
18,76998,1147689
18,77410,1331781
18,77822,1556271
18,78235,1800242
18,78647,2003633
18,79058,2146685
18,79472,2190414
18,79883,2131094
18,80295,2019933
18,80708,1823892
18,81120,1589538
18,81532,1367375
18,81945,1173268
18,82357,1001909
18,82768,852607
18,83180,727372
18,83593,637531
18,84005,549859
18,84417,486032
18,84830,437185
18,85242,391311
18,85653,354893
18,86067,329608
18,86478,303905
18,86890,281549
18,87303,259461
18,87715,244216
18,88127,224209
18,88540,213227
18,88952,200434
18,89363,190797
18,89777,176979
18,90188,168269
18,90600,160202
18,91013,153451
18,91425,148967
18,91837,143129
18,92248,134188
18,92662,129137
18,93073,122431
18,93485,118519
18,93898,114044
18,94310,109149
18,94722,106680
18,95135,102953
18,95547,97848
18,95958,96769
18,96372,91876
18,96783,93818
18,97195,88282
18,97608,86030
18,98020,88257
18,98432,83229
18,98845,82069
18,99257,80604
18,99668,78434
19,00082,79167
19,00493,76227
19,00905,74161
19,01317,73645
19,01730,72050
19,02142,71212
19,02553,71170
19,02967,72588
19,03378,70748
19,03790,64311
19,04203,66232
19,04615,63763
19,05027,65222
19,05440,62845
19,05852,60981
19,06263,59223
19,06677,59997
19,07088,59350
19,07500,58428
19,07913,61943
19,08325,67550
19,08737,77768
19,09150,100469
19,09562,136129
19,09973,195762
19,10385,292879
19,10798,435992
19,11210,645767
19,11622,904114
19,12035,1208851
19,12447,1514847
19,12858,1805110
19,13272,2013927
19,13683,2141825
19,14095,2140824
19,14508,2022304
19,14920,1839742
19,15332,1617517
19,15745,1365300
19,16157,1170405
19,16568,996221
19,16982,831454
19,17393,709418
19,17805,611759
19,18218,534798
19,18630,467304
19,19042,415264
19,19453,374117
19,19867,339940
19,20278,309721
19,20690,280504
19,21103,258413
19,21515,237357
19,21927,223113
19,22340,206136
19,22752,193315
19,23163,187765
19,23577,174761
19,23988,168391
19,24400,160596
19,24813,154716
19,25225,149353
19,25637,143044
19,26050,135947
19,26462,132868
19,26873,129805
19,27287,122090
19,27698,117977
19,28110,117951
19,28522,112060
19,28935,111043
19,29347,109123
19,29758,107692
19,30172,102315
19,30583,97058
19,30995,92557
19,31408,91577
19,31820,91123
19,32232,88074
19,32645,86503
19,33057,81560
19,33468,80653
19,33882,80319
19,34293,81637
19,34705,83721
19,35118,82198
19,35530,78972
19,35942,77241
19,36355,76091
19,36767,75636
19,37178,75335
19,37590,72994
19,38003,71713
19,38415,72966
19,38827,70980
19,39240,72134
19,39652,76241
19,40063,84499
19,40477,97019
19,40888,131949
19,41300,184447
19,41713,269060
19,42125,400332
19,42537,577625
19,42950,792145
19,43362,1045939
19,43773,1304926
19,44187,1534786
19,44598,1669012
19,45010,1726924
19,45423,1708780
19,45835,1605936
19,46247,1473973
19,46658,1294112
19,47072,1115118
19,47483,957678
19,47895,815914
19,48308,695121
19,48720,618314
19,49132,560567
19,49545,527741
19,49957,527107
19,50368,566280
19,50782,637712
19,51193,749609
19,51605,887205
19,52018,1022102
19,52430,1152442
19,52842,1266712
19,53255,1323832
19,53667,1340524
19,54078,1300049
19,54492,1208644
19,54903,1112419
19,55315,980322
19,55727,856909
19,56140,743433
19,56552,648051
19,56963,552715
19,57377,477739
19,57788,419975
19,58200,371549
19,58613,322118
19,59025,295548
19,59437,264606
19,59850,241790
19,60262,221847
19,60673,206657
19,61087,191837
19,61498,179557
19,61910,169912
19,62323,159560
19,62735,149803
19,63147,141076
19,63560,137326
19,63972,129806
19,64383,123130
19,64795,119266
19,65208,115437
19,65620,113714
19,66032,109486
19,66445,106222
19,66857,103369
19,67268,99278
19,67682,95025
19,68093,94566
19,68505,91936
19,68918,89284
19,69330,85909
19,69742,87383
19,70155,84865
19,70567,79367
19,70978,82157
19,71392,79735
19,71803,78069
19,72215,76720
19,72628,75177
19,73040,73584
19,73452,73555
19,73865,71391
19,74277,71768
19,74688,68721
19,75100,69099
19,75513,68850
19,75925,68154
19,76337,65606
19,76750,68546
19,77162,63727
19,77573,64069
19,77987,61982
19,78398,60963
19,78810,62166
19,79223,59582
19,79635,63222
19,80047,59153
19,80460,60788
19,80872,57604
19,81283,56825
19,81697,56376
19,82108,57328
19,82520,56174
19,82933,60889
19,83345,65783
19,83757,74609
19,84168,94205
19,84582,128620
19,84993,179160
19,85405,271440
19,85818,409269
19,86230,605542
19,86642,875106
19,87055,1218868
19,87467,1630006
19,87878,2090339
19,88292,2570545
19,88703,3085217
19,89115,3564615
19,89528,3911984
19,89940,4095734
19,90352,4026860
19,90765,3744531
19,91177,3334562
19,91588,2859959
19,92002,2403690
19,92413,1996645
19,92825,1674946
19,93237,1398697
19,93650,1191416
19,94062,1025502
19,94473,890296
19,94887,786800
19,95298,694434
19,95710,631287
19,96123,573689
19,96535,515892
19,96947,470534
19,97360,438040
19,97772,400795
19,98183,377453
19,98597,351929
19,99008,329495
19,99420,309579
19,99833,292786
20,00245,276918
20,00657,264211
20,01070,250671
20,01482,240444
20,01893,228497
20,02305,216494
20,02718,207129
20,03130,200165
20,03542,194985
20,03955,184879
20,04367,180170
20,04778,173712
20,05192,164162
20,05603,166099
20,06015,157920
20,06428,149645
20,06840,147339
20,07252,143770
20,07665,138304
20,08077,135596
20,08488,132833
20,08902,128383
20,09313,127779
20,09725,126455
20,10138,121706
20,10550,120115
20,10962,119790
20,11373,114682
20,11787,112506
20,12198,110164
20,12610,107892
20,13023,105032
20,13435,104238
20,13847,101590
20,14260,102126
20,14672,99632
20,15083,99286
20,15497,95882
20,15908,93548
20,16320,93435
20,16733,89502
20,17145,92289
20,17557,92080
20,17970,90714
20,18382,88995
20,18793,87516
20,19207,88289
20,19618,86959
20,20030,88478
20,20442,81636
20,20855,82883
20,21267,82612
20,21678,82817
20,22092,81379
20,22503,80939
20,22915,79436
20,23328,81319
20,23740,79865
20,24152,86773
20,24565,91028
20,24977,103470
20,25388,129927
20,25802,169204
20,26213,238676
20,26625,329572
20,27038,472126
20,27450,654905
20,27862,884061
20,28275,1143004
20,28687,1401685
20,29098,1631329
20,29510,1806871
20,29923,1880730
20,30335,1875543
20,30747,1770995
20,31160,1624327
20,31572,1435703
20,31983,1267124
20,32397,1101227
20,32808,948009
20,33220,825902
20,33633,716808
20,34045,627419
20,34457,556165
20,34870,492692
20,35282,448816
20,35693,396804
20,36107,367534
20,36518,339677
20,36930,307337
20,37343,293079
20,37755,270705
20,38167,252131
20,38578,241099
20,38992,228227
20,39403,216802
20,39815,201218
20,40228,194957
20,40640,185355
20,41052,180544
20,41465,168800
20,41877,161162
20,42288,155599
20,42702,153196
20,43113,145877
20,43525,140040
20,43938,136535
20,44350,133168
20,44762,131188
20,45175,128066
20,45587,125263
20,45998,122497
20,46412,118636
20,46823,114232
20,47235,112896
20,47647,114046
20,48060,110915
20,48472,107057
20,48883,103487
20,49297,97701
20,49708,100670
20,50120,95988
20,50533,98615
20,50945,97558
20,51357,92565
20,51770,95433
20,52182,93388
20,52593,92259
20,53007,88017
20,53418,91802
20,53830,85657
20,54243,90377
20,54655,88156
20,55067,84709
20,55480,82954
20,55892,80484
20,56303,80674
20,56715,78939
20,57128,81044
20,57540,79114
20,57952,79779
20,58365,79619
20,58777,76951
20,59188,77397
20,59602,77881
20,60013,77523
20,60425,78782
20,60838,81185
20,61250,83459
20,61662,80137
20,62075,80599
20,62487,79917
20,62898,76943
20,63312,76891
20,63723,74061
20,64135,75318
20,64548,73052
20,64960,68733
20,65372,74443
20,65783,74255
20,66197,72253
20,66608,77346
20,67020,83120
20,67433,87619
20,67845,93239
20,68257,104585
20,68670,113982
20,69082,119459
20,69493,126810
20,69907,133008
20,70318,140746
20,70730,142148
20,71143,138413
20,71555,139667
20,71967,127102
20,72380,125050
20,72792,116821
20,73203,108127
20,73617,97781
20,74028,93904
20,74440,89774
20,74852,85101
20,75265,81875
20,75677,78158
20,76088,75554
20,76502,71938
20,76913,71205
20,77325,70150
20,77738,71053
20,78150,67358
20,78562,67482
20,78975,66196
20,79387,69783
20,79798,62977
20,80212,65358
20,80623,63237
20,81035,59760
20,81448,64864
20,81860,62189
20,82272,61524
20,82685,59406
20,83097,62316
20,83508,62828
20,83920,58731
20,84333,60715
20,84745,60357
20,85157,61154
20,85570,63300
20,85982,58985
20,86393,60299
20,86807,59304
20,87218,57845
20,87630,59959
20,88043,61120
20,88455,62545
20,88867,57243
20,89280,58626
20,89692,58646
20,90103,59336
20,90517,59481
20,90928,53941
20,91340,56736
20,91753,55896
20,92165,55483
20,92577,54463
20,92988,54551
20,93402,52897
20,93813,53774
20,94225,54822
20,94638,52946
20,95050,52038
20,95462,52409
20,95875,54421
20,96287,50176
20,96698,52860
20,97112,52377
20,97523,52551
20,97935,52498
20,98348,55715
20,98760,49582
20,99172,52015
20,99585,55077
20,99997,52025
21,00408,50561
21,00822,53430
21,01233,51135
21,01645,54718
21,02057,52403
21,02470,52941
21,02882,52396
21,03293,50348
21,03707,52856
21,04118,48394
21,04530,50961
21,04943,53962
21,05355,51133
21,05767,51848
21,06180,52823
21,06592,51446
21,07003,51702
21,07417,51052
21,07828,53493
21,08240,55305
21,08653,52519
21,09065,50439
21,09477,51278
21,09890,51098
21,10302,51070
21,10713,49793
21,11125,51311
21,11538,49426
21,11950,48146
21,12362,47851
21,12775,51522
21,13187,50250
21,13598,49567
21,14012,51665
21,14423,50473
21,14835,52302
21,15248,53761
21,15660,49860
21,16072,51750
21,16485,50606
21,16897,52182
21,17308,52159
21,17722,49718
21,18133,49590
21,18545,49637
21,18958,50818
21,19370,50926
21,19782,48897
21,20193,49291
21,20607,49515
21,21018,47497
21,21430,48987
21,21843,49678
21,22255,53168
21,22667,49995
21,23080,50562
21,23492,49806
21,23903,50013
21,24317,50250
21,24728,51114
21,25140,49907
21,25553,46960
21,25965,46812
21,26377,49123
21,26790,48009
21,27202,46710
21,27613,47377
21,28027,49276
21,28438,47888
21,28850,47772
21,29262,47783
21,29675,46683
21,30087,46655
21,30498,49889
21,30912,50760
21,31323,44609
21,31735,46267
21,32148,45917
21,32560,46275
21,32972,46773
21,33385,45970
21,33797,45428
21,34208,48823
21,34622,45632
21,35033,48393
21,35445,45982
21,35858,48002
21,36270,46880
21,36682,46763
21,37095,44445
21,37507,49960
21,37918,48250
21,38332,46926
21,38743,46518
21,39155,45394
21,39567,48045
21,39980,48241
21,40392,49186
21,40803,46699
21,41217,47930
21,41628,47911
21,42040,47794
21,42453,50391
21,42865,49878
21,43277,52429
21,43690,54990
21,44102,60523
21,44513,72949
21,44927,90412
21,45338,120307
21,45750,157743
21,46163,215434
21,46575,288623
21,46987,375166
21,47400,479496
21,47812,581732
21,48223,683727
21,48635,764519
21,49048,822480
21,49460,858045
21,49872,866741
21,50285,848232
21,50697,794607
21,51108,746381
21,51522,693494
21,51933,620237
21,52345,547667
21,52758,496080
21,53170,442006
21,53582,392990
21,53995,349805
21,54407,317470
21,54818,287706
21,55232,262116
21,55643,240826
21,56055,219543
21,56468,202922
21,56880,188679
21,57292,173486
21,57703,164221
21,58117,149956
21,58528,148533
21,58940,141856
21,59353,127445
21,59765,126048
21,60177,121332
21,60590,112810
21,61002,113191
21,61413,109705
21,61827,103478
21,62238,102647
21,62650,100225
21,63063,95096
21,63475,92935
21,63887,89752
21,64300,89815
21,64712,88785
21,65123,85339
21,65537,81905
21,65948,81326
21,66360,77586
21,66772,80626
21,67185,76491
21,67597,74533
21,68008,72852
21,68422,73717
21,68833,69546
21,69245,70424
21,69658,70988
21,70070,67599
21,70482,66261
21,70895,69074
21,71307,68339
21,71718,65292
21,72132,65882
21,72543,64174
21,72955,64436
21,73368,65175
21,73780,63836
21,74192,59212
21,74605,61029
21,75017,60214
21,75428,57684
21,75840,62027
21,76253,62323
21,76665,60234
21,77077,58310
21,77490,57929
21,77902,59364
21,78313,57357
21,78727,57791
21,79138,60380
21,79550,57187
21,79963,59341
21,80375,58406
21,80787,55159
21,81200,56401
21,81612,57749
21,82023,55631
21,82437,56183
21,82848,55732
21,83260,55407
21,83673,53828
21,84085,54852
21,84497,56617
21,84908,53027
21,85322,51940
21,85733,54634
21,86145,57255
21,86558,52624
21,86970,50434
21,87382,51630
21,87795,50915
21,88207,50464
21,88618,54147
21,89032,51856
21,89443,50773
21,89855,52660
21,90268,51784
21,90680,52166
21,91092,51874
21,91505,53182
21,91917,52616
21,92328,48549
21,92742,54426
21,93153,56501
21,93565,54827
21,93977,55733
21,94390,58001
21,94802,53733
21,95213,55712
21,95627,54238
21,96038,55573
21,96450,51617
21,96863,54513
21,97275,51715
21,97687,51984
21,98100,48835
21,98512,52221
21,98923,51843
21,99337,50078
21,99748,53270
22,00160,51720
22,00573,49488
22,00985,49518
22,01397,49273
22,01810,48836
22,02222,53179
22,02633,48287
22,03045,49074
22,03458,51558
22,03870,51210
22,04282,47514
22,04695,50022
22,05107,50821
22,05518,52152
22,05932,48845
22,06343,48625
22,06755,49400
22,07168,50188
22,07580,48753
22,07992,47666
22,08405,48529
22,08817,47682
22,09228,48044
22,09642,52408
22,10053,49186
22,10465,49049
22,10878,48259
22,11290,51302
22,11702,50473
22,12113,49555
22,12527,46808
22,12938,47062
22,13350,45965
22,13763,47712
22,14175,46318
22,14587,45937
22,15000,47030
22,15412,49208
22,15823,48357
22,16237,51295
22,16648,48078
22,17060,47436
22,17473,50123
22,17885,49869
22,18297,48207
22,18710,50175
22,19122,49844
