D:\MassHunter\GCMS\1\data\Amal\Constant flow\100C\100C_1ml-min_8C-min_3.D Wed Sep 18 18:24:38 2024
Start of data points
5,64097,100985
5,64510,100748
5,64922,98780
5,65333,95781
5,65747,98780
5,66158,96769
5,66570,96234
5,66983,90699
5,67395,96756
5,67807,94870
5,68220,93780
5,68632,89394
5,69043,91908
5,69455,91434
5,69868,89597
5,70280,92977
5,70692,92874
5,71105,89930
5,71517,90167
5,71928,89851
5,72342,88181
5,72753,87037
5,73165,87068
5,73578,85547
5,73990,85377
5,74402,82636
5,74815,84475
5,75227,82536
5,75638,83354
5,76052,79465
5,76463,79381
5,76875,80894
5,77288,80011
5,77700,79087
5,78112,81731
5,78523,80887
5,78937,79802
5,79348,79314
5,79760,77290
5,80173,80196
5,80585,79479
5,80997,79955
5,81410,80168
5,81822,79129
5,82233,78449
5,82647,77729
5,83058,76157
5,83470,73933
5,83883,76607
5,84295,76953
5,84707,80242
5,85120,76568
5,85532,74296
5,85943,74175
5,86357,75430
5,86768,73565
5,87180,72842
5,87592,73454
5,88005,74076
5,88417,73219
5,88828,73269
5,89242,70385
5,89653,72590
5,90065,69044
5,90478,70645
5,90890,70517
5,91302,69600
5,91715,72465
5,92127,71574
5,92538,66649
5,92952,70724
5,93363,71267
5,93775,70293
5,94188,70902
5,94600,70543
5,95012,67077
5,95425,67379
5,95837,68415
5,96248,70363
5,96662,67839
5,97073,70546
5,97485,68257
5,97897,67065
5,98310,68121
5,98722,68485
5,99133,65631
5,99547,66279
5,99958,64501
6,00370,64740
6,00783,66718
6,01195,66624
6,01607,65507
6,02020,66183
6,02432,65924
6,02843,68506
6,03257,69690
6,03668,71339
6,04080,71203
6,04493,73156
6,04905,73086
6,05317,73911
6,05730,72066
6,06142,74365
6,06553,71905
6,06965,73734
6,07378,74244
6,07790,71154
6,08202,71864
6,08615,73594
6,09027,74577
6,09438,75137
6,09852,75338
6,10263,78326
6,10675,77577
6,11088,76809
6,11500,79683
6,11912,78876
6,12325,76255
6,12737,76359
6,13148,76518
6,13562,75917
6,13973,77318
6,14385,77830
6,14798,74622
6,15210,73460
6,15622,73580
6,16033,75783
6,16447,74339
6,16858,71444
6,17270,72105
6,17683,71462
6,18095,71890
6,18507,72028
6,18920,69258
6,19332,71202
6,19743,69533
6,20157,68570
6,20568,66910
6,20980,66569
6,21393,66483
6,21805,64870
6,22217,66720
6,22630,65548
6,23042,65048
6,23453,63426
6,23867,65272
6,24278,64427
6,24690,62806
6,25102,63290
6,25515,63463
6,25927,62103
6,26338,61107
6,26752,62571
6,27163,60803
6,27575,59860
6,27988,60057
6,28400,58047
6,28812,57887
6,29225,58647
6,29637,56918
6,30048,55814
6,30462,55558
6,30873,55021
6,31285,54687
6,31698,55353
6,32110,56751
6,32522,57492
6,32935,65369
6,33347,82759
6,33758,114670
6,34170,168524
6,34583,253830
6,34995,367135
6,35407,509440
6,35820,665171
6,36232,810380
6,36643,945281
6,37057,1031551
6,37468,1092709
6,37880,1108168
6,38293,1098488
6,38705,1072344
6,39117,1030665
6,39530,978263
6,39942,925934
6,40353,877747
6,40767,821203
6,41178,764764
6,41590,712566
6,42003,680084
6,42415,637205
6,42827,599191
6,43238,554986
6,43652,523623
6,44063,491860
6,44475,455397
6,44888,429059
6,45300,397618
6,45712,375839
6,46125,347843
6,46537,323506
6,46948,297624
6,47362,274216
6,47773,251364
6,48185,232952
6,48598,214281
6,49010,195230
6,49422,180781
6,49835,161697
6,50247,153348
6,50658,139317
6,51072,128062
6,51483,119139
6,51895,111567
6,52307,104101
6,52720,95780
6,53132,94441
6,53543,85778
6,53957,83310
6,54368,76657
6,54780,72056
6,55193,68810
6,55605,66396
6,56017,63263
6,56430,62496
6,56842,57763
6,57253,57180
6,57667,57690
6,58078,55874
6,58490,53935
6,58903,51822
6,59315,50533
6,59727,50515
6,60140,50726
6,60552,47901
6,60963,47413
6,61375,46461
6,61788,44669
6,62200,43602
6,62612,45882
6,63025,44300
6,63437,43237
6,63848,42857
6,64262,43470
6,64673,44357
6,65085,42710
6,65498,43657
6,65910,40865
6,66322,41324
6,66735,41741
6,67147,41399
6,67558,41350
6,67972,42941
6,68383,40442
6,68795,40871
6,69208,39448
6,69620,40531
6,70032,40508
6,70443,39133
6,70857,39624
6,71268,40620
6,71680,36768
6,72093,37785
6,72505,36812
6,72917,37786
6,73330,36217
6,73742,38013
6,74153,36652
6,74567,36374
6,74978,36843
6,75390,37841
6,75803,37021
6,76215,37796
6,76627,37644
6,77040,36827
6,77452,36724
6,77863,36397
6,78277,35634
6,78688,37689
6,79100,37819
6,79512,36135
6,79925,36512
6,80337,36522
6,80748,35577
6,81162,35042
6,81573,33671
6,81985,36171
6,82398,32904
6,82810,35639
6,83222,36524
6,83635,34639
6,84047,33455
6,84458,35782
6,84872,35935
6,85283,35239
6,85695,35631
6,86108,35011
6,86520,34471
6,86932,36782
6,87345,36256
6,87757,34971
6,88168,36459
6,88580,37266
6,88993,36061
6,89405,35831
6,89817,34536
6,90230,34939
6,90642,35902
6,91053,34466
6,91467,36261
6,91878,36640
6,92290,36065
6,92703,34468
6,93115,35557
6,93527,34769
6,93940,34526
6,94352,34203
6,94763,32723
6,95177,34469
6,95588,34236
6,96000,33367
6,96413,33719
6,96825,34118
6,97237,31370
6,97648,32122
6,98062,31179
6,98473,33193
6,98885,33168
6,99298,30828
6,99710,31750
7,00122,32783
7,00535,31325
7,00947,31137
7,01358,30780
7,01772,33391
7,02183,33335
7,02595,30746
7,03008,31340
7,03420,29924
7,03832,31160
7,04245,32032
7,04657,30268
7,05068,31819
7,05482,31538
7,05893,30184
7,06305,31759
7,06717,32160
7,07130,30789
7,07542,31936
7,07953,31942
7,08367,30695
7,08778,33515
7,09190,32916
7,09603,31012
7,10015,30714
7,10427,30210
7,10840,30910
7,11252,34041
7,11663,29862
7,12077,30527
7,12488,30653
7,12900,29586
7,13313,30685
7,13725,32248
7,14137,32154
7,14550,30233
7,14962,30369
7,15373,28814
7,15785,30049
7,16198,30394
7,16610,30462
7,17022,31357
7,17435,31325
7,17847,30913
7,18258,32572
7,18672,30783
7,19083,33722
7,19495,30876
7,19908,30740
7,20320,29077
7,20732,30544
7,21145,29518
7,21557,28842
7,21968,28220
7,22382,27862
7,22793,28737
7,23205,28264
7,23618,29199
7,24030,28720
7,24442,28807
7,24853,29961
7,25267,29319
7,25678,28901
7,26090,29345
7,26503,28591
7,26915,30020
7,27327,31418
7,27740,31351
7,28152,30176
7,28563,31834
7,28977,32822
7,29388,32251
7,29800,33026
7,30213,32606
7,30625,30718
7,31037,32082
7,31450,31994
7,31862,31998
7,32273,31569
7,32687,29349
7,33098,30237
7,33510,28510
7,33922,29633
7,34335,28671
7,34747,27289
7,35158,28224
7,35572,28919
7,35983,29071
7,36395,27630
7,36808,27535
7,37220,25080
7,37632,28385
7,38045,26111
7,38457,26352
7,38868,28022
7,39282,25841
7,39693,26863
7,40105,24901
7,40518,25544
7,40930,24806
7,41342,24876
7,41755,26094
7,42167,25826
7,42578,25924
7,42990,25394
7,43403,25492
7,43815,26500
7,44227,25908
7,44640,25481
7,45052,24618
7,45463,25903
7,45877,26675
7,46288,26395
7,46700,26492
7,47113,25621
7,47525,26807
7,47937,24970
7,48350,25056
7,48762,25313
7,49173,25334
7,49587,24013
7,49998,25754
7,50410,26857
7,50823,24921
7,51235,25536
7,51647,23973
7,52060,25631
7,52472,23568
7,52883,24806
7,53295,23425
7,53708,23836
7,54120,24619
7,54532,23421
7,54945,24372
7,55357,23656
7,55768,24721
7,56182,22921
7,56593,23260
7,57005,24240
7,57418,24978
7,57830,23988
7,58242,23353
7,58655,23421
7,59067,22846
7,59478,24057
7,59892,25128
7,60303,24780
7,60715,24337
7,61128,22811
7,61540,23359
7,61952,21936
7,62363,23044
7,62777,24832
7,63188,22627
7,63600,23086
7,64013,22656
7,64425,24384
7,64837,23230
7,65250,24220
7,65662,23656
7,66073,22423
7,66487,24914
7,66898,22833
7,67310,23242
7,67723,23967
7,68135,23601
7,68547,24736
7,68960,23008
7,69372,23024
7,69783,23799
7,70197,23770
7,70608,24686
7,71020,23445
7,71432,22439
7,71845,24061
7,72257,23577
7,72668,23248
7,73082,24239
7,73493,23559
7,73905,25932
7,74318,24062
7,74730,23667
7,75142,21924
7,75555,24132
7,75967,23900
7,76378,24548
7,76792,22746
7,77203,22249
7,77615,20798
7,78028,22075
7,78440,20814
7,78852,23181
7,79265,22584
7,79677,21242
7,80088,21645
7,80500,20620
7,80913,21571
7,81325,22196
7,81737,21646
7,82150,21063
7,82562,22428
7,82973,21068
7,83387,21330
7,83798,21184
7,84210,21086
7,84623,21641
7,85035,23763
7,85447,26563
7,85860,31402
7,86272,48031
7,86683,78049
7,87097,124781
7,87508,212363
7,87920,335034
7,88333,499915
7,88745,696964
7,89157,918927
7,89568,1150350
7,89982,1343768
7,90393,1514213
7,90805,1609219
7,91218,1646254
7,91630,1644107
7,92042,1579789
7,92455,1511216
7,92867,1400615
7,93278,1297266
7,93692,1185783
7,94103,1066357
7,94515,971209
7,94928,858590
7,95340,769316
7,95752,681155
7,96165,598548
7,96577,519536
7,96988,454285
7,97402,394299
7,97813,341263
7,98225,292122
7,98637,253172
7,99050,220784
7,99462,192100
7,99873,168231
8,00287,150718
8,00698,132399
8,01110,119552
8,01523,105119
8,01935,96399
8,02347,87907
8,02760,78318
8,03172,74683
8,03583,67179
8,03997,65515
8,04408,60005
8,04820,57504
8,05233,55862
8,05645,52717
8,06057,47895
8,06470,47232
8,06882,44943
8,07293,43658
8,07705,42584
8,08118,40514
8,08530,38986
8,08942,38261
8,09355,37243
8,09767,35909
8,10178,34348
8,10592,34997
8,11003,33390
8,11415,31678
8,11828,31680
8,12240,32178
8,12652,29415
8,13065,30456
8,13477,30070
8,13888,29895
8,14302,30116
8,14713,27808
8,15125,26969
8,15538,27697
8,15950,28225
8,16362,27423
8,16773,27745
8,17187,26949
8,17598,26803
8,18010,26578
8,18423,26827
8,18835,25525
8,19247,26568
8,19660,24819
8,20072,22789
8,20483,24702
8,20897,25261
8,21308,22562
8,21720,24423
8,22133,22417
8,22545,25101
8,22957,21402
8,23370,23220
8,23782,23315
8,24193,22855
8,24607,23145
8,25018,23241
8,25430,22559
8,25842,24237
8,26255,23804
8,26667,22864
8,27078,23889
8,27492,24799
8,27903,22968
8,28315,24910
8,28728,22165
8,29140,23259
8,29552,21755
8,29965,22876
8,30377,23648
8,30788,23469
8,31202,22661
8,31613,21742
8,32025,21168
8,32438,22904
8,32850,21630
8,33262,20641
8,33675,21250
8,34087,21101
8,34498,21767
8,34910,19911
8,35323,22039
8,35735,19615
8,36147,19668
8,36560,20387
8,36972,20612
8,37383,19237
8,37797,19542
8,38208,21287
8,38620,20020
8,39033,21099
8,39445,19631
8,39857,19856
8,40270,19167
8,40682,20459
8,41093,19088
8,41507,19385
8,41918,19337
8,42330,19477
8,42743,18873
8,43155,18851
8,43567,19046
8,43978,19606
8,44392,18285
8,44803,19676
8,45215,18527
8,45628,19112
8,46040,19939
8,46452,19775
8,46865,18042
8,47277,18521
8,47688,19881
8,48102,19047
8,48513,19697
8,48925,19264
8,49338,21239
8,49750,19324
8,50162,19823
8,50575,19179
8,50987,20189
8,51398,18839
8,51812,18817
8,52223,20086
8,52635,18604
8,53047,19013
8,53460,18371
8,53872,19017
8,54283,18657
8,54697,20324
8,55108,19773
8,55520,18703
8,55933,18203
8,56345,17864
8,56757,18181
8,57170,18547
8,57582,17307
8,57993,18627
8,58407,18918
8,58818,17400
8,59230,18670
8,59643,17661
8,60055,18121
8,60467,17444
8,60880,17897
8,61292,18112
8,61703,19066
8,62115,19134
8,62528,17701
8,62940,16679
8,63352,18623
8,63765,18621
8,64177,19270
8,64588,19453
8,65002,18151
8,65413,19693
8,65825,19375
8,66238,19033
8,66650,18577
8,67062,18401
8,67475,17186
8,67887,18486
8,68298,17012
8,68712,17255
8,69123,18332
8,69535,18360
8,69948,17121
8,70360,16956
8,70772,16821
8,71183,16233
8,71597,16876
8,72008,16385
8,72420,16643
8,72833,17272
8,73245,16795
8,73657,15229
8,74070,17980
8,74482,20237
8,74893,22534
8,75307,28891
8,75718,46330
8,76130,75311
8,76543,123403
8,76955,193997
8,77367,286015
8,77780,410117
8,78192,552738
8,78603,684759
8,79017,810727
8,79428,909250
8,79840,973918
8,80252,995107
8,80665,991961
8,81077,943864
8,81488,871075
8,81902,800876
8,82313,699738
8,82725,625931
8,83138,540734
8,83550,472619
8,83962,401859
8,84375,345820
8,84787,295418
8,85198,247213
8,85612,212292
8,86023,179114
8,86435,152227
8,86848,130884
8,87260,109805
8,87672,97531
8,88085,86638
8,88497,77593
8,88908,70601
8,89320,63430
8,89733,57138
8,90145,52968
8,90557,47726
8,90970,46589
8,91382,41424
8,91793,40450
8,92207,39562
8,92618,36870
8,93030,37525
8,93443,33494
8,93855,34855
8,94267,34153
8,94680,31680
8,95092,33082
8,95503,30014
8,95917,30063
8,96328,30765
8,96740,30405
8,97153,30672
8,97565,29945
8,97977,27924
8,98388,27350
8,98802,26798
8,99213,26619
8,99625,26397
9,00038,25331
9,00450,24968
9,00862,24336
9,01275,24539
9,01687,24616
9,02098,23278
9,02512,22847
9,02923,21672
9,03335,22076
9,03748,22655
9,04160,20438
9,04572,19886
9,04985,21067
9,05397,20218
9,05808,19184
9,06222,19325
9,06633,18249
9,07045,18462
9,07458,19533
9,07870,18574
9,08282,17565
9,08693,16927
9,09107,18172
9,09518,17900
9,09930,17880
9,10343,16384
9,10755,17394
9,11167,18762
9,11580,18708
9,11992,19686
9,12403,18484
9,12817,20826
9,13228,19112
9,13640,20612
9,14053,22481
9,14465,22319
9,14877,21432
9,15290,21477
9,15702,21088
9,16113,21026
9,16527,18977
9,16938,18608
9,17350,16229
9,17762,18183
9,18175,17663
9,18587,17781
9,18998,16822
9,19412,15757
9,19823,16324
9,20235,14821
9,20648,15212
9,21060,14322
9,21472,16298
9,21885,15535
9,22297,15826
9,22708,14950
9,23122,15415
9,23533,14048
9,23945,14467
9,24358,14459
9,24770,13810
9,25182,15412
9,25595,14961
9,26007,14542
9,26418,15094
9,26830,12940
9,27243,15543
9,27655,13583
9,28067,14541
9,28480,13949
9,28892,14737
9,29303,14854
9,29717,13221
9,30128,15175
9,30540,14163
9,30953,14631
9,31365,14293
9,31777,14411
9,32190,13009
9,32602,13260
9,33013,14512
9,33427,13142
9,33838,14889
9,34250,15087
9,34663,14117
9,35075,13635
9,35487,13130
9,35898,13894
9,36312,13918
9,36723,13404
9,37135,14912
9,37548,13123
9,37960,14570
9,38372,14766
9,38785,12762
9,39197,13923
9,39608,14061
9,40022,13886
9,40433,13680
9,40845,14152
9,41258,13787
9,41670,14311
9,42082,14431
9,42495,14525
9,42907,13556
9,43318,15032
9,43732,13454
9,44143,14112
9,44555,12691
9,44967,14454
9,45380,13160
9,45792,13445
9,46203,12461
9,46617,12950
9,47028,14667
9,47440,13046
9,47853,13718
9,48265,12936
9,48677,14904
9,49090,13826
9,49502,13903
9,49913,14080
9,50327,13237
9,50738,14187
9,51150,12452
9,51563,13459
9,51975,14569
9,52387,13655
9,52800,14031
9,53212,15587
9,53623,15070
9,54035,15917
9,54448,15302
9,54860,13203
9,55272,13052
9,55685,13173
9,56097,14690
9,56508,13634
9,56922,13972
9,57333,14338
9,57745,13919
9,58158,13227
9,58570,13131
9,58982,13101
9,59395,12608
9,59807,13569
9,60218,13766
9,60632,13544
9,61043,13682
9,61455,12238
9,61868,13659
9,62280,13255
9,62692,13791
9,63103,12973
9,63517,13742
9,63928,13853
9,64340,14577
9,64753,13347
9,65165,12981
9,65577,13214
9,65990,13496
9,66402,14790
9,66813,15486
9,67227,20311
9,67638,25023
9,68050,39951
9,68463,71603
9,68875,132408
9,69287,222321
9,69700,375066
9,70112,586904
9,70523,875689
9,70937,1221591
9,71348,1557406
9,71760,1865693
9,72172,2124472
9,72585,2275889
9,72997,2331198
9,73408,2300322
9,73822,2174589
9,74233,1982947
9,74645,1740646
9,75058,1490905
9,75470,1250346
9,75882,1039402
9,76295,851504
9,76707,698644
9,77118,567559
9,77532,473610
9,77943,385269
9,78355,322953
9,78768,269876
9,79180,230037
9,79592,194420
9,80005,168133
9,80417,150428
9,80828,128971
9,81240,117050
9,81653,105809
9,82065,94680
9,82477,88005
9,82890,81101
9,83302,72886
9,83713,67596
9,84127,63452
9,84538,57528
9,84950,53661
9,85363,50072
9,85775,48281
9,86187,46557
9,86600,45691
9,87012,42250
9,87423,40524
9,87837,40239
9,88248,37677
9,88660,34260
9,89073,35371
9,89485,34898
9,89897,32282
9,90308,30511
9,90722,29195
9,91133,27596
9,91545,27961
9,91958,27820
9,92370,26985
9,92782,25304
9,93195,24915
9,93607,24571
9,94018,24706
9,94432,22995
9,94843,22471
9,95255,22391
9,95668,22641
9,96080,22036
9,96492,21842
9,96905,22196
9,97317,21403
9,97728,20933
9,98142,20917
9,98553,19174
9,98965,19238
9,99377,18753
9,99790,18843
10,00202,19030
10,00613,19022
10,01027,17352
10,01438,18204
10,01850,17813
10,02263,18084
10,02675,16884
10,03087,16981
10,03500,16302
10,03912,15640
10,04323,16194
10,04737,15559
10,05148,14516
10,05560,17546
10,05973,15671
10,06385,14828
10,06797,15817
10,07210,15737
10,07622,14683
10,08033,15007
10,08445,13682
10,08858,14546
10,09270,14600
10,09682,14582
10,10095,15213
10,10507,14456
10,10918,14943
10,11332,14240
10,11743,13122
10,12155,15130
10,12568,14198
10,12980,14364
10,13392,15321
10,13805,15417
10,14217,16417
10,14628,13388
10,15042,14700
10,15453,13715
10,15865,14130
10,16278,14378
10,16690,13562
10,17102,14739
10,17513,13663
10,17927,14633
10,18338,14084
10,18750,13426
10,19163,13713
10,19575,14088
10,19987,14283
10,20400,13802
10,20812,14501
10,21223,14234
10,21637,14438
10,22048,13665
10,22460,15000
10,22873,15680
10,23285,15078
10,23697,15366
10,24110,15564
10,24522,15393
10,24933,14352
10,25347,13621
10,25758,14694
10,26170,13751
10,26582,15588
10,26995,12885
10,27407,13521
10,27818,12928
10,28232,13041
10,28643,13654
10,29055,11868
10,29468,13594
10,29880,14658
10,30292,14925
10,30705,16138
10,31117,18624
10,31528,20326
10,31942,19964
10,32353,22690
10,32765,23989
10,33178,23231
10,33590,26221
10,34002,24335
10,34415,22499
10,34827,23142
10,35238,22093
10,35650,21894
10,36063,20017
10,36475,19297
10,36887,19025
10,37300,17010
10,37712,18331
10,38123,16033
10,38537,15836
10,38948,15313
10,39360,15929
10,39773,14439
10,40185,15155
10,40597,15125
10,41010,13433
10,41422,13445
10,41833,13563
10,42247,12462
10,42658,13204
10,43070,12534
10,43483,12242
10,43895,11511
10,44307,11268
10,44718,12288
10,45132,10681
10,45543,11007
10,45955,10988
10,46368,11044
10,46780,11393
10,47192,10565
10,47605,11935
10,48017,11143
10,48428,10939
10,48842,12307
10,49253,12659
10,49665,12738
10,50078,11071
10,50490,12934
10,50902,11404
10,51315,12046
10,51727,10812
10,52138,10888
10,52552,11706
10,52963,11315
10,53375,11726
10,53787,10694
10,54200,10790
10,54612,12026
10,55023,10939
10,55437,11873
10,55848,11423
10,56260,12759
10,56673,11520
10,57085,11139
10,57497,10074
10,57910,11357
10,58322,11016
10,58733,11555
10,59147,10749
10,59558,10498
10,59970,11020
10,60383,11374
10,60795,12301
10,61207,14715
10,61620,19839
10,62032,30132
10,62443,53687
10,62855,95426
10,63268,164850
10,63680,259904
10,64092,401612
10,64505,576437
10,64917,775193
10,65328,975192
10,65742,1142289
10,66153,1267600
10,66565,1309349
10,66978,1302182
10,67390,1211480
10,67802,1083184
10,68215,944493
10,68627,780450
10,69038,646297
10,69452,527993
10,69863,421979
10,70275,347473
10,70688,279974
10,71100,231329
10,71512,192227
10,71925,158262
10,72337,135229
10,72748,118321
10,73160,101390
10,73573,87931
10,73985,79655
10,74397,69301
10,74810,62609
10,75222,58586
10,75633,50810
10,76047,46763
10,76458,46143
10,76870,41431
10,77283,36203
10,77695,34045
10,78107,33816
10,78520,31174
10,78932,31097
10,79343,27231
10,79757,27304
10,80168,25916
10,80580,24752
10,80993,24937
10,81405,23053
10,81817,22269
10,82228,22428
10,82642,21302
10,83053,23235
10,83465,19986
10,83878,18761
10,84290,19287
10,84702,17350
10,85115,18996
10,85527,17804
10,85938,18255
10,86352,17929
10,86763,17212
10,87175,17288
10,87588,16007
10,88000,17138
10,88412,15717
10,88825,16101
10,89237,16005
10,89648,14964
10,90062,16347
10,90473,15675
10,90885,14837
10,91297,14963
10,91710,15008
10,92122,14416
10,92533,14515
10,92947,13125
10,93358,13402
10,93770,13787
10,94183,12618
10,94595,12630
10,95007,14055
10,95420,12284
10,95832,13385
10,96243,12747
10,96657,12663
10,97068,11648
10,97480,11756
10,97893,12535
10,98305,13530
10,98717,12077
10,99130,11967
10,99542,12869
10,99953,11452
11,00365,12536
11,00778,11587
11,01190,10639
11,01602,11959
11,02015,11588
11,02427,11361
11,02838,11180
11,03252,10947
11,03663,11099
11,04075,10592
11,04488,10998
11,04900,10672
11,05312,11321
11,05725,12095
11,06137,11196
11,06548,11404
11,06962,11242
11,07373,10858
11,07785,11023
11,08198,10693
11,08610,10994
11,09022,10201
11,09433,10867
11,09847,11143
11,10258,13101
11,10670,12903
11,11083,13510
11,11495,15297
11,11907,14735
11,12320,16404
11,12732,15815
11,13143,16678
11,13557,16380
11,13968,15591
11,14380,14740
11,14793,16526
11,15205,14750
11,15617,13826
11,16030,12636
11,16442,11871
11,16853,11751
11,17267,12472
11,17678,11692
11,18090,11306
11,18502,10121
11,18915,11848
11,19327,10032
11,19738,10407
11,20152,10202
11,20563,10748
11,20975,11123
11,21388,10481
11,21800,8523
11,22212,10023
11,22625,10298
11,23037,10281
11,23448,11307
11,23862,10404
11,24273,11177
11,24685,10714
11,25098,12411
11,25510,12811
11,25922,13187
11,26335,15749
11,26747,16640
11,27158,14513
11,27570,15143
11,27983,16087
11,28395,15529
11,28807,16350
11,29220,14323
11,29632,14182
11,30043,13174
11,30457,13685
11,30868,13598
11,31280,12586
11,31693,13204
11,32105,12861
11,32517,11793
11,32930,11254
11,33342,12721
11,33753,9655
11,34167,11079
11,34578,10942
11,34990,10877
11,35403,10146
11,35815,10709
11,36227,10699
11,36638,10787
11,37052,11091
11,37463,10546
11,37875,10703
11,38288,10887
11,38700,11042
11,39112,10477
11,39525,11307
11,39937,11691
11,40348,10458
11,40762,10243
11,41173,9711
11,41585,10401
11,41998,9167
11,42410,10725
11,42822,9953
11,43235,9452
11,43647,9304
11,44058,11468
11,44472,9778
11,44883,9915
11,45295,9071
11,45707,9443
11,46120,8849
11,46532,8690
11,46943,9527
11,47357,9817
11,47768,9823
11,48180,8662
11,48593,8522
11,49005,8798
11,49417,9840
11,49830,10029
11,50242,9020
11,50653,9936
11,51067,9522
11,51478,9691
11,51890,9092
11,52303,9670
11,52715,9175
11,53127,9388
11,53540,10897
11,53952,14892
11,54363,20427
11,54775,35631
11,55188,71796
11,55600,134190
11,56012,249667
11,56425,434876
11,56837,704081
11,57248,1064103
11,57662,1505662
11,58073,1972752
11,58485,2401511
11,58898,2720544
11,59310,2895446
11,59722,2885504
11,60135,2742131
11,60547,2475398
11,60958,2149361
11,61372,1778347
11,61783,1433786
11,62195,1160254
11,62608,922152
11,63020,733726
11,63432,589717
11,63843,481410
11,64257,392052
11,64668,325706
11,65080,267985
11,65493,228328
11,65905,201674
11,66317,173249
11,66730,155416
11,67142,134161
11,67553,121264
11,67967,110240
11,68378,98735
11,68790,88064
11,69203,79651
11,69615,74891
11,70027,72272
11,70440,66228
11,70852,58910
11,71263,57113
11,71677,52241
11,72088,50318
11,72500,49637
11,72912,43131
11,73325,42955
11,73737,39141
11,74148,37903
11,74562,37102
11,74973,34065
11,75385,33483
11,75798,33710
11,76210,30331
11,76622,33510
11,77035,30398
11,77447,31029
11,77858,31530
11,78272,33496
11,78683,33683
11,79095,32431
11,79508,32715
11,79920,32078
11,80332,31886
11,80745,27411
11,81157,27568
11,81568,25554
11,81980,26628
11,82393,22962
11,82805,23456
11,83217,20466
11,83630,20632
11,84042,20398
11,84453,19698
11,84867,16473
11,85278,19356
11,85690,16516
11,86103,16345
11,86515,14467
11,86927,16702
11,87340,16658
11,87752,15238
11,88163,16042
11,88577,14408
11,88988,15625
11,89400,15090
11,89813,13847
11,90225,13403
11,90637,14768
11,91048,14175
11,91462,13709
11,91873,13500
11,92285,14996
11,92698,14076
11,93110,13427
11,93522,14438
11,93935,13302
11,94347,12385
11,94758,13245
11,95172,12792
11,95583,12956
11,95995,11962
11,96408,13277
11,96820,12300
11,97232,12236
11,97645,12875
11,98057,13008
11,98468,12451
11,98882,13398
11,99293,12798
11,99705,11372
12,00117,12660
12,00530,12836
12,00942,12821
12,01353,12383
12,01767,11852
12,02178,13768
12,02590,14849
12,03003,15619
12,03415,15615
12,03827,14458
12,04240,14599
12,04652,14375
12,05063,15580
12,05477,14708
12,05888,13385
12,06300,13442
12,06713,12931
12,07125,13329
12,07537,12750
12,07950,11401
12,08362,13103
12,08773,11273
12,09185,9084
12,09598,11008
12,10010,9858
12,10422,11064
12,10835,11028
12,11247,10476
12,11658,10798
12,12072,9281
12,12483,8216
12,12895,9962
12,13308,9550
12,13720,10257
12,14132,9481
12,14545,10156
12,14957,9745
12,15368,9913
12,15782,10578
12,16193,10697
12,16605,10310
12,17018,9392
12,17430,9391
12,17842,9016
12,18255,10683
12,18667,10589
12,19078,11646
12,19490,14655
12,19903,24083
12,20315,39465
12,20727,68878
12,21140,122352
12,21552,208328
12,21963,338053
12,22377,504041
12,22788,712000
12,23200,922866
12,23613,1118179
12,24025,1254200
12,24437,1314929
12,24850,1313226
12,25262,1251460
12,25673,1128959
12,26087,983090
12,26498,836166
12,26910,685822
12,27323,547705
12,27735,440824
12,28147,352481
12,28558,285154
12,28972,233889
12,29383,194459
12,29795,162152
12,30208,139159
12,30620,123548
12,31032,109095
12,31445,98766
12,31857,90825
12,32268,86286
12,32682,78205
12,33093,75023
12,33505,69707
12,33918,67125
12,34330,60253
12,34742,55137
12,35155,52683
12,35567,45221
12,35978,41662
12,36392,39192
12,36803,35183
12,37215,33665
12,37627,31065
12,38040,28271
12,38452,27142
12,38863,25682
12,39277,25773
12,39688,23914
12,40100,24056
12,40513,22429
12,40925,21092
12,41337,21879
12,41750,18884
12,42162,19021
12,42573,18552
12,42987,17575
12,43398,19020
12,43810,17252
12,44223,17470
12,44635,19714
12,45047,21947
12,45460,28229
12,45872,44208
12,46283,82656
12,46695,141800
12,47108,235667
12,47520,384196
12,47932,578421
12,48345,824930
12,48757,1061826
12,49168,1271245
12,49582,1447595
12,49993,1540753
12,50405,1532098
12,50818,1435023
12,51230,1276912
12,51642,1074255
12,52055,882408
12,52467,715714
12,52878,572473
12,53292,454550
12,53703,365726
12,54115,292261
12,54528,241465
12,54940,197536
12,55352,166613
12,55763,136033
12,56177,120187
12,56588,103833
12,57000,89196
12,57413,82919
12,57825,75064
12,58237,67092
12,58650,57580
12,59062,53257
12,59473,50266
12,59887,47009
12,60298,45574
12,60710,41325
12,61123,38331
12,61535,35568
12,61947,33756
12,62360,33754
12,62772,30237
12,63183,29457
12,63597,29177
12,64008,27547
12,64420,24915
12,64832,23931
12,65245,23230
12,65657,22671
12,66068,22981
12,66482,20771
12,66893,20394
12,67305,20080
12,67718,19034
12,68130,19237
12,68542,18365
12,68955,16496
12,69367,17862
12,69778,16441
12,70192,16266
12,70603,16683
12,71015,16170
12,71428,16499
12,71840,15100
12,72252,13823
12,72665,14005
12,73077,14835
12,73488,15068
12,73900,12259
12,74313,13187
12,74725,14051
12,75137,11632
12,75550,14608
12,75962,14146
12,76373,11334
12,76787,14023
12,77198,12297
12,77610,12800
12,78023,13762
12,78435,13657
12,78847,11630
12,79260,11622
12,79672,12412
12,80083,10974
12,80497,11479
12,80908,12122
12,81320,11966
12,81733,11789
12,82145,11873
12,82557,10547
12,82968,10961
12,83382,10612
12,83793,12043
12,84205,10807
12,84618,9536
12,85030,9970
12,85442,10515
12,85855,11362
12,86267,10837
12,86678,10961
12,87092,9956
12,87503,11488
12,87915,11368
12,88328,11105
12,88740,9733
12,89152,10035
12,89565,10351
12,89977,10840
12,90388,11977
12,90802,11122
12,91213,10875
12,91625,11958
12,92037,12443
12,92450,11224
12,92862,11117
12,93273,11715
12,93687,11949
12,94098,10856
12,94510,11321
12,94923,10389
12,95335,11043
12,95747,11035
12,96160,9405
12,96572,9922
12,96983,9699
12,97397,10652
12,97808,10658
12,98220,9559
12,98633,9641
12,99045,11029
12,99457,10185
12,99870,10023
13,00282,10130
13,00693,10705
13,01105,9411
13,01518,9923
13,01930,9948
13,02342,10083
13,02755,10189
13,03167,9523
13,03578,9704
13,03992,10296
13,04403,9869
13,04815,9106
13,05228,9748
13,05640,9383
13,06052,8822
13,06465,8987
13,06877,9908
13,07288,9085
13,07702,9666
13,08113,9279
13,08525,10215
13,08938,13215
13,09350,14851
13,09762,23330
13,10173,40905
13,10587,74210
13,10998,132899
13,11410,228801
13,11823,358752
13,12235,544410
13,12647,760328
13,13060,990782
13,13472,1189449
13,13883,1345904
13,14297,1417094
13,14708,1410673
13,15120,1319811
13,15533,1186687
13,15945,1026629
13,16357,850161
13,16770,696490
13,17182,565214
13,17593,450131
13,18007,358871
13,18418,283885
13,18830,233875
13,19242,197335
13,19655,163476
13,20067,140142
13,20478,118428
13,20892,107283
13,21303,93127
13,21715,81890
13,22128,72344
13,22540,68050
13,22952,61371
13,23365,55468
13,23777,51876
13,24188,48176
13,24602,43778
13,25013,41618
13,25425,40749
13,25838,37960
13,26250,33820
13,26662,33854
13,27075,33624
13,27487,30360
13,27898,28782
13,28310,27566
13,28723,26843
13,29135,25047
13,29547,23094
13,29960,19797
13,30372,21243
13,30783,19966
13,31197,20037
13,31608,19011
13,32020,18294
13,32433,21657
13,32845,24531
13,33257,37983
13,33670,63425
13,34082,122430
13,34493,232999
13,34907,427458
13,35318,726710
13,35730,1185715
13,36143,1749283
13,36555,2432591
13,36967,3180226
13,37378,3922610
13,37792,4524490
13,38203,4895212
13,38615,4969519
13,39028,4730877
13,39440,4232360
13,39852,3613287
13,40265,2971323
13,40677,2383218
13,41088,1851040
13,41502,1462320
13,41913,1143979
13,42325,913374
13,42738,741951
13,43150,609885
13,43562,504569
13,43975,429291
13,44387,370741
13,44798,319252
13,45212,275652
13,45623,245804
13,46035,216893
13,46447,196913
13,46860,176347
13,47272,157384
13,47683,147797
13,48097,134501
13,48508,125149
13,48920,114501
13,49333,103927
13,49745,97786
13,50157,89991
13,50570,82436
13,50982,81591
13,51393,73700
13,51807,70702
13,52218,64339
13,52630,58909
13,53043,59299
13,53455,55961
13,53867,51702
13,54280,51282
13,54692,46021
13,55103,46062
13,55515,41427
13,55928,40645
13,56340,41015
13,56752,38197
13,57165,35969
13,57577,35024
13,57988,33480
13,58402,35124
13,58813,33159
13,59225,30198
13,59638,30589
13,60050,27332
13,60462,28283
13,60875,26622
13,61287,27710
13,61698,26553
13,62112,25646
13,62523,23609
13,62935,23875
13,63348,22486
13,63760,24364
13,64172,22297
13,64583,22068
13,64997,21960
13,65408,21001
13,65820,21701
13,66233,21222
13,66645,20273
13,67057,19126
13,67470,17730
13,67882,17880
13,68293,17883
13,68707,18016
13,69118,17728
13,69530,17017
13,69943,17490
13,70355,17661
13,70767,16124
13,71180,18449
13,71592,17501
13,72003,18304
13,72417,16929
13,72828,18061
13,73240,16758
13,73653,17889
13,74065,15353
13,74477,15958
13,74888,14664
13,75302,14440
13,75713,15154
13,76125,14246
13,76538,14176
13,76950,13354
13,77362,13272
13,77775,13753
13,78187,13934
13,78598,13043
13,79012,14175
13,79423,13964
13,79835,14385
13,80248,14358
13,80660,17332
13,81072,16303
13,81485,16601
13,81897,15129
13,82308,14262
13,82722,16350
13,83133,13766
13,83545,14489
13,83957,14479
13,84370,16152
13,84782,18641
13,85193,28261
13,85607,46016
13,86018,79687
13,86430,144457
13,86843,242776
13,87255,404242
13,87667,601394
13,88080,829883
13,88492,1075410
13,88903,1303970
13,89317,1447225
13,89728,1502767
13,90140,1482838
13,90553,1361998
13,90965,1207418
13,91377,1030295
13,91790,848810
13,92202,688787
13,92613,540447
13,93025,437827
13,93438,354185
13,93850,283544
13,94262,240563
13,94675,200265
13,95087,170742
13,95498,147593
13,95912,128195
13,96323,115706
13,96735,104355
13,97148,101002
13,97560,93605
13,97972,89782
13,98385,84623
13,98797,77987
13,99208,76836
13,99622,71813
14,00033,71012
14,00445,65611
14,00858,61545
14,01270,57451
14,01682,51418
14,02093,49304
14,02507,46665
14,02918,39258
14,03330,39098
14,03743,37353
14,04155,33933
14,04567,31292
14,04980,28639
14,05392,29476
14,05803,26546
14,06217,26816
14,06628,23820
14,07040,26016
14,07453,24195
14,07865,23028
14,08277,22176
14,08690,22143
14,09102,21293
14,09513,22153
14,09927,21155
14,10338,19745
14,10750,20543
14,11162,19553
14,11575,17817
14,11987,18589
14,12398,18056
14,12812,17222
14,13223,17649
14,13635,16576
14,14048,17747
14,14460,14921
14,14872,15033
14,15285,15316
14,15697,14610
14,16108,14273
14,16522,15688
14,16933,14801
14,17345,14853
14,17758,17761
14,18170,24173
14,18582,37504
14,18995,65428
14,19407,123670
14,19818,216261
14,20230,362444
14,20643,573996
14,21055,840498
14,21467,1128377
14,21880,1408227
14,22292,1629966
14,22703,1737121
14,23117,1732762
14,23528,1646240
14,23940,1472576
14,24353,1255969
14,24765,1036920
14,25177,834577
14,25590,665987
14,26002,526661
14,26413,426351
14,26827,343101
14,27238,281459
14,27650,230038
14,28063,195472
14,28475,165054
14,28887,140570
14,29298,126078
14,29712,108317
14,30123,98107
14,30535,88285
14,30948,78052
14,31360,71135
14,31772,64943
14,32185,61175
14,32597,55552
14,33008,50604
14,33422,47970
14,33833,45313
14,34245,42468
14,34658,40797
14,35070,38165
14,35482,37144
14,35895,32843
14,36307,31312
14,36718,29991
14,37132,31556
14,37543,28061
14,37955,27249
14,38367,26976
14,38780,25931
14,39192,26283
14,39603,25916
14,40017,23545
14,40428,23384
14,40840,23455
14,41253,23577
14,41665,23651
14,42077,21529
14,42490,24112
14,42902,21250
14,43313,20020
14,43727,21177
14,44138,19573
14,44550,19966
14,44963,18398
14,45375,17814
14,45787,18462
14,46200,17547
14,46612,16233
14,47023,16308
14,47435,15496
14,47848,15621
14,48260,16035
14,48672,16072
14,49085,15574
14,49497,14855
14,49908,14501
14,50322,16068
14,50733,14525
14,51145,15534
14,51558,13715
14,51970,14860
14,52382,13694
14,52795,15011
14,53207,13404
14,53618,15146
14,54032,15634
14,54443,14351
14,54855,14498
14,55268,14008
14,55680,13131
14,56092,13136
14,56503,13304
14,56917,12250
14,57328,13709
14,57740,13515
14,58153,11909
14,58565,12715
14,58977,13531
14,59390,10700
14,59802,11557
14,60213,11561
14,60627,11656
14,61038,11708
14,61450,11785
14,61863,11877
14,62275,13321
14,62687,10460
14,63100,10631
14,63512,10919
14,63923,10128
14,64337,11706
14,64748,11262
14,65160,12047
14,65572,11738
14,65985,13200
14,66397,12653
14,66808,10996
14,67222,13194
14,67633,13181
14,68045,15539
14,68458,20622
14,68870,30401
14,69282,54579
14,69695,94980
14,70107,171727
14,70518,291251
14,70932,456861
14,71343,677547
14,71755,932566
14,72168,1183028
14,72580,1404865
14,72992,1550575
14,73405,1615633
14,73817,1598941
14,74228,1475134
14,74640,1291179
14,75053,1091420
14,75465,903306
14,75877,732637
14,76290,576037
14,76702,463613
14,77113,374932
14,77527,302260
14,77938,252014
14,78350,214081
14,78763,181272
14,79175,154910
14,79587,131873
14,80000,116071
14,80412,103821
14,80823,94252
14,81237,84153
14,81648,73137
14,82060,68839
14,82473,64568
14,82885,61109
14,83297,53835
14,83708,49624
14,84122,48596
14,84533,45775
14,84945,42986
14,85358,41621
14,85770,38793
14,86182,36084
14,86595,35415
14,87007,32882
14,87418,31368
14,87832,28542
14,88243,28260
14,88655,27419
14,89068,25232
14,89480,23862
14,89892,24058
14,90305,23950
14,90717,23413
14,91128,21832
14,91542,20946
14,91953,21154
14,92365,20504
14,92777,19158
14,93190,19996
14,93602,20467
14,94013,19195
14,94427,22173
14,94838,24849
14,95250,25624
14,95663,29055
14,96075,32664
14,96487,37696
14,96900,38615
14,97312,43129
14,97723,45377
14,98137,45947
14,98548,45744
14,98960,43952
14,99373,44367
14,99785,45228
15,00197,56410
15,00610,83538
15,01022,131984
15,01433,239744
15,01845,421084
15,02258,700405
15,02670,1071388
15,03082,1548258
15,03495,2130810
15,03907,2681428
15,04318,3230244
15,04732,3650895
15,05143,3821257
15,05555,3767122
15,05968,3509295
15,06380,3087449
15,06792,2569674
15,07205,2087395
15,07617,1681156
15,08028,1325226
15,08442,1049564
15,08853,835877
15,09265,669742
15,09678,561419
15,10090,465022
15,10502,389895
15,10913,335690
15,11327,287549
15,11738,255202
15,12150,224410
15,12563,198734
15,12975,177071
15,13387,165187
15,13800,147546
15,14212,133324
15,14623,124208
15,15037,111099
15,15448,105875
15,15860,97445
15,16273,90535
15,16685,86486
15,17097,80649
15,17510,73150
15,17922,71714
15,18333,66696
15,18747,63745
15,19158,60946
15,19570,55197
15,19982,53168
15,20395,49400
15,20807,49642
15,21218,47853
15,21632,44277
15,22043,43533
15,22455,42158
15,22868,42018
15,23280,38488
15,23692,37345
15,24105,34740
15,24517,33223
15,24928,34191
15,25342,32724
15,25753,31396
15,26165,30142
15,26578,29459
15,26990,30215
15,27402,31190
15,27815,33613
15,28227,39668
15,28638,58336
15,29050,88781
15,29463,150588
15,29875,255696
15,30287,408508
15,30700,625084
15,31112,876274
15,31523,1153607
15,31937,1431387
15,32348,1630139
15,32760,1748932
15,33173,1766211
15,33585,1672504
15,33997,1524293
15,34410,1315433
15,34822,1087612
15,35233,890626
15,35647,725312
15,36058,591910
15,36470,478732
15,36883,391119
15,37295,322791
15,37707,270734
15,38120,226163
15,38532,198665
15,38943,171166
15,39355,149692
15,39768,131620
15,40180,118536
15,40592,107322
15,41005,96049
15,41417,93327
15,41828,84975
15,42242,88383
15,42653,94253
15,43065,119780
15,43478,174280
15,43890,276330
15,44302,461230
15,44715,746020
15,45127,1138643
15,45538,1624724
15,45952,2166497
15,46363,2708149
15,46775,3196403
15,47188,3519265
15,47600,3604613
15,48012,3484931
15,48423,3178449
15,48837,2805795
15,49248,2353981
15,49660,1912609
15,50073,1537492
15,50485,1233476
15,50897,995504
15,51310,795372
15,51722,655629
15,52133,538000
15,52547,461424
15,52958,386280
15,53370,339090
15,53783,296969
15,54195,265034
15,54607,231500
15,55020,208315
15,55432,186917
15,55843,174217
15,56257,156947
15,56668,144666
15,57080,130980
15,57492,124423
15,57905,113867
15,58317,104488
15,58728,101169
15,59142,93043
15,59553,89972
15,59965,82757
15,60378,81147
15,60790,74721
15,61202,71278
15,61615,66383
15,62027,66579
15,62438,63130
15,62852,62297
15,63263,56917
15,63675,54047
15,64088,50517
15,64500,48914
15,64912,47796
15,65325,46436
15,65737,45496
15,66148,43139
15,66560,41383
15,66973,38585
15,67385,38896
15,67797,37552
15,68210,37841
15,68622,37652
15,69033,37253
15,69447,34170
15,69858,34864
15,70270,31696
15,70683,32379
15,71095,32934
15,71507,28555
15,71920,29407
15,72332,29668
15,72743,29107
15,73157,28017
15,73568,30444
15,73980,32644
15,74393,38916
15,74805,51665
15,75217,81847
15,75628,142223
15,76042,234188
15,76453,368258
15,76865,566761
15,77278,807297
15,77690,1070669
15,78102,1322789
15,78515,1514993
15,78927,1653448
15,79338,1701048
15,79752,1706674
15,80163,1707188
15,80575,1780576
15,80988,1938870
15,81400,2240874
15,81812,2650601
15,82225,3124088
15,82637,3637033
15,83048,3978178
15,83462,4157069
15,83873,4094590
15,84285,3785074
15,84697,3321883
15,85110,2804977
15,85522,2282913
15,85933,1828600
15,86347,1460292
15,86758,1164044
15,87170,947775
15,87583,776141
15,87995,650374
15,88407,550466
15,88820,472081
15,89232,413788
15,89643,364746
15,90057,320977
15,90468,283446
15,90880,253185
15,91293,234308
15,91705,210995
15,92117,195510
15,92530,182385
15,92942,167996
15,93353,152916
15,93765,142667
15,94178,132966
15,94590,128405
15,95002,118175
15,95415,112544
15,95827,108124
15,96238,101987
15,96652,99423
15,97063,91184
15,97475,88580
15,97888,84917
15,98300,78717
15,98712,74818
15,99125,72793
15,99537,71173
15,99948,67121
16,00362,63844
16,00773,63357
16,01185,61007
16,01598,60262
16,02010,59420
16,02422,57585
16,02833,53708
16,03247,51782
16,03658,51698
16,04070,48010
16,04483,46829
16,04895,46186
16,05307,44285
16,05720,45280
16,06132,42889
16,06543,42356
16,06957,44257
16,07368,52899
16,07780,61757
16,08193,93467
16,08605,148799
16,09017,240951
16,09430,382258
16,09842,569226
16,10253,805054
16,10667,1048916
16,11078,1270640
16,11490,1435183
16,11902,1528411
16,12315,1528934
16,12727,1441282
16,13138,1291031
16,13552,1118085
16,13963,945452
16,14375,770727
16,14788,623050
16,15200,511976
16,15612,420847
16,16025,340844
16,16437,288455
16,16848,244293
16,17262,208833
16,17673,180130
16,18085,158968
16,18498,142616
16,18910,125936
16,19322,117526
16,19735,108044
16,20147,97342
16,20558,89877
16,20970,85393
16,21383,78618
16,21795,73454
16,22207,70309
16,22620,68187
16,23032,66974
16,23443,63478
16,23857,58975
16,24268,59661
16,24680,57006
16,25093,53843
16,25505,51144
16,25917,50591
16,26330,46570
16,26742,45652
16,27153,44169
16,27567,42008
16,27978,38905
16,28390,40118
16,28803,36483
16,29215,35461
16,29627,35150
16,30038,35118
16,30452,34155
16,30863,34478
16,31275,32103
16,31688,31468
16,32100,32542
16,32512,28731
16,32925,30533
16,33337,29141
16,33748,28653
16,34162,27676
16,34573,29628
16,34985,27248
16,35398,23721
16,35810,27179
16,36222,25668
16,36635,24140
16,37047,24287
16,37458,23466
16,37872,24522
16,38283,23001
16,38695,23302
16,39107,23829
16,39520,24006
16,39932,21526
16,40343,22201
16,40757,22752
16,41168,22164
16,41580,21696
16,41993,20064
16,42405,20537
16,42817,22343
16,43230,22309
16,43642,18480
16,44053,22104
16,44467,20586
16,44878,21310
16,45290,21764
16,45703,18942
16,46115,20946
16,46527,20755
16,46940,20734
16,47352,20292
16,47763,18092
16,48175,17181
16,48588,19252
16,49000,18639
16,49412,18691
16,49825,18540
16,50237,19025
16,50648,18797
16,51062,19483
16,51473,18303
16,51885,19189
16,52298,20574
16,52710,25618
16,53122,33385
16,53535,54110
16,53947,87447
16,54358,158247
16,54772,286131
16,55183,484542
16,55595,764772
16,56008,1169865
16,56420,1676296
16,56832,2268942
16,57243,2914041
16,57657,3605887
16,58068,4224263
16,58480,4801281
16,58893,5126883
16,59305,5262903
16,59717,5032515
16,60130,4655205
16,60542,4070538
16,60953,3400598
16,61367,2757797
16,61778,2226121
16,62190,1784246
16,62603,1428860
16,63015,1156498
16,63427,954927
16,63840,806167
16,64252,682512
16,64663,579288
16,65077,507559
16,65488,439530
16,65900,397594
16,66312,352713
16,66725,314819
16,67137,285248
16,67548,260970
16,67962,239619
16,68373,221036
16,68785,200086
16,69198,189460
16,69610,177285
16,70022,162285
16,70435,152506
16,70847,142479
16,71258,133976
16,71672,128269
16,72083,120112
16,72495,115526
16,72908,108183
16,73320,104067
16,73732,100344
16,74145,98941
16,74557,96799
16,74968,100541
16,75380,101344
16,75793,100891
16,76205,104023
16,76617,107128
16,77030,102389
16,77442,100644
16,77853,98758
16,78267,90979
16,78678,86760
16,79090,81576
16,79503,76692
16,79915,71311
16,80327,68948
16,80740,66189
16,81152,66262
16,81563,74023
16,81977,86621
16,82388,119009
16,82800,173261
16,83213,265232
16,83625,391264
16,84037,577953
16,84448,770695
16,84862,977426
16,85273,1158551
16,85685,1279043
16,86098,1337042
16,86510,1294424
16,86922,1204693
16,87335,1077155
16,87747,933000
16,88158,780110
16,88572,654271
16,88983,531107
16,89395,429178
16,89808,361910
16,90220,298852
16,90632,256231
16,91045,217283
16,91457,193413
16,91868,165521
16,92282,149731
16,92693,134728
16,93105,123302
16,93518,111763
16,93930,110531
16,94342,115905
16,94753,133554
16,95167,178164
16,95578,253140
16,95990,376506
16,96403,558278
16,96815,810828
16,97227,1111721
16,97640,1438272
16,98052,1719865
16,98463,1909092
16,98877,1996440
16,99288,1954335
16,99700,1816482
17,00113,1621310
17,00525,1393924
17,00937,1151712
17,01350,955054
17,01762,778923
17,02173,643567
17,02587,531650
17,02998,445477
17,03410,380047
17,03822,327343
17,04235,285095
17,04647,251279
17,05058,226774
17,05472,202122
17,05883,179388
17,06295,163540
17,06708,149369
17,07120,141568
17,07532,131729
17,07945,122151
17,08357,112558
17,08768,107273
17,09182,102077
17,09593,94274
17,10005,89829
17,10418,86756
17,10830,81309
17,11242,77579
17,11655,76434
17,12067,72576
17,12478,67377
17,12890,64370
17,13303,62153
17,13715,58325
17,14127,59712
17,14540,56818
17,14952,55711
17,15363,55008
17,15777,54053
17,16188,52718
17,16600,52444
17,17013,49967
17,17425,47334
17,17837,48315
17,18250,43826
17,18662,45314
17,19073,43813
17,19487,42801
17,19898,39331
17,20310,41341
17,20723,38276
17,21135,37030
17,21547,38246
17,21958,36244
17,22372,36901
17,22783,36164
17,23195,36863
17,23608,38003
17,24020,34989
17,24432,34955
17,24845,33745
17,25257,36064
17,25668,35430
17,26082,36106
17,26493,38277
17,26905,50340
17,27318,70752
17,27730,113822
17,28142,190950
17,28555,313172
17,28967,502659
17,29378,767579
17,29792,1099993
17,30203,1465048
17,30615,1829613
17,31027,2105374
17,31440,2249972
17,31852,2224227
17,32263,2093665
17,32677,1831867
17,33088,1568190
17,33500,1298458
17,33913,1064654
17,34325,867317
17,34737,709666
17,35150,585102
17,35562,488983
17,35973,413633
17,36387,356154
17,36798,310133
17,37210,278413
17,37623,246801
17,38035,223836
17,38447,199351
17,38860,180008
17,39272,164962
17,39683,153453
17,40095,141357
17,40508,133813
17,40920,122880
17,41332,118467
17,41745,110348
17,42157,104536
17,42568,98022
17,42982,96186
17,43393,90535
17,43805,87632
17,44218,87592
17,44630,82646
17,45042,81337
17,45455,75785
17,45867,74061
17,46278,70553
17,46692,64241
17,47103,63688
17,47515,62670
17,47928,60282
17,48340,59787
17,48752,56050
17,49163,53621
17,49577,52072
17,49988,51386
17,50400,49886
17,50813,47559
17,51225,50746
17,51637,46850
17,52050,45395
17,52462,43827
17,52873,45400
17,53287,43252
17,53698,42696
17,54110,41958
17,54523,43357
17,54935,44927
17,55347,47764
17,55760,60662
17,56172,78561
17,56583,123674
17,56997,204195
17,57408,334822
17,57820,520581
17,58232,745780
17,58645,1019589
17,59057,1273434
17,59468,1503608
17,59882,1647820
17,60293,1692591
17,60705,1623849
17,61118,1503377
17,61530,1317202
17,61942,1116700
17,62355,938333
17,62767,778723
17,63178,640254
17,63592,526043
17,64003,442169
17,64415,370736
17,64828,315368
17,65240,277585
17,65652,242797
17,66065,213825
17,66477,189989
17,66888,173211
17,67300,154263
17,67713,139856
17,68125,132250
17,68537,122836
17,68950,110274
17,69362,106186
17,69773,96389
17,70187,92274
17,70598,86582
17,71010,80323
17,71423,78616
17,71835,76974
17,72247,73924
17,72660,69568
17,73072,65442
17,73483,64076
17,73897,63838
17,74308,61844
17,74720,57550
17,75133,58427
17,75545,53423
17,75957,53025
17,76368,51640
17,76782,50853
17,77193,48925
17,77605,51068
17,78018,46544
17,78430,45594
17,78842,45679
17,79255,46455
17,79667,44973
17,80078,42396
17,80492,44167
17,80903,42241
17,81315,41030
17,81728,41204
17,82140,40708
17,82552,37402
17,82965,37128
17,83377,36681
17,83788,37102
17,84202,37075
17,84613,36056
17,85025,35441
17,85437,34826
17,85850,34638
17,86262,33687
17,86673,33594
17,87087,36201
17,87498,32593
17,87910,32908
17,88323,33625
17,88735,34265
17,89147,32008
17,89560,32247
17,89972,34225
17,90383,33561
17,90797,32447
17,91208,32743
17,91620,32646
17,92033,31450
17,92445,34036
17,92857,33012
17,93270,32764
17,93682,33327
17,94093,32723
17,94505,31925
17,94918,31172
17,95330,30914
17,95742,34187
17,96155,32739
17,96567,35010
17,96978,43834
17,97392,55702
17,97803,86137
17,98215,146373
17,98628,253526
17,99040,439809
17,99452,747791
17,99865,1177751
18,00277,1766880
18,00688,2487533
18,01102,3377309
18,01513,4277258
18,01925,5130629
18,02338,5781123
18,02750,6072746
18,03162,5957536
18,03573,5547803
18,03987,4906751
18,04398,4145463
18,04810,3439575
18,05223,2811700
18,05635,2297457
18,06047,1869392
18,06460,1533511
18,06872,1277744
18,07283,1074546
18,07697,926016
18,08108,793537
18,08520,694654
18,08933,609695
18,09345,547094
18,09757,491122
18,10170,448601
18,10582,411093
18,10993,369878
18,11407,337797
18,11818,315075
18,12230,297536
18,12642,273717
18,13055,258956
18,13467,243946
18,13878,222513
18,14292,216830
18,14703,201174
18,15115,191229
18,15528,186244
18,15940,171705
18,16352,164701
18,16765,158179
18,17177,156287
18,17588,146638
18,18002,140260
18,18413,134998
18,18825,129731
18,19238,126064
18,19650,120475
18,20062,116198
18,20475,114247
18,20887,109321
18,21298,107034
18,21710,101360
18,22123,99389
18,22535,95151
18,22947,95907
18,23360,91216
18,23772,90810
18,24183,90568
18,24597,91512
18,25008,96437
18,25420,112954
18,25833,146450
18,26245,202849
18,26657,296096
18,27070,436363
18,27482,628005
18,27893,844940
18,28307,1081474
18,28718,1303493
18,29130,1455981
18,29543,1561659
18,29955,1548574
18,30367,1452228
18,30778,1325842
18,31192,1167102
18,31603,1021242
18,32015,913683
18,32428,879061
18,32840,892673
18,33252,974503
18,33665,1104667
18,34077,1251568
18,34488,1395130
18,34902,1525512
18,35313,1588063
18,35725,1613594
18,36138,1589580
18,36550,1538200
18,36962,1535896
18,37375,1605624
18,37787,1725452
18,38198,1896599
18,38612,2120343
18,39023,2288185
18,39435,2408394
18,39847,2444874
18,40260,2370656
18,40672,2169650
18,41083,1928902
18,41497,1664378
18,41908,1409584
18,42320,1185356
18,42733,996429
18,43145,836992
18,43557,717564
18,43970,613592
18,44382,542974
18,44793,482987
18,45207,427303
18,45618,392681
18,46030,359697
18,46443,323856
18,46855,303228
18,47267,279996
18,47680,258084
18,48092,238167
18,48503,223808
18,48917,208818
18,49328,193963
18,49740,188012
18,50152,181878
18,50565,168980
18,50977,160614
18,51388,153662
18,51802,148495
18,52213,140838
18,52625,131791
18,53038,128000
18,53450,124328
18,53862,123389
18,54275,115526
18,54687,110210
18,55098,105272
18,55512,104857
18,55923,100265
18,56335,102897
18,56748,98524
18,57160,93120
18,57572,92347
18,57985,89451
18,58397,89662
18,58808,85910
18,59220,85862
18,59633,81371
18,60045,79996
18,60457,80650
18,60870,78982
18,61282,77388
18,61693,75965
18,62107,73650
18,62518,75383
18,62930,74936
18,63343,72885
18,63755,74550
18,64167,79516
18,64580,90710
18,64992,114719
18,65403,156525
18,65817,237103
18,66228,362919
18,66640,550946
18,67053,819002
18,67465,1146050
18,67877,1516821
18,68288,1858588
18,68702,2146214
18,69113,2303716
18,69525,2308989
18,69938,2163354
18,70350,1944203
18,70762,1678199
18,71175,1415268
18,71587,1192907
18,71998,993626
18,72412,835158
18,72823,705692
18,73235,601126
18,73648,527906
18,74060,472249
18,74472,416832
18,74885,375890
18,75297,340714
18,75708,314087
18,76122,280453
18,76533,264092
18,76945,241405
18,77357,232103
18,77770,212386
18,78182,198175
18,78593,185986
18,79007,177793
18,79418,172662
18,79830,164413
18,80243,157583
18,80655,153493
18,81067,143454
18,81480,142185
18,81892,133327
18,82303,129856
18,82717,124017
18,83128,122956
18,83540,117093
18,83953,114738
18,84365,106884
18,84777,107188
18,85190,102143
18,85602,100451
18,86013,99100
18,86425,99739
18,86838,96306
18,87250,92179
18,87662,92310
18,88075,89861
18,88487,89327
18,88898,86610
18,89312,85624
18,89723,83336
18,90135,81018
18,90548,80537
18,90960,77653
18,91372,77894
18,91785,78358
18,92197,75977
18,92608,79137
18,93022,86677
18,93433,100296
18,93845,128202
18,94258,181886
18,94670,281139
18,95082,417165
18,95493,608566
18,95907,856545
18,96318,1138057
18,96730,1399887
18,97143,1630661
18,97555,1752484
18,97967,1805371
18,98380,1733891
18,98792,1586159
18,99203,1416549
18,99617,1228749
19,00028,1043528
19,00440,875979
19,00853,748353
19,01265,629150
19,01677,544954
19,02090,476857
19,02502,440372
19,02913,421598
19,03327,424301
19,03738,460858
19,04150,544275
19,04562,652507
19,04975,804644
19,05387,964953
19,05798,1103638
19,06212,1215637
19,06623,1294986
19,07035,1303050
19,07448,1265258
19,07860,1168376
19,08272,1056089
19,08685,934657
19,09097,806164
19,09508,695454
19,09922,595540
19,10333,508312
19,10745,438069
19,11158,387075
19,11570,333835
19,11982,300303
19,12395,266198
19,12807,249346
19,13218,225511
19,13630,202094
19,14043,189328
19,14455,179537
19,14867,166865
19,15280,160323
19,15692,151779
19,16103,142120
19,16517,138274
19,16928,129597
19,17340,125174
19,17753,119330
19,18165,112729
19,18577,111208
19,18990,105739
19,19402,103424
19,19813,100428
19,20227,95009
19,20638,94785
19,21050,93236
19,21463,90284
19,21875,88133
19,22287,84879
19,22698,82555
19,23112,81418
19,23523,82064
19,23935,81052
19,24348,77668
19,24760,80384
19,25172,75883
19,25585,75040
19,25997,74861
19,26408,71651
19,26822,73048
19,27233,72747
19,27645,70747
19,28058,68004
19,28470,68818
19,28882,65842
19,29295,65323
19,29707,65249
19,30118,64622
19,30532,64977
19,30943,68099
19,31355,76227
19,31767,91942
19,32180,116682
19,32592,160815
19,33003,239677
19,33417,365497
19,33828,555564
19,34240,822750
19,34653,1169002
19,35065,1582238
19,35477,2067319
19,35890,2617509
19,36302,3216080
19,36713,3724559
19,37127,4117344
19,37538,4260224
19,37950,4183232
19,38363,3903031
19,38775,3434953
19,39187,2931191
19,39600,2458660
19,40012,2039991
19,40423,1721171
19,40835,1439454
19,41248,1238211
19,41660,1066048
19,42072,922413
19,42485,817385
19,42897,727186
19,43308,668530
19,43722,592797
19,44133,548819
19,44545,491968
19,44958,461909
19,45370,420224
19,45782,394463
19,46195,367136
19,46607,342596
19,47018,330301
19,47432,306583
19,47843,289786
19,48255,274990
19,48668,257278
19,49080,247015
19,49492,233005
19,49903,224306
19,50317,216035
19,50728,210354
19,51140,200819
19,51553,191119
19,51965,182759
19,52377,179939
19,52790,168348
19,53202,167093
19,53613,160890
19,54027,159904
19,54438,151028
19,54850,145160
19,55263,145027
19,55675,136756
19,56087,136382
19,56500,136372
19,56912,132449
19,57323,129787
19,57737,123378
19,58148,123808
19,58560,121859
19,58972,119137
19,59385,117374
19,59797,111687
19,60208,111234
19,60622,109612
19,61033,108554
19,61445,106143
19,61858,104496
19,62270,101730
19,62682,101548
19,63095,99666
19,63507,96347
19,63918,91993
19,64332,92345
19,64743,91945
19,65155,88783
19,65568,87697
19,65980,88445
19,66392,87493
19,66805,87238
19,67217,86912
19,67628,83847
19,68040,84621
19,68453,81965
19,68865,84854
19,69277,84641
19,69690,84380
19,70102,99269
19,70513,110956
19,70927,143418
19,71338,189987
19,71750,268185
19,72163,384350
19,72575,544747
19,72987,748872
19,73400,992119
19,73812,1269882
19,74223,1548060
19,74637,1752561
19,75048,1893134
19,75460,1910037
19,75873,1849011
19,76285,1717065
19,76697,1552272
19,77108,1378554
19,77522,1196353
19,77933,1042922
19,78345,900152
19,78758,795104
19,79170,699560
19,79582,611291
19,79995,544682
19,80407,490802
19,80818,444116
19,81232,401060
19,81643,362931
19,82055,334342
19,82468,311336
19,82880,295635
19,83292,273856
19,83705,259589
19,84117,244782
19,84528,225098
19,84942,219848
19,85353,210287
19,85765,195308
19,86177,186885
19,86590,180472
19,87002,172832
19,87413,168204
19,87827,157637
19,88238,152666
19,88650,145190
19,89063,144760
19,89475,136056
19,89887,132723
19,90300,130470
19,90712,128444
19,91123,124086
19,91537,122119
19,91948,118633
19,92360,111140
19,92773,113054
19,93185,110554
19,93597,109139
19,94010,105195
19,94422,100168
19,94833,98395
19,95245,99168
19,95658,95307
19,96070,97586
19,96482,95983
19,96895,91136
19,97307,90218
19,97718,88058
19,98132,87968
19,98543,86180
19,98955,84852
19,99368,83383
19,99780,84064
20,00192,84776
20,00605,82810
20,01017,83135
20,01428,77956
20,01842,77461
20,02253,78256
20,02665,79129
20,03078,76706
20,03490,77094
20,03902,79046
20,04315,73411
20,04727,77302
20,05138,76664
20,05550,76864
20,05963,79150
20,06375,76573
20,06787,74055
20,07200,77213
20,07612,75944
20,08023,75403
20,08437,75233
20,08848,73442
20,09260,70224
20,09673,71894
20,10085,70948
20,10497,69627
20,10910,70571
20,11322,66479
20,11733,68169
20,12147,66546
20,12558,63900
20,12970,63779
20,13383,62176
20,13795,61116
20,14207,62232
20,14618,64605
20,15032,67654
20,15443,71703
20,15855,76657
20,16268,81367
20,16680,86838
20,17092,96754
20,17505,107352
20,17917,113757
20,18328,123230
20,18742,127538
20,19153,127672
20,19565,128718
20,19978,124418
20,20390,124417
20,20802,118828
20,21215,109496
20,21627,103569
20,22038,96725
20,22452,92088
20,22863,87637
20,23275,82750
20,23687,77872
20,24100,77476
20,24512,69637
20,24923,68036
20,25337,66111
20,25748,65262
20,26160,63461
20,26573,62219
20,26985,60225
20,27397,61781
20,27810,60526
20,28222,59235
20,28633,58190
20,29047,59111
20,29458,58853
20,29870,56173
20,30283,57718
20,30695,57938
20,31107,57746
20,31520,55276
20,31932,55442
20,32343,55078
20,32755,55815
20,33168,53916
20,33580,54633
20,33992,56129
20,34405,53523
20,34817,53894
20,35228,55309
20,35642,51795
20,36053,48807
20,36465,50019
20,36878,52360
20,37290,50491
20,37702,50728
20,38115,50999
20,38527,49577
20,38938,51030
20,39352,51701
20,39763,49719
20,40175,50063
20,40588,50018
20,41000,48681
20,41412,51219
20,41823,51267
20,42237,48962
20,42648,52563
20,43060,51266
20,43473,48704
20,43885,49271
20,44297,51104
20,44710,49859
20,45122,51306
20,45533,50964
20,45947,51023
20,46358,49616
20,46770,49747
20,47183,48783
20,47595,50451
20,48007,46123
20,48420,44747
20,48832,47877
20,49243,49185
20,49657,45224
20,50068,49082
20,50480,46901
20,50892,48182
20,51305,46919
20,51717,46310
20,52128,45693
20,52542,45080
20,52953,45223
20,53365,47437
20,53778,45819
20,54190,47543
20,54602,47368
20,55015,43003
20,55427,46127
20,55838,46589
20,56252,46186
20,56663,46978
20,57075,46925
20,57488,47441
20,57900,46948
20,58312,46314
20,58725,46217
20,59137,45318
20,59548,46445
20,59960,42801
20,60373,43642
20,60785,47455
20,61197,44462
20,61610,47640
20,62022,46903
20,62433,47842
20,62847,50064
20,63258,45697
20,63670,46677
20,64083,45090
20,64495,47941
20,64907,43597
20,65320,44614
20,65732,46661
20,66143,42363
20,66557,44482
20,66968,44809
20,67380,43315
20,67793,45402
20,68205,45155
20,68617,45297
20,69028,44544
20,69442,42587
20,69853,42471
20,70265,41667
20,70678,42857
20,71090,43693
20,71502,43143
20,71915,41844
20,72327,45152
20,72738,42730
20,73152,40830
20,73563,42614
20,73975,40969
20,74388,43675
20,74800,41978
20,75212,42957
20,75625,42760
20,76037,42874
20,76448,42702
20,76862,41546
20,77273,42680
20,77685,43262
20,78097,44207
20,78510,45178
20,78922,41940
20,79333,42158
20,79747,41499
20,80158,42821
20,80570,42404
20,80983,42852
20,81395,42118
20,81807,42704
20,82220,42943
20,82632,42035
20,83043,43084
20,83457,42600
20,83868,44465
20,84280,54212
20,84693,61478
20,85105,75469
20,85517,94999
20,85930,126573
20,86342,163228
20,86753,223712
20,87165,303814
20,87578,387066
20,87990,487225
20,88402,584915
20,88815,671764
20,89227,738194
20,89638,791046
20,90052,811394
20,90463,802281
20,90875,779735
20,91288,739187
20,91700,681775
20,92112,620957
20,92525,555947
20,92937,503578
20,93348,447552
20,93762,395840
20,94173,354889
20,94585,320086
20,94998,285433
20,95410,263329
20,95822,239435
20,96233,218947
20,96647,198656
20,97058,188500
20,97470,172015
20,97883,163344
20,98295,148900
20,98707,142386
20,99120,135395
20,99532,127983
20,99943,122889
21,00357,116381
21,00768,114389
21,01180,112137
21,01593,102467
21,02005,101132
21,02417,97544
21,02830,97480
21,03242,93209
21,03653,89689
21,04067,87702
21,04478,85425
21,04890,82438
21,05302,79830
21,05715,78129
21,06127,76827
21,06538,75071
21,06952,74354
21,07363,75143
21,07775,70818
21,08188,70502
21,08600,67884
21,09012,68325
21,09425,67963
21,09837,64061
21,10248,64141
21,10662,62266
21,11073,64616
21,11485,66094
21,11898,60500
21,12310,61902
21,12722,63780
21,13135,59513
21,13547,60915
21,13958,59051
21,14370,55928
21,14783,58623
21,15195,56620
21,15607,56993
21,16020,52864
21,16432,55113
21,16843,54327
21,17257,55226
21,17668,55021
21,18080,53403
21,18493,54340
21,18905,50877
21,19317,53918
21,19730,55870
21,20142,53364
21,20553,53283
21,20967,49667
21,21378,49486
21,21790,51553
21,22203,50923
21,22615,51360
21,23027,50433
21,23438,50438
21,23852,48721
21,24263,49371
21,24675,50245
21,25088,49647
21,25500,47582
21,25912,51626
21,26325,49346
21,26737,47670
21,27148,46004
21,27562,48730
21,27973,47267
21,28385,45184
21,28798,47086
21,29210,47124
21,29622,49501
21,30035,46821
21,30447,46347
21,30858,49097
21,31272,44845
21,31683,48033
21,32095,47454
21,32507,44704
21,32920,45497
21,33332,49262
21,33743,46031
21,34157,46831
21,34568,44136
21,34980,45403
21,35393,44521
21,35805,47019
21,36217,46404
21,36630,46837
21,37042,45890
21,37453,45943
21,37867,44933
21,38278,48032
21,38690,44976
21,39103,47018
21,39515,46608
21,39927,47894
21,40340,42674
21,40752,45624
21,41163,45065
21,41575,44724
21,41988,43510
21,42400,44086
21,42812,43326
21,43225,45380
21,43637,44082
21,44048,44544
21,44462,42234
21,44873,44186
21,45285,44979
21,45698,44910
21,46110,42791
21,46522,42708
21,46935,41826
21,47347,42830
21,47758,43890
21,48172,45908
21,48583,42835
21,48995,44435
21,49408,44919
21,49820,45727
21,50232,43314
21,50643,41864
21,51057,42618
21,51468,46153
21,51880,44966
21,52293,44149
21,52705,43380
21,53117,45945
21,53530,41817
21,53942,42800
21,54353,41284
21,54767,46170
21,55178,43494
21,55590,44916
21,56003,43697
21,56415,44568
21,56827,43587
21,57240,43067
21,57652,45259
21,58063,45466
21,58477,44394
21,58888,45635
21,59300,43815
21,59712,42188
21,60125,42691
21,60537,43966
21,60948,43964
21,61362,44539
21,61773,44177
21,62185,41792
21,62598,44979
21,63010,44470
21,63422,44938
21,63835,43587
21,64247,43769
21,64658,45432
21,65072,44036
21,65483,44207
21,65895,43653
21,66308,42440
21,66720,43558
21,67132,42835
21,67545,42270
21,67957,44216
21,68368,44526
21,68782,41604
21,69193,43628
21,69605,41624
21,70017,43667
21,70430,42146
21,70842,42152
21,71253,42872
21,71667,42863
21,72078,42790
21,72490,40638
21,72903,40914
21,73315,40128
21,73727,42957
21,74140,42215
21,74552,41921
21,74963,40139
21,75377,41955
21,75788,42242
21,76200,39300
21,76613,42736
21,77025,40800
21,77437,38879
21,77850,43005
21,78262,42655
21,78673,40650
21,79085,42003
21,79498,42646
21,79910,40998
21,80322,42006
21,80735,41705
21,81147,40257
21,81558,40574
21,81972,42702
21,82383,40074
21,82795,40838
21,83208,42469
21,83620,42788
21,84032,40949
21,84445,43152
21,84857,43255
21,85268,39966
21,85682,41155
21,86093,40515
21,86505,40674
21,86918,41496
21,87330,39505
21,87742,43274
21,88153,42154
21,88567,40932
21,88978,39751
21,89390,41973
21,89803,40844
21,90215,41551
21,90627,40903
21,91040,40537
21,91452,39352
21,91863,42469
21,92277,43219
21,92688,41177
21,93100,42410
21,93513,40092
21,93925,40880
21,94337,43195
21,94750,44332
21,95162,41943
21,95573,43702
21,95987,43662
21,96398,44229
21,96810,44532
21,97222,43077
21,97635,46279
21,98047,44872
21,98458,45396
21,98872,42368
21,99283,45022
21,99695,43724
22,00108,40232
22,00520,41554
22,00932,43211
22,01345,44148
22,01757,42270
22,02168,41983
22,02582,43488
22,02993,41040
22,03405,42407
22,03818,42059
22,04230,41970
22,04642,43362
22,05055,40075
22,05467,42926
22,05878,42152
22,06290,39860
22,06703,39215
22,07115,40399
22,07527,41324
22,07940,39596
22,08352,42780
22,08763,40667
22,09177,40884
22,09588,38859
22,10000,36776
22,10413,40056
22,10825,39662
22,11237,40599
22,11650,38347
22,12062,39543
22,12473,37309
22,12887,39200
22,13298,37601
22,13710,38912
22,14123,38355
22,14535,40225
22,14947,40541
22,15358,36588
22,15772,38273
22,16183,39928
22,16595,38868
22,17008,38528
22,17420,36605
22,17832,41159
22,18245,38312
22,18657,39040
22,19068,39451
22,19482,39900
22,19893,37063
22,20305,40444
22,20718,39385
22,21130,38386
22,21542,37347
22,21955,39315
22,22367,40736
22,22778,38654
22,23192,40701
22,23603,41761
22,24015,39669
22,24427,37603
22,24840,41365
22,25252,40665
22,25663,39253
22,26077,38080
22,26488,39845
22,26900,39696
22,27313,41030
22,27725,36307
22,28137,37396
22,28550,35920
22,28962,39124
22,29373,38075
22,29787,37785
22,30198,38565
22,30610,35976
22,31023,39907
22,31435,37307
22,31847,38437
22,32260,40785
22,32672,41366
22,33083,38420
22,33495,39039
22,33908,39269
22,34320,38471
22,34732,39967
22,35145,40050
22,35557,37292
22,35968,37554
22,36382,38217
22,36793,37387
22,37205,37811
22,37618,37160
22,38030,40279
22,38442,39746
22,38855,37929
22,39267,34567
22,39678,41297
22,40092,39622
22,40503,40034
22,40915,40659
22,41328,40223
22,41740,37886
22,42152,36452
22,42563,37443
22,42977,36922
22,43388,39554
22,43800,40403
22,44213,40569
22,44625,39372
22,45037,38585
22,45450,38928
22,45862,40144
22,46273,35981
22,46687,38506
22,47098,36588
22,47510,38547
22,47923,39801
22,48335,37519
22,48747,39853
22,49160,38092
22,49572,36162
22,49983,39051
22,50397,37917
22,50808,37951
22,51220,37363
22,51632,37892
22,52045,39527
22,52457,36752
22,52868,38499
22,53282,37696
22,53693,39483
22,54105,38794
22,54518,38105
22,54930,37179
22,55342,37088
22,55755,38259
22,56167,38187
22,56578,38022
22,56992,36941
22,57403,39510
22,57815,38042
22,58228,36450
22,58640,38024
22,59052,38350
22,59465,37932
22,59877,36226
22,60288,35277
22,60700,36284
22,61113,37919
22,61525,39569
22,61937,36352
22,62350,36850
22,62762,38008
22,63173,39557
22,63587,38520
22,63998,38505
22,64410,37343
22,64823,38827
22,65235,39744
22,65647,40399
22,66060,37973
22,66472,38464
22,66883,40100
22,67297,37846
22,67708,39403
22,68120,38513
22,68533,36332
22,68945,35513
22,69357,37181
22,69768,35622
22,70182,36407
22,70593,37519
22,71005,35309
22,71418,38321
22,71830,36620
22,72242,36564
22,72655,37598
22,73067,35628
22,73478,36411
22,73892,37259
22,74303,36768
22,74715,35335
22,75128,37642
22,75540,35902
22,75952,38979
22,76365,38586
22,76777,35586
22,77188,36399
22,77602,34426
22,78013,35616
22,78425,36851
22,78837,37433
22,79250,36280
22,79662,36495
22,80073,36265
22,80487,37253
22,80898,35628
22,81310,35981
22,81723,36873
22,82135,36361
22,82547,37820
22,82960,38777
22,83372,37067
22,83783,38390
22,84197,38623
22,84608,37235
22,85020,35474
22,85433,37857
22,85845,35117
22,86257,36862
22,86670,37238
22,87082,39018
22,87493,38946
22,87905,37648
22,88318,38060
22,88730,36740
22,89142,37330
22,89555,37713
22,89967,37584
22,90378,37533
22,90792,40461
22,91203,36689
22,91615,37742
22,92028,35616
22,92440,38545
22,92852,37562
22,93265,34778
22,93677,35534
22,94088,37477
22,94502,38340
22,94913,38079
22,95325,38575
22,95738,40132
22,96150,38296
22,96562,37605
22,96973,38491
22,97387,41132
22,97798,38345
22,98210,40131
22,98623,39291
22,99035,41206
22,99447,40059
22,99860,41906
23,00272,40506
23,00683,40805
23,01097,40601
23,01508,39096
23,01920,40057
23,02333,36729
23,02745,38291
23,03157,38852
23,03570,38395
23,03982,37065
23,04393,35549
23,04807,37432
23,05218,36387
23,05630,37681
23,06042,39365
23,06455,36973
23,06867,36416
23,07278,37675
23,07692,38304
23,08103,36981
23,08515,35493
23,08928,38105
23,09340,38595
23,09752,37638
23,10165,36638
23,10577,36085
23,10988,38840
23,11402,37802
23,11813,36819
23,12225,35877
23,12638,38530
23,13050,36070
23,13462,37711
23,13875,38045
23,14287,35914
23,14698,34882
23,15110,38556
23,15523,37945
23,15935,37568
23,16347,38717
23,16760,38144
23,17172,35871
23,17583,37038
23,17997,37160
23,18408,35723
23,18820,37898
23,19233,38748
23,19645,37416
23,20057,35227
23,20470,38017
23,20882,36147
23,21293,36535
23,21707,36840
23,22118,35812
23,22530,35776
23,22943,37224
23,23355,37130
23,23767,36215
23,24178,36872
23,24592,36992
23,25003,35523
23,25415,35906
23,25828,36602
23,26240,37965
23,26652,35943
23,27065,36254
23,27477,39654
23,27888,36001
23,28302,36646
23,28713,36393
23,29125,36782
23,29538,37991
23,29950,37812
23,30362,36534
23,30775,37441
23,31187,35835
23,31598,36917
23,32012,36251
23,32423,36164
23,32835,37372
23,33248,37556
23,33660,37982
23,34072,36321
23,34483,36336
23,34897,36213
23,35308,35637
23,35720,37984
23,36133,35368
23,36545,37045
23,36957,38182
23,37370,33844
23,37782,35167
23,38193,36360
23,38607,37104
23,39018,36339
23,39430,36673
23,39843,37814
23,40255,37563
23,40667,36494
23,41080,38133
23,41492,37502
23,41903,37081
23,42317,37062
23,42728,41929
23,43140,39496
23,43552,40527
23,43965,39069
23,44377,39196
23,44788,41572
23,45202,41808
23,45613,44072
23,46025,43009
23,46438,41698
23,46850,41587
23,47262,42763
23,47675,41564
23,48087,40903
23,48498,39952
23,48912,40078
23,49323,40023
23,49735,40059
23,50148,41608
23,50560,39352
23,50972,38159
23,51385,37814
23,51797,38793
23,52208,38191
23,52620,38536
23,53033,37105
23,53445,38645
23,53857,36452
23,54270,37551
23,54682,35731
23,55093,35541
23,55507,36831
23,55918,39106
23,56330,37928
23,56743,37893
23,57155,37366
23,57567,37404
23,57980,34583
23,58392,37442
23,58803,36126
23,59217,36172
23,59628,37629
23,60040,36696
23,60453,36636
23,60865,34797
23,61277,36640
23,61688,36879
23,62102,36052
23,62513,36920
23,62925,37397
23,63338,36035
23,63750,36851
23,64162,36384
23,64575,35743
23,64987,37105
23,65398,36651
23,65812,38076
23,66223,38891
23,66635,38368
23,67048,39982
23,67460,33631
23,67872,36404
23,68285,36480
23,68697,35303
23,69108,37057
23,69522,34876
23,69933,37833
23,70345,35304
23,70757,34693
23,71170,35525
23,71582,35960
23,71993,34355
23,72407,37151
23,72818,36055
23,73230,37060
23,73643,38326
23,74055,38946
23,74467,37475
23,74880,36118
23,75292,35223
23,75703,36716
23,76117,36175
23,76528,37134
23,76940,34380
23,77353,36625
23,77765,37608
23,78177,33788
23,78590,35958
23,79002,35996
23,79413,35826
23,79825,36992
23,80238,34955
23,80650,39152
23,81062,38693
23,81475,36157
23,81887,36597
23,82298,35992
23,82712,36104
23,83123,37336
23,83535,34301
23,83948,35841
23,84360,35367
23,84772,38261
23,85185,36342
23,85597,36092
23,86008,37230
23,86422,33837
23,86833,35885
23,87245,34862
23,87658,34423
23,88070,35008
23,88482,35617
23,88893,35861
23,89307,35814
23,89718,35933
23,90130,39258
23,90543,36191
23,90955,37790
23,91367,36384
23,91780,35151
23,92192,35555
23,92603,37507
23,93017,35628
23,93428,36041
23,93840,36333
23,94253,35308
23,94665,35857
23,95077,35729
23,95490,35043
23,95902,35301
23,96313,37144
23,96727,36081
23,97138,35385
23,97550,35545
23,97962,36336
23,98375,34393
23,98787,34731
23,99198,33431
23,99612,35361
24,00023,35855
24,00435,34786
24,00848,35311
24,01260,32563
24,01672,33819
24,02085,36590
24,02497,34895
24,02908,36129
24,03322,34452
24,03733,34252
24,04145,35105
24,04558,34297
24,04970,34797
24,05382,36524
24,05795,37408
24,06207,33975
24,06618,36485
24,07030,35175
24,07443,37461
24,07855,34994
24,08267,36085
24,08680,35047
24,09092,34223
24,09503,35130
24,09917,33226
24,10328,35520
24,10740,33885
24,11153,35944
24,11565,35263
24,11977,36280
24,12390,36994
24,12802,35562
24,13213,33321
24,13627,35321
24,14038,36818
24,14450,36999
24,14863,36010
24,15275,34660
24,15687,36494
24,16098,33535
24,16512,35179
24,16923,38150
24,17335,34880
24,17748,38025
24,18160,35868
24,18572,33729
24,18985,35065
24,19397,35269
24,19808,35726
24,20222,34206
24,20633,36444
24,21045,33273
24,21458,35557
24,21870,34883
24,22282,34369
24,22695,33149
24,23107,35430
24,23518,35910
24,23932,34301
24,24343,33129
24,24755,36667
24,25167,34578
24,25580,34173
24,25992,33819
24,26403,35184
24,26817,35196
24,27228,36073
24,27640,34078
24,28053,33759
24,28465,37632
24,28877,35948
24,29290,33844
24,29702,32895
24,30113,32526
24,30527,34947
24,30938,34466
24,31350,35576
24,31763,35004
24,32175,32471
24,32587,34433
24,33000,33529
24,33412,36054
24,33823,35899
24,34235,34944
24,34648,32662
24,35060,37649
24,35472,35526
24,35885,36535
24,36297,35134
24,36708,32959
24,37122,36214
24,37533,34077
24,37945,35566
24,38358,36345
24,38770,34209
24,39182,36566
24,39595,35481
24,40007,36008
24,40418,35727
24,40832,36024
24,41243,37751
24,41655,34749
24,42068,35004
24,42480,36690
24,42892,34796
24,43303,33742
24,43717,36969
24,44128,35749
24,44540,35836
24,44953,35976
24,45365,34503
24,45777,35657
24,46190,34171
24,46602,32675
24,47013,36741
24,47427,34816
24,47838,36801
24,48250,36253
24,48663,37538
24,49075,36266
24,49487,34928
24,49900,35514
24,50312,36354
24,50723,36306
24,51137,35737
24,51548,35233
24,51960,35074
24,52372,35650
24,52785,38056
24,53197,36986
24,53608,36714
24,54022,35436
24,54433,37795
24,54845,34048
24,55258,36126
24,55670,36643
24,56082,37383
24,56495,34973
24,56907,34369
24,57318,34006
24,57732,36617
24,58143,36156
24,58555,35755
24,58968,36068
24,59380,35712
24,59792,35373
24,60205,36209
24,60617,33686
24,61028,34931
24,61440,36463
24,61853,34758
24,62265,35335
24,62677,35601
24,63090,34659
24,63502,36246
24,63913,34184
24,64327,35950
24,64738,35876
24,65150,37437
24,65563,33614
24,65975,36698
24,66387,36305
24,66800,37836
24,67212,33243
24,67623,35597
24,68037,32940
24,68448,35276
24,68860,35176
24,69273,34001
24,69685,33768
24,70097,35228
24,70508,36430
24,70922,34121
24,71333,35908
24,71745,33909
24,72158,33674
24,72570,33156
24,72982,33396
24,73395,36707
24,73807,32918
24,74218,35388
24,74632,34813
24,75043,34411
24,75455,35853
24,75868,35410
24,76280,34252
24,76692,35016
24,77105,34997
24,77517,35100
24,77928,33186
24,78342,33769
24,78753,36183
24,79165,35596
24,79577,34527
24,79990,34541
24,80402,35414
24,80813,33515
24,81227,34522
24,81638,36606
24,82050,36077
24,82463,32788
24,82875,33719
24,83287,35252
24,83700,35828
24,84112,33292
24,84523,35661
24,84937,34789
24,85348,35874
24,85760,37381
24,86173,34800
24,86585,36618
24,86997,35977
24,87410,36704
24,87822,35300
24,88233,34834
24,88645,36561
24,89058,33904
24,89470,36855
24,89882,34954
24,90295,35534
24,90707,35468
24,91118,35028
24,91532,34146
24,91943,35194
24,92355,37822
24,92768,32586
24,93180,36766
24,93592,34664
24,94005,34215
24,94417,32837
24,94828,35045
24,95242,33944
24,95653,34699
24,96065,33945
24,96478,35813
24,96890,32781
24,97302,33151
24,97715,35778
24,98127,36367
24,98538,33421
24,98950,33927
24,99363,35159
24,99775,32392
25,00187,33833
25,00600,35746
25,01012,36966
25,01423,34389
25,01837,35785
25,02248,34832
25,02660,31590
25,03073,38386
25,03485,32849
25,03897,33113
25,04310,32911
25,04722,34838
25,05133,34113
25,05547,33508
25,05958,31985
25,06370,32727
25,06783,36454
25,07195,33872
25,07607,32737
25,08018,34833
25,08432,33799
25,08843,32666
25,09255,34454
25,09668,32990
25,10080,33517
25,10492,34087
25,10905,31920
25,11317,34356
25,11728,34061
25,12142,32658
25,12553,35300
25,12965,33231
25,13378,33831
25,13790,32208
25,14202,33758
25,14615,32473
25,15027,33199
25,15438,32821
25,15852,32949
25,16263,32753
25,16675,34551
25,17087,34111
25,17500,35081
25,17912,34346
25,18323,34781
25,18737,32580
25,19148,32181
25,19560,33465
25,19973,33136
25,20385,32973
25,20797,34803
25,21210,33452
25,21622,33068
25,22033,32496
25,22447,33338
25,22858,32419
25,23270,32633
25,23683,32240
25,24095,32544
25,24507,32507
25,24920,34561
25,25332,33946
25,25743,32778
25,26155,36128
25,26568,31582
25,26980,33759
25,27392,33919
25,27805,31893
25,28217,33571
25,28628,35373
25,29042,35131
25,29453,34248
25,29865,36451
25,30278,37766
25,30690,35896
25,31102,34875
25,31515,35997
25,31927,32947
25,32338,34464
25,32752,36291
25,33163,33823
25,33575,34515
25,33988,36032
25,34400,35303
25,34812,36122
25,35223,36048
25,35637,35241
25,36048,36403
25,36460,35626
25,36873,34903
25,37285,34090
25,37697,34826
25,38110,33864
25,38522,34696
25,38933,33685
25,39347,35841
25,39758,35634
25,40170,34936
25,40583,35463
25,40995,33030
25,41407,34870
25,41820,31829
25,42232,34681
25,42643,35536
25,43057,36915
25,43468,34354
25,43880,33712
25,44292,33634
25,44705,35570
25,45117,35002
25,45528,32939
25,45942,33232
25,46353,35352
25,46765,33240
25,47178,34748
25,47590,32081
25,48002,32543
25,48415,34594
25,48827,35136
25,49238,35230
25,49652,34032
25,50063,34817
25,50475,30353
25,50888,32493
25,51300,33965
25,51712,31213
25,52125,35900
25,52537,31024
25,52948,32939
25,53360,33337
25,53773,36543
25,54185,34317
25,54597,31263
25,55010,36503
25,55422,33136
25,55833,34184
25,56247,33387
25,56658,31630
25,57070,31694
25,57483,31510
25,57895,34844
25,58307,32679
25,58720,31909
25,59132,34366
25,59543,33070
25,59957,31416
25,60368,33406
25,60780,34101
25,61193,35110
25,61605,31419
25,62017,34131
25,62428,33606
25,62842,33838
25,63253,32311
25,63665,35322
25,64078,32891
25,64490,32302
25,64902,34213
25,65315,31987
25,65727,30843
25,66138,32596
25,66552,31952
25,66963,33764
25,67375,32102
25,67788,34207
25,68200,33295
25,68612,33017
25,69025,31898
25,69437,33812
25,69848,31040
25,70262,33965
25,70673,33331
25,71085,32611
25,71497,36661
25,71910,31960
25,72322,34048
25,72733,31649
25,73147,33977
25,73558,35494
25,73970,33897
25,74383,34923
25,74795,33977
25,75207,35109
25,75620,34684
25,76032,34674
25,76443,36830
25,76857,33082
25,77268,32800
25,77680,32711
25,78093,31854
25,78505,35901
25,78917,34528
25,79330,32841
25,79742,33939
25,80153,32758
25,80565,35243
25,80978,35547
25,81390,33555
25,81802,31450
25,82215,32983
25,82627,34801
25,83038,35939
25,83452,32898
25,83863,36774
25,84275,33205
25,84688,33119
25,85100,34034
25,85512,35142
25,85925,34471
25,86337,36015
25,86748,33281
25,87162,33362
25,87573,34304
25,87985,31512
25,88398,34113
25,88810,31029
25,89222,33925
25,89633,33823
25,90047,31240
25,90458,33336
25,90870,33137
25,91283,35547
25,91695,33600
25,92107,32800
25,92520,34156
25,92932,34773
25,93343,35262
25,93757,33764
25,94168,31651
25,94580,33043
25,94993,33352
25,95405,35396
25,95817,32448
25,96230,33751
25,96642,33586
25,97053,33006
25,97467,33829
25,97878,33757
25,98290,32121
25,98702,34142
25,99115,32928
25,99527,33289
25,99938,34254
26,00352,32431
26,00763,30208
26,01175,32616
26,01588,34050
26,02000,31767
26,02412,32418
26,02825,34032
26,03237,32029
26,03648,33759
26,04062,31788
26,04473,34216
26,04885,33885
26,05298,35647
26,05710,32930
26,06122,32122
26,06535,33962
26,06947,34067
26,07358,34400
26,07770,33831
26,08183,34172
26,08595,33718
26,09007,32880
26,09420,31861
26,09832,33336
26,10243,31066
26,10657,33862
26,11068,33614
26,11480,31339
26,11893,33747
26,12305,34546
26,12717,34105
26,13130,35408
26,13542,34328
26,13953,33435
26,14367,32514
26,14778,32521
26,15190,32520
26,15603,33601
26,16015,34362
26,16427,35249
26,16838,33574
26,17252,32802
26,17663,33668
26,18075,35450
26,18488,32689
26,18900,32393
26,19312,31422
26,19725,32177
26,20137,32633
26,20548,35158
26,20962,33533
26,21373,34636
26,21785,30907
26,22198,32546
26,22610,33903
26,23022,32702
26,23435,34790
26,23847,33458
26,24258,31431
26,24672,31769
26,25083,32720
26,25495,31692
26,25907,30490
26,26320,33406
26,26732,32387
26,27143,32157
26,27557,33865
26,27968,35107
26,28380,34390
26,28793,34020
26,29205,30588
26,29617,32357
26,30030,31570
26,30442,33002
26,30853,32023
26,31267,33317
26,31678,33072
26,32090,33773
26,32503,32319
26,32915,31589
26,33327,33261
26,33740,31773
26,34152,33666
26,34563,32463
26,34975,33635
26,35388,32135
26,35800,31610
26,36212,33693
26,36625,32412
26,37037,34300
26,37448,32114
26,37862,32566
26,38273,31763
26,38685,34511
26,39098,32599
26,39510,33301
26,39922,31968
26,40335,36674
26,40747,31263
26,41158,35970
26,41572,32624
26,41983,34624
26,42395,34938
26,42808,33761
26,43220,32354
26,43632,34501
26,44043,31714
26,44457,32519
26,44868,31925
26,45280,32420
26,45693,32420
26,46105,31744
26,46517,32080
26,46930,31747
26,47342,33011
26,47753,33675
26,48167,33414
26,48578,31869
26,48990,33931
26,49403,32293
26,49815,34410
26,50227,32899
26,50640,35620
26,51052,30875
26,51463,33482
26,51877,31944
26,52288,30472
26,52700,30319
26,53113,30680
26,53525,31690
26,53937,32898
26,54348,34305
26,54762,31460
26,55173,34690
26,55585,33179
26,55998,33288
26,56410,34463
26,56822,32544
26,57235,32536
26,57647,31594
26,58058,30918
26,58472,31419
26,58883,32373
26,59295,32960
26,59708,34343
26,60120,32398
26,60532,32166
26,60945,31366
26,61357,31241
26,61768,32890
26,62182,33490
26,62593,32443
26,63005,32127
26,63417,31673
26,63830,32154
26,64242,32157
26,64653,32645
26,65067,32012
26,65478,31181
26,65890,33041
26,66303,31545
26,66715,32604
26,67127,33131
26,67540,32492
26,67952,32034
26,68363,32025
26,68777,32128
26,69188,31679
26,69600,31203
26,70013,31856
26,70425,33194
26,70837,32689
26,71250,31867
26,71662,33853
26,72073,33835
26,72485,32479
26,72898,31552
26,73310,31612
26,73722,32669
26,74135,31654
26,74547,32337
26,74958,33343
26,75372,33600
26,75783,31951
26,76195,32297
26,76608,33316
26,77020,31037
26,77432,31542
26,77845,32201
26,78257,31520
26,78668,31368
26,79082,32444
26,79493,32407
26,79905,33296
26,80318,32983
26,80730,32584
26,81142,32680
26,81553,32695
26,81967,31913
26,82378,29003
26,82790,32679
26,83203,33106
26,83615,31046
26,84027,32879
26,84440,32390
26,84852,30997
26,85263,33071
26,85677,29475
26,86088,33126
26,86500,32285
26,86913,33061
26,87325,34070
26,87737,32931
26,88150,33895
26,88562,32210
26,88973,32051
26,89387,31672
26,89798,30320
26,90210,32126
26,90622,33815
26,91035,34574
26,91447,32539
26,91858,32043
26,92272,32951
26,92683,35039
26,93095,32992
26,93508,34777
26,93920,32097
26,94332,33446
26,94745,29166
26,95157,33379
26,95568,35708
26,95982,31542
26,96393,31598
26,96805,31226
26,97218,31359
26,97630,33194
26,98042,30751
26,98455,33429
26,98867,32113
26,99278,30614
26,99690,31979
27,00103,33087
27,00515,30196
27,00927,31468
27,01340,32924
27,01752,32211
27,02163,31164
27,02577,32249
27,02988,32774
27,03400,32161
27,03813,32782
27,04225,32733
27,04637,30571
27,05050,31126
27,05462,32958
27,05873,29669
27,06287,32223
27,06698,34096
27,07110,32369
27,07523,29753
27,07935,32160
27,08347,33334
27,08758,29916
27,09172,31935
27,09583,31870
27,09995,30515
27,10408,32304
27,10820,32091
27,11232,31727
27,11645,32168
27,12057,32232
27,12468,34012
27,12882,30520
27,13293,34489
27,13705,32799
27,14118,31264
27,14530,32279
27,14942,32947
27,15355,34995
27,15767,34128
27,16178,34644
27,16592,33465
27,17003,34628
27,17415,32576
27,17827,33374
27,18240,33257
27,18652,35687
27,19063,31207
27,19477,33490
27,19888,33705
27,20300,33751
27,20713,35200
27,21125,36857
27,21537,32650
27,21950,37795
27,22362,34666
27,22773,33437
27,23187,34663
27,23598,32167
27,24010,34935
27,24423,34591
27,24835,35332
27,25247,32952
27,25660,32949
27,26072,33423
27,26483,34788
27,26895,32969
27,27308,34400
27,27720,30757
27,28132,32941
27,28545,31662
27,28957,33125
27,29368,31168
27,29782,33675
27,30193,33482
27,30605,33294
27,31018,34124
27,31430,34670
27,31842,33890
27,32255,33759
27,32667,32211
27,33078,33053
27,33492,34681
27,33903,33304
27,34315,33894
27,34728,33342
27,35140,33184
27,35552,33323
27,35963,37880
27,36377,33776
27,36788,34540
27,37200,32918
27,37613,32894
27,38025,32178
27,38437,34060
27,38850,35934
27,39262,33001
27,39673,32626
27,40087,34544
27,40498,35712
27,40910,34323
27,41323,32060
27,41735,31290
27,42147,33466
27,42560,32627
27,42972,33584
27,43383,36125
27,43797,34826
27,44208,33668
27,44620,34595
27,45032,35098
27,45445,36023
27,45857,33459
27,46268,32944
27,46682,30999
27,47093,34067
27,47505,34131
27,47918,33369
27,48330,33673
27,48742,33945
27,49155,35487
27,49567,33987
27,49978,34757
27,50392,35211
27,50803,34732
27,51215,33286
27,51628,34906
27,52040,32324
27,52452,32986
27,52865,33501
27,53277,35149
27,53688,33114
27,54100,34714
27,54513,33749
27,54925,35196
27,55337,33537
27,55750,35731
27,56162,34021
27,56573,34793
27,56987,34857
27,57398,34741
27,57810,35115
27,58223,33825
27,58635,36491
27,59047,35264
27,59460,34067
27,59872,32580
27,60283,33357
27,60697,34100
27,61108,32825
27,61520,32370
27,61933,34042
27,62345,37146
27,62757,32893
27,63168,32685
27,63582,32402
27,63993,35346
27,64405,32922
27,64818,35454
27,65230,32303
27,65642,32607
27,66055,33401
27,66467,32501
27,66878,35083
27,67292,36901
27,67703,33845
27,68115,35410
27,68528,34623
27,68940,33687
27,69352,34325
27,69765,35726
27,70177,33846
27,70588,34002
27,71002,32979
27,71413,33636
27,71825,33241
27,72237,34765
27,72650,33607
27,73062,33845
27,73473,32651
27,73887,31413
27,74298,32845
27,74710,33840
27,75123,33574
27,75535,35679
27,75947,31668
27,76360,34194
27,76772,31964
27,77183,34548
27,77597,35001
27,78008,34734
27,78420,32972
27,78833,33603
27,79245,33395
27,79657,34180
27,80070,34028
27,80482,31486
27,80893,32082
27,81305,33307
27,81718,34585
27,82130,34405
27,82542,33806
27,82955,32010
27,83367,30324
27,83778,34073
27,84192,34899
27,84603,34542
27,85015,34005
27,85428,31650
27,85840,33686
27,86252,32595
27,86665,34008
27,87077,35067
27,87488,34283
27,87902,33881
27,88313,32424
27,88725,35986
27,89138,36259
27,89550,33968
27,89962,34526
27,90373,33697
27,90787,35097
27,91198,33727
27,91610,33091
27,92023,34601
27,92435,32459
27,92847,31193
27,93260,33304
27,93672,33950
27,94083,34436
27,94497,33672
27,94908,31953
27,95320,36004
27,95733,36541
27,96145,35349
27,96557,34041
27,96970,34929
27,97382,32314
27,97793,35479
27,98207,35034
27,98618,30781
27,99030,31414
27,99442,33194
27,99855,32741
28,00267,33735
28,00678,33935
28,01092,34245
28,01503,32468
28,01915,32288
28,02328,34421
28,02740,33310
28,03152,34654
28,03565,33947
28,03977,35517
28,04388,34065
