D:\MassHunter\GCMS\1\data\Amal\Constant flow\120C\120C_1ml-min_7C-min_1.D Tue Jul 30 15:05:11 2024
Start of data points
5,59093	54718
5,59507	54231
5,59918	51566
5,60330	48715
5,60743	47324
5,61155	46702
5,61567	45071
5,61980	41951
5,62392	43262
5,62803	40877
5,63215	37889
5,63628	37139
5,64040	36639
5,64452	35601
5,64865	35443
5,65277	33454
5,65688	31179
5,66102	31043
5,66513	29733
5,66925	26953
5,67338	28576
5,67750	26197
5,68162	26670
5,68575	25117
5,68987	25085
5,69398	24238
5,69812	23381
5,70223	22848
5,70635	22130
5,71048	22939
5,71460	21416
5,71872	20983
5,72283	19116
5,72697	20505
5,73108	19922
5,73520	19056
5,73933	19511
5,74345	17972
5,74757	19079
5,75170	18386
5,75582	18812
5,75993	18745
5,76407	17562
5,76818	18193
5,77230	18432
5,77643	17279
5,78055	17365
5,78467	17266
5,78880	17628
5,79292	17867
5,79703	17870
5,80117	17473
5,80528	15440
5,80940	16837
5,81352	17144
5,81765	17389
5,82177	16650
5,82588	17216
5,83002	16435
5,83413	16579
5,83825	16962
5,84238	16555
5,84650	17109
5,85062	15812
5,85475	16224
5,85887	16225
5,86298	16607
5,86712	16412
5,87123	15988
5,87535	16155
5,87948	15465
5,88360	15354
5,88772	15705
5,89185	15238
5,89597	14711
5,90008	16584
5,90420	15780
5,90833	15756
5,91245	16939
5,91657	16279
5,92070	15991
5,92482	15646
5,92893	16510
5,93307	15352
5,93718	16777
5,94130	16149
5,94543	15722
5,94955	15402
5,95367	14866
5,95780	13770
5,96192	15225
5,96603	14655
5,97017	14474
5,97428	16571
5,97840	16005
5,98253	14606
5,98665	14827
5,99077	16388
5,99488	15313
5,99902	17770
6,00313	16475
6,00725	15010
6,01138	16447
6,01550	17339
6,01962	16239
6,02375	15903
6,02787	16222
6,03198	16134
6,03612	16282
6,04023	15788
6,04435	15964
6,04848	15279
6,05260	16538
6,05672	14704
6,06085	15340
6,06497	16106
6,06908	14894
6,07322	14215
6,07733	14399
6,08145	14679
6,08557	13606
6,08970	13567
6,09382	13886
6,09793	14894
6,10207	16136
6,10618	14643
6,11030	13671
6,11443	15722
6,11855	13386
6,12267	13230
6,12680	14174
6,13092	13997
6,13503	13912
6,13917	13403
6,14328	14102
6,14740	14338
6,15153	13689
6,15565	13940
6,15977	13215
6,16390	13983
6,16802	14295
6,17213	13385
6,17625	13659
6,18038	14664
6,18450	13762
6,18862	13265
6,19275	13463
6,19687	12857
6,20098	13401
6,20512	14163
6,20923	13485
6,21335	14493
6,21748	14324
6,22160	12956
6,22572	13873
6,22985	13808
6,23397	13465
6,23808	14463
6,24222	15587
6,24633	15968
6,25045	13955
6,25458	13326
6,25870	13710
6,26282	13329
6,26693	15624
6,27107	13050
6,27518	12494
6,27930	13869
6,28343	12484
6,28755	12825
6,29167	13730
6,29580	12225
6,29992	12324
6,30403	13127
6,30817	13450
6,31228	11961
6,31640	12233
6,32053	12395
6,32465	12074
6,32877	11947
6,33290	11010
6,33702	12009
6,34113	12423
6,34527	11060
6,34938	11273
6,35350	11365
6,35762	11951
6,36175	12300
6,36587	10787
6,36998	11839
6,37412	11305
6,37823	11712
6,38235	11515
6,38648	10538
6,39060	10239
6,39472	10796
6,39885	10189
6,40297	10901
6,40708	10653
6,41122	9799
6,41533	10198
6,41945	10698
6,42358	10338
6,42770	10740
6,43182	10329
6,43595	10839
6,44007	9338
6,44418	11190
6,44830	10154
6,45243	10965
6,45655	9376
6,46067	10868
6,46480	11027
6,46892	10477
6,47303	10187
6,47717	10583
6,48128	9067
6,48540	10160
6,48953	10516
6,49365	9858
6,49777	9522
6,50190	10397
6,50602	10171
6,51013	10668
6,51427	10707
6,51838	11723
6,52250	10043
6,52663	10453
6,53075	10754
6,53487	11506
6,53900	10881
6,54312	12159
6,54723	11539
6,55135	14106
6,55548	16778
6,55960	23421
6,56372	38918
6,56785	63613
6,57197	103082
6,57608	158537
6,58022	223667
6,58433	298282
6,58845	364781
6,59258	421224
6,59670	460862
6,60082	483883
6,60495	480691
6,60907	473660
6,61318	454395
6,61732	432044
6,62143	409317
6,62555	382965
6,62968	358108
6,63380	336179
6,63792	312756
6,64203	288034
6,64617	267865
6,65028	247311
6,65440	234821
6,65853	219352
6,66265	200175
6,66677	185633
6,67090	175787
6,67502	157066
6,67913	148005
6,68327	138669
6,68738	127802
6,69150	115287
6,69563	105486
6,69975	99422
6,70387	87239
6,70800	79736
6,71212	73843
6,71623	65658
6,72037	59756
6,72448	53448
6,72860	49329
6,73272	44973
6,73685	38892
6,74097	35238
6,74508	31761
6,74922	30353
6,75333	26966
6,75745	26058
6,76158	22415
6,76570	20911
6,76982	18564
6,77395	17956
6,77807	17659
6,78218	15616
6,78632	15134
6,79043	14496
6,79455	14178
6,79868	13799
6,80280	12042
6,80692	13609
6,81105	12307
6,81517	12432
6,81928	11538
6,82340	11349
6,82753	11066
6,83165	12170
6,83577	11317
6,83990	10132
6,84402	9902
6,84813	10079
6,85227	10185
6,85638	9741
6,86050	10670
6,86463	9831
6,86875	9805
6,87287	10094
6,87700	9748
6,88112	9816
6,88523	8891
6,88937	9216
6,89348	8670
6,89760	10180
6,90173	9166
6,90585	8934
6,90997	9566
6,91408	8804
6,91822	9038
6,92233	9418
6,92645	8665
6,93058	9257
6,93470	9951
6,93882	9321
6,94295	7824
6,94707	9217
6,95118	9404
6,95532	7696
6,95943	8819
6,96355	8734
6,96768	9391
6,97180	8029
6,97592	9092
6,98005	8948
6,98417	9191
6,98828	8916
6,99242	8585
6,99653	8534
7,00065	8790
7,00477	8903
7,00890	8485
7,01302	8967
7,01713	8870
7,02127	8154
7,02538	8267
7,02950	8480
7,03363	7592
7,03775	7581
7,04187	8635
7,04600	8748
7,05012	7944
7,05423	8534
7,05837	7873
7,06248	8377
7,06660	7755
7,07073	6910
7,07485	7152
7,07897	8140
7,08310	7503
7,08722	7700
7,09133	8220
7,09545	8074
7,09958	7125
7,10370	8111
7,10782	8187
7,11195	7345
7,11607	7604
7,12018	7700
7,12432	7081
7,12843	7218
7,13255	7858
7,13668	7579
7,14080	7656
7,14492	7725
7,14905	7920
7,15317	7842
7,15728	7836
7,16142	8365
7,16553	7637
7,16965	7116
7,17378	7015
7,17790	8243
7,18202	7471
7,18613	8060
7,19027	7371
7,19438	8759
7,19850	8283
7,20263	7503
7,20675	7792
7,21087	7510
7,21500	6665
7,21912	6732
7,22323	7086
7,22737	7335
7,23148	6768
7,23560	7921
7,23973	7354
7,24385	6856
7,24797	6767
7,25210	6743
7,25622	7473
7,26033	7352
7,26447	8730
7,26858	12644
7,27270	18381
7,27682	30366
7,28095	50309
7,28507	74653
7,28918	114507
7,29332	155609
7,29743	199976
7,30155	252150
7,30568	281131
7,30980	302289
7,31392	318692
7,31805	322056
7,32217	317439
7,32628	307113
7,33042	291179
7,33453	268095
7,33865	248627
7,34278	228445
7,34690	212898
7,35102	191537
7,35515	175766
7,35927	163299
7,36338	148811
7,36750	130735
7,37163	118810
7,37575	111547
7,37987	101220
7,38400	90629
7,38812	80255
7,39223	71131
7,39637	65314
7,40048	57943
7,40460	49850
7,40873	45381
7,41285	42843
7,41697	36801
7,42110	31475
7,42522	28401
7,42933	25981
7,43347	23381
7,43758	20693
7,44170	18523
7,44583	18413
7,44995	15148
7,45407	14253
7,45818	13886
7,46232	12015
7,46643	10948
7,47055	11591
7,47468	10595
7,47880	11146
7,48292	10240
7,48705	8975
7,49117	8606
7,49528	9413
7,49942	7872
7,50353	8034
7,50765	7379
7,51178	7131
7,51590	7775
7,52002	7713
7,52415	7497
7,52827	7980
7,53238	7135
7,53652	7016
7,54063	7376
7,54475	6751
7,54887	7166
7,55300	7345
7,55712	7041
7,56123	7372
7,56537	7121
7,56948	8121
7,57360	8790
7,57773	7886
7,58185	9849
7,58597	8164
7,59010	9005
7,59422	9768
7,59833	9857
7,60247	9449
7,60658	9320
7,61070	9021
7,61483	8306
7,61895	8075
7,62307	7156
7,62720	8185
7,63132	7702
7,63543	8431
7,63955	7719
7,64368	8114
7,64780	8096
7,65192	6758
7,65605	7506
7,66017	6780
7,66428	6788
7,66842	6729
7,67253	6890
7,67665	6592
7,68078	6682
7,68490	5969
7,68902	7093
7,69315	6867
7,69727	5852
7,70138	6019
7,70552	6097
7,70963	6470
7,71375	5693
7,71788	5933
7,72200	5611
7,72612	6048
7,73023	5540
7,73437	5498
7,73848	5296
7,74260	5917
7,74673	6445
7,75085	5702
7,75497	4865
7,75910	5079
7,76322	4876
7,76733	5275
7,77147	5044
7,77558	6107
7,77970	6123
7,78383	5550
7,78795	5146
7,79207	5530
7,79620	5124
7,80032	5603
7,80443	5028
7,80857	5292
7,81268	5596
7,81680	5477
7,82092	5709
7,82505	5128
7,82917	5380
7,83328	4434
7,83742	6022
7,84153	5232
7,84565	5688
7,84978	4833
7,85390	5867
7,85802	4968
7,86215	4689
7,86627	5297
7,87038	5856
7,87452	5088
7,87863	5011
7,88275	5050
7,88688	5477
7,89100	5158
7,89512	5241
7,89925	5144
7,90337	5325
7,90748	5014
7,91160	5195
7,91573	6032
7,91985	5533
7,92397	5785
7,92810	5719
7,93222	5152
7,93633	4533
7,94047	5044
7,94458	5251
7,94870	4752
7,95283	5829
7,95695	4994
7,96107	5388
7,96520	5069
7,96932	6568
7,97343	4772
7,97757	5666
7,98168	5393
7,98580	5122
7,98993	5123
7,99405	5057
7,99817	5674
8,00228	5170
8,00642	5113
8,01053	4916
8,01465	4926
8,01878	5260
8,02290	5138
8,02702	4383
8,03115	4586
8,03527	4482
8,03938	4711
8,04352	4693
8,04763	4453
8,05175	4855
8,05588	4532
8,06000	4712
8,06412	6581
8,06825	8628
8,07237	14266
8,07648	25130
8,08062	48286
8,08473	79528
8,08885	141349
8,09297	218492
8,09710	315436
8,10122	433464
8,10533	540009
8,10947	656501
8,11358	734786
8,11770	797445
8,12183	815085
8,12595	814365
8,13007	789240
8,13420	744600
8,13832	685431
8,14243	621373
8,14657	567198
8,15068	508875
8,15480	450140
8,15893	391748
8,16305	351939
8,16717	304747
8,17130	269986
8,17542	235816
8,17953	199977
8,18367	174230
8,18778	149808
8,19190	127920
8,19602	108799
8,20015	90622
8,20427	77195
8,20838	64533
8,21252	56884
8,21663	48677
8,22075	42055
8,22488	36213
8,22900	31449
8,23312	28639
8,23725	24536
8,24137	22891
8,24548	20598
8,24962	18744
8,25373	18214
8,25785	16302
8,26198	15347
8,26610	13657
8,27022	14113
8,27435	12216
8,27847	11048
8,28258	10111
8,28670	10640
8,29083	11255
8,29495	9198
8,29907	9520
8,30320	9281
8,30732	10067
8,31143	8841
8,31557	9686
8,31968	9777
8,32380	10325
8,32793	9163
8,33205	8994
8,33617	8763
8,34030	7350
8,34442	7132
8,34853	7259
8,35267	6937
8,35678	6906
8,36090	6810
8,36503	6623
8,36915	6076
8,37327	6522
8,37738	6806
8,38152	5386
8,38563	5942
8,38975	5739
8,39388	6004
8,39800	5542
8,40212	6453
8,40625	5557
8,41037	5657
8,41448	4797
8,41862	4961
8,42273	4888
8,42685	5044
8,43098	4776
8,43510	5214
8,43922	4910
8,44335	5019
8,44747	4743
8,45158	4560
8,45572	4908
8,45983	5305
8,46395	5031
8,46807	4680
8,47220	4412
8,47632	4575
8,48043	4682
8,48457	4364
8,48868	4354
8,49280	4595
8,49693	5510
8,50105	5092
8,50517	4124
8,50930	4837
8,51342	4868
8,51753	4954
8,52167	4381
8,52578	4638
8,52990	4878
8,53403	4094
8,53815	4468
8,54227	4550
8,54640	4977
8,55052	5671
8,55463	4100
8,55875	4659
8,56288	4481
8,56700	4324
8,57112	5014
8,57525	4702
8,57937	4767
8,58348	4295
8,58762	5081
8,59173	4102
8,59585	4091
8,59998	4254
8,60410	4291
8,60822	3334
8,61235	4274
8,61647	4280
8,62058	3521
8,62472	4000
8,62883	4377
8,63295	4321
8,63708	4033
8,64120	4409
8,64532	3853
8,64943	4334
8,65357	5028
8,65768	3822
8,66180	4093
8,66593	4189
8,67005	4598
8,67417	4354
8,67830	3941
8,68242	4534
8,68653	4593
8,69067	4188
8,69478	4014
8,69890	3920
8,70303	3202
8,70715	3867
8,71127	3532
8,71540	3587
8,71952	3375
8,72363	3290
8,72777	3956
8,73188	3993
8,73600	4581
8,74012	4218
8,74425	4082
8,74837	3926
8,75248	2962
8,75662	4109
8,76073	3682
8,76485	4233
8,76898	5239
8,77310	5727
8,77722	5738
8,78135	5812
8,78547	6752
8,78958	6262
8,79372	6562
8,79783	7395
8,80195	7635
8,80608	7620
8,81020	7414
8,81432	7103
8,81845	7645
8,82257	6714
8,82668	6879
8,83080	6679
8,83493	6124
8,83905	6184
8,84317	5583
8,84730	6663
8,85142	5087
8,85553	5972
8,85967	4260
8,86378	4571
8,86790	5114
8,87203	5253
8,87615	4234
8,88027	3627
8,88440	4103
8,88852	4391
8,89263	3867
8,89677	4452
8,90088	3813
8,90500	3787
8,90913	3553
8,91325	3633
8,91737	3430
8,92148	3727
8,92562	3937
8,92973	3759
8,93385	4013
8,93798	3740
8,94210	5079
8,94622	7517
8,95035	14704
8,95447	25048
8,95858	44283
8,96272	76379
8,96683	116829
8,97095	170375
8,97508	238836
8,97920	306942
8,98332	375603
8,98745	427730
8,99157	468363
8,99568	493957
8,99982	491178
9,00393	473525
9,00805	437680
9,01217	398106
9,01630	344773
9,02042	313204
9,02453	269778
9,02867	229224
9,03278	196073
9,03690	163079
9,04103	135929
9,04515	114874
9,04927	95836
9,05340	78963
9,05752	62518
9,06163	53954
9,06577	44972
9,06988	36987
9,07400	30983
9,07813	27606
9,08225	24680
9,08637	20425
9,09050	19709
9,09462	15690
9,09873	13815
9,10285	12935
9,10698	11873
9,11110	10727
9,11522	11206
9,11935	9723
9,12347	8885
9,12758	9333
9,13172	7305
9,13583	7038
9,13995	7709
9,14408	7304
9,14820	7210
9,15232	6171
9,15645	6236
9,16057	5436
9,16468	6289
9,16882	4978
9,17293	5232
9,17705	5646
9,18118	5163
9,18530	4629
9,18942	4519
9,19353	4874
9,19767	5377
9,20178	4807
9,20590	4403
9,21003	4267
9,21415	5041
9,21827	5110
9,22240	4120
9,22652	4238
9,23063	4561
9,23477	3884
9,23888	3399
9,24300	3821
9,24713	3968
9,25125	4555
9,25537	4053
9,25950	4182
9,26362	3831
9,26773	3243
9,27187	3720
9,27598	3054
9,28010	3824
9,28422	3356
9,28835	3690
9,29247	3404
9,29658	3307
9,30072	3356
9,30483	3203
9,30895	2842
9,31308	3839
9,31720	2661
9,32132	3086
9,32545	3246
9,32957	3038
9,33368	3652
9,33782	3950
9,34193	2877
9,34605	2735
9,35018	3253
9,35430	3587
9,35842	3661
9,36255	2843
9,36667	2791
9,37078	3174
9,37490	2928
9,37903	3026
9,38315	3456
9,38727	3151
9,39140	3158
9,39552	3218
9,39963	3233
9,40377	3368
9,40788	2994
9,41200	3041
9,41613	3132
9,42025	4103
9,42437	4224
9,42850	3566
9,43262	3938
9,43673	4225
9,44087	5030
9,44498	5079
9,44910	5533
9,45323	5154
9,45735	4939
9,46147	4932
9,46558	4584
9,46972	4792
9,47383	3882
9,47795	4044
9,48208	3867
9,48620	3666
9,49032	3245
9,49445	4041
9,49857	3373
9,50268	3171
9,50682	2841
9,51093	2291
9,51505	3541
9,51918	2891
9,52330	2922
9,52742	2407
9,53155	2407
9,53567	2695
9,53978	3404
9,54392	2836
9,54803	2892
9,55215	2690
9,55627	2530
9,56040	2895
9,56452	2476
9,56863	3221
9,57277	2581
9,57688	2619
9,58100	2493
9,58513	2715
9,58925	3022
9,59337	2914
9,59750	3113
9,60162	2549
9,60573	2855
9,60987	2971
9,61398	2615
9,61810	3411
9,62223	3084
9,62635	3241
9,63047	2665
9,63460	3026
9,63872	3196
9,64283	3638
9,64695	4747
9,65108	3972
9,65520	4991
9,65932	3935
9,66345	3860
9,66757	4361
9,67168	4770
9,67582	3767
9,67993	4071
9,68405	3608
9,68818	3874
9,69230	3829
9,69642	3609
9,70055	3493
9,70467	3274
9,70878	3275
9,71292	3565
9,71703	3854
9,72115	3595
9,72528	3579
9,72940	2873
9,73352	3654
9,73765	3048
9,74177	3275
9,74588	2968
9,75000	3128
9,75413	2585
9,75825	2435
9,76237	2689
9,76650	2713
9,77062	3113
9,77473	2619
9,77887	2555
9,78298	2352
9,78710	2307
9,79123	2435
9,79535	2862
9,79947	2258
9,80360	2636
9,80772	2358
9,81183	2544
9,81597	2902
9,82008	2652
9,82420	2371
9,82833	2381
9,83245	1947
9,83657	2479
9,84068	2812
9,84482	2551
9,84893	3104
9,85305	3114
9,85718	3823
9,86130	8040
9,86542	14550
9,86955	28819
9,87367	54934
9,87778	101836
9,88192	175440
9,88603	277300
9,89015	412867
9,89428	570590
9,89840	738851
9,90252	911700
9,90665	1035923
9,91077	1131493
9,91488	1180543
9,91902	1165037
9,92313	1102549
9,92725	1007605
9,93137	886326
9,93550	749894
9,93962	625575
9,94373	525354
9,94787	420127
9,95198	332446
9,95610	261120
9,96023	207360
9,96435	162437
9,96847	132756
9,97260	106026
9,97672	85093
9,98083	70584
9,98497	60695
9,98908	53572
9,99320	46176
9,99733	41517
10,00145	37566
10,00557	33515
10,00970	31181
10,01382	27584
10,01793	25241
10,02205	24742
10,02618	21826
10,03030	19717
10,03442	17801
10,03855	16894
10,04267	15444
10,04678	15522
10,05092	12998
10,05503	12857
10,05915	12744
10,06328	10563
10,06740	10610
10,07152	10140
10,07565	8040
10,07977	8748
10,08388	8538
10,08802	7326
10,09213	7557
10,09625	6631
10,10038	6628
10,10450	7318
10,10862	6046
10,11273	6731
10,11687	6137
10,12098	5897
10,12510	5119
10,12923	5494
10,13335	5784
10,13747	5167
10,14160	5098
10,14572	4936
10,14983	5432
10,15397	4331
10,15808	4348
10,16220	4654
10,16633	4345
10,17045	5139
10,17457	4396
10,17870	5420
10,18282	5676
10,18693	7544
10,19107	5897
10,19518	5831
10,19930	7070
10,20342	6334
10,20755	5782
10,21167	5605
10,21578	6528
10,21992	5581
10,22403	5321
10,22815	4981
10,23228	4122
10,23640	4494
10,24052	3700
10,24465	4261
10,24877	3388
10,25288	4236
10,25702	4261
10,26113	4390
10,26525	4097
10,26938	4517
10,27350	5068
10,27762	5454
10,28175	5940
10,28587	4599
10,28998	4514
10,29410	5010
10,29823	3473
10,30235	3388
10,30647	2848
10,31060	3431
10,31472	2480
10,31883	2792
10,32297	3172
10,32708	3151
10,33120	2758
10,33533	3084
10,33945	2373
10,34357	3012
10,34770	3394
10,35182	3634
10,35593	4024
10,36007	3060
10,36418	4070
10,36830	4180
10,37243	4256
10,37655	4390
10,38067	4914
10,38478	4603
10,38892	3268
10,39303	3922
10,39715	4044
10,40128	3091
10,40540	2708
10,40952	3140
10,41365	2778
10,41777	3305
10,42188	2178
10,42602	2732
10,43013	2561
10,43425	2824
10,43838	2409
10,44250	2402
10,44662	2427
10,45075	2331
10,45487	2636
10,45898	3119
10,46312	2371
10,46723	2622
10,47135	2281
10,47547	1834
10,47960	2541
10,48372	2596
10,48783	1716
10,49197	3045
10,49608	2411
10,50020	2271
10,50433	2197
10,50845	2662
10,51257	2303
10,51670	2359
10,52082	2210
10,52493	2066
10,52907	2531
10,53318	2773
10,53730	3711
10,54143	5246
10,54555	11119
10,54967	22759
10,55380	38430
10,55792	66732
10,56203	113092
10,56615	173178
10,57028	245139
10,57440	328238
10,57852	416209
10,58265	484545
10,58677	547750
10,59088	569128
10,59502	562781
10,59913	542947
10,60325	504068
10,60738	444601
10,61150	379176
10,61562	313904
10,61975	255666
10,62387	201779
10,62798	162471
10,63212	132186
10,63623	103558
10,64035	79013
10,64448	67053
10,64860	53906
10,65272	46624
10,65683	36949
10,66097	30944
10,66508	25659
10,66920	22968
10,67333	19588
10,67745	18161
10,68157	15330
10,68570	13724
10,68982	12056
10,69393	11318
10,69807	9998
10,70218	9380
10,70630	9376
10,71043	8544
10,71455	6837
10,71867	7701
10,72280	7547
10,72692	5835
10,73103	6061
10,73517	4786
10,73928	5587
10,74340	6412
10,74752	4600
10,75165	5630
10,75577	4547
10,75988	4172
10,76402	4302
10,76813	4463
10,77225	3767
10,77638	4179
10,78050	3512
10,78462	3269
10,78875	4234
10,79287	4858
10,79698	4750
10,80112	8600
10,80523	15777
10,80935	29299
10,81348	49706
10,81760	87676
10,82172	139635
10,82585	212292
10,82997	297148
10,83408	389319
10,83820	488992
10,84233	563939
10,84645	620142
10,85057	655843
10,85470	639994
10,85882	604624
10,86293	537712
10,86707	468838
10,87118	379267
10,87530	304144
10,87943	241763
10,88355	188881
10,88767	146875
10,89180	115621
10,89592	89089
10,90003	69764
10,90417	57153
10,90828	46772
10,91240	38539
10,91653	31980
10,92065	28766
10,92477	23584
10,92888	21046
10,93302	18899
10,93713	17294
10,94125	15108
10,94538	13710
10,94950	11851
10,95362	11504
10,95775	10827
10,96187	9463
10,96598	9155
10,97012	9452
10,97423	7999
10,97835	8517
10,98248	6967
10,98660	6176
10,99072	6330
10,99485	6036
10,99897	5851
11,00308	4790
11,00722	5443
11,01133	5302
11,01545	5246
11,01957	3783
11,02370	4954
11,02782	5324
11,03193	4258
11,03607	3417
11,04018	3938
11,04430	3991
11,04843	3674
11,05255	3661
11,05667	3935
11,06080	3787
11,06492	3481
11,06903	3273
11,07317	3160
11,07728	3312
11,08140	3158
11,08553	3581
11,08965	2812
11,09377	3202
11,09790	3322
11,10202	2521
11,10613	3057
11,11025	2973
11,11438	3265
11,11850	3334
11,12262	3235
11,12675	3126
11,13087	2777
11,13498	3339
11,13912	2865
11,14323	2297
11,14735	2545
11,15148	2059
11,15560	2535
11,15972	2408
11,16385	2627
11,16797	2928
11,17208	3088
11,17622	2396
11,18033	2837
11,18445	2896
11,18858	2984
11,19270	2130
11,19682	2790
11,20093	2347
11,20507	2686
11,20918	3050
11,21330	2216
11,21743	1934
11,22155	2430
11,22567	2265
11,22980	2296
11,23392	2659
11,23803	2575
11,24217	1554
11,24628	2048
11,25040	2358
11,25453	2299
11,25865	2242
11,26277	2374
11,26690	2066
11,27102	2129
11,27513	2199
11,27927	2030
11,28338	953
11,28750	1980
11,29162	2452
11,29575	2170
11,29987	2496
11,30398	1941
11,30812	2592
11,31223	2894
11,31635	2420
11,32048	2422
11,32460	2642
11,32872	2145
11,33285	2599
11,33697	2639
11,34108	2468
11,34522	2450
11,34933	2383
11,35345	2112
11,35758	2116
11,36170	2048
11,36582	1920
11,36995	1946
11,37407	1494
11,37818	2016
11,38232	2037
11,38643	1474
11,39055	1777
11,39467	2017
11,39880	2389
11,40292	1463
11,40703	1649
11,41117	2086
11,41528	2217
11,41940	2150
11,42353	2092
11,42765	2477
11,43177	1871
11,43590	1623
11,44002	1379
11,44413	1635
11,44827	1781
11,45238	1996
11,45650	1902
11,46063	2439
11,46475	1380
11,46887	1401
11,47300	2471
11,47712	2476
11,48123	3586
11,48535	4657
11,48948	6926
11,49360	13643
11,49772	29356
11,50185	49483
11,50597	89912
11,51008	145808
11,51422	220437
11,51833	305642
11,52245	400270
11,52658	488193
11,53070	568873
11,53482	617162
11,53895	633312
11,54307	615454
11,54718	583897
11,55132	510941
11,55543	437428
11,55955	359711
11,56368	285955
11,56780	223653
11,57192	172426
11,57603	136022
11,58017	106425
11,58428	82360
11,58840	66535
11,59253	52693
11,59665	43488
11,60077	36116
11,60490	29502
11,60902	27828
11,61313	21373
11,61727	19014
11,62138	18630
11,62550	16027
11,62963	14870
11,63375	13954
11,63787	11691
11,64200	10055
11,64612	9679
11,65023	8877
11,65437	7929
11,65848	6941
11,66260	7017
11,66672	6286
11,67085	6434
11,67497	5995
11,67908	5899
11,68322	6147
11,68733	6071
11,69145	5794
11,69558	5720
11,69970	5317
11,70382	4396
11,70795	5102
11,71207	4373
11,71618	4276
11,72032	4047
11,72443	4301
11,72855	5326
11,73268	7502
11,73680	12076
11,74092	21760
11,74505	41746
11,74917	83214
11,75328	149786
11,75740	252306
11,76153	399204
11,76565	605645
11,76977	844054
11,77390	1118775
11,77802	1430384
11,78213	1724279
11,78627	1978706
11,79038	2150840
11,79450	2183511
11,79863	2100819
11,80275	1906490
11,80687	1620131
11,81100	1322292
11,81512	1021056
11,81923	774299
11,82337	585109
11,82748	442070
11,83160	330313
11,83573	255788
11,83985	202560
11,84397	165590
11,84808	134503
11,85222	110891
11,85633	96446
11,86045	82241
11,86458	70379
11,86870	64027
11,87282	55128
11,87695	48625
11,88107	44745
11,88518	41673
11,88932	35364
11,89343	33652
11,89755	30082
11,90168	29685
11,90580	26614
11,90992	23605
11,91405	24380
11,91817	21522
11,92228	19098
11,92642	19248
11,93053	17924
11,93465	16517
11,93877	15266
11,94290	15812
11,94702	14438
11,95113	13370
11,95527	11274
11,95938	11765
11,96350	10556
11,96763	9129
11,97175	10882
11,97587	9817
11,98000	9002
11,98412	7457
11,98823	7133
11,99237	7617
11,99648	7274
12,00060	7626
12,00473	6188
12,00885	6672
12,01297	5100
12,01710	5914
12,02122	6225
12,02533	5949
12,02945	5127
12,03358	5150
12,03770	4490
12,04182	4596
12,04595	4834
12,05007	4990
12,05418	4944
12,05832	4444
12,06243	4425
12,06655	4022
12,07068	3888
12,07480	4513
12,07892	3704
12,08305	4084
12,08717	3473
12,09128	4050
12,09542	3989
12,09953	3659
12,10365	3676
12,10778	3678
12,11190	3113
12,11602	3585
12,12013	3662
12,12427	4492
12,12838	3477
12,13250	3437
12,13663	3804
12,14075	3621
12,14487	4038
12,14900	3714
12,15312	3441
12,15723	3755
12,16137	2791
12,16548	3097
12,16960	3274
12,17373	3863
12,17785	3175
12,18197	2518
12,18610	3413
12,19022	2982
12,19433	3252
12,19847	2537
12,20258	2782
12,20670	2090
12,21082	2249
12,21495	1775
12,21907	2617
12,22318	2229
12,22732	2089
12,23143	2114
12,23555	2348
12,23968	2817
12,24380	3983
12,24792	4423
12,25205	5431
12,25617	7775
12,26028	6953
12,26442	6400
12,26853	5831
12,27265	4697
12,27678	3691
12,28090	3545
12,28502	2745
12,28915	3073
12,29327	3589
12,29738	3770
12,30150	5360
12,30563	10890
12,30975	19290
12,31387	36451
12,31800	67276
12,32212	114738
12,32623	178557
12,33037	264904
12,33448	364595
12,33860	471745
12,34273	563529
12,34685	638381
12,35097	677468
12,35510	667836
12,35922	631568
12,36333	574425
12,36747	485793
12,37158	399277
12,37570	317327
12,37983	245944
12,38395	190292
12,38807	148593
12,39218	115091
12,39632	91638
12,40043	71569
12,40455	59486
12,40868	48083
12,41280	41947
12,41692	35063
12,42105	30689
12,42517	27189
12,42928	24023
12,43342	21952
12,43753	21431
12,44165	21611
12,44578	21296
12,44990	19435
12,45402	19266
12,45815	21885
12,46227	20227
12,46638	19881
12,47052	18789
12,47463	18055
12,47875	16861
12,48287	14475
12,48700	13715
12,49112	11296
12,49523	11250
12,49937	10268
12,50348	8182
12,50760	7000
12,51173	6755
12,51585	6111
12,51997	5639
12,52410	4710
12,52822	5593
12,53233	4787
12,53647	5262
12,54058	4058
12,54470	4655
12,54883	3701
12,55295	3690
12,55707	4036
12,56120	3603
12,56532	2481
12,56943	3240
12,57355	3050
12,57768	3614
12,58180	3279
12,58592	2966
12,59005	2934
12,59417	3350
12,59828	3089
12,60242	2586
12,60653	2567
12,61065	2980
12,61478	3364
12,61890	2517
12,62302	2847
12,62715	2686
12,63127	2614
12,63538	2089
12,63952	2434
12,64363	2131
12,64775	2771
12,65188	2747
12,65600	2909
12,66012	4152
12,66423	7477
12,66837	12895
12,67248	26075
12,67660	48429
12,68073	87472
12,68485	146409
12,68897	227345
12,69310	332911
12,69722	451692
12,70133	569093
12,70547	673422
12,70958	733551
12,71370	764670
12,71783	753430
12,72195	685583
12,72607	602392
12,73020	499453
12,73432	399132
12,73843	311710
12,74257	230860
12,74668	181012
12,75080	137861
12,75492	108305
12,75905	85226
12,76317	65842
12,76728	53442
12,77142	43690
12,77553	37909
12,77965	33579
12,78378	28632
12,78790	24604
12,79202	21693
12,79615	19599
12,80027	19129
12,80438	16240
12,80852	15885
12,81263	13043
12,81675	13323
12,82088	12197
12,82500	12168
12,82912	10115
12,83325	9299
12,83737	9091
12,84148	8596
12,84560	8008
12,84973	7886
12,85385	7171
12,85797	5942
12,86210	5814
12,86622	5336
12,87033	5771
12,87447	5457
12,87858	5615
12,88270	4767
12,88683	4378
12,89095	4417
12,89507	5695
12,89920	4794
12,90332	4450
12,90743	5140
12,91157	4074
12,91568	4936
12,91980	3443
12,92393	3686
12,92805	4592
12,93217	3585
12,93630	3511
12,94042	3850
12,94453	3470
12,94865	3997
12,95278	3184
12,95690	2827
12,96102	3442
12,96515	3760
12,96927	3488
12,97338	3283
12,97752	2963
12,98163	3174
12,98575	3225
12,98988	3080
12,99400	2759
12,99812	3172
13,00225	2967
13,00637	3194
13,01048	2896
13,01462	2861
13,01873	3087
13,02285	3084
13,02698	2870
13,03110	3188
13,03522	3417
13,03933	2687
13,04347	3288
13,04758	2782
13,05170	2589
13,05583	2979
13,05995	2809
13,06407	2495
13,06820	2775
13,07232	2378
13,07643	2715
13,08057	1492
13,08468	2416
13,08880	2651
13,09293	2593
13,09705	2167
13,10117	2305
13,10530	2198
13,10942	3035
13,11353	2342
13,11767	2216
13,12178	2081
13,12590	2199
13,13002	1543
13,13415	2735
13,13827	2094
13,14238	1873
13,14652	1550
13,15063	1700
13,15475	1769
13,15888	2221
13,16300	1791
13,16712	1424
13,17125	1829
13,17537	2018
13,17948	2410
13,18362	2430
13,18773	2273
13,19185	2993
13,19598	3044
13,20010	2804
13,20422	1926
13,20835	2225
13,21247	3022
13,21658	3906
13,22070	5636
13,22483	9997
13,22895	23000
13,23307	41351
13,23720	75325
13,24132	125263
13,24543	199223
13,24957	291658
13,25368	405860
13,25780	512702
13,26193	618384
13,26605	691106
13,27017	731046
13,27430	729622
13,27842	683351
13,28253	612879
13,28667	522320
13,29078	424833
13,29490	337841
13,29903	264315
13,30315	201862
13,30727	152027
13,31138	121239
13,31552	91809
13,31963	76515
13,32375	63264
13,32788	50959
13,33200	45081
13,33612	35349
13,34025	31668
13,34437	28229
13,34848	24836
13,35262	22359
13,35673	19862
13,36085	18089
13,36498	15372
13,36910	14485
13,37322	14038
13,37735	13197
13,38147	12574
13,38558	11455
13,38972	10673
13,39383	10337
13,39795	9438
13,40207	9864
13,40620	7821
13,41032	8388
13,41443	6327
13,41857	6627
13,42268	6317
13,42680	5991
13,43093	5605
13,43505	5269
13,43917	5951
13,44330	4464
13,44742	5010
13,45153	4083
13,45567	3954
13,45978	3998
13,46390	3750
13,46803	3968
13,47215	3365
13,47627	4478
13,48040	3646
13,48452	3734
13,48863	3723
13,49275	3506
13,49688	4536
13,50100	5994
13,50512	5335
13,50925	7917
13,51337	10552
13,51748	11014
13,52162	13032
13,52573	16270
13,52985	13580
13,53398	15192
13,53810	14995
13,54222	14767
13,54635	14056
13,55047	12119
13,55458	10539
13,55872	8573
13,56283	7214
13,56695	10251
13,57108	13734
13,57520	21549
13,57932	42020
13,58343	72575
13,58757	131889
13,59168	210674
13,59580	328647
13,59993	482459
13,60405	679244
13,60817	890119
13,61230	1119512
13,61642	1336810
13,62053	1512160
13,62467	1631079
13,62878	1662606
13,63290	1571188
13,63703	1393942
13,64115	1181152
13,64527	955012
13,64940	730495
13,65352	554796
13,65763	423391
13,66177	317899
13,66588	241821
13,67000	189606
13,67412	151604
13,67825	125087
13,68237	103512
13,68648	89645
13,69062	73964
13,69473	66136
13,69885	56559
13,70298	50496
13,70710	45009
13,71122	43521
13,71535	36940
13,71947	34204
13,72358	32162
13,72772	29034
13,73183	24573
13,73595	25020
13,74008	23388
13,74420	20446
13,74832	20578
13,75245	18009
13,75657	15618
13,76068	15305
13,76480	14873
13,76893	12922
13,77305	12261
13,77717	12552
13,78130	11965
13,78542	11620
13,78953	10909
13,79367	10593
13,79778	9249
13,80190	8818
13,80603	8713
13,81015	8584
13,81427	8564
13,81840	7830
13,82252	6674
13,82663	7719
13,83077	6070
13,83488	6762
13,83900	6153
13,84313	6344
13,84725	5494
13,85137	5534
13,85548	5475
13,85962	5470
13,86373	6058
13,86785	5587
13,87198	5822
13,87610	5297
13,88022	5988
13,88435	7978
13,88847	13573
13,89258	24387
13,89672	45831
13,90083	80355
13,90495	128460
13,90908	204627
13,91320	292930
13,91732	417058
13,92145	536396
13,92557	655537
13,92968	728578
13,93382	790749
13,93793	786283
13,94205	744424
13,94617	670528
13,95030	567204
13,95442	466770
13,95853	367796
13,96267	289858
13,96678	221739
13,97090	172862
13,97503	134506
13,97915	104203
13,98327	85662
13,98740	70520
13,99152	57714
13,99563	48193
13,99977	42436
14,00388	35992
14,00800	29793
14,01213	28708
14,01625	23991
14,02037	23461
14,02450	20558
14,02862	18679
14,03273	17476
14,03685	16542
14,04098	18078
14,04510	21439
14,04922	29958
14,05335	50761
14,05747	83023
14,06158	134494
14,06572	220080
14,06983	346379
14,07395	507496
14,07808	715695
14,08220	940575
14,08632	1168385
14,09045	1361835
14,09457	1523953
14,09868	1588300
14,10282	1558546
14,10693	1428969
14,11105	1255787
14,11518	1028587
14,11930	807003
14,12342	625389
14,12753	471066
14,13167	363928
14,13578	278838
14,13990	215664
14,14403	173475
14,14815	141926
14,15227	116232
14,15640	100859
14,16052	87262
14,16463	75670
14,16877	70172
14,17288	59819
14,17700	56749
14,18113	50024
14,18525	44827
14,18937	40759
14,19350	37053
14,19762	31085
14,20173	31124
14,20587	26890
14,20998	25365
14,21410	22534
14,21822	22313
14,22235	21174
14,22647	20179
14,23058	17919
14,23472	17352
14,23883	15959
14,24295	15680
14,24708	14790
14,25120	15167
14,25532	13552
14,25945	12276
14,26357	13245
14,26768	12390
14,27182	10367
14,27593	9467
14,28005	9630
14,28418	8347
14,28830	8353
14,29242	8881
14,29655	8203
14,30067	7297
14,30478	8090
14,30890	7574
14,31303	6169
14,31715	6474
14,32127	6687
14,32540	6510
14,32952	6461
14,33363	5641
14,33777	5355
14,34188	5636
14,34600	4868
14,35013	4860
14,35425	4423
14,35837	4611
14,36250	5188
14,36662	5450
14,37073	4452
14,37487	4905
14,37898	5146
14,38310	3497
14,38723	4237
14,39135	3781
14,39547	4611
14,39958	6706
14,40372	9937
14,40783	15974
14,41195	29247
14,41608	53631
14,42020	95464
14,42432	152401
14,42845	245158
14,43257	348327
14,43668	464507
14,44082	583819
14,44493	676445
14,44905	738490
14,45318	750685
14,45730	707343
14,46142	646783
14,46555	555756
14,46967	456314
14,47378	365609
14,47792	284074
14,48203	219785
14,48615	165799
14,49027	133953
14,49440	107140
14,49852	86945
14,50263	69603
14,50677	59494
14,51088	48359
14,51500	43566
14,51913	38836
14,52325	33095
14,52737	28630
14,53150	24956
14,53562	23940
14,53973	22559
14,54387	19855
14,54798	18778
14,55210	16989
14,55623	15655
14,56035	15200
14,56447	12916
14,56860	14108
14,57272	11910
14,57683	10761
14,58097	11949
14,58508	10624
14,58920	10373
14,59332	10568
14,59745	9225
14,60157	6880
14,60568	7904
14,60982	8155
14,61393	7971
14,61805	7537
14,62218	7717
14,62630	7085
14,63042	8299
14,63455	7281
14,63867	7180
14,64278	8415
14,64692	6857
14,65103	7241
14,65515	7305
14,65928	6550
14,66340	6231
14,66752	6265
14,67165	5764
14,67577	5954
14,67988	4523
14,68400	6402
14,68813	6190
14,69225	6533
14,69637	4778
14,70050	6176
14,70462	6577
14,70873	5644
14,71287	5138
14,71698	5666
14,72110	5260
14,72523	5729
14,72935	4750
14,73347	5054
14,73760	4389
14,74172	4208
14,74583	4517
14,74997	3803
14,75408	4641
14,75820	4748
14,76233	4778
14,76645	7996
14,77057	10339
14,77468	18801
14,77882	33748
14,78293	61625
14,78705	108341
14,79118	171412
14,79530	257044
14,79942	362025
14,80355	469358
14,80767	573054
14,81178	652140
14,81592	701415
14,82003	708839
14,82415	664321
14,82828	600857
14,83240	510191
14,83652	415852
14,84065	331875
14,84477	257566
14,84888	197353
14,85302	152618
14,85713	121444
14,86125	96810
14,86537	77170
14,86950	64193
14,87362	52781
14,87773	43547
14,88187	38746
14,88598	34721
14,89010	31290
14,89423	26704
14,89835	24804
14,90247	22106
14,90660	21342
14,91072	19490
14,91483	17713
14,91897	16355
14,92308	14947
14,92720	15566
14,93133	13247
14,93545	12779
14,93957	13366
14,94370	12017
14,94782	11716
14,95193	11225
14,95605	11594
14,96018	10188
14,96430	10756
14,96842	9762
14,97255	9358
14,97667	8754
14,98078	8506
14,98492	8463
14,98903	7295
14,99315	7108
14,99728	7749
15,00140	5417
15,00552	6194
15,00965	6883
15,01377	5968
15,01788	4914
15,02202	6098
15,02613	5478
15,03025	5941
15,03438	5652
15,03850	5926
15,04262	5323
15,04673	5177
15,05087	5595
15,05498	4917
15,05910	3894
15,06323	4570
15,06735	4031
15,07147	4149
15,07560	3515
15,07972	3211
15,08383	4015
15,08797	4257
15,09208	4121
15,09620	4306
15,10033	4761
15,10445	4226
15,10857	4999
15,11270	3645
15,11682	4648
15,12093	5221
15,12507	3682
15,12918	4662
15,13330	4061
15,13742	3626
15,14155	3573
15,14567	3027
15,14978	3882
15,15392	4474
15,15803	3922
15,16215	3508
15,16628	2848
15,17040	4235
15,17452	2916
15,17865	3604
15,18277	2604
15,18688	3759
15,19102	4115
15,19513	3912
15,19925	3231
15,20338	3905
15,20750	2961
15,21162	2985
15,21575	3122
15,21987	3426
15,22398	3337
15,22810	2522
15,23223	2849
15,23635	3136
15,24047	3098
15,24460	2976
15,24872	3275
15,25283	2750
15,25697	2732
15,26108	3402
15,26520	3381
15,26933	3132
15,27345	3952
15,27757	6287
15,28170	9413
15,28582	16716
15,28993	30679
15,29407	55564
15,29818	94544
15,30230	155921
15,30643	242182
15,31055	344781
15,31467	463041
15,31878	584290
15,32292	718093
15,32703	837295
15,33115	960311
15,33528	1068225
15,33940	1173996
15,34352	1306880
15,34765	1457503
15,35177	1626737
15,35588	1781035
15,36002	1930171
15,36413	1973347
15,36825	1927131
15,37238	1782706
15,37650	1545876
15,38062	1260920
15,38475	991585
15,38887	764772
15,39298	576332
15,39712	441024
15,40123	338340
15,40535	265420
15,40947	212832
15,41360	174861
15,41772	151588
15,42183	128145
15,42597	110638
15,43008	97700
15,43420	87590
15,43833	77453
15,44245	69959
15,44657	62851
15,45070	59442
15,45482	53745
15,45893	50919
15,46307	44966
15,46718	42512
15,47130	39995
15,47543	37522
15,47955	33804
15,48367	33564
15,48780	32427
15,49192	31822
15,49603	31598
15,50015	30422
15,50428	30415
15,50840	33407
15,51252	32885
15,51665	34434
15,52077	31188
15,52488	30477
15,52902	28071
15,53313	27331
15,53725	24993
15,54138	22137
15,54550	22006
15,54962	19326
15,55375	19168
15,55787	16081
15,56198	16017
15,56612	14954
15,57023	14842
15,57435	12552
15,57848	11997
15,58260	12837
15,58672	12416
15,59083	12699
15,59497	12644
15,59908	13579
15,60320	18271
15,60733	24899
15,61145	39480
15,61557	64210
15,61970	104544
15,62382	165024
15,62793	240285
15,63207	329131
15,63618	431450
15,64030	511527
15,64443	583967
15,64855	617522
15,65267	619961
15,65680	589302
15,66092	526545
15,66503	451599
15,66917	364256
15,67328	298928
15,67740	229531
15,68152	177608
15,68565	142525
15,68977	106993
15,69388	84848
15,69802	70615
15,70213	58239
15,70625	52394
15,71038	45353
15,71450	40560
15,71862	35149
15,72275	30811
15,72687	26422
15,73098	24946
15,73512	22769
15,73923	21904
15,74335	21250
15,74748	21003
15,75160	20641
15,75572	24351
15,75985	31769
15,76397	46273
15,76808	70700
15,77220	116228
15,77633	175342
15,78045	263333
15,78457	371726
15,78870	498113
15,79282	625547
15,79693	741069
15,80107	817306
15,80518	855770
15,80930	838576
15,81343	782564
15,81755	679046
15,82167	570393
15,82580	465041
15,82992	361196
15,83403	281333
15,83817	219439
15,84228	175210
15,84640	139674
15,85053	112957
15,85465	93380
15,85877	76962
15,86288	67038
15,86702	58779
15,87113	51549
15,87525	45363
15,87938	39851
15,88350	36562
15,88762	35043
15,89175	31484
15,89587	30373
15,89998	27786
15,90412	25102
15,90823	25479
15,91235	21714
15,91648	19920
15,92060	19391
15,92472	19214
15,92885	17935
15,93297	17450
15,93708	16419
15,94122	16095
15,94533	14575
15,94945	14593
15,95357	14423
15,95770	13061
15,96182	14125
15,96593	12021
15,97007	13550
15,97418	12777
15,97830	14607
15,98243	14906
15,98655	15833
15,99067	15295
15,99480	13411
15,99892	12886
16,00303	10434
16,00717	10299
16,01128	11420
16,01540	9218
16,01953	9466
16,02365	8577
16,02777	8042
16,03190	7155
16,03602	8251
16,04013	7828
16,04425	9130
16,04838	8153
16,05250	8305
16,05662	7396
16,06075	7136
16,06487	7528
16,06898	6752
16,07312	6056
16,07723	5512
16,08135	6973
16,08548	6415
16,08960	6231
16,09372	7833
16,09785	6695
16,10197	7156
16,10608	6525
16,11022	6303
16,11433	5376
16,11845	5395
16,12258	7297
16,12670	7654
16,13082	8655
16,13493	14578
16,13907	24423
16,14318	42363
16,14730	73657
16,15143	126505
16,15555	200683
16,15967	303518
16,16380	417974
16,16792	558147
16,17203	704303
16,17617	824634
16,18028	918114
16,18440	966074
16,18853	947338
16,19265	864968
16,19677	742282
16,20090	607949
16,20502	481519
16,20913	371687
16,21327	284354
16,21738	218764
16,22150	172375
16,22562	140646
16,22975	115553
16,23387	94906
16,23798	79841
16,24212	71768
16,24623	62994
16,25035	57108
16,25448	49508
16,25860	42732
16,26272	40566
16,26685	36880
16,27097	35130
16,27508	30755
16,27922	29594
16,28333	27532
16,28745	25903
16,29158	23684
16,29570	24071
16,29982	22570
16,30395	21418
16,30807	22066
16,31218	19365
16,31632	19324
16,32043	19281
16,32455	19584
16,32867	16474
16,33280	16181
16,33692	14835
16,34103	14397
16,34517	13845
16,34928	13902
16,35340	12437
16,35753	11909
16,36165	11901
16,36577	11665
16,36990	11121
16,37402	10686
16,37813	9497
16,38227	9620
16,38638	9671
16,39050	10393
16,39463	10181
16,39875	11624
16,40287	8673
16,40700	9258
16,41112	8491
16,41523	7629
16,41935	9383
16,42348	8159
16,42760	9116
16,43172	7985
16,43585	8903
16,43997	10766
16,44408	11951
16,44822	14943
16,45233	22708
16,45645	38877
16,46058	63013
16,46470	102133
16,46882	170954
16,47295	251440
16,47707	357164
16,48118	467279
16,48532	591158
16,48943	684035
16,49355	742232
16,49768	761320
16,50180	728833
16,50592	673011
16,51003	575997
16,51417	475081
16,51828	378080
16,52240	298567
16,52653	232655
16,53065	178391
16,53477	144509
16,53890	115806
16,54302	91328
16,54713	77073
16,55127	65225
16,55538	56374
16,55950	49472
16,56363	45394
16,56775	40255
16,57187	36117
16,57600	33533
16,58012	30970
16,58423	28898
16,58837	27832
16,59248	23581
16,59660	22289
16,60072	22729
16,60485	20299
16,60897	19385
16,61308	16914
16,61722	16050
16,62133	15872
16,62545	14725
16,62958	15335
16,63370	15360
16,63782	14296
16,64195	14503
16,64607	14584
16,65018	15085
16,65432	13487
16,65843	12883
16,66255	12199
16,66668	10455
16,67080	12402
16,67492	10271
16,67905	9737
16,68317	9913
16,68728	10784
16,69140	10267
16,69553	9770
16,69965	9017
16,70377	8787
16,70790	8628
16,71202	8634
16,71613	7930
16,72027	8000
16,72438	9445
16,72850	7760
16,73263	9614
16,73675	7921
16,74087	8085
16,74500	7168
16,74912	7560
16,75323	8114
16,75737	8279
16,76148	8211
16,76560	6564
16,76973	7253
16,77385	7087
16,77797	7108
16,78208	8220
16,78622	7339
16,79033	6881
16,79445	7220
16,79858	7156
16,80270	7723
16,80682	6811
16,81095	7478
16,81507	7434
16,81918	7583
16,82332	9349
16,82743	8881
16,83155	7744
16,83568	9463
16,83980	9152
16,84392	7333
16,84805	7924
16,85217	8028
16,85628	8303
16,86042	7450
16,86453	6853
16,86865	7069
16,87277	6745
16,87690	7065
16,88102	6875
16,88513	6238
16,88927	7849
16,89338	6429
16,89750	5736
16,90163	6548
16,90575	6181
16,90987	7212
16,91400	5531
16,91812	7171
16,92223	9766
16,92637	9306
16,93048	14650
16,93460	21466
16,93873	35655
16,94285	69094
16,94697	124656
16,95110	207798
16,95522	338359
16,95933	523808
16,96345	750157
16,96758	1004368
16,97170	1286954
16,97582	1576357
16,97995	1868105
16,98407	2113170
16,98818	2306844
16,99232	2417304
16,99643	2425021
17,00055	2359976
17,00468	2154679
17,00880	1852006
17,01292	1527538
17,01705	1192976
17,02117	913770
17,02528	707453
17,02942	543529
17,03353	426541
17,03765	345276
17,04178	278456
17,04590	238149
17,05002	203750
17,05413	178078
17,05827	155944
17,06238	141676
17,06650	125803
17,07063	114172
17,07475	103577
17,07887	96315
17,08300	88099
17,08712	83014
17,09123	77389
17,09537	70987
17,09948	64053
17,10360	61920
17,10773	56860
17,11185	53812
17,11597	50031
17,12010	48297
17,12422	45426
17,12833	43459
17,13247	40975
17,13658	38261
17,14070	37265
17,14482	34255
17,14895	35958
17,15307	34064
17,15718	31557
17,16132	30811
17,16543	30801
17,16955	28411
17,17368	27268
17,17780	26557
17,18192	25247
17,18605	24690
17,19017	24627
17,19428	23216
17,19842	22476
17,20253	21746
17,20665	21077
17,21078	20196
17,21490	19934
17,21902	20438
17,22315	20565
17,22727	20576
17,23138	23692
17,23550	27378
17,23963	36059
17,24375	51977
17,24787	83957
17,25200	126284
17,25612	193836
17,26023	279456
17,26437	387637
17,26848	501974
17,27260	603040
17,27673	675469
17,28085	713480
17,28497	711756
17,28910	655453
17,29322	587003
17,29733	506043
17,30147	427106
17,30558	362929
17,30970	327163
17,31383	322459
17,31795	339423
17,32207	386400
17,32618	460859
17,33032	525956
17,33443	608274
17,33855	657600
17,34268	678672
17,34680	666815
17,35092	625265
17,35505	558902
17,35917	479663
17,36328	403977
17,36742	343894
17,37153	312680
17,37565	299484
17,37978	310481
17,38390	349452
17,38802	427312
17,39215	532075
17,39627	638799
17,40038	769106
17,40452	862231
17,40863	925711
17,41275	935785
17,41687	914683
17,42100	830953
17,42512	723522
17,42923	604538
17,43337	488481
17,43748	391642
17,44160	314527
17,44573	248836
17,44985	206388
17,45397	173354
17,45810	144695
17,46222	125644
17,46633	112231
17,47047	98326
17,47458	87808
17,47870	80332
17,48283	74099
17,48695	69613
17,49107	63468
17,49520	61848
17,49932	54996
17,50343	51027
17,50755	48155
17,51168	46396
17,51580	42449
17,51992	41177
17,52405	38355
17,52817	35611
17,53228	36098
17,53642	33097
17,54053	31661
17,54465	29261
17,54878	29958
17,55290	27944
17,55702	26278
17,56115	24449
17,56527	23574
17,56938	23259
17,57352	23638
17,57763	25021
17,58175	22717
17,58588	22347
17,59000	20118
17,59412	21312
17,59823	19776
17,60237	19248
17,60648	19521
17,61060	18168
17,61473	19838
17,61885	20337
17,62297	17961
17,62710	17409
17,63122	17685
17,63533	16383
17,63947	16515
17,64358	17788
17,64770	15466
17,65183	16602
17,65595	17071
17,66007	17400
17,66420	16095
17,66832	15670
17,67243	15884
17,67657	15484
17,68068	15521
17,68480	14679
17,68892	16074
17,69305	15648
17,69717	15508
17,70128	19391
17,70542	25784
17,70953	36588
17,71365	50555
17,71778	78518
17,72190	121110
17,72602	187041
17,73015	273189
17,73427	382921
17,73838	511847
17,74252	651618
17,74663	801778
17,75075	927186
17,75488	1003020
17,75900	1019079
17,76312	962560
17,76725	858472
17,77137	726796
17,77548	586118
17,77960	461878
17,78373	362321
17,78785	292268
17,79197	233200
17,79610	190303
17,80022	155818
17,80433	132571
17,80847	117072
17,81258	102496
17,81670	88559
17,82083	81125
17,82495	75830
17,82907	67410
17,83320	62399
17,83732	58778
17,84143	54177
17,84557	50986
17,84968	48675
17,85380	45557
17,85793	43890
17,86205	41342
17,86617	37985
17,87028	35661
17,87442	35191
17,87853	34489
17,88265	33456
17,88678	30923
17,89090	30544
17,89502	29763
17,89915	29795
17,90327	27617
17,90738	27587
17,91152	27047
17,91563	26000
17,91975	25443
17,92388	23460
17,92800	25557
17,93212	22854
17,93625	22685
17,94037	20891
17,94448	20602
17,94862	21571
17,95273	22040
17,95685	20572
17,96098	21982
17,96510	20610
17,96922	19836
17,97333	18953
17,97747	19777
17,98158	18947
17,98570	20354
17,98983	20876
17,99395	18529
17,99807	19852
18,00220	19575
18,00632	18377
18,01043	21927
18,01457	23396
18,01868	27605
18,02280	41186
18,02693	63223
18,03105	97343
18,03517	153719
18,03930	230355
18,04342	332396
18,04753	443228
18,05167	569161
18,05578	697135
18,05990	785548
18,06402	822589
18,06815	821148
18,07227	747574
18,07638	665489
18,08052	562821
18,08463	467626
18,08875	370943
18,09288	290405
18,09700	237830
18,10112	198353
18,10525	180158
18,10937	170756
18,11348	182321
18,11762	215130
18,12173	264514
18,12585	333508
18,12998	412816
18,13410	479125
18,13822	555704
18,14235	593576
18,14647	611443
18,15058	596429
18,15470	551903
18,15883	483942
18,16295	416795
18,16707	349451
18,17120	284176
18,17532	230504
18,17943	183391
18,18357	151388
18,18768	123255
18,19180	106805
18,19593	93855
18,20005	80312
18,20417	71566
18,20830	62923
18,21242	58425
18,21653	54964
18,22067	50687
18,22478	48606
18,22890	44905
18,23303	41914
18,23715	38865
18,24127	37354
18,24538	35905
18,24952	31502
18,25363	32674
18,25775	31413
18,26188	29977
18,26600	28886
18,27012	28791
18,27425	27657
18,27837	25817
18,28248	24794
18,28662	23436
18,29073	23606
18,29485	22579
18,29898	22721
18,30310	23134
18,30722	22120
18,31135	21181
18,31547	21870
18,31958	20394
18,32372	22025
18,32783	20677
18,33195	20029
18,33607	19563
18,34020	19372
18,34432	19509
18,34843	18014
18,35257	18393
18,35668	18110
18,36080	18657
18,36493	18267
18,36905	17255
18,37317	17780
18,37730	19466
18,38142	18730
18,38553	17819
18,38967	15906
18,39378	15405
18,39790	16031
18,40203	16035
18,40615	16569
18,41027	15593
18,41440	15293
18,41852	15406
18,42263	14351
18,42675	14619
18,43088	15268
18,43500	15477
18,43912	14525
18,44325	15461
18,44737	18052
18,45148	17674
18,45562	22575
18,45973	29937
18,46385	41998
18,46798	64326
18,47210	102197
18,47622	155582
18,48035	233677
18,48447	335447
18,48858	463401
18,49272	629469
18,49683	807477
18,50095	1001517
18,50508	1219519
18,50920	1446517
18,51332	1639882
18,51743	1815330
18,52157	1911015
18,52568	1887542
18,52980	1793172
18,53393	1553625
18,53805	1268436
18,54217	1013639
18,54630	779183
18,55042	609030
18,55453	478276
18,55867	384828
18,56278	313845
18,56690	268545
18,57103	225713
18,57515	198251
18,57927	176363
18,58340	156990
18,58752	142985
18,59163	130553
18,59577	120291
18,59988	110946
18,60400	104344
18,60812	94125
18,61225	90151
18,61637	83996
18,62048	77560
18,62462	74321
18,62873	67184
18,63285	66803
18,63698	64122
18,64110	58734
18,64522	61564
18,64935	54428
18,65347	52454
18,65758	51683
18,66172	50120
18,66583	48231
18,66995	46864
18,67408	44195
18,67820	42734
18,68232	42765
18,68645	40549
18,69057	38914
18,69468	37400
18,69880	38789
18,70293	36620
18,70705	36218
18,71117	33560
18,71530	34217
18,71942	34170
18,72353	31997
18,72767	31361
18,73178	30680
18,73590	31320
18,74003	29114
18,74415	30562
18,74827	29443
18,75240	29831
18,75652	27386
18,76063	27059
18,76477	26954
18,76888	28122
18,77300	27187
18,77713	26620
18,78125	24368
18,78537	26239
18,78948	26051
18,79362	25756
18,79773	24734
18,80185	24929
18,80598	24233
18,81010	23900
18,81422	25629
18,81835	22995
18,82247	22252
18,82658	23001
18,83072	23699
18,83483	20814
18,83895	21603
18,84308	23152
18,84720	22304
18,85132	21451
18,85545	22910
18,85957	24168
18,86368	27945
18,86782	36291
18,87193	45473
18,87605	67729
18,88017	97765
18,88430	145998
18,88842	212343
18,89253	295460
18,89667	409299
18,90078	530598
18,90490	659237
18,90903	777947
18,91315	868763
18,91727	923717
18,92140	919697
18,92552	871232
18,92963	788736
18,93377	677324
18,93788	563276
18,94200	462714
18,94613	379777
18,95025	302566
18,95437	247088
18,95850	205839
18,96262	171927
18,96673	154291
18,97085	135319
18,97498	120529
18,97910	106106
18,98322	95752
18,98735	88960
18,99147	84420
18,99558	74540
18,99972	70255
19,00383	64272
19,00795	63602
19,01208	58522
19,01620	56448
19,02032	49955
19,02445	46798
19,02857	48854
19,03268	45042
19,03682	41706
19,04093	42113
19,04505	39999
19,04918	38612
19,05330	37927
19,05742	36287
19,06153	34338
19,06567	34927
19,06978	34039
19,07390	31868
19,07803	31715
19,08215	29976
19,08627	28676
19,09040	30326
19,09452	28582
19,09863	27906
19,10277	26338
19,10688	26443
19,11100	27091
19,11513	26735
19,11925	25569
19,12337	26934
19,12750	26934
19,13162	23623
19,13573	23811
19,13987	24769
19,14398	22745
19,14810	24414
19,15222	23135
19,15635	23291
19,16047	21797
19,16458	21573
19,16872	21835
19,17283	22342
19,17695	23825
19,18108	19781
19,18520	20958
19,18932	20749
19,19345	20035
19,19757	21942
19,20168	22095
19,20582	20338
19,20993	22086
19,21405	25271
19,21818	22092
19,22230	25384
19,22642	23126
19,23055	26293
19,23467	23817
19,23878	24066
19,24290	24178
19,24703	22621
19,25115	22866
19,25527	23038
19,25940	21570
19,26352	19698
19,26763	20716
19,27177	21007
19,27588	17597
19,28000	17945
19,28413	20833
19,28825	18545
19,29237	18470
19,29650	18375
19,30062	18723
19,30473	18868
19,30887	19844
19,31298	19584
19,31710	18351
19,32123	19038
19,32535	19096
19,32947	17452
19,33358	17978
19,33772	18110
19,34183	17385
19,34595	17132
19,35008	17028
19,35420	16549
19,35832	16432
19,36245	18092
19,36657	17563
19,37068	21214
19,37482	21525
19,37893	21135
19,38305	21645
19,38718	21124
19,39130	19546
19,39542	19844
19,39955	18648
19,40367	18944
19,40778	18440
19,41192	17144
19,41603	17213
19,42015	17164
19,42427	17609
19,42840	16577
19,43252	16845
19,43663	17399
19,44077	16210
19,44488	16670
19,44900	16048
19,45313	17749
19,45725	16529
19,46137	18034
19,46550	16969
19,46962	18902
19,47373	18902
19,47787	19143
19,48198	17332
19,48610	17983
19,49023	18399
19,49435	17605
19,49847	16347
19,50260	17876
19,50672	18143
19,51083	17881
19,51495	15986
19,51908	16224
19,52320	15893
19,52732	16274
19,53145	16232
19,53557	15789
19,53968	15513
19,54382	16627
19,54793	15514
19,55205	14014
19,55618	15715
19,56030	16852
19,56442	16155
19,56855	14299
19,57267	17055
19,57678	16420
19,58092	14620
19,58503	15866
19,58915	16655
19,59328	14494
19,59740	16649
19,60152	16735
19,60565	17129
19,60977	15984
19,61388	14949
19,61800	17199
19,62213	16419
19,62625	16177
19,63037	16344
19,63450	15118
19,63862	15531
19,64273	15590
19,64687	14957
19,65098	16313
19,65510	14623
19,65923	14662
19,66335	15080
19,66747	14780
19,67160	14694
19,67572	14867
19,67983	15343
19,68397	15084
19,68808	15256
19,69220	15210
19,69633	14635
19,70045	15208
19,70457	15754
19,70868	16359
19,71282	14964
19,71693	16270
19,72105	14262
19,72518	16085
19,72930	15058
19,73342	15928
19,73755	15612
19,74167	17345
19,74578	16185
19,74992	15885
19,75403	16282
19,75815	16344
19,76228	16855
19,76640	17163
19,77052	17597
19,77465	17824
19,77877	16975
19,78288	18042
19,78702	18128
19,79113	16229
19,79525	16837
19,79937	17615
19,80350	15169
19,80762	16564
19,81173	15451
19,81587	14816
19,81998	15214
19,82410	13873
19,82823	14777
19,83235	15295
19,83647	14270
19,84060	15603
19,84472	14966
19,84883	16049
19,85297	15156
19,85708	16047
19,86120	14890
19,86533	16101
19,86945	16433
19,87357	14564
19,87770	15054
19,88182	14164
19,88593	14976
19,89005	16306
19,89418	16477
19,89830	12793
19,90242	13773
19,90655	14621
19,91067	13971
19,91478	14251
19,91892	13563
19,92303	13422
19,92715	13865
19,93128	12856
19,93540	14107
19,93952	13094
19,94365	12734
19,94777	14622
19,95188	14685
19,95602	14695
19,96013	13775
19,96425	14496
19,96838	15506
19,97250	15316
19,97662	14936
19,98073	14030
19,98487	14453
19,98898	14798
19,99310	14697
19,99723	14293
20,00135	15221
20,00547	15322
20,00960	14422
20,01372	16382
20,01783	15786
20,02197	15148
20,02608	15246
20,03020	13668
20,03433	14123
20,03845	16657
20,04257	16173
20,04670	16619
20,05082	16677
20,05493	20180
20,05907	24863
20,06318	33583
20,06730	43334
20,07142	63036
20,07555	89451
20,07967	129203
20,08378	171352
20,08792	231223
20,09203	292622
20,09615	351289
20,10028	404746
20,10440	447547
20,10852	471408
20,11265	472501
20,11677	462609
20,12088	425847
20,12502	385008
20,12913	331393
20,13325	290212
20,13738	248613
20,14150	205390
20,14562	178281
20,14975	146478
20,15387	125902
20,15798	107671
20,16210	96461
20,16623	84558
20,17035	75278
20,17447	69815
20,17860	62016
20,18272	56061
20,18683	51289
20,19097	48547
20,19508	46120
20,19920	42709
20,20333	40261
20,20745	42316
20,21157	37981
20,21570	36080
20,21982	33649
20,22393	33238
20,22807	32184
20,23218	31724
20,23630	29098
20,24043	30300
20,24455	28354
20,24867	26739
20,25278	24748
20,25692	25341
20,26103	25349
20,26515	26883
20,26928	25514
20,27340	23723
20,27752	23650
20,28165	24705
20,28577	22216
20,28988	21697
20,29402	22303
20,29813	21695
20,30225	22261
20,30638	20862
20,31050	19750
20,31462	19587
20,31875	19580
20,32287	20213
20,32698	20056
20,33112	18152
20,33523	19524
20,33935	19494
20,34347	19857
20,34760	18224
20,35172	20243
20,35583	19240
20,35997	19547
20,36408	17947
20,36820	18650
20,37233	18160
20,37645	18041
20,38057	19017
20,38470	18896
20,38882	18671
20,39293	19623
20,39707	18024
20,40118	16545
20,40530	18406
20,40943	19614
20,41355	16592
20,41767	17179
20,42180	16450
20,42592	17805
20,43003	17880
20,43415	17684
20,43828	15956
20,44240	17609
20,44652	16556
20,45065	16471
20,45477	17608
20,45888	16303
20,46302	17186
20,46713	16347
20,47125	16919
20,47538	17128
20,47950	17184
20,48362	14886
20,48775	16315
20,49187	15661
20,49598	16519
20,50012	14779
20,50423	16693
20,50835	15558
20,51248	16468
20,51660	17272
20,52072	16527
20,52483	16364
20,52897	16503
20,53308	16403
20,53720	17009
20,54133	17672
