D:\MassHunter\GCMS\1\data\Amal\Constant flow\90C\90C_1ml-min_9C-min_1.D Wed Jul 31 20:44:11 2024
Start of data points
6,09102,12842
6,09513,14373
6,09925,13601
6,10338,14429
6,10750,12892
6,11162,13234
6,11575,13103
6,11987,12628
6,12398,14044
6,12812,13186
6,13223,11848
6,13635,12434
6,14048,12938
6,14460,12763
6,14872,12890
6,15285,12171
6,15697,12375
6,16108,13478
6,16522,12543
6,16933,12575
6,17345,12869
6,17758,12804
6,18170,12221
6,18582,13194
6,18993,11310
6,19407,12887
6,19818,11917
6,20230,12233
6,20643,12432
6,21055,12765
6,21467,11156
6,21880,11084
6,22292,11978
6,22703,11811
6,23117,13224
6,23528,12031
6,23940,11791
6,24353,12162
6,24765,12991
6,25177,12949
6,25590,11278
6,26002,10809
6,26413,12177
6,26827,11026
6,27238,11506
6,27650,11121
6,28062,11842
6,28475,11197
6,28887,11534
6,29298,12027
6,29712,11719
6,30123,11530
6,30535,11383
6,30948,10558
6,31360,11059
6,31772,12872
6,32185,10704
6,32597,10926
6,33008,11602
6,33422,12990
6,33833,11723
6,34245,12003
6,34658,10567
6,35070,11109
6,35482,10930
6,35895,10807
6,36307,10126
6,36718,10177
6,37130,10660
6,37543,11726
6,37955,11830
6,38367,12523
6,38780,11561
6,39192,12471
6,39603,11931
6,40017,11570
6,40428,11433
6,40840,11203
6,41253,11636
6,41665,11022
6,42077,12462
6,42490,10200
6,42902,10980
6,43313,11265
6,43727,10965
6,44138,10044
6,44550,11194
6,44963,11682
6,45375,10363
6,45787,10190
6,46198,11078
6,46612,11032
6,47023,10362
6,47435,10487
6,47848,9654
6,48260,10461
6,48672,9096
6,49085,9889
6,49497,9483
6,49908,10371
6,50322,10173
6,50733,9394
6,51145,10376
6,51558,10433
6,51970,9828
6,52382,9210
6,52795,9193
6,53207,10206
6,53618,9277
6,54032,9517
6,54443,9226
6,54855,9711
6,55267,10765
6,55680,8985
6,56092,9344
6,56503,9772
6,56917,10418
6,57328,9594
6,57740,9925
6,58153,9300
6,58565,8978
6,58977,9346
6,59390,9545
6,59802,10066
6,60213,9000
6,60627,9924
6,61038,9773
6,61450,9506
6,61863,9987
6,62275,9215
6,62687,9385
6,63100,9862
6,63512,10084
6,63923,9055
6,64335,9582
6,64748,8889
6,65160,8648
6,65572,8778
6,65985,9328
6,66397,9794
6,66808,9675
6,67222,9027
6,67633,9281
6,68045,9532
6,68458,9391
6,68870,9277
6,69282,9495
6,69695,9372
6,70107,8457
6,70518,9205
6,70932,8837
6,71343,8870
6,71755,8868
6,72168,8697
6,72580,9114
6,72992,9397
6,73403,9135
6,73817,8912
6,74228,9713
6,74640,8119
6,75053,9716
6,75465,9488
6,75877,9202
6,76290,9584
6,76702,8203
6,77113,8503
6,77527,8760
6,77938,9154
6,78350,8823
6,78763,8190
6,79175,8823
6,79587,8764
6,80000,10278
6,80412,12003
6,80823,14515
6,81237,23501
6,81648,30208
6,82060,43309
6,82472,63955
6,82885,84601
6,83297,102086
6,83708,118999
6,84122,130391
6,84533,137274
6,84945,135484
6,85358,130542
6,85770,128983
6,86182,120636
6,86595,114841
6,87007,102510
6,87418,96112
6,87832,84671
6,88243,80563
6,88655,76536
6,89068,68738
6,89480,63693
6,89892,55958
6,90305,52227
6,90717,47142
6,91128,42910
6,91540,38583
6,91953,34145
6,92365,30194
6,92777,29463
6,93190,25534
6,93602,22645
6,94013,21334
6,94427,19212
6,94838,17260
6,95250,17489
6,95663,15882
6,96075,15521
6,96487,15564
6,96900,15308
6,97312,14131
6,97723,14669
6,98137,13546
6,98548,13843
6,98960,11826
6,99373,12049
6,99785,10454
7,00197,10578
7,00608,10169
7,01022,10333
7,01433,10051
7,01845,9045
7,02258,9358
7,02670,8637
7,03082,8245
7,03495,9138
7,03907,8751
7,04318,8925
7,04732,8492
7,05143,8340
7,05555,8624
7,05968,8265
7,06380,7655
7,06792,8230
7,07205,7644
7,07617,7707
7,08028,7299
7,08442,7142
7,08853,7991
7,09265,7580
7,09678,7954
7,10090,7719
7,10502,7360
7,10913,7283
7,11327,7791
7,11738,7160
7,12150,7670
7,12563,7923
7,12975,7626
7,13387,7813
7,13800,7282
7,14212,7408
7,14623,7754
7,15037,7691
7,15448,7530
7,15860,7194
7,16273,6916
7,16685,7242
7,17097,6998
7,17510,7167
7,17922,6623
7,18333,7638
7,18747,7353
7,19158,6832
7,19570,6952
7,19982,7262
7,20395,6321
7,20807,7634
7,21218,7674
7,21632,7513
7,22043,6660
7,22455,6929
7,22868,8052
7,23280,6618
7,23692,7458
7,24105,6715
7,24517,7591
7,24928,7198
7,25342,7439
7,25753,6783
7,26165,6391
7,26578,6455
7,26990,7054
7,27402,6807
7,27815,7152
7,28227,6209
7,28638,6797
7,29050,6538
7,29463,7541
7,29875,6519
7,30287,6679
7,30700,5703
7,31112,7465
7,31523,6281
7,31937,6988
7,32348,7258
7,32760,7068
7,33173,7268
7,33585,7247
7,33997,7409
7,34410,7314
7,34822,6549
7,35233,7853
7,35647,6489
7,36058,7148
7,36470,7024
7,36883,7091
7,37295,6522
7,37707,7323
7,38118,6507
7,38532,6066
7,38943,7327
7,39355,6030
7,39768,6696
7,40180,6875
7,40592,7149
7,41005,7062
7,41417,7215
7,41828,5955
7,42242,6916
7,42653,6999
7,43065,5886
7,43478,6108
7,43890,6119
7,44302,6310
7,44715,6463
7,45127,6293
7,45538,5689
7,45952,6596
7,46363,6720
7,46775,6758
7,47187,6257
7,47600,6827
7,48012,6123
7,48423,6863
7,48837,5513
7,49248,6878
7,49660,7000
7,50073,6745
7,50485,6221
7,50897,6154
7,51310,5745
7,51722,5729
7,52133,6535
7,52547,5851
7,52958,5561
7,53370,6262
7,53783,6212
7,54195,6332
7,54607,6212
7,55020,6107
7,55432,5742
7,55843,5942
7,56255,6027
7,56668,5777
7,57080,5301
7,57492,5727
7,57905,5900
7,58317,6367
7,58728,6147
7,59142,5413
7,59553,5512
7,59965,5422
7,60378,6687
7,60790,6381
7,61202,5793
7,61615,6403
7,62027,7299
7,62438,5720
7,62852,6666
7,63263,6999
7,63675,7123
7,64088,6433
7,64500,6672
7,64912,6888
7,65323,6709
7,65737,6341
7,66148,6795
7,66560,6490
7,66973,5688
7,67385,6071
7,67797,5741
7,68210,5651
7,68622,6122
7,69033,5476
7,69447,5452
7,69858,5869
7,70270,5963
7,70683,6048
7,71095,5896
7,71507,5129
7,71920,5723
7,72332,5697
7,72743,6191
7,73157,6142
7,73568,6000
7,73980,5859
7,74392,5049
7,74805,6350
7,75217,6965
7,75628,6447
7,76042,6042
7,76453,5993
7,76865,6296
7,77278,6909
7,77690,7014
7,78102,6846
7,78515,6891
7,78927,8165
7,79338,8041
7,79752,8169
7,80163,7956
7,80575,9342
7,80988,7857
7,81400,8399
7,81812,8341
7,82225,7607
7,82637,7825
7,83048,6709
7,83460,6382
7,83873,7451
7,84285,6717
7,84697,6538
7,85110,6678
7,85522,6233
7,85933,5299
7,86347,5440
7,86758,6233
7,87170,5591
7,87583,5901
7,87995,5342
7,88407,5649
7,88820,5576
7,89232,4782
7,89643,5097
7,90057,5297
7,90468,5545
7,90880,5534
7,91293,5675
7,91705,5295
7,92117,6004
7,92528,5971
7,92942,5853
7,93353,5392
7,93765,5411
7,94178,4926
7,94590,4683
7,95002,5400
7,95415,4966
7,95827,5443
7,96238,5405
7,96652,6076
7,97063,5781
7,97475,5198
7,97888,5903
7,98300,5011
7,98712,5228
7,99125,5648
7,99537,5613
7,99948,5162
8,00362,5172
8,00773,5735
8,01185,4670
8,01597,4905
8,02010,5060
8,02422,4684
8,02833,5092
8,03247,5538
8,03658,5892
8,04070,4392
8,04483,5407
8,04895,4602
8,05307,4390
8,05720,5687
8,06132,5552
8,06543,5246
8,06957,4571
8,07368,4815
8,07780,4429
8,08193,4640
8,08605,4808
8,09017,4790
8,09430,4088
8,09842,4707
8,10253,4949
8,10665,4361
8,11078,4341
8,11490,4291
8,11902,5794
8,12315,4616
8,12727,4840
8,13138,5244
8,13552,5497
8,13963,5548
8,14375,4664
8,14788,5052
8,15200,4287
8,15612,4765
8,16025,4749
8,16437,5255
8,16848,3573
8,17262,4209
8,17673,5156
8,18085,4598
8,18498,4487
8,18910,4401
8,19322,4744
8,19733,5150
8,20147,4918
8,20558,4667
8,20970,5050
8,21383,4381
8,21795,5119
8,22207,5279
8,22620,5223
8,23032,5347
8,23443,4897
8,23857,5245
8,24268,5418
8,24680,5182
8,25093,5855
8,25505,5424
8,25917,5245
8,26330,5179
8,26742,4442
8,27153,5391
8,27567,5705
8,27978,5707
8,28390,5319
8,28802,5598
8,29215,5638
8,29627,5763
8,30038,6088
8,30452,4561
8,30863,5455
8,31275,4601
8,31688,4955
8,32100,5846
8,32512,4697
8,32925,4085
8,33337,3975
8,33748,4697
8,34162,4951
8,34573,4592
8,34985,4327
8,35398,4407
8,35810,4494
8,36222,4506
8,36635,4712
8,37047,4003
8,37458,4514
8,37870,4364
8,38283,4650
8,38695,4197
8,39107,4737
8,39520,5298
8,39932,4768
8,40343,4390
8,40757,4386
8,41168,5425
8,41580,4402
8,41993,4715
8,42405,4534
8,42817,6129
8,43230,8222
8,43642,14423
8,44053,26798
8,44467,50013
8,44878,87339
8,45290,147997
8,45703,230761
8,46115,335852
8,46527,454061
8,46938,558413
8,47352,665094
8,47763,726078
8,48175,742170
8,48588,747033
8,49000,703588
8,49412,646047
8,49825,570093
8,50237,498690
8,50648,423369
8,51062,355654
8,51473,294340
8,51885,236445
8,52298,190533
8,52710,155981
8,53122,123673
8,53535,102359
8,53947,80521
8,54358,66475
8,54772,55995
8,55183,47335
8,55595,42023
8,56007,34090
8,56420,30316
8,56832,26668
8,57243,23360
8,57657,20856
8,58068,19713
8,58480,16753
8,58893,15068
8,59305,15412
8,59717,14397
8,60130,12804
8,60542,12237
8,60953,10673
8,61367,11657
8,61778,10080
8,62190,9508
8,62603,9333
8,63015,9214
8,63427,8439
8,63840,9253
8,64252,9038
8,64663,7166
8,65075,6920
8,65488,7918
8,65900,6616
8,66312,7490
8,66725,6482
8,67137,6810
8,67548,7147
8,67962,6110
8,68373,7562
8,68785,6911
8,69198,5942
8,69610,5741
8,70022,4975
8,70435,6048
8,70847,5988
8,71258,6195
8,71672,6267
8,72083,5827
8,72495,6525
8,72908,5425
8,73320,5579
8,73732,5373
8,74145,4968
8,74557,5513
8,74968,5678
8,75380,5173
8,75793,4957
8,76205,5457
8,76617,5101
8,77030,4692
8,77442,5249
8,77853,5202
8,78267,4681
8,78678,7430
8,79090,6734
8,79503,8016
8,79915,8985
8,80327,7966
8,80740,8306
8,81152,7087
8,81563,6612
8,81977,6450
8,82388,5699
8,82800,4156
8,83213,5386
8,83625,5153
8,84037,4306
8,84448,4776
8,84862,4250
8,85273,5660
8,85685,4497
8,86098,4912
8,86510,4661
8,86922,4680
8,87335,4890
8,87747,4384
8,88158,4659
8,88572,4711
8,88983,4240
8,89395,4378
8,89808,3966
8,90220,4326
8,90632,3968
8,91045,3799
8,91457,4442
8,91868,4069
8,92282,4277
8,92693,5077
8,93105,4831
8,93517,4039
8,93930,4090
8,94342,3908
8,94753,3681
8,95167,4299
8,95578,3874
8,95990,3823
8,96403,4547
8,96815,4445
8,97227,3245
8,97640,3553
8,98052,3838
8,98463,3949
8,98877,3964
8,99288,3542
8,99700,3998
9,00113,3878
9,00525,3649
9,00937,3493
9,01350,4202
9,01762,4037
9,02173,4982
9,02585,4881
9,02998,4196
9,03410,3334
9,03822,3696
9,04235,3899
9,04647,3893
9,05058,3889
9,05472,4545
9,05883,4470
9,06295,4067
9,06708,3803
9,07120,3517
9,07532,4092
9,07945,4267
9,08357,3216
9,08768,3240
9,09182,3900
9,09593,3573
9,10005,3923
9,10418,4053
9,10830,3194
9,11242,4221
9,11653,3717
9,12067,3729
9,12478,3594
9,12890,4806
9,13303,3342
9,13715,3360
9,14127,4346
9,14540,4378
9,14952,4365
9,15363,4306
9,15777,4071
9,16188,4414
9,16600,4188
9,17013,5101
9,17425,4875
9,17837,4381
9,18250,3615
9,18662,4491
9,19073,4291
9,19487,3272
9,19898,4381
9,20310,4153
9,20722,3303
9,21135,4467
9,21547,4257
9,21958,3878
9,22372,3530
9,22783,3612
9,23195,3297
9,23608,2891
9,24020,3601
9,24432,3571
9,24845,3893
9,25257,3198
9,25668,3408
9,26082,3336
9,26493,3249
9,26905,3030
9,27318,3427
9,27730,3613
9,28142,4008
9,28555,3132
9,28967,3542
9,29378,3956
9,29790,3186
9,30203,4104
9,30615,3442
9,31027,4040
9,31440,4589
9,31852,5670
9,32263,8593
9,32677,13447
9,33088,27740
9,33500,48865
9,33913,83342
9,34325,141314
9,34737,211994
9,35150,290069
9,35562,367602
9,35973,440337
9,36387,490004
9,36798,507505
9,37210,508026
9,37623,473375
9,38035,420031
9,38447,366781
9,38858,295407
9,39272,236139
9,39683,185781
9,40095,145479
9,40508,115192
9,40920,87925
9,41332,67863
9,41745,52388
9,42157,42352
9,42568,37694
9,42982,29674
9,43393,25444
9,43805,20895
9,44218,18605
9,44630,17666
9,45042,15837
9,45455,13199
9,45867,12073
9,46278,12482
9,46692,11063
9,47103,11539
9,47515,10901
9,47927,10934
9,48340,10549
9,48752,10600
9,49163,10495
9,49577,9652
9,49988,9649
9,50400,9135
9,50813,7552
9,51225,7879
9,51637,8456
9,52050,7414
9,52462,7281
9,52873,6492
9,53287,6791
9,53698,5667
9,54110,5626
9,54523,5481
9,54935,5384
9,55347,4722
9,55760,5528
9,56172,5639
9,56583,5215
9,56995,5306
9,57408,4280
9,57820,4260
9,58232,4406
9,58645,4428
9,59057,4640
9,59468,4170
9,59882,4684
9,60293,3610
9,60705,4485
9,61118,4309
9,61530,4699
9,61942,3675
9,62355,3838
9,62767,4069
9,63178,4519
9,63592,3335
9,64003,3441
9,64415,3820
9,64828,3618
9,65240,4192
9,65652,3474
9,66063,3316
9,66477,2304
9,66888,3547
9,67300,3086
9,67713,3944
9,68125,4358
9,68537,4903
9,68950,4940
9,69362,5257
9,69773,4814
9,70187,6308
9,70598,5921
9,71010,5289
9,71423,6251
9,71835,4553
9,72247,5598
9,72660,4937
9,73072,3980
9,73483,4621
9,73897,4307
9,74308,3073
9,74720,3446
9,75132,4151
9,75545,3858
9,75957,3778
9,76368,3558
9,76782,3300
9,77193,3510
9,77605,3584
9,78018,3190
9,78430,3122
9,78842,3014
9,79255,3620
9,79667,3881
9,80078,3023
9,80492,3235
9,80903,2941
9,81315,3122
9,81728,2916
9,82140,3159
9,82552,3640
9,82965,3079
9,83377,3597
9,83788,3254
9,84200,3250
9,84613,3288
9,85025,2757
9,85437,3434
9,85850,3074
9,86262,2986
9,86673,3048
9,87087,2788
9,87498,2942
9,87910,2493
9,88323,3024
9,88735,3221
9,89147,2350
9,89560,3118
9,89972,2569
9,90383,2629
9,90797,2802
9,91208,2979
9,91620,2900
9,92033,3096
9,92445,2838
9,92857,3152
9,93268,2891
9,93682,2658
9,94093,3189
9,94505,3157
9,94918,3018
9,95330,2579
9,95742,3296
9,96155,3026
9,96567,2480
9,96978,3273
9,97392,2751
9,97803,2803
9,98215,2779
9,98628,3286
9,99040,3089
9,99452,2619
9,99865,3740
10,00277,3556
10,00688,2538
10,01102,3244
10,01513,3042
10,01925,3218
10,02337,3271
10,02750,2821
10,03162,3290
10,03573,3395
10,03987,2695
10,04398,2710
10,04810,2858
10,05223,3273
10,05635,3293
10,06047,3456
10,06460,3401
10,06872,3407
10,07283,3705
10,07697,3366
10,08108,3459
10,08520,3589
10,08933,3504
10,09345,3071
10,09757,2873
10,10170,2998
10,10582,3152
10,10993,3420
10,11405,2984
10,11818,3155
10,12230,2716
10,12642,3331
10,13055,3187
10,13467,3411
10,13878,2124
10,14292,3039
10,14703,3163
10,15115,3616
10,15528,2627
10,15940,3607
10,16352,3404
10,16765,3965
10,17177,4349
10,17588,3197
10,18002,4120
10,18413,4019
10,18825,3689
10,19238,2783
10,19650,3404
10,20062,3421
10,20473,3709
10,20887,5176
10,21298,8279
10,21710,16617
10,22123,35067
10,22535,70285
10,22947,130296
10,23360,225126
10,23772,368453
10,24183,555001
10,24597,752174
10,25008,948852
10,25420,1113585
10,25833,1209843
10,26245,1245390
10,26657,1175483
10,27070,1069752
10,27482,897227
10,27893,722285
10,28307,577703
10,28718,428266
10,29130,323693
10,29543,237439
10,29955,178355
10,30367,134910
10,30778,106775
10,31192,86818
10,31603,65714
10,32015,56922
10,32428,48118
10,32840,41845
10,33252,35084
10,33665,30696
10,34077,26088
10,34488,23818
10,34902,23297
10,35313,19003
10,35725,16972
10,36138,16908
10,36550,15408
10,36962,14840
10,37375,12850
10,37787,13552
10,38198,12496
10,38612,10280
10,39023,10475
10,39435,8811
10,39847,8802
10,40260,7630
10,40672,8337
10,41083,7671
10,41497,7148
10,41908,6971
10,42320,6156
10,42733,6985
10,43145,6461
10,43557,6200
10,43970,5254
10,44382,5492
10,44793,5090
10,45207,6066
10,45618,4380
10,46030,5253
10,46443,5520
10,46855,4622
10,47267,4543
10,47680,4704
10,48092,4179
10,48503,4632
10,48915,3672
10,49328,4865
10,49740,3406
10,50152,4759
10,50565,3504
10,50977,4218
10,51388,4414
10,51802,4019
10,52213,3565
10,52625,3322
10,53038,3964
10,53450,3544
10,53862,3316
10,54275,3450
10,54687,3410
10,55098,3231
10,55512,3672
10,55923,3865
10,56335,2926
10,56748,2886
10,57160,2779
10,57572,3522
10,57983,2842
10,58397,3346
10,58808,3129
10,59220,2744
10,59633,2985
10,60045,2694
10,60457,2740
10,60870,3455
10,61282,3293
10,61693,4249
10,62107,5345
10,62518,6232
10,62930,6161
10,63343,5233
10,63755,5073
10,64167,4547
10,64580,3032
10,64992,3694
10,65403,3225
10,65817,3000
10,66228,2996
10,66640,2928
10,67052,3145
10,67465,2639
10,67877,2993
10,68288,3012
10,68702,2756
10,69113,2935
10,69525,3341
10,69938,3614
10,70350,3168
10,70762,3610
10,71175,2477
10,71587,3518
10,71998,3374
10,72412,3122
10,72823,3109
10,73235,3675
10,73648,3308
10,74060,3841
10,74472,2911
10,74885,3194
10,75297,2789
10,75708,2388
10,76120,3005
10,76533,4129
10,76945,2776
10,77357,2486
10,77770,2683
10,78182,3956
10,78593,4393
10,79007,5401
10,79418,5258
10,79830,6722
10,80243,7388
10,80655,8861
10,81067,8841
10,81480,8987
10,81892,8696
10,82303,8848
10,82717,8652
10,83128,7132
10,83540,6510
10,83953,6130
10,84365,5154
10,84777,3967
10,85188,4861
10,85602,3818
10,86013,3414
10,86425,3634
10,86838,3809
10,87250,3140
10,87662,2900
10,88075,2964
10,88487,2810
10,88898,2951
10,89312,2975
10,89723,2465
10,90135,2837
10,90548,3087
10,90960,2325
10,91372,2406
10,91785,2145
10,92197,2249
10,92608,2736
10,93022,1692
10,93433,2509
10,93845,2205
10,94257,2100
10,94670,2261
10,95082,2548
10,95493,2138
10,95907,1733
10,96318,2661
10,96730,1949
10,97143,2334
10,97555,2730
10,97967,2452
10,98380,2185
10,98792,2804
10,99203,2806
10,99617,1629
11,00028,2053
11,00440,2319
11,00853,2332
11,01265,2567
11,01677,1792
11,02090,2780
11,02502,2345
11,02913,2112
11,03325,1822
11,03738,2196
11,04150,2386
11,04562,2118
11,04975,2485
11,05387,2177
11,05798,1869
11,06212,2366
11,06623,2523
11,07035,2068
11,07448,2246
11,07860,2484
11,08272,2280
11,08685,2938
11,09097,3471
11,09508,7719
11,09922,13984
11,10333,30695
11,10745,59299
11,11158,107407
11,11570,186480
11,11982,293647
11,12393,410835
11,12807,537388
11,13218,630521
11,13630,693931
11,14043,693329
11,14455,655340
11,14867,573780
11,15280,477514
11,15692,373343
11,16103,282083
11,16517,208258
11,16928,155616
11,17340,114383
11,17753,85060
11,18165,65576
11,18577,52369
11,18990,41447
11,19402,33694
11,19813,28070
11,20227,24045
11,20638,18338
11,21050,16819
11,21462,14440
11,21875,13643
11,22287,11576
11,22698,11368
11,23112,10472
11,23523,8624
11,23935,8725
11,24348,8427
11,24760,6613
11,25172,6312
11,25585,6263
11,25997,6425
11,26408,6665
11,26822,5861
11,27233,4292
11,27645,4753
11,28058,4556
11,28470,4514
11,28882,4140
11,29295,4026
11,29707,3454
11,30118,4028
11,30530,3620
11,30943,3774
11,31355,2845
11,31767,3442
11,32180,3643
11,32592,3031
11,33003,3218
11,33417,2493
11,33828,3044
11,34240,2553
11,34653,2978
11,35065,3654
11,35477,3432
11,35890,3171
11,36302,3207
11,36713,2677
11,37127,2249
11,37538,2496
11,37950,2514
11,38363,3136
11,38775,2519
11,39187,2499
11,39598,2885
11,40012,1947
11,40423,2593
11,40835,2896
11,41248,2155
11,41660,2774
11,42072,2853
11,42485,2353
11,42897,2498
11,43308,2276
11,43722,2239
11,44133,2677
11,44545,2297
11,44958,2013
11,45370,2532
11,45782,1905
11,46195,2268
11,46607,2174
11,47018,2587
11,47432,2078
11,47843,1990
11,48255,2075
11,48667,1983
11,49080,2667
11,49492,1895
11,49903,1981
11,50317,2528
11,50728,1856
11,51140,1921
11,51553,2337
11,51965,1430
11,52377,1777
11,52790,2053
11,53202,2239
11,53613,1951
11,54027,2356
11,54438,2258
11,54850,3152
11,55263,3809
11,55675,3923
11,56087,4383
11,56500,4365
11,56912,4385
11,57323,4590
11,57735,4628
11,58148,3120
11,58560,3434
11,58972,3550
11,59385,2559
11,59797,2521
11,60208,2169
11,60622,2631
11,61033,2505
11,61445,1953
11,61858,1936
11,62270,2198
11,62682,2902
11,63095,1878
11,63507,2083
11,63918,2126
11,64332,2561
11,64743,1716
11,65155,2054
11,65568,2226
11,65980,1758
11,66392,2032
11,66803,1962
11,67217,2453
11,67628,2461
11,68040,2527
11,68453,3297
11,68865,3958
11,69277,4254
11,69690,5179
11,70102,4882
11,70513,4761
11,70927,5152
11,71338,4046
11,71750,3594
11,72163,3334
11,72575,3430
11,72987,3192
11,73400,2908
11,73812,1958
11,74223,2657
11,74637,2590
11,75048,1837
11,75460,2497
11,75872,2114
11,76285,2240
11,76697,1848
11,77108,1845
11,77522,2065
11,77933,1480
11,78345,2155
11,78758,1781
11,79170,2248
11,79582,2205
11,79995,1703
11,80407,2754
11,80818,2123
11,81232,2024
11,81643,2289
11,82055,2459
11,82468,1917
11,82880,1768
11,83292,1824
11,83705,2137
11,84117,1559
11,84528,2247
11,84940,1678
11,85353,1680
11,85765,2024
11,86177,1619
11,86590,2036
11,87002,1768
11,87413,2185
11,87827,1731
11,88238,1931
11,88650,1782
11,89063,1306
11,89475,1795
11,89887,1381
11,90300,1949
11,90712,1999
11,91123,1942
11,91537,1863
11,91948,1967
11,92360,1991
11,92773,2457
11,93185,1735
11,93597,2056
11,94010,1901
11,94422,3542
11,94833,7710
11,95245,14646
11,95658,37729
11,96070,77982
11,96482,151488
11,96895,268686
11,97307,451361
11,97718,688336
11,98132,948125
11,98543,1207101
11,98955,1405463
11,99368,1516338
11,99780,1484148
12,00192,1377446
12,00605,1181116
12,01017,954138
12,01428,726779
12,01842,535843
12,02253,384431
12,02665,281505
12,03078,201141
12,03490,153916
12,03902,117198
12,04313,91249
12,04727,74380
12,05138,60374
12,05550,50735
12,05963,43006
12,06375,36180
12,06787,32038
12,07200,28631
12,07612,26498
12,08023,20885
12,08437,20520
12,08848,18282
12,09260,16738
12,09673,14901
12,10085,13665
12,10497,14126
12,10910,12025
12,11322,11185
12,11733,10316
12,12147,8490
12,12558,8596
12,12970,9529
12,13382,8033
12,13795,7029
12,14207,7848
12,14618,7686
12,15032,7727
12,15443,6729
12,15855,6468
12,16268,7085
12,16680,7221
12,17092,8162
12,17505,9498
12,17917,9442
12,18328,10002
12,18742,9488
12,19153,8630
12,19565,7643
12,19978,7180
12,20390,6503
12,20802,5678
12,21215,4368
12,21627,3990
12,22038,3255
12,22450,4244
12,22863,2717
12,23275,2595
12,23687,3424
12,24100,2287
12,24512,2273
12,24923,2250
12,25337,3038
12,25748,2782
12,26160,2573
12,26573,3343
12,26985,2199
12,27397,2440
12,27810,2318
12,28222,2700
12,28633,2285
12,29047,1826
12,29458,1869
12,29870,2569
12,30283,3088
12,30695,3422
12,31107,4845
12,31518,4628
12,31932,5100
12,32343,3716
12,32755,3494
12,33168,2918
12,33580,2736
12,33992,2481
12,34405,2243
12,34817,1971
12,35228,1937
12,35642,2337
12,36053,2276
12,36465,3102
12,36878,1644
12,37290,2425
12,37702,1352
12,38115,2797
12,38527,2966
12,38938,3149
12,39352,3682
12,39763,3437
12,40175,4253
12,40587,3931
12,41000,3515
12,41412,3524
12,41823,3420
12,42237,3080
12,42648,3002
12,43060,2275
12,43473,2609
12,43885,2339
12,44297,2298
12,44710,1971
12,45122,1501
12,45533,2175
12,45947,2253
12,46358,1855
12,46770,1664
12,47183,1743
12,47595,1616
12,48007,1900
12,48420,1490
12,48832,1595
12,49243,1789
12,49655,1799
12,50068,1797
12,50480,1271
12,50892,1506
12,51305,1667
12,51717,1841
12,52128,1540
12,52542,1872
12,52953,1979
12,53365,1818
12,53778,1884
12,54190,4596
12,54602,8901
12,55015,21409
12,55427,43010
12,55838,84368
12,56252,151983
12,56663,245387
12,57075,364921
12,57488,491270
12,57900,603657
12,58312,692457
12,58723,721660
12,59137,692569
12,59548,614307
12,59960,522922
12,60373,413648
12,60785,317181
12,61197,235568
12,61610,174120
12,62022,122574
12,62433,95941
12,62847,72483
12,63258,55617
12,63670,45080
12,64083,35787
12,64495,30004
12,64907,25912
12,65320,21380
12,65732,18555
12,66143,16691
12,66557,15279
12,66968,13227
12,67380,11521
12,67792,10859
12,68205,10261
12,68617,8363
12,69028,7577
12,69442,7645
12,69853,6885
12,70265,6857
12,70678,6347
12,71090,5838
12,71502,5309
12,71915,4976
12,72327,4848
12,72738,4452
12,73152,4206
12,73563,2701
12,73975,3291
12,74388,3587
12,74800,2972
12,75212,3001
12,75625,4005
12,76037,3077
12,76448,2363
12,76860,3807
12,77273,4456
12,77685,9361
12,78097,18500
12,78510,40693
12,78922,81043
12,79333,146508
12,79747,245350
12,80158,378149
12,80570,525053
12,80983,651309
12,81395,753545
12,81807,788373
12,82220,771264
12,82632,681429
12,83043,574163
12,83457,453074
12,83868,339800
12,84280,249042
12,84693,180251
12,85105,131509
12,85517,94676
12,85928,72059
12,86342,56270
12,86753,43104
12,87165,34750
12,87578,29333
12,87990,26970
12,88402,22260
12,88815,19498
12,89227,16581
12,89638,13851
12,90052,12840
12,90463,11582
12,90875,10846
12,91288,9191
12,91700,8712
12,92112,8643
12,92525,7217
12,92937,6646
12,93348,6978
12,93762,5950
12,94173,4479
12,94585,5754
12,94997,4934
12,95410,5006
12,95822,4689
12,96233,3884
12,96647,4129
12,97058,3633
12,97470,3977
12,97883,3200
12,98295,3581
12,98707,3526
12,99120,3690
12,99532,3184
12,99943,2720
13,00357,3230
13,00768,3099
13,01180,3934
13,01593,2410
13,02005,3533
13,02417,2968
13,02830,1584
13,03242,2776
13,03653,2531
13,04065,2674
13,04478,2585
13,04890,2276
13,05302,2607
13,05715,2613
13,06127,2336
13,06538,2009
13,06952,1602
13,07363,2551
13,07775,1848
13,08188,2045
13,08600,2140
13,09012,2671
13,09425,2923
13,09837,2096
13,10248,2170
13,10662,2676
13,11073,1651
13,11485,2317
13,11898,1768
13,12310,1603
13,12722,1970
13,13133,1385
13,13547,1772
13,13958,2148
13,14370,1610
13,14783,2181
13,15195,1983
13,15607,1502
13,16020,1726
13,16432,1870
13,16843,2795
13,17257,2228
13,17668,1904
13,18080,1716
13,18493,2343
13,18905,1963
13,19317,1648
13,19730,2861
13,20142,2673
13,20553,3329
13,20967,2151
13,21378,2883
13,21790,2747
13,22202,2558
13,22615,2926
13,23027,2601
13,23438,1735
13,23852,2618
13,24263,2422
13,24675,1595
13,25088,1493
13,25500,1759
13,25912,1323
13,26325,1542
13,26737,2694
13,27148,2063
13,27562,2216
13,27973,1269
13,28385,1848
13,28798,1775
13,29210,2125
13,29622,1223
13,30035,1653
13,30447,1932
13,30858,1561
13,31270,1656
13,31683,1128
13,32095,2002
13,32507,1712
13,32920,2169
13,33332,1609
13,33743,1944
13,34157,2578
13,34568,1799
13,34980,2406
13,35393,4653
13,35805,7867
13,36217,19632
13,36630,41781
13,37042,81703
13,37453,146791
13,37867,242823
13,38278,368775
13,38690,501407
13,39103,621508
13,39515,717509
13,39927,754063
13,40338,737720
13,40752,668800
13,41163,562237
13,41575,443873
13,41988,338857
13,42400,248507
13,42812,179677
13,43225,130624
13,43637,98214
13,44048,75544
13,44462,56826
13,44873,48295
13,45285,37041
13,45698,29623
13,46110,25184
13,46522,21311
13,46935,16756
13,47347,15686
13,47758,13530
13,48172,12985
13,48583,12268
13,48995,8987
13,49408,8973
13,49820,8297
13,50232,8159
13,50643,8180
13,51057,8329
13,51468,5928
13,51880,6212
13,52293,6116
13,52705,5952
13,53117,6080
13,53530,5447
13,53942,4704
13,54353,4632
13,54767,3638
13,55178,4192
13,55590,4759
13,56003,4693
13,56415,5106
13,56827,10799
13,57240,24409
13,57652,51984
13,58063,108703
13,58477,209482
13,58888,375983
13,59300,614234
13,59712,931929
13,60125,1327684
13,60537,1756989
13,60948,2153416
13,61362,2421072
13,61773,2510045
13,62185,2405872
13,62598,2127563
13,63010,1726688
13,63422,1310951
13,63835,946454
13,64247,665299
13,64658,470091
13,65072,335262
13,65483,246097
13,65895,187352
13,66308,147300
13,66720,117571
13,67132,94773
13,67545,81161
13,67957,68618
13,68368,58447
13,68780,50475
13,69193,46317
13,69605,41982
13,70017,37370
13,70430,34487
13,70842,30995
13,71253,26489
13,71667,26857
13,72078,24432
13,72490,22647
13,72903,22521
13,73315,16973
13,73727,16338
13,74140,17503
13,74552,14787
13,74963,13295
13,75377,13383
13,75788,13294
13,76200,12221
13,76613,9614
13,77025,10065
13,77437,10637
13,77848,8603
13,78262,8598
13,78673,7516
13,79085,8642
13,79498,7415
13,79910,6869
13,80322,6633
13,80735,7355
13,81147,7162
13,81558,6611
13,81972,6604
13,82383,6353
13,82795,5978
13,83208,5524
13,83620,5403
13,84032,5467
13,84445,5439
13,84857,4187
13,85268,4579
13,85682,3975
13,86093,5512
13,86505,4709
13,86917,4906
13,87330,4632
13,87742,4012
13,88153,3949
13,88567,3643
13,88978,3700
13,89390,4110
13,89803,5213
13,90215,6114
13,90627,7212
13,91040,8627
13,91452,9260
13,91863,7778
13,92277,6265
13,92688,5173
13,93100,4579
13,93513,3505
13,93925,2862
13,94337,3376
13,94750,3389
13,95162,2797
13,95573,2749
13,95985,2574
13,96398,2728
13,96810,2408
13,97222,3153
13,97635,2670
13,98047,2669
13,98458,2770
13,98872,3238
13,99283,3451
13,99695,3667
14,00108,5184
14,00520,4017
14,00932,3765
14,01345,3286
14,01757,2619
14,02168,3295
14,02582,2994
14,02993,4078
14,03405,5828
14,03818,12855
14,04230,27774
14,04642,55841
14,05053,109886
14,05467,185917
14,05878,297802
14,06290,430488
14,06703,571739
14,07115,695323
14,07527,769104
14,07940,775403
14,08352,726332
14,08763,636739
14,09177,518631
14,09588,400150
14,10000,298386
14,10413,224972
14,10825,161601
14,11237,118106
14,11650,89166
14,12062,67797
14,12473,50173
14,12887,42911
14,13298,34688
14,13710,30623
14,14122,25471
14,14535,21691
14,14947,21898
14,15358,19770
14,15772,21422
14,16183,20335
14,16595,22736
14,17008,23511
14,17420,24336
14,17832,23759
14,18245,21451
14,18657,20950
14,19068,18224
14,19482,16202
14,19893,14806
14,20305,11451
14,20718,11216
14,21130,8859
14,21542,8440
14,21955,7597
14,22367,6125
14,22778,5909
14,23190,4786
14,23603,4776
14,24015,4116
14,24427,5073
14,24840,4987
14,25252,3730
14,25663,3520
14,26077,3568
14,26488,3210
14,26900,3065
14,27313,3419
14,27725,3280
14,28137,3265
14,28550,3003
14,28962,2875
14,29373,3066
14,29787,2709
14,30198,2971
14,30610,2597
14,31023,2374
14,31435,3011
14,31847,3128
14,32258,3519
14,32672,4202
14,33083,7376
14,33495,18066
14,33908,37729
14,34320,80608
14,34732,144512
14,35145,247421
14,35557,380877
14,35968,538981
14,36382,703564
14,36793,820136
14,37205,886603
14,37618,858954
14,38030,777245
14,38442,652354
14,38855,509729
14,39267,386575
14,39678,279104
14,40092,200409
14,40503,141868
14,40915,105646
14,41327,81517
14,41740,63766
14,42152,48945
14,42563,42941
14,42977,33344
14,43388,30013
14,43800,25781
14,44213,23141
14,44625,20200
14,45037,17804
14,45450,17274
14,45862,14226
14,46273,13465
14,46687,11332
14,47098,11065
14,47510,9873
14,47923,8907
14,48335,8485
14,48747,8164
14,49160,7359
14,49572,6468
14,49983,5933
14,50395,6226
14,50808,5808
14,51220,5468
14,51632,4827
14,52045,5024
14,52457,5489
14,52868,5668
14,53282,5503
14,53693,5644
14,54105,6039
14,54518,5375
14,54930,5718
14,55342,5240
14,55755,4938
14,56167,5629
14,56578,5273
14,56992,5576
14,57403,4915
14,57815,4538
14,58228,4018
14,58640,3029
14,59052,3111
14,59463,3926
14,59877,3744
14,60288,4009
14,60700,4194
14,61113,2994
14,61525,3586
14,61937,4323
14,62350,3295
14,62762,3322
14,63173,3930
14,63587,3164
14,63998,3065
14,64410,3817
14,64823,2890
14,65235,3799
14,65647,3153
14,66060,2932
14,66472,3798
14,66883,3979
14,67297,3787
14,67708,3101
14,68120,3890
14,68532,3726
14,68945,3473
14,69357,2823
14,69768,2965
14,70182,2874
14,70593,2427
14,71005,2241
14,71418,2814
14,71830,2025
14,72242,2482
14,72655,2235
14,73067,2222
14,73478,2708
14,73892,2720
14,74303,1907
14,74715,2533
14,75128,2455
14,75540,1950
14,75952,3437
14,76365,2879
14,76777,2801
14,77188,4011
14,77600,3739
14,78013,6222
14,78425,8549
14,78837,20011
14,79250,39897
14,79662,77943
14,80073,143991
14,80487,247422
14,80898,376948
14,81310,535541
14,81723,683505
14,82135,795863
14,82547,849306
14,82960,839216
14,83372,754424
14,83783,636164
14,84197,506517
14,84608,378971
14,85020,280985
14,85433,206273
14,85845,149968
14,86257,109801
14,86668,86367
14,87082,66757
14,87493,52899
14,87905,42563
14,88318,35516
14,88730,29689
14,89142,28465
14,89555,23052
14,89967,20878
14,90378,18948
14,90792,15978
14,91203,15530
14,91615,15136
14,92028,11047
14,92440,12126
14,92852,10218
14,93265,9991
14,93677,7901
14,94088,8282
14,94502,7158
14,94913,9016
14,95325,6889
14,95737,6826
14,96150,7035
14,96562,5971
14,96973,4980
14,97387,6396
14,97798,5481
14,98210,4431
14,98623,4431
14,99035,4251
14,99447,4805
14,99860,4826
15,00272,4292
15,00683,4918
15,01097,4227
15,01508,4938
15,01920,4675
15,02333,4102
15,02745,3483
15,03157,4050
15,03570,3509
15,03982,4397
15,04393,4884
15,04805,8127
15,05218,9568
15,05630,13000
15,06042,17097
15,06455,26156
15,06867,40496
15,07278,72081
15,07692,129017
15,08103,217837
15,08515,361672
15,08928,574938
15,09340,844036
15,09752,1148966
15,10165,1461930
15,10577,1749611
15,10988,1902965
15,11402,1912443
15,11813,1763597
15,12225,1482032
15,12638,1176178
15,13050,871595
15,13462,624721
15,13875,447397
15,14287,318729
15,14698,237334
15,15110,174452
15,15523,135131
15,15935,110909
15,16347,89882
15,16760,74980
15,17172,65726
15,17583,55825
15,17997,48299
15,18408,42176
15,18820,39225
15,19233,36025
15,19645,31423
15,20057,27856
15,20470,26990
15,20882,25782
15,21293,22664
15,21707,22191
15,22118,19648
15,22530,18258
15,22943,18192
15,23355,14730
15,23767,15499
15,24178,15044
15,24592,14636
15,25003,14040
15,25415,14156
15,25828,10337
15,26240,11579
15,26652,10015
15,27065,10275
15,27477,9553
15,27888,9182
15,28302,9328
15,28713,8699
15,29125,8508
15,29538,6673
15,29950,7523
15,30362,8051
15,30775,8917
15,31187,10585
15,31598,15394
15,32012,30530
15,32423,54983
15,32835,98966
15,33247,172003
15,33660,278761
15,34072,409367
15,34483,565181
15,34897,713188
15,35308,837071
15,35720,893075
15,36133,880890
15,36545,803999
15,36957,694408
15,37370,544968
15,37782,425538
15,38193,312440
15,38607,228226
15,39018,169111
15,39430,127540
15,39843,99218
15,40255,74908
15,40667,63487
15,41080,53923
15,41492,48554
15,41903,42380
15,42315,35611
15,42728,31510
15,43140,26569
15,43552,24033
15,43965,24164
15,44377,26718
15,44788,39065
15,45202,60587
15,45613,112690
15,46025,202087
15,46438,346401
15,46850,552022
15,47262,831012
15,47675,1109408
15,48087,1407588
15,48498,1666018
15,48912,1791587
15,49323,1782610
15,49735,1620476
15,50148,1362755
15,50560,1081388
15,50972,811440
15,51383,589081
15,51797,426105
15,52208,311407
15,52620,233851
15,53033,175706
15,53445,136573
15,53857,111437
15,54270,92215
15,54682,78912
15,55093,68574
15,55507,61930
15,55918,53695
15,56330,46228
15,56743,42720
15,57155,37319
15,57567,32985
15,57980,29990
15,58392,28398
15,58803,25400
15,59217,26242
15,59628,22662
15,60040,22412
15,60452,20335
15,60865,20838
15,61277,18238
15,61688,18406
15,62102,17597
15,62513,15901
15,62925,15185
15,63338,14677
15,63750,12469
15,64162,12210
15,64575,12339
15,64987,10690
15,65398,11449
15,65812,9729
15,66223,9898
15,66635,9557
15,67048,8299
15,67460,9165
15,67872,7885
15,68285,9644
15,68697,8665
15,69108,8773
15,69520,7992
15,69933,7028
15,70345,6995
15,70757,7132
15,71170,6255
15,71582,7695
15,71993,9409
15,72407,9950
15,72818,16944
15,73230,34716
15,73643,63385
15,74055,118898
15,74467,206153
15,74880,328011
15,75292,472951
15,75703,625203
15,76117,755408
15,76528,844126
15,76940,844219
15,77353,793226
15,77765,690229
15,78177,549635
15,78588,424761
15,79002,325342
15,79413,231415
15,79825,174776
15,80238,128544
15,80650,98093
15,81062,78513
15,81475,64461
15,81887,52666
15,82298,43264
15,82712,39077
15,83123,33722
15,83535,29622
15,83948,25113
15,84360,23524
15,84772,22228
15,85185,20373
15,85597,17914
15,86008,16935
15,86422,15419
15,86833,15148
15,87245,14201
15,87657,13732
15,88070,13382
15,88482,12627
15,88893,12701
15,89307,12343
15,89718,11641
15,90130,12828
15,90543,11330
15,90955,11280
15,91367,11409
15,91780,11578
15,92192,11537
15,92603,9968
15,93017,9758
15,93428,10416
15,93840,9781
15,94253,8975
15,94665,8567
15,95077,8377
15,95490,9550
15,95902,9171
15,96313,7794
15,96725,8889
15,97138,9795
15,97550,8431
15,97962,8632
15,98375,8899
15,98787,9337
15,99198,8222
15,99612,8447
16,00023,7174
16,00435,7214
16,00848,6429
16,01260,7074
16,01672,7694
16,02085,9294
16,02497,13304
16,02908,25865
16,03322,51079
16,03733,96639
16,04145,170595
16,04558,277434
16,04970,403508
16,05382,551486
16,05793,694677
16,06207,786626
16,06618,809244
16,07030,770180
16,07443,684276
16,07855,567957
16,08267,439833
16,08680,331466
16,09092,245995
16,09503,180579
16,09917,133731
16,10328,102107
16,10740,77875
16,11153,62969
16,11565,52118
16,11977,43494
16,12390,36965
16,12802,33158
16,13213,28906
16,13627,26924
16,14038,23670
16,14450,22976
16,14862,22697
16,15275,21132
16,15687,18003
16,16098,17962
16,16512,16727
16,16923,16063
16,17335,13742
16,17748,15030
16,18160,13475
16,18572,13561
16,18985,10957
16,19397,12493
16,19808,9750
16,20222,11025
16,20633,10402
16,21045,10268
16,21458,8779
16,21870,10266
16,22282,9104
16,22695,8539
16,23107,10708
16,23518,9515
16,23930,9847
16,24343,7086
16,24755,8176
16,25167,9880
16,25580,7299
16,25992,7544
16,26403,8842
16,26817,7918
16,27228,8548
16,27640,9656
16,28053,9033
16,28465,8846
16,28877,7231
16,29290,7957
16,29702,7542
16,30113,7973
16,30527,6334
16,30938,6972
16,31350,6842
16,31763,6927
16,32175,6918
16,32587,6213
16,32998,6015
16,33412,6130
16,33823,5950
16,34235,6140
16,34648,6411
16,35060,5507
16,35472,6086
16,35885,6239
16,36297,6674
16,36708,5029
16,37122,5640
16,37533,6345
16,37945,5047
16,38358,5502
16,38770,5601
16,39182,5754
16,39595,4905
16,40007,4996
16,40418,5319
16,40832,5411
16,41243,5188
16,41655,4812
16,42067,5480
16,42480,7670
16,42892,9230
16,43303,16939
16,43717,35057
16,44128,68720
16,44540,138403
16,44953,258325
16,45365,450319
16,45777,724053
16,46190,1063912
16,46602,1452435
16,47013,1841322
16,47427,2230435
16,47838,2517094
16,48250,2681629
16,48663,2680294
16,49075,2483402
16,49487,2141480
16,49900,1707226
16,50312,1284727
16,50723,932910
16,51135,673684
16,51548,490696
16,51960,368251
16,52372,278112
16,52785,221185
16,53197,181033
16,53608,147627
16,54022,128822
16,54433,110803
16,54845,97371
16,55258,82841
16,55670,73710
16,56082,70535
16,56495,62116
16,56907,55594
16,57318,53247
16,57732,48228
16,58143,45006
16,58555,40406
16,58968,38221
16,59380,35339
16,59792,32886
16,60205,31946
16,60617,29083
16,61028,29239
16,61440,27598
16,61853,24704
16,62265,23664
16,62677,23429
16,63090,22956
16,63502,20677
16,63913,20021
16,64327,21598
16,64738,23009
16,65150,22279
16,65563,25469
16,65975,27265
16,66387,30062
16,66800,33448
16,67212,32648
16,67623,30514
16,68037,33063
16,68448,34610
16,68860,37913
16,69273,54867
16,69685,84996
16,70097,134392
16,70508,218201
16,70922,326128
16,71333,441093
16,71745,568096
16,72158,662579
16,72570,714250
16,72982,706080
16,73395,647719
16,73807,549600
16,74218,441810
16,74632,344987
16,75043,253021
16,75455,187701
16,75868,142695
16,76280,108095
16,76692,84728
16,77105,68874
16,77517,57328
16,77928,50397
16,78342,42138
16,78753,38411
16,79165,37602
16,79577,42048
16,79990,55257
16,80402,80753
16,80813,130952
16,81227,214876
16,81638,341549
16,82050,495878
16,82463,670393
16,82875,840456
16,83287,968508
16,83700,1006846
16,84112,972344
16,84523,863883
16,84937,724283
16,85348,573968
16,85760,437765
16,86173,325717
16,86585,240329
16,86997,185914
16,87410,146341
16,87822,112889
16,88233,95017
16,88645,77817
16,89058,68932
16,89470,57984
16,89882,53289
16,90295,49827
16,90707,43639
16,91118,38910
16,91532,36963
16,91943,33247
16,92355,29680
16,92768,29130
16,93180,28012
16,93592,24203
16,94005,24344
16,94417,23864
16,94828,21474
16,95242,21042
16,95653,21211
16,96065,20530
16,96478,18600
16,96890,18308
16,97302,18105
16,97713,17091
16,98127,16362
16,98538,17505
16,98950,16925
16,99363,16821
16,99775,16268
17,00187,15625
17,00600,14812
17,01012,13744
17,01423,11598
17,01837,12962
17,02248,14133
17,02660,12185
17,03073,12725
17,03485,12484
17,03897,12666
17,04310,12891
17,04722,11165
17,05133,12159
17,05547,9949
17,05958,11718
17,06370,11440
17,06782,10739
17,07195,10785
17,07607,11916
17,08018,14503
17,08432,22994
17,08843,40468
17,09255,71419
17,09668,130093
17,10080,225537
17,10492,366132
17,10905,541827
17,11317,741522
17,11728,918084
17,12142,1074694
17,12553,1144137
17,12965,1116663
17,13378,983618
17,13790,803196
17,14202,620896
17,14615,465622
17,15027,347161
17,15438,257256
17,15850,194371
17,16263,154860
17,16675,123425
17,17087,100829
17,17500,83668
17,17912,73167
17,18323,65122
17,18737,59542
17,19148,51326
17,19560,46915
17,19973,44613
17,20385,38553
17,20797,36657
17,21210,34849
17,21622,30073
17,22033,31259
17,22447,30314
17,22858,29229
17,23270,27444
17,23683,26367
17,24095,24621
17,24507,24726
17,24918,24135
17,25332,24422
17,25743,21266
17,26155,20364
17,26568,21035
17,26980,19373
17,27392,19887
17,27805,18556
17,28217,16196
17,28628,16985
17,29042,17087
17,29453,17390
17,29865,16355
17,30278,14214
17,30690,15518
17,31102,15724
17,31515,13787
17,31927,13491
17,32338,15182
17,32752,14290
17,33163,13876
17,33575,14465
17,33987,16065
17,34400,22658
17,34812,34891
17,35223,60638
17,35637,108599
17,36048,193662
17,36460,310394
17,36873,460176
17,37285,619006
17,37697,760355
17,38110,852053
17,38522,876438
17,38933,844243
17,39347,736094
17,39758,610373
17,40170,484770
17,40583,362371
17,40995,270467
17,41407,206062
17,41820,158782
17,42232,122415
17,42643,95783
17,43055,81284
17,43468,66721
17,43880,58271
17,44292,51097
17,44705,46831
17,45117,41384
17,45528,39818
17,45942,36309
17,46353,33110
17,46765,30597
17,47178,27258
17,47590,26851
17,48002,26823
17,48415,24869
17,48827,24700
17,49238,23121
17,49652,23505
17,50063,21446
17,50475,19798
17,50888,21775
17,51300,19258
17,51712,19815
17,52123,18750
17,52537,16967
17,52948,17620
17,53360,16191
17,53773,17001
17,54185,15105
17,54597,15689
17,55010,15906
17,55422,14413
17,55833,16534
17,56247,14200
17,56658,13440
17,57070,14265
17,57483,13920
17,57895,14176
17,58307,13656
17,58720,12825
17,59132,14463
17,59543,13849
17,59957,14065
17,60368,11839
17,60780,13280
17,61192,12646
17,61605,11901
17,62017,11396
17,62428,12255
17,62842,14146
17,63253,11919
17,63665,12093
17,64078,12835
17,64490,14091
17,64902,11936
17,65315,12062
17,65727,13638
17,66138,11278
17,66552,14160
17,66963,13100
17,67375,13674
17,67788,13248
17,68200,13308
17,68612,13558
17,69025,14304
17,69437,13718
17,69848,14883
17,70260,15957
17,70673,18500
17,71085,27619
17,71497,49371
17,71910,84405
17,72322,148425
17,72733,254256
17,73147,409994
17,73558,632392
17,73970,930744
17,74383,1302853
17,74795,1748238
17,75207,2185973
17,75620,2623988
17,76032,2949797
17,76443,3033309
17,76857,2896958
17,77268,2551297
17,77680,2094584
17,78093,1624534
17,78505,1213468
17,78917,915614
17,79328,682481
17,79742,520337
17,80153,410103
17,80565,322822
17,80978,263130
17,81390,223482
17,81802,186207
17,82215,164923
17,82627,138772
17,83038,125070
17,83452,118046
17,83863,103625
17,84275,97904
17,84688,87442
17,85100,79417
17,85512,74159
17,85925,70353
17,86337,64801
17,86748,62324
17,87162,57513
17,87573,54673
17,87985,49607
17,88397,50467
17,88810,45606
17,89222,46483
17,89633,42770
17,90047,40024
17,90458,40703
17,90870,37987
17,91283,39341
17,91695,36918
17,92107,36623
17,92520,36703
17,92932,36621
17,93343,34784
17,93757,33307
17,94168,33190
17,94580,32570
17,94993,34219
17,95405,34908
17,95817,31086
17,96230,36454
17,96642,45155
17,97053,62315
17,97465,92735
17,97878,153365
17,98290,237765
17,98702,355081
17,99115,488407
17,99527,624894
17,99938,738421
18,00352,792523
18,00763,783912
18,01175,730225
18,01588,641910
18,02000,529607
18,02412,423807
18,02825,358723
18,03237,319141
18,03648,328911
18,04062,372953
18,04473,444685
18,04885,545617
18,05298,656632
18,05710,744606
18,06122,820138
18,06533,864847
18,06947,894405
18,07358,916705
18,07770,963630
18,08183,1041876
18,08595,1116861
18,09007,1187639
18,09420,1203015
18,09832,1153641
18,10243,1053664
18,10657,903207
18,11068,744285
18,11480,590857
18,11893,464852
18,12305,361985
18,12717,282199
18,13130,231622
18,13542,190991
18,13953,164747
18,14367,142452
18,14778,120496
18,15190,112325
18,15603,98282
18,16015,90627
18,16427,83722
18,16838,81010
18,17252,78044
18,17663,74267
18,18075,68665
18,18488,62403
18,18900,57832
18,19312,55170
18,19725,50185
18,20137,48476
18,20548,45912
18,20962,41955
18,21373,40386
18,21785,39932
18,22198,39643
18,22610,35638
18,23022,36315
18,23435,32079
18,23847,32024
18,24258,31604
18,24672,29486
18,25083,27650
18,25495,29802
18,25907,26922
18,26320,27479
18,26732,26884
18,27143,26435
18,27557,25273
18,27968,24940
18,28380,25456
18,28793,24581
18,29205,25228
18,29617,24278
18,30030,23249
18,30442,23166
18,30853,23531
18,31267,25159
18,31678,29120
18,32090,36802
18,32503,50509
18,32915,76414
18,33327,124943
18,33740,194612
18,34152,303603
18,34563,438796
18,34975,608696
18,35388,801323
18,35800,960727
18,36212,1092838
18,36625,1143369
18,37037,1106284
18,37448,986828
18,37862,826489
18,38273,657083
18,38685,507902
18,39098,389993
18,39510,307143
18,39922,246309
18,40335,200480
18,40747,168285
18,41158,145731
18,41572,124526
18,41983,111554
18,42395,93626
18,42808,87652
18,43220,84903
18,43632,73905
18,44043,69077
18,44457,63661
18,44868,59631
18,45280,57284
18,45693,52536
18,46105,51261
18,46517,51423
18,46930,48746
18,47342,45804
18,47753,44053
18,48167,39946
18,48578,41780
18,48990,39185
18,49403,40861
18,49815,36212
18,50227,34961
18,50640,33811
18,51052,31238
18,51463,31965
18,51877,32247
18,52288,29591
18,52700,28585
18,53112,28227
18,53525,27634
18,53937,27811
18,54348,28633
18,54762,28009
18,55173,28433
18,55585,27341
18,55998,26611
18,56410,25910
18,56822,26880
18,57235,25558
18,57647,23979
18,58058,24067
18,58472,26145
18,58883,26512
18,59295,31399
18,59708,43674
18,60120,62907
18,60532,101339
18,60945,161919
18,61357,250343
18,61768,368850
18,62180,512190
18,62593,658669
18,63005,780558
18,63417,859107
18,63830,887020
18,64242,848074
18,64653,757372
18,65067,640708
18,65478,523197
18,65890,414875
18,66303,337663
18,66715,264986
18,67127,210730
18,67540,173775
18,67952,146079
18,68363,130748
18,68777,118615
18,69188,119226
18,69600,128972
18,70013,154186
18,70425,201271
18,70837,266769
18,71248,347001
18,71662,443959
18,72073,523335
18,72485,586556
18,72898,620715
18,73310,611391
18,73722,579036
18,74135,512291
18,74547,438855
18,74958,361727
18,75372,292484
18,75783,234021
18,76195,192514
18,76608,157751
18,77020,129508
18,77432,107599
18,77845,93842
18,78257,80244
18,78668,73196
18,79082,63195
18,79493,59916
18,79905,54399
18,80317,50795
18,80730,50227
18,81142,45206
18,81553,43178
18,81967,39358
18,82378,39048
18,82790,38473
18,83203,36175
18,83615,34225
18,84027,33498
18,84440,35320
18,84852,30432
18,85263,30869
18,85677,29062
18,86088,30891
18,86500,27384
18,86913,26938
18,87325,26524
18,87737,26983
18,88150,26443
18,88562,26467
18,88973,26311
18,89385,26033
18,89798,23911
18,90210,25939
18,90622,24738
18,91035,24526
18,91447,22503
18,91858,24224
18,92272,23740
18,92683,22720
18,93095,22678
18,93508,22641
18,93920,22152
18,94332,24097
18,94745,29397
18,95157,36241
18,95568,52972
18,95982,80119
18,96393,124610
18,96805,193688
18,97218,286253
18,97630,415939
18,98042,587907
18,98453,783389
18,98867,996715
18,99278,1252741
18,99690,1495598
19,00103,1738220
19,00515,1945003
19,00927,2040721
19,01340,2033956
19,01752,1862888
19,02163,1603999
19,02577,1306050
19,02988,1023934
19,03400,799970
19,03813,621874
19,04225,490410
19,04637,396081
19,05050,334424
19,05462,281346
19,05873,241138
19,06287,214268
19,06698,191186
19,07110,171303
19,07522,156296
19,07935,141223
19,08347,129350
19,08758,121798
19,09172,115582
19,09583,105166
19,09995,98174
19,10408,92989
19,10820,88048
19,11232,80192
19,11645,77245
19,12057,73974
19,12468,70368
19,12882,66936
19,13293,64343
19,13705,59687
19,14118,57386
19,14530,57445
19,14942,56480
19,15355,53979
19,15767,53053
19,16178,48294
19,16590,48798
19,17003,48551
19,17415,43919
19,17827,43064
19,18240,42454
19,18652,43084
19,19063,41153
19,19477,39565
19,19888,37701
19,20300,38250
19,20713,34909
19,21125,37334
19,21537,34090
19,21950,34871
19,22362,34918
19,22773,32869
19,23187,32825
19,23598,32627
19,24010,33460
19,24423,33375
19,24835,33841
19,25247,30514
19,25658,29245
19,26072,30488
19,26483,32848
19,26895,28731
19,27308,30954
19,27720,28811
19,28132,26534
19,28545,26418
19,28957,28665
19,29368,27945
19,29782,27268
19,30193,26698
19,30605,27400
19,31018,31110
19,31430,33280
19,31842,39579
19,32255,59073
19,32667,82664
19,33078,123951
19,33492,183472
19,33903,270756
19,34315,386752
19,34727,516825
19,35140,654197
19,35552,785766
19,35963,885286
19,36377,941930
19,36788,955447
19,37200,903206
19,37613,820406
19,38025,713248
19,38437,588798
19,38850,481073
19,39262,397096
19,39673,326644
19,40087,269482
19,40498,229197
19,40910,193880
19,41323,170014
19,41735,149402
19,42147,131131
19,42560,115998
19,42972,107768
19,43383,99343
19,43795,95000
19,44208,84847
19,44620,77512
19,45032,76221
19,45445,70279
19,45857,68263
19,46268,63036
19,46682,59972
19,47093,60159
19,47505,55990
19,47918,51763
19,48330,49087
19,48742,49054
19,49155,45445
19,49567,44699
19,49978,43955
19,50392,44355
19,50803,40578
19,51215,38446
19,51628,38000
19,52040,37309
19,52452,37574
19,52863,34333
19,53277,36031
19,53688,32103
19,54100,32541
19,54513,30368
19,54925,32226
19,55337,29286
19,55750,32907
19,56162,30243
19,56573,27732
19,56987,31159
19,57398,28184
19,57810,29353
19,58223,30740
19,58635,32144
19,59047,30270
19,59460,31409
19,59872,30105
19,60283,27068
19,60697,29361
19,61108,27273
19,61520,28861
19,61932,28054
19,62345,24909
19,62757,26279
19,63168,26023
19,63582,25675
19,63993,25579
19,64405,24197
19,64818,25839
19,65230,25017
19,65642,24744
19,66055,25772
19,66467,24890
19,66878,25657
19,67292,25608
19,67703,25992
19,68115,25539
19,68528,27383
19,68940,26629
19,69352,23877
19,69765,25962
19,70177,24550
19,70588,24329
19,71000,24177
19,71413,24846
19,71825,23244
19,72237,22033
19,72650,22464
19,73062,23772
19,73473,22815
19,73887,21865
19,74298,21720
19,74710,21219
19,75123,21104
19,75535,19474
19,75947,20994
19,76360,19607
19,76772,19792
19,77183,19946
19,77597,19681
19,78008,20586
19,78420,19342
19,78833,19703
19,79245,19048
19,79657,18515
19,80070,19237
19,80482,19308
19,80893,20282
19,81305,18442
19,81718,19259
19,82130,22027
19,82542,20556
19,82955,21413
19,83367,21513
19,83778,19889
19,84192,20701
19,84603,21801
19,85015,20664
19,85428,19205
19,85840,19912
19,86252,20621
19,86665,19642
19,87077,20240
19,87488,19130
19,87902,18902
19,88313,20112
19,88725,19119
19,89138,19508
19,89550,18889
19,89962,19096
19,90373,19783
19,90787,21729
19,91198,20045
19,91610,19579
19,92023,20701
19,92435,21440
19,92847,21196
19,93260,21110
19,93672,20561
19,94083,20374
19,94497,20016
19,94908,19552
19,95320,18213
19,95733,18984
19,96145,18900
19,96557,18595
19,96970,18465
19,97382,17823
19,97793,17761
19,98207,18006
19,98618,18929
19,99030,17730
19,99442,18397
19,99855,18927
20,00267,15983
20,00678,17160
20,01092,16568
20,01503,17655
20,01915,18703
20,02328,19458
20,02740,17529
20,03152,18595
20,03565,18808
20,03977,18595
20,04388,18027
20,04802,19795
20,05213,19735
20,05625,19568
20,06038,19208
20,06450,18714
20,06862,17806
20,07275,18689
20,07687,17949
20,08098,18712
20,08510,18945
20,08923,16693
20,09335,17514
20,09747,17373
20,10160,17980
20,10572,18053
20,10983,16349
20,11397,17591
20,11808,15401
20,12220,18438
20,12633,17414
20,13045,19034
20,13457,19174
20,13870,19253
20,14282,20147
20,14693,19159
20,15107,20481
20,15518,18491
20,15930,18523
20,16343,17905
20,16755,18601
20,17167,17866
20,17578,17224
20,17992,18396
20,18403,17922
20,18815,17795
20,19228,18816
20,19640,19119
20,20052,18397
20,20465,17969
20,20877,18264
20,21288,17115
20,21702,17026
20,22113,18737
20,22525,17990
20,22938,17134
20,23350,16466
20,23762,18607
20,24175,18369
20,24587,18693
20,24998,18879
20,25412,17360
20,25823,17323
20,26235,18603
20,26647,18640
20,27060,17299
20,27472,18189
20,27883,16891
20,28297,17482
20,28708,17520
20,29120,16117
20,29533,15432
20,29945,15811
20,30357,15861
20,30770,16823
20,31182,17422
20,31593,14566
20,32007,15752
20,32418,16596
20,32830,16211
20,33243,16739
20,33655,16145
20,34067,16773
20,34480,15645
20,34892,17502
20,35303,17282
20,35715,16102
20,36128,17422
20,36540,16858
20,36952,19735
20,37365,18498
20,37777,16600
20,38188,17862
20,38602,18039
20,39013,17550
20,39425,16727
20,39838,17367
20,40250,18246
20,40662,17651
20,41075,17090
20,41487,21062
20,41898,24158
20,42312,30195
20,42723,39947
20,43135,56295
20,43548,81457
20,43960,116117
20,44372,157906
20,44783,210846
20,45197,274830
20,45608,332600
20,46020,388004
20,46433,434616
20,46845,456521
20,47257,468914
20,47670,453947
20,48082,424259
20,48493,379807
20,48907,344450
20,49318,296322
20,49730,249575
20,50143,212520
20,50555,180549
20,50967,151435
20,51380,130006
20,51792,111895
20,52203,99932
20,52617,86471
20,53028,79687
20,53440,71173
20,53852,64145
20,54265,60394
20,54677,56776
20,55088,53631
20,55502,48313
20,55913,47495
20,56325,42462
20,56738,41021
20,57150,40040
20,57562,37124
20,57975,36248
20,58387,35264
20,58798,35717
20,59212,35318
20,59623,31240
20,60035,31325
20,60448,32539
20,60860,31107
20,61272,29066
20,61685,28182
20,62097,26611
20,62508,27355
20,62920,27485
20,63333,26127
20,63745,27553
20,64157,26324
20,64570,25767
20,64982,24616
20,65393,25204
20,65807,23008
20,66218,22187
20,66630,23933
20,67043,22423
20,67455,22439
20,67867,24027
20,68280,22691
20,68692,21459
20,69103,22991
20,69517,19925
20,69928,21372
20,70340,22245
20,70753,21940
20,71165,20848
20,71577,21623
20,71988,20392
20,72402,19804
20,72813,20868
20,73225,19511
20,73638,19493
20,74050,21447
20,74462,22091
20,74875,21274
20,75287,20933
20,75698,20804
20,76112,19922
20,76523,19366
20,76935,19497
20,77348,19094
20,77760,19272
20,78172,19694
20,78585,17926
20,78997,19403
20,79408,18694
20,79822,19448
20,80233,19063
20,80645,18844
20,81057,18614
20,81470,18533
20,81882,18512
20,82293,18708
20,82707,17450
20,83118,18859
20,83530,18049
20,83943,18634
20,84355,17986
20,84767,17713
20,85180,18118
20,85592,17902
20,86003,15982
20,86417,17694
20,86828,18377
20,87240,17421
20,87653,17505
20,88065,16791
20,88477,18585
20,88890,19120
20,89302,19127
20,89713,19505
20,90125,18254
20,90538,16837
20,90950,17239
20,91362,18085
20,91775,17181
20,92187,18742
20,92598,19268
20,93012,17755
20,93423,17379
20,93835,16823
20,94248,17080
20,94660,15373
20,95072,16792
20,95485,18650
20,95897,17810
20,96308,17973
20,96722,17473
20,97133,17347
20,97545,18151
20,97958,17314
20,98370,18494
20,98782,17323
20,99193,18696
20,99607,18803
21,00018,19428
21,00430,18212
21,00843,17883
21,01255,19177
21,01667,19220
21,02080,19363
21,02492,19527
21,02903,19265
21,03317,17366
