D:\MassHunter\GCMS\1\data\Amal\Constant flow\130C\130C_1ml-min_9C-min_3.D Mon Sep 16 12:53:00 2024
Start of data points
4,94088,1280069
4,94502,1212449
4,94913,1158387
4,95325,1104398
4,95738,1045972
4,96150,988219
4,96562,944089
4,96975,912472
4,97387,851116
4,97798,811023
4,98212,773255
4,98623,751360
4,99035,712568
4,99448,689324
4,99860,676778
5,00272,654220
5,00683,671061
5,01097,716257
5,01508,804639
5,01920,934699
5,02333,1065281
5,02745,1197560
5,03157,1257784
5,03570,1284679
5,03982,1274890
5,04393,1255995
5,04807,1211834
5,05218,1170228
5,05630,1120361
5,06043,1097879
5,06455,1044913
5,06867,1012538
5,07280,963263
5,07692,932178
5,08103,893805
5,08517,856705
5,08928,828764
5,09340,798527
5,09752,758221
5,10165,729225
5,10577,700830
5,10988,667346
5,11402,642050
5,11813,618097
5,12225,590108
5,12638,570888
5,13050,543636
5,13462,522329
5,13875,509885
5,14287,488260
5,14698,462048
5,15112,442412
5,15523,425479
5,15935,408961
5,16348,389265
5,16760,377053
5,17172,353364
5,17585,339300
5,17997,320440
5,18408,300084
5,18820,287607
5,19233,277992
5,19645,257871
5,20057,243714
5,20470,235023
5,20882,221468
5,21293,211330
5,21707,199958
5,22118,196752
5,22530,187342
5,22943,178344
5,23355,176288
5,23767,165108
5,24180,162044
5,24592,153520
5,25003,148189
5,25417,143868
5,25828,139671
5,26240,134525
5,26653,136038
5,27065,132525
5,27477,127024
5,27888,124641
5,28302,122073
5,28713,121245
5,29125,121580
5,29538,119392
5,29950,114553
5,30362,112543
5,30775,109258
5,31187,109145
5,31598,112979
5,32012,108962
5,32423,109403
5,32835,107870
5,33248,106626
5,33660,106367
5,34072,102554
5,34485,99761
5,34897,101816
5,35308,102317
5,35722,102377
5,36133,99511
5,36545,101425
5,36957,96563
5,37370,98344
5,37782,96045
5,38193,95291
5,38607,94847
5,39018,94314
5,39430,94817
5,39843,90965
5,40255,90609
5,40667,93006
5,41080,88662
5,41492,90460
5,41903,87970
5,42317,87713
5,42728,87738
5,43140,88403
5,43553,87950
5,43965,86592
5,44377,86555
5,44790,85024
5,45202,84453
5,45613,87327
5,46025,83853
5,46438,83868
5,46850,82250
5,47262,82750
5,47675,82273
5,48087,83431
5,48498,82357
5,48912,80896
5,49323,82110
5,49735,80844
5,50148,79232
5,50560,80337
5,50972,76288
5,51385,81868
5,51797,78736
5,52208,80005
5,52622,78575
5,53033,78477
5,53445,79955
5,53858,78394
5,54270,79896
5,54682,78365
5,55093,78781
5,55507,78405
5,55918,77937
5,56330,78719
5,56743,76925
5,57155,75800
5,57567,78069
5,57980,76451
5,58392,75659
5,58803,76438
5,59217,75477
5,59628,76126
5,60040,76069
5,60453,75475
5,60865,74973
5,61277,74012
5,61690,75663
5,62102,76003
5,62513,72972
5,62927,74381
5,63338,73547
5,63750,73345
5,64162,76404
5,64575,72646
5,64987,72120
5,65398,73536
5,65812,71463
5,66223,73029
5,66635,71374
5,67048,68396
5,67460,71015
5,67872,70409
5,68285,68173
5,68697,69484
5,69108,73919
5,69522,84824
5,69933,108770
5,70345,160057
5,70758,253807
5,71170,401436
5,71582,589322
5,71995,799316
5,72407,1006948
5,72818,1154181
5,73230,1240639
5,73643,1297614
5,74055,1304941
5,74467,1285100
5,74880,1241276
5,75292,1208919
5,75703,1163059
5,76117,1113365
5,76528,1063105
5,76940,1012365
5,77353,966008
5,77765,919201
5,78177,874857
5,78590,833490
5,79002,791898
5,79413,748480
5,79827,713471
5,80238,674717
5,80650,627003
5,81063,597395
5,81475,566824
5,81887,525860
5,82298,502936
5,82712,469736
5,83123,444109
5,83535,411860
5,83948,388140
5,84360,346353
5,84772,317702
5,85185,286779
5,85597,262944
5,86008,240530
5,86422,222619
5,86833,203811
5,87245,188827
5,87658,177536
5,88070,161845
5,88482,149777
5,88895,139832
5,89307,132085
5,89718,121073
5,90132,114436
5,90543,108461
5,90955,101676
5,91367,100765
5,91780,94944
5,92192,91354
5,92603,86179
5,93017,85119
5,93428,81862
5,93840,78735
5,94253,77193
5,94665,77273
5,95077,76692
5,95490,75191
5,95902,74585
5,96313,68963
5,96727,69784
5,97138,68749
5,97550,66425
5,97963,64417
5,98375,66562
5,98787,64539
5,99200,63162
5,99612,63277
6,00023,62071
6,00435,64356
6,00848,60780
6,01260,61447
6,01672,60606
6,02085,59996
6,02497,60246
6,02908,60729
6,03322,58269
6,03733,59942
6,04145,57760
6,04558,58575
6,04970,58990
6,05382,54878
6,05795,57609
6,06207,58464
6,06618,58340
6,07032,57990
6,07443,59865
6,07855,60415
6,08268,58010
6,08680,59895
6,09092,59123
6,09503,56684
6,09917,57819
6,10328,56626
6,10740,59425
6,11153,56927
6,11565,56462
6,11977,56662
6,12390,55380
6,12802,56814
6,13213,54315
6,13627,57101
6,14038,53782
6,14450,54629
6,14863,55502
6,15275,55222
6,15687,57492
6,16100,61963
6,16512,73611
6,16923,106162
6,17337,156911
6,17748,228636
6,18160,333580
6,18572,444404
6,18985,555129
6,19397,652092
6,19808,732077
6,20222,759754
6,20633,776738
6,21045,766980
6,21458,749607
6,21870,726983
6,22282,686762
6,22695,663119
6,23107,632273
6,23518,593294
6,23932,558407
6,24343,532490
6,24755,494527
6,25168,478240
6,25580,448936
6,25992,416077
6,26405,390275
6,26817,366044
6,27228,342039
6,27640,318863
6,28053,292503
6,28465,271323
6,28877,244515
6,29290,222595
6,29702,197522
6,30113,181447
6,30527,168250
6,30938,154268
6,31350,138383
6,31763,123926
6,32175,116073
6,32587,104244
6,33000,98219
6,33412,88726
6,33823,84751
6,34237,79891
6,34648,74855
6,35060,69298
6,35473,67897
6,35885,67173
6,36297,63897
6,36708,62258
6,37122,59072
6,37533,59021
6,37945,58157
6,38358,58087
6,38770,56145
6,39182,57412
6,39595,54311
6,40007,53916
6,40418,53448
6,40832,52262
6,41243,52296
6,41655,50790
6,42068,50451
6,42480,48547
6,42892,49261
6,43305,47439
6,43717,46802
6,44128,45310
6,44542,47701
6,44953,46378
6,45365,46534
6,45777,46877
6,46190,45457
6,46602,46156
6,47013,47458
6,47427,44981
6,47838,43686
6,48250,45639
6,48663,45671
6,49075,45088
6,49487,45277
6,49900,42501
6,50312,44093
6,50723,44048
6,51137,46804
6,51548,46544
6,51960,45785
6,52373,42695
6,52785,42967
6,53197,44422
6,53610,43560
6,54022,41822
6,54433,43944
6,54845,40452
6,55258,42895
6,55670,43555
6,56082,42232
6,56495,41673
6,56907,41990
6,57318,40000
6,57732,40970
6,58143,40232
6,58555,41778
6,58968,40834
6,59380,40218
6,59792,39271
6,60205,38965
6,60617,39043
6,61028,39756
6,61442,39036
6,61853,38800
6,62265,38197
6,62678,38957
6,63090,39028
6,63502,38416
6,63915,37576
6,64327,38895
6,64738,38054
6,65150,37680
6,65563,38735
6,65975,39019
6,66387,37406
6,66800,38765
6,67212,36453
6,67623,37586
6,68037,38801
6,68448,40843
6,68860,40093
6,69273,41103
6,69685,48002
6,70097,65227
6,70510,107154
6,70922,181696
6,71333,311740
6,71747,497189
6,72158,732886
6,72570,1006838
6,72983,1272301
6,73395,1500435
6,73807,1668073
6,74218,1774558
6,74632,1786270
6,75043,1758705
6,75455,1711256
6,75868,1630733
6,76280,1545804
6,76692,1458156
6,77105,1369051
6,77517,1271750
6,77928,1198967
6,78342,1122688
6,78753,1034278
6,79165,947692
6,79578,855401
6,79990,769639
6,80402,695742
6,80815,623599
6,81227,553281
6,81638,480887
6,82052,426087
6,82463,372026
6,82875,323803
6,83287,278191
6,83700,246211
6,84112,212180
6,84523,184963
6,84937,167434
6,85348,144736
6,85760,134184
6,86173,117731
6,86585,107046
6,86997,96145
6,87410,91204
6,87822,82857
6,88233,78169
6,88647,70875
6,89058,69845
6,89470,63704
6,89883,62597
6,90295,58860
6,90707,57005
6,91120,55513
6,91532,51722
6,91943,53160
6,92355,51111
6,92768,48968
6,93180,46463
6,93592,47911
6,94005,45198
6,94417,43896
6,94828,43256
6,95242,41677
6,95653,41374
6,96065,42214
6,96478,42206
6,96890,40716
6,97302,41890
6,97715,40124
6,98127,38296
6,98538,38824
6,98952,39264
6,99363,40060
6,99775,39696
7,00188,37810
7,00600,36761
7,01012,38492
7,01423,39348
7,01837,40135
7,02248,38176
7,02660,38015
7,03073,37212
7,03485,36809
7,03897,35378
7,04310,35958
7,04722,36497
7,05133,36679
7,05547,36865
7,05958,35351
7,06370,37400
7,06783,34438
7,07195,34068
7,07607,35152
7,08020,33514
7,08432,33600
7,08843,36100
7,09257,33424
7,09668,34223
7,10080,33552
7,10492,35899
7,10905,31883
7,11317,32278
7,11728,33026
7,12142,33155
7,12553,33856
7,12965,34667
7,13378,31200
7,13790,33120
7,14202,32820
7,14615,33053
7,15027,33037
7,15438,32012
7,15852,32736
7,16263,33240
7,16675,31027
7,17088,33165
7,17500,32320
7,17912,33029
7,18325,32173
7,18737,32102
7,19148,32722
7,19560,31823
7,19973,32897
7,20385,30651
7,20797,32870
7,21210,31867
7,21622,32536
7,22033,31600
7,22447,29692
7,22858,32579
7,23270,30391
7,23683,31107
7,24095,31557
7,24507,32135
7,24920,31211
7,25332,31251
7,25743,31307
7,26157,32188
7,26568,31823
7,26980,30959
7,27393,30871
7,27805,31116
7,28217,31461
7,28628,29277
7,29042,31709
7,29453,34350
7,29865,42473
7,30278,56613
7,30690,81423
7,31102,132699
7,31515,221499
7,31927,340046
7,32338,492246
7,32752,646350
7,33163,798233
7,33575,943289
7,33988,1018081
7,34400,1067864
7,34812,1073428
7,35225,1058342
7,35637,1015512
7,36048,959721
7,36462,896459
7,36873,829035
7,37285,762974
7,37697,702633
7,38110,624372
7,38522,557237
7,38933,494788
7,39347,433399
7,39758,379822
7,40170,322646
7,40583,283255
7,40995,239006
7,41407,210706
7,41820,179636
7,42232,150586
7,42643,133955
7,43057,117113
7,43468,103637
7,43880,93131
7,44293,85940
7,44705,75245
7,45117,71457
7,45530,64024
7,45942,62576
7,46353,57665
7,46765,53078
7,47178,52873
7,47590,48088
7,48002,48138
7,48415,43237
7,48827,42822
7,49238,44095
7,49652,42569
7,50063,40240
7,50475,38049
7,50888,40617
7,51300,39229
7,51712,37597
7,52125,37619
7,52537,36172
7,52948,36155
7,53362,36333
7,53773,34029
7,54185,34694
7,54598,34890
7,55010,33967
7,55422,32952
7,55833,31617
7,56247,33182
7,56658,30205
7,57070,31241
7,57483,31321
7,57895,30961
7,58307,32567
7,58720,30825
7,59132,30029
7,59543,30944
7,59957,31107
7,60368,31109
7,60780,29568
7,61193,28998
7,61605,31549
7,62017,30551
7,62430,29509
7,62842,31040
7,63253,33206
7,63667,34481
7,64078,32934
7,64490,34241
7,64902,34237
7,65315,35164
7,65727,34223
7,66138,34391
7,66552,33866
7,66963,34009
7,67375,32900
7,67788,35020
7,68200,32875
7,68612,31424
7,69025,31709
7,69437,30661
7,69848,30890
7,70262,30007
7,70673,30273
7,71085,28953
7,71498,26515
7,71910,27969
7,72322,29698
7,72735,28999
7,73147,27697
7,73558,25971
7,73970,29267
7,74383,28767
7,74795,27900
7,75207,25339
7,75620,27593
7,76032,27255
7,76443,28120
7,76857,26166
7,77268,28049
7,77680,27681
7,78093,27054
7,78505,26730
7,78917,26595
7,79330,27200
7,79742,27686
7,80153,27323
7,80567,25736
7,80978,26431
7,81390,27235
7,81803,24826
7,82215,25551
7,82627,25602
7,83038,25992
7,83452,25723
7,83863,25282
7,84275,26221
7,84688,26957
7,85100,26245
7,85512,27469
7,85925,28676
7,86337,27892
7,86748,28113
7,87162,28399
7,87573,27540
7,87985,26604
7,88398,27754
7,88810,27340
7,89222,29798
7,89635,29279
7,90047,28934
7,90458,29350
7,90872,30070
7,91283,31352
7,91695,31360
7,92107,32806
7,92520,32446
7,92932,34164
7,93343,31903
7,93757,36330
7,94168,43754
7,94580,64941
7,94993,105622
7,95405,190728
7,95817,339033
7,96230,560016
7,96642,860078
7,97053,1226268
7,97467,1635453
7,97878,1999853
7,98290,2305236
7,98703,2499544
7,99115,2575753
7,99527,2559482
7,99940,2461343
8,00352,2307345
8,00763,2122471
8,01175,1907357
8,01588,1693395
8,02000,1484042
8,02412,1278027
8,02825,1079599
8,03237,903099
8,03648,742062
8,04062,606270
8,04473,500901
8,04885,413962
8,05298,348714
8,05710,290182
8,06122,242500
8,06535,206724
8,06947,178289
8,07358,156238
8,07772,134363
8,08183,119769
8,08595,110134
8,09008,101452
8,09420,92820
8,09832,83204
8,10243,77622
8,10657,73911
8,11068,68245
8,11480,65834
8,11893,60994
8,12305,58495
8,12717,57791
8,13130,54798
8,13542,53169
8,13953,49666
8,14367,49822
8,14778,50951
8,15190,46782
8,15603,45622
8,16015,48143
8,16427,48316
8,16840,47406
8,17252,49209
8,17663,48264
8,18077,46898
8,18488,48224
8,18900,45499
8,19312,43570
8,19725,44467
8,20137,42763
8,20548,42592
8,20962,41201
8,21373,39759
8,21785,38691
8,22198,38484
8,22610,35552
8,23022,35196
8,23435,33686
8,23847,34067
8,24258,33723
8,24672,32410
8,25083,30084
8,25495,32124
8,25908,30787
8,26320,30426
8,26732,28644
8,27145,29615
8,27557,30177
8,27968,30674
8,28382,30690
8,28793,29422
8,29205,30480
8,29617,28872
8,30030,30298
8,30442,31745
8,30853,33948
8,31267,34992
8,31678,34893
8,32090,34711
8,32503,36375
8,32915,36294
8,33327,37618
8,33740,36064
8,34152,38723
8,34563,38025
8,34977,38254
8,35388,37765
8,35800,35986
8,36213,37203
8,36625,35599
8,37037,35633
8,37450,34203
8,37862,33714
8,38273,32390
8,38685,31870
8,39098,31464
8,39510,29800
8,39922,31270
8,40335,29216
8,40747,28754
8,41158,29826
8,41572,29816
8,41983,30177
8,42395,30179
8,42808,28793
8,43220,29432
8,43632,29673
8,44045,30302
8,44457,34819
8,44868,41795
8,45282,55020
8,45693,85623
8,46105,136808
8,46518,219952
8,46930,333320
8,47342,493262
8,47753,681674
8,48167,874233
8,48578,1045890
8,48990,1169025
8,49403,1264390
8,49815,1279188
8,50227,1265038
8,50640,1195629
8,51052,1099472
8,51463,986772
8,51877,870158
8,52288,747491
8,52700,636098
8,53113,536511
8,53525,434648
8,53937,366891
8,54350,296737
8,54762,248527
8,55173,208494
8,55587,176052
8,55998,150556
8,56410,131001
8,56822,115098
8,57235,102170
8,57647,94714
8,58058,84662
8,58472,80214
8,58883,77000
8,59295,71183
8,59708,70507
8,60120,65960
8,60532,67988
8,60945,70279
8,61357,70889
8,61768,79190
8,62182,99401
8,62593,141550
8,63005,211157
8,63418,325545
8,63830,479860
8,64242,685475
8,64655,903444
8,65067,1133817
8,65478,1323086
8,65890,1449941
8,66303,1532283
8,66715,1530791
8,67127,1470248
8,67540,1359861
8,67952,1233170
8,68363,1075126
8,68777,917868
8,69188,774513
8,69600,648870
8,70013,547631
8,70425,455624
8,70837,378230
8,71250,322412
8,71662,276278
8,72073,244220
8,72487,218011
8,72898,192979
8,73310,177634
8,73723,165858
8,74135,154419
8,74547,144486
8,74958,139990
8,75372,131276
8,75783,128060
8,76195,122989
8,76608,114526
8,77020,111920
8,77432,108449
8,77845,105608
8,78257,103048
8,78668,99422
8,79082,97986
8,79493,93922
8,79905,93237
8,80318,89952
8,80730,90058
8,81142,84341
8,81555,82708
8,81967,84128
8,82378,78915
8,82792,78860
8,83203,74441
8,83615,75382
8,84027,71352
8,84440,72412
8,84852,67985
8,85263,67345
8,85677,67513
8,86088,63037
8,86500,65023
8,86913,63808
8,87325,62261
8,87737,59087
8,88150,60429
8,88562,56188
8,88973,58299
8,89387,54419
8,89798,54775
8,90210,53419
8,90623,54264
8,91035,51241
8,91447,52559
8,91860,52881
8,92272,51656
8,92683,48968
8,93095,49361
8,93508,48767
8,93920,49618
8,94332,44764
8,94745,44470
8,95157,45268
8,95568,44884
8,95982,44656
8,96393,43931
8,96805,43576
8,97218,44499
8,97630,40319
8,98042,41592
8,98455,40832
8,98867,40453
8,99278,41172
8,99692,40515
9,00103,40693
9,00515,39808
9,00928,39063
9,01340,38978
9,01752,38249
9,02163,37678
9,02577,37853
9,02988,36474
9,03400,37130
9,03813,38132
9,04225,38408
9,04637,34631
9,05050,36898
9,05462,32845
9,05873,36337
9,06287,36920
9,06698,36945
9,07110,34029
9,07523,35010
9,07935,35756
9,08347,35034
9,08760,36151
9,09172,34904
9,09583,34079
9,09997,33138
9,10408,31051
9,10820,32438
9,11232,32753
9,11645,32290
9,12057,33105
9,12468,34953
9,12882,33769
9,13293,36896
9,13705,39439
9,14118,52057
9,14530,76638
9,14942,119297
9,15355,193871
9,15767,326718
9,16178,495230
9,16592,706636
9,17003,928803
9,17415,1146887
9,17828,1329542
9,18240,1452124
9,18652,1493194
9,19065,1451778
9,19477,1345643
9,19888,1195163
9,20300,1032095
9,20713,883237
9,21125,731255
9,21537,596967
9,21950,481083
9,22362,389618
9,22773,306907
9,23187,257313
9,23598,212791
9,24010,177263
9,24423,147667
9,24835,130158
9,25247,113859
9,25660,103097
9,26072,93753
9,26483,83673
9,26897,78370
9,27308,73273
9,27720,67079
9,28133,62713
9,28545,61308
9,28957,61106
9,29368,56851
9,29782,59598
9,30193,69921
9,30605,101322
9,31018,174124
9,31430,310597
9,31842,557443
9,32255,937193
9,32667,1452376
9,33078,2120225
9,33492,2891279
9,33903,3655333
9,34315,4328395
9,34728,4847528
9,35140,5085442
9,35552,4993741
9,35965,4691582
9,36377,4181094
9,36788,3543929
9,37202,2890588
9,37613,2320292
9,38025,1819530
9,38437,1424633
9,38850,1110538
9,39262,872578
9,39673,700135
9,40087,570394
9,40498,469924
9,40910,391331
9,41323,335944
9,41735,288218
9,42147,256318
9,42560,228267
9,42972,203443
9,43383,181104
9,43797,166457
9,44208,150346
9,44620,139941
9,45033,132344
9,45445,122834
9,45857,114436
9,46270,106637
9,46682,103691
9,47093,100229
9,47505,93025
9,47918,88485
9,48330,84666
9,48742,80074
9,49155,77420
9,49567,75862
9,49978,70917
9,50392,69934
9,50803,67409
9,51215,64692
9,51628,60614
9,52040,58376
9,52452,58264
9,52865,56314
9,53277,55567
9,53688,53550
9,54102,52005
9,54513,50041
9,54925,52027
9,55338,48895
9,55750,49497
9,56162,48478
9,56573,46377
9,56987,46918
9,57398,42801
9,57810,43970
9,58223,41607
9,58635,40694
9,59047,39512
9,59460,41350
9,59872,37321
9,60283,38709
9,60697,40080
9,61108,40107
9,61520,38469
9,61933,38468
9,62345,39232
9,62757,38984
9,63170,36651
9,63582,38841
9,63993,36434
9,64407,37629
9,64818,36546
9,65230,35276
9,65642,35927
9,66055,33654
9,66467,32709
9,66878,35780
9,67292,33876
9,67703,33733
9,68115,33318
9,68528,31036
9,68940,30783
9,69352,33815
9,69765,32198
9,70177,33760
9,70588,34726
9,71002,32623
9,71413,34247
9,71825,34032
9,72238,33648
9,72650,33118
9,73062,34138
9,73475,38282
9,73887,39998
9,74298,53557
9,74710,78319
9,75123,123938
9,75535,206966
9,75947,338262
9,76360,523212
9,76772,758598
9,77183,1021090
9,77597,1261304
9,78008,1453321
9,78420,1564444
9,78833,1572184
9,79245,1529694
9,79657,1401588
9,80070,1217967
9,80482,1011408
9,80893,822839
9,81307,665970
9,81718,529210
9,82130,416787
9,82543,334995
9,82955,272924
9,83367,226015
9,83778,189417
9,84192,161784
9,84603,141329
9,85015,123211
9,85428,112103
9,85840,104967
9,86252,95637
9,86665,89700
9,87077,86941
9,87488,80728
9,87902,79022
9,88313,73240
9,88725,68875
9,89138,63686
9,89550,63805
9,89962,61640
9,90375,54119
9,90787,55103
9,91198,52981
9,91612,50717
9,92023,48402
9,92435,46652
9,92848,46992
9,93260,46421
9,93672,41552
9,94083,42182
9,94497,42972
9,94908,41161
9,95320,38162
9,95733,41248
9,96145,39155
9,96557,38460
9,96970,40657
9,97382,41220
9,97793,43217
9,98207,44554
9,98618,49602
9,99030,54620
9,99443,72972
9,99855,105306
10,00267,164017
10,00680,265366
10,01092,429879
10,01503,660044
10,01917,940016
10,02328,1247066
10,02740,1539915
10,03152,1736385
10,03565,1834531
10,03977,1822551
10,04388,1676906
10,04802,1482854
10,05213,1250465
10,05625,1014437
10,06038,810097
10,06450,638132
10,06862,507355
10,07275,399388
10,07687,323980
10,08098,264807
10,08512,221274
10,08923,186455
10,09335,161793
10,09748,141002
10,10160,123958
10,10572,111094
10,10985,103269
10,11397,96826
10,11808,86090
10,12220,81745
10,12633,75465
10,13045,71144
10,13457,68415
10,13870,66586
10,14282,62919
10,14693,62531
10,15107,58540
10,15518,57121
10,15930,52542
10,16343,54864
10,16755,49251
10,17167,49717
10,17580,47924
10,17992,47469
10,18403,45207
10,18817,44221
10,19228,45595
10,19640,43801
10,20053,42468
10,20465,42146
10,20877,42165
10,21288,41444
10,21702,40133
10,22113,40198
10,22525,39287
10,22938,39738
10,23350,36728
10,23762,39294
10,24175,38705
10,24587,38102
10,24998,36820
10,25412,37216
10,25823,37430
10,26235,35993
10,26648,36228
10,27060,38517
10,27472,37460
10,27885,38556
10,28297,35782
10,28708,34081
10,29122,35482
10,29533,32080
10,29945,33450
10,30357,34679
10,30770,32222
10,31182,35992
10,31593,34704
10,32007,32327
10,32418,31306
10,32830,32998
10,33243,30904
10,33655,32538
10,34067,33789
10,34480,30407
10,34892,30727
10,35303,33927
10,35717,33121
10,36128,30520
10,36540,31389
10,36953,32160
10,37365,29765
10,37777,32434
10,38190,28046
10,38602,30515
10,39013,30013
10,39425,29418
10,39838,29164
10,40250,28782
10,40662,30750
10,41075,31740
10,41487,32277
10,41898,33992
10,42312,34992
10,42723,45450
10,43135,63215
10,43548,94618
10,43960,161291
10,44372,273305
10,44785,445407
10,45197,678566
10,45608,947372
10,46022,1241518
10,46433,1501684
10,46845,1669686
10,47258,1757620
10,47670,1708704
10,48082,1586264
10,48493,1401293
10,48907,1177441
10,49318,956044
10,49730,761829
10,50143,599670
10,50555,474973
10,50967,384287
10,51380,301464
10,51792,251047
10,52203,213159
10,52617,182731
10,53028,156156
10,53440,138960
10,53853,121399
10,54265,111781
10,54677,104791
10,55090,92225
10,55502,85659
10,55913,81084
10,56327,76509
10,56738,73456
10,57150,66583
10,57562,64704
10,57975,60906
10,58387,60939
10,58798,57321
10,59212,57809
10,59623,55650
10,60035,54387
10,60448,49294
10,60860,50666
10,61272,47896
10,61685,46109
10,62097,46956
10,62508,46063
10,62922,45439
10,63333,45095
10,63745,43333
10,64158,40884
10,64570,40178
10,64982,40181
10,65395,41291
10,65807,39359
10,66218,41589
10,66630,43701
10,67043,55127
10,67455,73884
10,67867,123531
10,68280,223653
10,68692,400600
10,69103,687953
10,69517,1112631
10,69928,1667232
10,70340,2290160
10,70753,2962692
10,71165,3527356
10,71577,3916367
10,71990,4069772
10,72402,3900426
10,72813,3464481
10,73227,2923269
10,73638,2361626
10,74050,1871720
10,74463,1457297
10,74875,1123423
10,75287,873878
10,75698,687940
10,76112,564063
10,76523,466439
10,76935,401332
10,77348,344054
10,77760,302367
10,78172,273587
10,78585,251464
10,78997,227456
10,79408,211342
10,79822,196345
10,80233,178057
10,80645,168162
10,81058,155228
10,81470,143866
10,81882,135021
10,82295,121965
10,82707,116954
10,83118,109614
10,83532,99005
10,83943,95358
10,84355,92351
10,84767,86884
10,85180,83628
10,85592,80062
10,86003,76699
10,86417,74611
10,86828,70440
10,87240,65949
10,87653,67232
10,88065,62529
10,88477,66518
10,88890,64278
10,89302,61332
10,89713,63149
10,90127,58399
10,90538,56314
10,90950,58706
10,91363,58324
10,91775,63390
10,92187,79119
10,92600,108071
10,93012,170283
10,93423,265724
10,93835,435930
10,94248,669827
10,94660,959307
10,95072,1273850
10,95485,1570244
10,95897,1796451
10,96308,1917047
10,96722,1896865
10,97133,1747270
10,97545,1527101
10,97958,1275551
10,98370,1041480
10,98782,824648
10,99195,652374
10,99607,518866
11,00018,423962
11,00432,349859
11,00843,285663
11,01255,243848
11,01668,212785
11,02080,184440
11,02492,163309
11,02903,149821
11,03317,135952
11,03728,128359
11,04140,121742
11,04553,120741
11,04965,134790
11,05377,171005
11,05790,261469
11,06202,423734
11,06613,681609
11,07027,1080347
11,07438,1620020
11,07850,2235463
11,08263,2853845
11,08675,3371697
11,09087,3746447
11,09500,3855068
11,09912,3723595
11,10323,3364538
11,10737,2824823
11,11148,2312382
11,11560,1828883
11,11972,1420887
11,12385,1110243
11,12797,872761
11,13208,703036
11,13622,568411
11,14033,481986
11,14445,401956
11,14858,352477
11,15270,303252
11,15682,261103
11,16095,238192
11,16507,219331
11,16918,200435
11,17332,183770
11,17743,166247
11,18155,155298
11,18568,145295
11,18980,137578
11,19392,129491
11,19805,124675
11,20217,117326
11,20628,108531
11,21040,104026
11,21453,98950
11,21865,95115
11,22277,92650
11,22690,88893
11,23102,85379
11,23513,82748
11,23927,80103
11,24338,76719
11,24750,76048
11,25163,74818
11,25575,73045
11,25987,67662
11,26400,66935
11,26812,66684
11,27223,64650
11,27637,62067
11,28048,63154
11,28460,58221
11,28873,58884
11,29285,54918
11,29697,59282
11,30108,54427
11,30522,56961
11,30933,58289
11,31345,59592
11,31758,69444
11,32170,92376
11,32582,138070
11,32995,225958
11,33407,372870
11,33818,584942
11,34232,884952
11,34643,1235516
11,35055,1644807
11,35468,2060670
11,35880,2492005
11,36292,2887177
11,36705,3340870
11,37117,3762469
11,37528,4112809
11,37942,4497116
11,38353,4633048
11,38765,4544059
11,39177,4164165
11,39590,3600852
11,40002,2991716
11,40413,2394719
11,40827,1879960
11,41238,1475944
11,41650,1141485
11,42063,921606
11,42475,759350
11,42887,622782
11,43300,526838
11,43712,447411
11,44123,390973
11,44537,350120
11,44948,315971
11,45360,278287
11,45773,255503
11,46185,231713
11,46597,210191
11,47010,198155
11,47422,184418
11,47833,170292
11,48245,163837
11,48658,153435
11,49070,141267
11,49482,137544
11,49895,131391
11,50307,128790
11,50718,122265
11,51132,114585
11,51543,110596
11,51955,110629
11,52368,105474
11,52780,100882
11,53192,101073
11,53605,97434
11,54017,94182
11,54428,93871
11,54842,90081
11,55253,88677
11,55665,84848
11,56078,84703
11,56490,82997
11,56902,78834
11,57315,74042
11,57727,73563
11,58138,76151
11,58550,69765
11,58963,68613
11,59375,65597
11,59787,66616
11,60200,68960
11,60612,68553
11,61023,70980
11,61437,90724
11,61848,121607
11,62260,191303
11,62673,296787
11,63085,464086
11,63497,699192
11,63910,953696
11,64322,1243871
11,64733,1476212
11,65147,1631410
11,65558,1663062
11,65970,1590240
11,66383,1436900
11,66795,1232124
11,67207,1022903
11,67618,832736
11,68032,663850
11,68443,528181
11,68855,428122
11,69268,342935
11,69680,290184
11,70092,248786
11,70505,212556
11,70917,186516
11,71328,166264
11,71742,149731
11,72153,139700
11,72565,126948
11,72978,119615
11,73390,114513
11,73802,103761
11,74215,100869
11,74627,95325
11,75038,93415
11,75452,90462
11,75863,88731
11,76275,81997
11,76687,78564
11,77100,75965
11,77512,74158
11,77923,71407
11,78337,67494
11,78748,65519
11,79160,63277
11,79573,62167
11,79985,59080
11,80397,60154
11,80810,60504
11,81222,59185
11,81633,57522
11,82047,56179
11,82458,57196
11,82870,53719
11,83283,53676
11,83695,51920
11,84107,51459
11,84520,52543
11,84932,50176
11,85343,47628
11,85755,50579
11,86168,47777
11,86580,48803
11,86992,48480
11,87405,47542
11,87817,45729
11,88228,46358
11,88642,46506
11,89053,45017
11,89465,42663
11,89878,45059
11,90290,47724
11,90702,43890
11,91115,45271
11,91527,46812
11,91938,46096
11,92352,46633
11,92763,47240
11,93175,49688
11,93588,48979
11,94000,48866
11,94412,47150
11,94823,46291
11,95237,45561
11,95648,45105
11,96060,46444
11,96473,43818
11,96885,44114
11,97297,43211
11,97710,44611
11,98122,42513
11,98533,47411
11,98947,58326
11,99358,83173
11,99770,133597
12,00183,240478
12,00595,430568
12,01007,745328
12,01420,1219437
12,01832,1854929
12,02243,2635446
12,02657,3480432
12,03068,4303527
12,03480,4911210
12,03892,5205143
12,04305,5233665
12,04717,4920322
12,05128,4430136
12,05542,3851861
12,05953,3219954
12,06365,2687759
12,06778,2169131
12,07190,1765423
12,07602,1425490
12,08015,1141223
12,08427,939890
12,08838,771008
12,09252,651493
12,09663,549560
12,10075,468472
12,10488,422547
12,10900,365206
12,11312,328036
12,11725,300307
12,12137,272927
12,12548,246930
12,12960,223979
12,13373,218125
12,13785,194690
12,14197,181814
12,14610,171125
12,15022,162988
12,15433,156569
12,15847,147897
12,16258,140857
12,16670,136228
12,17083,131450
12,17495,122024
12,17907,118990
12,18320,112987
12,18732,107182
12,19143,105853
12,19557,100021
12,19968,101379
12,20380,94652
12,20793,91788
12,21205,91403
12,21617,91756
12,22028,86228
12,22442,84603
12,22853,84593
12,23265,82162
12,23678,81225
12,24090,80242
12,24502,81667
12,24915,79548
12,25327,84043
12,25738,96145
12,26152,120052
12,26563,163582
12,26975,243064
12,27388,363656
12,27800,539183
12,28212,773081
12,28625,1018619
12,29037,1255860
12,29448,1415105
12,29862,1486405
12,30273,1460019
12,30685,1345704
12,31097,1172539
12,31510,1001100
12,31922,806362
12,32333,655082
12,32747,534077
12,33158,434597
12,33570,352869
12,33983,299223
12,34395,251675
12,34807,229993
12,35220,218584
12,35632,234526
12,36043,289872
12,36457,401749
12,36868,573355
12,37280,818947
12,37693,1141568
12,38105,1479544
12,38517,1775199
12,38930,1986053
12,39342,2049103
12,39753,1973757
12,40165,1803189
12,40578,1554246
12,40990,1280648
12,41402,1045661
12,41815,844879
12,42227,683243
12,42638,558171
12,43052,462851
12,43463,393405
12,43875,339621
12,44288,294165
12,44700,258866
12,45112,237668
12,45525,211962
12,45937,193954
12,46348,180915
12,46762,166417
12,47173,155990
12,47585,148084
12,47998,137651
12,48410,128523
12,48822,123799
12,49233,119044
12,49647,114127
12,50058,110391
12,50470,103386
12,50883,97728
12,51295,98371
12,51707,95208
12,52120,93520
12,52532,89305
12,52943,85937
12,53357,85293
12,53768,83066
12,54180,80103
12,54593,77693
12,55005,76553
12,55417,76143
12,55830,74385
12,56242,73157
12,56653,73544
12,57067,70028
12,57478,70880
12,57890,70973
12,58302,69183
12,58715,69341
12,59127,68049
12,59538,68387
12,59952,67132
12,60363,64367
12,60775,63367
12,61188,63252
12,61600,65983
12,62012,68915
12,62425,81093
12,62837,105891
12,63248,155183
12,63662,253373
12,64073,416297
12,64485,671921
12,64898,1011413
12,65310,1390522
12,65722,1757904
12,66135,2066800
12,66547,2200042
12,66958,2171984
12,67370,1983388
12,67783,1726620
12,68195,1424174
12,68607,1156576
12,69020,932019
12,69432,753289
12,69843,616544
12,70257,513286
12,70668,430778
12,71080,370418
12,71493,322051
12,71905,287298
12,72317,253632
12,72730,230680
12,73142,207035
12,73553,192158
12,73967,176542
12,74378,165310
12,74790,155560
12,75203,149306
12,75615,139016
12,76027,132658
12,76438,126245
12,76852,119552
12,77263,120495
12,77675,118024
12,78088,109030
12,78500,108114
12,78912,105887
12,79325,103818
12,79737,100356
12,80148,96996
12,80562,96210
12,80973,93865
12,81385,91829
12,81798,82831
12,82210,85052
12,82622,82369
12,83035,82013
12,83447,79845
12,83858,81790
12,84272,80565
12,84683,75918
12,85095,76692
12,85507,77529
12,85920,74547
12,86332,72835
12,86743,73667
12,87157,74019
12,87568,69953
12,87980,72153
12,88393,72653
12,88805,80979
12,89217,89840
12,89630,117626
12,90042,167311
12,90453,271783
12,90867,428889
12,91278,651728
12,91690,945893
12,92103,1242025
12,92515,1521359
12,92927,1702323
12,93340,1748780
12,93752,1682413
12,94163,1521399
12,94575,1311450
12,94988,1084707
12,95400,889402
12,95812,716650
12,96225,587993
12,96637,477301
12,97048,400757
12,97462,336250
12,97873,295677
12,98285,258441
12,98698,230592
12,99110,207932
12,99522,189084
12,99935,175415
13,00347,162126
13,00758,151844
13,01172,141419
13,01583,135300
13,01995,126144
13,02408,120029
13,02820,114068
13,03232,109429
13,03643,107896
13,04057,107672
13,04468,100341
13,04880,96460
13,05293,96339
13,05705,97179
13,06117,88768
13,06530,89327
13,06942,86942
13,07353,84093
13,07767,84386
13,08178,81447
13,08590,80906
13,09003,80108
13,09415,77834
13,09827,73570
13,10240,72826
13,10652,73694
13,11063,73293
13,11477,73515
13,11888,68389
13,12300,68768
13,12713,68877
13,13125,69802
13,13537,69301
13,13948,67338
13,14362,68484
13,14773,67723
13,15185,68753
13,15598,66727
13,16010,70522
13,16422,66875
13,16835,67957
13,17247,67512
13,17658,64423
13,18072,65320
13,18483,64951
13,18895,66383
13,19308,66528
13,19720,66317
13,20132,65396
13,20545,64204
13,20957,65992
13,21368,63653
13,21782,64128
13,22193,62549
13,22605,65909
13,23017,65862
13,23430,73092
13,23842,83897
13,24253,113730
13,24667,173092
13,25078,284193
13,25490,483009
13,25903,801823
13,26315,1234124
13,26727,1814392
13,27140,2496554
13,27552,3234059
13,27963,3915223
13,28377,4417513
13,28788,4629540
13,29200,4593013
13,29613,4298099
13,30025,3921971
13,30437,3578756
13,30850,3283852
13,31262,3025917
13,31673,2773953
13,32085,2502384
13,32498,2180649
13,32910,1884017
13,33322,1606828
13,33735,1334079
13,34147,1101548
13,34558,924989
13,34972,773665
13,35383,658608
13,35795,569877
13,36208,508586
13,36620,451038
13,37032,403094
13,37445,369718
13,37857,339305
13,38268,309584
13,38682,286803
13,39093,266918
13,39505,255270
13,39918,231135
13,40330,226811
13,40742,213460
13,41153,205604
13,41567,196861
13,41978,184268
13,42390,180566
13,42803,174521
13,43215,166938
13,43627,162185
13,44040,158616
13,44452,154047
13,44863,152187
13,45277,153632
13,45688,159109
13,46100,168843
13,46513,185179
13,46925,205875
13,47337,219689
13,47750,228026
13,48162,242063
13,48573,246594
13,48987,246473
13,49398,242676
13,49810,244681
13,50222,242467
13,50635,246903
13,51047,267824
13,51458,309062
13,51872,376278
13,52283,493923
13,52695,660445
13,53108,879027
13,53520,1129407
13,53932,1351254
13,54345,1506532
13,54757,1596855
13,55168,1583541
13,55582,1470479
13,55993,1329292
13,56405,1151642
13,56818,983164
13,57230,874673
13,57642,819054
13,58055,832230
13,58467,923440
13,58878,1082424
13,59290,1311903
13,59703,1618943
13,60115,1929888
13,60527,2226203
13,60940,2501647
13,61352,2726445
13,61763,2878004
13,62177,2947619
13,62588,2877205
13,63000,2673439
13,63413,2421252
13,63825,2120900
13,64237,1801617
13,64650,1502808
13,65062,1253927
13,65473,1047812
13,65887,885347
13,66298,750367
13,66710,662996
13,67123,583529
13,67535,515929
13,67947,461420
13,68358,426068
13,68772,392239
13,69183,360737
13,69595,338049
13,70008,321683
13,70420,293728
13,70832,273397
13,71245,262137
13,71657,250203
13,72068,236326
13,72482,227071
13,72893,214661
13,73305,211504
13,73718,201227
13,74130,194193
13,74542,187337
13,74955,181260
13,75367,176312
13,75778,174961
13,76192,168253
13,76603,168348
13,77015,160452
13,77427,157743
13,77840,152703
13,78252,146954
13,78663,143308
13,79077,143062
13,79488,137062
13,79900,136738
13,80313,129842
13,80725,126771
13,81137,127226
13,81550,122277
13,81962,124078
13,82373,117775
13,82787,119320
13,83198,118281
13,83610,121210
13,84023,126240
13,84435,138714
13,84847,165379
13,85260,218573
13,85672,314441
13,86083,460431
13,86495,680422
13,86908,959284
13,87320,1283226
13,87732,1617426
13,88145,1887250
13,88557,2043620
13,88968,2042428
13,89382,1910837
13,89793,1695090
13,90205,1468698
13,90618,1231668
13,91030,1018815
13,91442,860035
13,91855,721185
13,92267,624011
13,92678,539186
13,93092,473444
13,93503,423684
13,93915,380891
13,94328,340669
13,94740,318624
13,95152,295599
13,95563,269754
13,95977,256149
13,96388,241805
13,96800,227223
13,97213,214262
13,97625,210263
13,98037,198467
13,98450,189221
13,98862,181357
13,99273,179836
13,99687,177028
14,00098,171321
14,00510,168682
14,00923,164961
14,01335,160627
14,01747,157774
14,02160,155160
14,02572,150300
14,02983,142241
14,03397,143630
14,03808,135482
14,04220,134080
14,04632,133237
14,05045,127065
14,05457,122829
14,05868,125556
14,06282,121992
14,06693,114551
14,07105,114338
14,07518,112741
14,07930,113408
14,08342,109539
14,08755,110532
14,09167,111401
14,09578,108646
14,09992,105283
14,10403,104830
14,10815,105580
14,11228,105513
14,11640,109167
14,12052,117265
14,12465,136427
14,12877,173316
14,13288,241666
14,13700,356540
14,14113,519819
14,14525,730775
14,14937,988664
14,15350,1231352
14,15762,1440821
14,16173,1579901
14,16587,1606862
14,16998,1557319
14,17410,1424152
14,17823,1266784
14,18235,1089309
14,18647,933679
14,19060,787337
14,19472,662450
14,19883,565476
14,20297,495009
14,20708,430006
14,21120,381659
14,21533,342610
14,21945,317446
14,22357,294908
14,22768,291347
14,23182,302377
14,23593,346675
14,24005,414597
14,24418,507604
14,24830,644580
14,25242,811462
14,25655,974044
14,26067,1098321
14,26478,1189186
14,26892,1225007
14,27303,1200610
14,27715,1133299
14,28128,1019769
14,28540,899529
14,28952,778289
14,29365,660486
14,29777,570274
14,30188,489820
14,30602,424940
14,31013,374215
14,31425,330379
14,31837,292108
14,32250,272066
14,32662,251255
14,33073,224100
14,33487,214650
14,33898,196949
14,34310,184475
14,34723,177644
14,35135,169009
14,35547,165147
14,35960,156615
14,36372,151819
14,36783,148213
14,37197,143384
14,37608,139352
14,38020,138095
14,38433,131258
14,38845,128319
14,39257,125235
14,39670,122306
14,40082,121977
14,40493,118042
14,40905,117932
14,41318,112842
14,41730,109852
14,42142,112670
14,42555,105354
14,42967,111492
14,43378,107668
14,43792,105285
14,44203,105303
14,44615,101035
14,45028,103383
14,45440,105660
14,45852,106068
14,46265,115398
14,46677,133871
14,47088,164065
14,47502,219932
14,47913,315036
14,48325,471949
14,48738,697637
14,49150,1018008
14,49562,1426834
14,49973,1895890
14,50387,2402286
14,50798,2888677
14,51210,3330369
14,51623,3589155
14,52035,3637958
14,52447,3458659
14,52860,3114050
14,53272,2697981
14,53683,2284337
14,54097,1906605
14,54508,1588353
14,54920,1331282
14,55333,1139486
14,55745,984732
14,56157,844836
14,56570,749733
14,56982,670453
14,57393,604447
14,57807,546308
14,58218,508636
14,58630,465922
14,59042,431976
14,59455,395301
14,59867,369013
14,60278,351111
14,60692,330434
14,61103,310448
14,61515,299024
14,61928,285459
14,62340,269953
14,62752,255760
14,63165,249723
14,63577,233812
14,63988,225675
14,64402,220330
14,64813,213474
14,65225,201680
14,65638,198217
14,66050,190395
14,66462,178135
14,66875,178565
14,67287,172443
14,67698,170502
14,68112,165744
14,68523,161882
14,68935,156212
14,69347,152731
14,69760,149763
14,70172,146586
14,70583,145960
14,70997,141044
14,71408,138082
14,71820,137072
14,72233,136686
14,72645,134466
14,73057,130979
14,73470,130951
14,73882,131284
14,74293,126061
14,74707,125261
14,75118,121990
14,75530,119984
14,75943,121639
14,76355,119396
14,76767,117298
14,77180,114537
14,77592,114433
14,78003,113392
14,78415,108903
14,78828,109106
14,79240,110662
14,79652,109067
14,80065,111487
14,80477,107863
14,80888,104915
14,81302,104061
14,81713,105908
14,82125,106545
14,82538,109988
14,82950,112914
14,83362,129273
14,83775,153233
14,84187,191931
14,84598,256572
14,85012,343645
14,85423,485457
14,85835,654813
14,86248,879238
14,86660,1104389
14,87072,1320768
14,87483,1495420
14,87897,1588587
14,88308,1613717
14,88720,1549174
14,89133,1435281
14,89545,1285777
14,89957,1143062
14,90370,1005384
14,90782,855541
14,91193,759397
14,91607,652204
14,92018,579902
14,92430,514173
14,92843,466261
14,93255,413422
14,93667,386757
14,94080,351554
14,94492,325914
14,94903,305198
14,95317,282407
14,95728,267530
14,96140,250741
14,96552,241299
14,96965,227412
14,97377,216954
14,97788,206909
14,98202,202213
14,98613,192613
14,99025,191460
14,99438,182899
14,99850,172230
15,00262,168945
15,00675,163371
15,01087,162586
15,01498,156061
15,01912,153679
15,02323,146378
15,02735,143616
15,03148,141902
15,03560,138793
15,03972,133723
15,04385,132626
15,04797,128781
15,05208,125721
15,05620,123824
15,06033,125555
15,06445,123003
15,06857,118693
15,07270,119054
15,07682,114099
15,08093,112600
15,08507,111615
15,08918,109158
15,09330,112433
15,09743,106667
15,10155,106033
15,10567,106438
15,10980,104770
15,11392,101576
15,11803,105024
15,12217,106338
15,12628,99694
15,13040,99771
15,13453,99828
15,13865,98969
15,14277,98365
15,14688,97054
15,15102,99257
15,15513,95629
15,15925,97277
15,16338,95598
15,16750,94723
15,17162,97008
15,17575,93526
15,17987,91492
15,18398,92332
15,18812,94523
15,19223,94059
15,19635,95080
15,20048,94490
15,20460,91537
15,20872,89782
15,21285,94549
15,21697,92526
15,22108,94970
15,22522,90985
15,22933,88925
15,23345,89965
15,23757,89282
15,24170,90489
15,24582,87802
15,24993,85660
15,25407,86431
15,25818,85713
15,26230,83039
15,26643,84152
15,27055,82522
15,27467,84642
15,27880,83438
15,28292,83873
15,28703,82120
15,29117,80619
15,29528,81083
15,29940,79919
15,30353,80374
15,30765,79953
15,31177,79115
15,31590,81072
15,32002,84216
15,32413,86860
15,32825,96951
15,33238,101201
15,33650,108459
15,34062,117128
15,34475,128625
15,34887,136167
15,35298,141465
15,35712,151094
15,36123,152820
15,36535,150964
15,36948,146107
15,37360,140984
15,37772,135760
15,38185,127862
15,38597,121053
15,39008,117072
15,39422,110996
15,39833,103519
15,40245,99747
15,40658,92172
15,41070,92715
15,41482,90511
15,41893,88640
15,42307,84358
15,42718,85143
15,43130,82604
15,43543,85570
15,43955,85251
15,44367,81893
15,44780,81299
15,45192,77223
15,45603,77566
15,46017,79154
15,46428,80948
15,46840,78322
15,47253,78169
15,47665,78077
15,48077,72752
15,48490,75611
15,48902,74485
15,49313,74655
15,49727,73621
15,50138,74368
15,50550,74544
15,50962,74525
15,51375,72150
15,51787,74776
15,52198,72113
15,52612,75563
15,53023,71768
15,53435,73501
15,53848,75254
15,54260,71147
15,54672,68213
15,55085,69877
15,55497,68758
15,55908,73267
15,56322,71931
15,56733,72686
15,57145,70121
15,57558,72893
15,57970,72993
15,58382,70404
15,58795,71891
15,59207,70100
15,59618,68640
15,60030,70526
15,60443,72010
15,60855,69875
15,61267,71213
15,61680,68956
15,62092,67539
15,62503,71476
15,62917,68677
15,63328,65490
15,63740,66480
15,64153,70873
15,64565,70093
15,64977,71331
15,65390,69353
15,65802,71373
15,66213,68167
15,66627,68478
15,67038,69448
15,67450,68538
15,67863,69386
15,68275,68001
15,68687,68856
15,69098,70657
15,69512,68266
15,69923,67443
15,70335,67396
15,70748,67914
15,71160,67557
15,71572,68557
15,71985,66033
15,72397,67336
15,72808,67416
15,73222,66801
15,73633,63680
15,74045,68080
15,74458,69034
15,74870,67621
15,75282,69606
15,75695,66661
15,76107,66739
15,76518,68962
15,76932,68068
15,77343,70725
15,77755,67493
15,78167,69293
15,78580,66848
15,78992,69083
15,79403,67519
15,79817,66351
15,80228,67373
15,80640,69150
15,81053,69221
15,81465,67528
15,81877,65558
15,82290,64378
15,82702,65171
15,83113,69117
15,83527,66190
15,83938,63342
15,84350,67428
15,84763,65666
15,85175,66162
15,85587,67073
15,86000,65761
15,86412,66131
15,86823,65952
15,87235,65476
15,87648,64690
15,88060,66800
15,88472,65301
15,88885,64682
15,89297,65511
15,89708,66508
15,90122,67596
15,90533,66554
15,90945,64883
15,91358,63292
15,91770,66537
15,92182,65855
15,92595,66054
15,93007,67006
15,93418,70907
15,93832,74265
15,94243,82519
15,94655,102435
15,95068,126087
15,95480,161486
15,95892,213306
15,96303,273016
15,96717,350141
15,97128,440947
15,97540,521801
15,97953,606321
15,98365,662113
15,98777,697440
15,99190,711830
15,99602,702195
16,00013,678014
16,00427,627534
16,00838,587350
16,01250,536071
16,01663,481220
16,02075,427443
16,02487,382191
16,02900,346662
16,03312,314805
16,03723,284518
16,04137,263949
16,04548,233371
16,04960,217894
16,05372,203845
16,05785,186535
16,06197,176246
16,06608,165659
16,07022,159230
16,07433,149120
16,07845,141638
16,08258,136268
16,08670,132262
16,09082,130845
16,09495,123497
16,09907,118249
16,10318,115476
16,10732,117567
16,11143,112482
16,11555,109793
16,11968,108351
16,12380,104169
16,12792,103551
16,13205,99788
16,13617,97983
16,14028,98099
16,14440,95950
16,14853,97696
16,15265,94922
16,15677,91670
16,16090,91499
16,16502,89158
16,16913,90008
16,17327,86535
16,17738,87356
16,18150,84991
16,18563,86399
16,18975,85709
16,19387,82924
16,19800,82448
16,20212,82065
16,20623,82249
16,21037,83458
16,21448,80461
16,21860,79756
16,22273,80343
16,22685,78258
16,23097,81878
16,23508,78197
16,23922,81546
16,24333,77538
16,24745,76843
16,25158,79461
16,25570,76859
16,25982,78813
16,26395,76469
16,26807,75063
16,27218,76272
16,27632,74461
16,28043,77346
16,28455,75919
16,28868,73831
16,29280,76362
16,29692,70279
16,30105,73120
16,30517,70736
16,30928,68027
16,31342,70417
16,31753,72644
16,32165,68572
16,32578,70525
16,32990,70858
16,33402,68953
