D:\MassHunter\GCMS\1\data\Amal\Constant flow\110C\110C_1ml-min_4C-min_1.D Tue Jul 30 19:01:32 2024
Start of data points
5,59095,70410
5,59508,66305
5,59920,64778
5,60332,63842
5,60745,61628
5,61157,57373
5,61568,53953
5,61982,55426
5,62393,53615
5,62805,49857
5,63217,49911
5,63630,46605
5,64042,46704
5,64453,45157
5,64867,43296
5,65278,41867
5,65690,42799
5,66103,40269
5,66515,38861
5,66927,36916
5,67340,37975
5,67752,34491
5,68163,34826
5,68577,33984
5,68988,33007
5,69400,33753
5,69813,32199
5,70225,30533
5,70637,30968
5,71050,32076
5,71462,29561
5,71873,29523
5,72285,28764
5,72698,27406
5,73110,26921
5,73522,28338
5,73935,27592
5,74347,27115
5,74758,26855
5,75172,26997
5,75583,25405
5,75995,25715
5,76408,25256
5,76820,24631
5,77232,24663
5,77645,24063
5,78057,24936
5,78468,24297
5,78882,24291
5,79293,23840
5,79705,23578
5,80118,22832
5,80530,22582
5,80942,22711
5,81353,22478
5,81767,22201
5,82178,22697
5,82590,20406
5,83003,21557
5,83415,21161
5,83827,21855
5,84240,21266
5,84652,21827
5,85063,20912
5,85477,21975
5,85888,20777
5,86300,21628
5,86713,21508
5,87125,18909
5,87537,21823
5,87950,21094
5,88362,20119
5,88773,19919
5,89187,20877
5,89598,19619
5,90010,20445
5,90422,19586
5,90835,20505
5,91247,20136
5,91658,19952
5,92072,21134
5,92483,20397
5,92895,19744
5,93308,19162
5,93720,19612
5,94132,20109
5,94545,19785
5,94957,20524
5,95368,20237
5,95782,19006
5,96193,19117
5,96605,19627
5,97018,19023
5,97430,19798
5,97842,19851
5,98255,19193
5,98667,18554
5,99078,19348
5,99490,19824
5,99903,18787
6,00315,18635
6,00727,19197
6,01140,18945
6,01552,19239
6,01963,18896
6,02377,18684
6,02788,17888
6,03200,19071
6,03613,18830
6,04025,18270
6,04437,19224
6,04850,17919
6,05262,17880
6,05673,17879
6,06087,17247
6,06498,18998
6,06910,17275
6,07323,17819
6,07735,17234
6,08147,18107
6,08558,17074
6,08972,17985
6,09383,16298
6,09795,17354
6,10208,17529
6,10620,16320
6,11032,17040
6,11445,17414
6,11857,17299
6,12268,16984
6,12682,17070
6,13093,16310
6,13505,16499
6,13918,16982
6,14330,16421
6,14742,16406
6,15155,16615
6,15567,17247
6,15978,16657
6,16392,16057
6,16803,16461
6,17215,17124
6,17627,16973
6,18040,16229
6,18452,16951
6,18863,16611
6,19277,15834
6,19688,16198
6,20100,16502
6,20513,16750
6,20925,15888
6,21337,16183
6,21750,15962
6,22162,16000
6,22573,16559
6,22987,16525
6,23398,15617
6,23810,16183
6,24223,16308
6,24635,16034
6,25047,16252
6,25460,15627
6,25872,15052
6,26283,15503
6,26695,14400
6,27108,15459
6,27520,16002
6,27932,14507
6,28345,15118
6,28757,16568
6,29168,15342
6,29582,15168
6,29993,15135
6,30405,15831
6,30818,15655
6,31230,15089
6,31642,15759
6,32055,14505
6,32467,15482
6,32878,15174
6,33292,13829
6,33703,14964
6,34115,14821
6,34528,15154
6,34940,13647
6,35352,14197
6,35765,15067
6,36177,15432
6,36588,14823
6,37000,14931
6,37413,14094
6,37825,14710
6,38237,13870
6,38650,13772
6,39062,13889
6,39473,13345
6,39887,14081
6,40298,14479
6,40710,13795
6,41123,13464
6,41535,14229
6,41947,14590
6,42360,14289
6,42772,16430
6,43183,19377
6,43597,24203
6,44008,27556
6,44420,36612
6,44833,43340
6,45245,55018
6,45657,64879
6,46068,70467
6,46482,82794
6,46893,81858
6,47305,86233
6,47718,92918
6,48130,89272
6,48542,86968
6,48955,86459
6,49367,82078
6,49778,79500
6,50192,75536
6,50603,76161
6,51015,71318
6,51428,69643
6,51840,64281
6,52252,62572
6,52665,58113
6,53077,57815
6,53488,53185
6,53902,54183
6,54313,51120
6,54725,46922
6,55137,46606
6,55550,44574
6,55962,44404
6,56373,41667
6,56787,39542
6,57198,39995
6,57610,37902
6,58023,36002
6,58435,35023
6,58847,33874
6,59260,33748
6,59672,31932
6,60083,30462
6,60497,29992
6,60908,28152
6,61320,28048
6,61733,26777
6,62145,25446
6,62557,23031
6,62970,23573
6,63382,23317
6,63793,23771
6,64205,20912
6,64618,20441
6,65030,18741
6,65442,18927
6,65855,18670
6,66267,18037
6,66678,17127
6,67092,16916
6,67503,15811
6,67915,16472
6,68328,15286
6,68740,15176
6,69152,14996
6,69565,13397
6,69977,14135
6,70388,12747
6,70802,13313
6,71213,13199
6,71625,13177
6,72038,11842
6,72450,11809
6,72862,10934
6,73273,12656
6,73687,12148
6,74098,12377
6,74510,11724
6,74923,11241
6,75335,11662
6,75747,10958
6,76160,10472
6,76572,11072
6,76983,10408
6,77397,11133
6,77808,11438
6,78220,9854
6,78633,10293
6,79045,10687
6,79457,10673
6,79870,11129
6,80282,10883
6,80693,10141
6,81107,9794
6,81518,9910
6,81930,10668
6,82342,9644
6,82755,9434
6,83167,10922
6,83578,9754
6,83992,8938
6,84403,10201
6,84815,10084
6,85228,9750
6,85640,10465
6,86052,9895
6,86465,10599
6,86877,9157
6,87288,9865
6,87702,9516
6,88113,8952
6,88525,9653
6,88938,8917
6,89350,10425
6,89762,9152
6,90175,9536
6,90587,9210
6,90998,9750
6,91410,10125
6,91823,9959
6,92235,9247
6,92647,8593
6,93060,9503
6,93472,8694
6,93883,9874
6,94297,9670
6,94708,9845
6,95120,8763
6,95533,9755
6,95945,8580
6,96357,9627
6,96770,8918
6,97182,9053
6,97593,9233
6,98007,9388
6,98418,8894
6,98830,8258
6,99243,9908
6,99655,8556
7,00067,8852
7,00478,8660
7,00892,9285
7,01303,8086
7,01715,7965
7,02128,8882
7,02540,9456
7,02952,8871
7,03365,8737
7,03777,8635
7,04188,9817
7,04602,9171
7,05013,9685
7,05425,9021
7,05838,9214
7,06250,9223
7,06662,9162
7,07075,9277
7,07487,8787
7,07898,9338
7,08312,8944
7,08723,9010
7,09135,9414
7,09547,9050
7,09960,9242
7,10372,9029
7,10783,8720
7,11197,10001
7,11608,8087
7,12020,8776
7,12433,8746
7,12845,9497
7,13257,8957
7,13670,9996
7,14082,8951
7,14493,9597
7,14907,8692
7,15318,9852
7,15730,9163
7,16143,9304
7,16555,7854
7,16967,8748
7,17380,9322
7,17792,8750
7,18203,8700
7,18615,8889
7,19028,8343
7,19440,8993
7,19852,9001
7,20265,8829
7,20677,9281
7,21088,8394
7,21502,8239
7,21913,8883
7,22325,7648
7,22738,8321
7,23150,8160
7,23562,9011
7,23975,7542
7,24387,7853
7,24798,7658
7,25212,8185
7,25623,7825
7,26035,8262
7,26448,8438
7,26860,8237
7,27272,8601
7,27683,7534
7,28097,7881
7,28508,7483
7,28920,8144
7,29333,8924
7,29745,7863
7,30157,7589
7,30570,7844
7,30982,7308
7,31393,8028
7,31807,7681
7,32218,8027
7,32630,7758
7,33043,7413
7,33455,8101
7,33867,7983
7,34280,8636
7,34692,8281
7,35103,8181
7,35517,7950
7,35928,7770
7,36340,8267
7,36752,7481
7,37165,7982
7,37577,8214
7,37988,8525
7,38402,7999
7,38813,8565
7,39225,7195
7,39638,8353
7,40050,7961
7,40462,8675
7,40875,8305
7,41287,8540
7,41698,7260
7,42112,7436
7,42523,7960
7,42935,7624
7,43348,8124
7,43760,7844
7,44172,7509
7,44585,7835
7,44997,7231
7,45408,7549
7,45820,7848
7,46233,7548
7,46645,7606
7,47057,7925
7,47470,7698
7,47882,7682
7,48293,7007
7,48707,7880
7,49118,7236
7,49530,8250
7,49943,8312
7,50355,8344
7,50767,7583
7,51180,8084
7,51592,7129
7,52003,8566
7,52417,7617
7,52828,8102
7,53240,8198
7,53653,7412
7,54065,7171
7,54477,7573
7,54888,8091
7,55302,7659
7,55713,7548
7,56125,7438
7,56538,6659
7,56950,7506
7,57362,7349
7,57775,7920
7,58187,7767
7,58598,8035
7,59012,8362
7,59423,8185
7,59835,8644
7,60248,7785
7,60660,8348
7,61072,8122
7,61485,8031
7,61897,8147
7,62308,8308
7,62722,7386
7,63133,8262
7,63545,8213
7,63957,8282
7,64370,8093
7,64782,8134
7,65193,7930
7,65607,7965
7,66018,7453
7,66430,7705
7,66843,8415
7,67255,7314
7,67667,7051
7,68080,7527
7,68492,7727
7,68903,7691
7,69317,7633
7,69728,7576
7,70140,6591
7,70553,6948
7,70965,7374
7,71377,8338
7,71790,6949
7,72202,7061
7,72613,7850
7,73025,6794
7,73438,7236
7,73850,7976
7,74262,7245
7,74675,7128
7,75087,7175
7,75498,7014
7,75912,7518
7,76323,6733
7,76735,7264
7,77148,7131
7,77560,7014
7,77972,7292
7,78385,6792
7,78797,6314
7,79208,7084
7,79622,6457
7,80033,6846
7,80445,6447
7,80858,6540
7,81270,5827
7,81682,6585
7,82093,6863
7,82507,6543
7,82918,6481
7,83330,7077
7,83743,6791
7,84155,5387
7,84567,6458
7,84980,7106
7,85392,6738
7,85803,6097
7,86217,6561
7,86628,6036
7,87040,5757
7,87453,7305
7,87865,6111
7,88277,6919
7,88690,6451
7,89102,5355
7,89513,7089
7,89927,6814
7,90338,6744
7,90750,6249
7,91162,6496
7,91575,6767
7,91987,6946
7,92398,6418
7,92812,6865
7,93223,5752
7,93635,6489
7,94048,6792
7,94460,5360
7,94872,6248
7,95285,6285
7,95697,6867
7,96108,6627
7,96522,5653
7,96933,5787
7,97345,6372
7,97758,6104
7,98170,5964
7,98582,5678
7,98995,5797
7,99407,5991
7,99818,5793
8,00232,6063
8,00643,6193
8,01055,5773
8,01467,6414
8,01880,5468
8,02292,5856
8,02703,5914
8,03117,5986
8,03528,6093
8,03940,5052
8,04353,6500
8,04765,5851
8,05177,5543
8,05590,6206
8,06002,6048
8,06413,6108
8,06827,5645
8,07238,5790
8,07650,5941
8,08063,5573
8,08475,5263
8,08887,5801
8,09300,5714
8,09712,5617
8,10123,5336
8,10535,5835
8,10948,6348
8,11360,6317
8,11772,5576
8,12185,5628
8,12597,6130
8,13008,6209
8,13422,6945
8,13833,6027
8,14245,6349
8,14658,6681
8,15070,6134
8,15482,5630
8,15895,5984
8,16307,6381
8,16718,6178
8,17132,6270
8,17543,5510
8,17955,6114
8,18368,5611
8,18780,5861
8,19192,6107
8,19603,6484
8,20017,5272
8,20428,5381
8,20840,5853
8,21253,6159
8,21665,5623
8,22077,6173
8,22490,5209
8,22902,5801
8,23313,6495
8,23727,5720
8,24138,5726
8,24550,6242
8,24963,5504
8,25375,5581
8,25787,5984
8,26200,5524
8,26612,5356
8,27023,5534
8,27437,5047
8,27848,5764
8,28260,5935
8,28672,5827
8,29085,5283
8,29497,6052
8,29908,5839
8,30322,5463
8,30733,5835
8,31145,5511
8,31558,5470
8,31970,5544
8,32382,5484
8,32795,5084
8,33207,5814
8,33618,6141
8,34032,6234
8,34443,6137
8,34855,5470
8,35268,5725
8,35680,6210
8,36092,5436
8,36505,5452
8,36917,5380
8,37328,5008
8,37740,5050
8,38153,5190
8,38565,5053
8,38977,4789
8,39390,5252
8,39802,5602
8,40213,5372
8,40627,5103
8,41038,4698
8,41450,4649
8,41863,5991
8,42275,5287
8,42687,5393
8,43100,5601
8,43512,6419
8,43923,7697
8,44337,11459
8,44748,14968
8,45160,25085
8,45573,36668
8,45985,53091
8,46397,75650
8,46808,104347
8,47222,136281
8,47633,173781
8,48045,215374
8,48458,250354
8,48870,292329
8,49282,325745
8,49695,347806
8,50107,365822
8,50518,371103
8,50932,375488
8,51343,368124
8,51755,363218
8,52168,352095
8,52580,335607
8,52992,325617
8,53405,310156
8,53817,290697
8,54228,273465
8,54642,256775
8,55053,240159
8,55465,226054
8,55877,208958
8,56290,198473
8,56702,183683
8,57113,172002
8,57527,164399
8,57938,152779
8,58350,140013
8,58763,135595
8,59175,123861
8,59587,113104
8,60000,104832
8,60412,95401
8,60823,87131
8,61237,80078
8,61648,74798
8,62060,67671
8,62473,60418
8,62885,58093
8,63297,50292
8,63710,45856
8,64122,41223
8,64533,39197
8,64945,36330
8,65358,32727
8,65770,30204
8,66182,26985
8,66595,24973
8,67007,23513
8,67418,22291
8,67832,20235
8,68243,18959
8,68655,16803
8,69068,16627
8,69480,15711
8,69892,14679
8,70305,13746
8,70717,12570
8,71128,12340
8,71542,12092
8,71953,11997
8,72365,10264
8,72778,11127
8,73190,9001
8,73602,9552
8,74013,9099
8,74427,9111
8,74838,9344
8,75250,8315
8,75663,7659
8,76075,8625
8,76487,7988
8,76900,7583
8,77312,7531
8,77723,7458
8,78137,7017
8,78548,7217
8,78960,7541
8,79373,6875
8,79785,7338
8,80197,7084
8,80610,6828
8,81022,6189
8,81433,6414
8,81847,6122
8,82258,6233
8,82670,6287
8,83082,6277
8,83495,6278
8,83907,6092
8,84318,5845
8,84732,5679
8,85143,5835
8,85555,4919
8,85968,6215
8,86380,5418
8,86792,6038
8,87205,5525
8,87617,6108
8,88028,5559
8,88442,5190
8,88853,5815
8,89265,5542
8,89678,5099
8,90090,5887
8,90502,5417
8,90915,5068
8,91327,6321
8,91738,4826
8,92150,4961
8,92563,5575
8,92975,5174
8,93387,5248
8,93800,5220
8,94212,4891
8,94623,4902
8,95037,4620
8,95448,5183
8,95860,4596
8,96273,4659
8,96685,5081
8,97097,4880
8,97510,5462
8,97922,5648
8,98333,4893
8,98747,5783
8,99158,5420
8,99570,4952
8,99983,4112
9,00395,5163
9,00807,4866
9,01218,4657
9,01632,4936
9,02043,5013
9,02455,4511
9,02868,4518
9,03280,5197
9,03692,4031
9,04105,4532
9,04517,4825
9,04928,5102
9,05342,5056
9,05753,4049
9,06165,4785
9,06578,4529
9,06990,4248
9,07402,4641
9,07815,4867
9,08227,4340
9,08638,4899
9,09052,4616
9,09463,4727
9,09875,4666
9,10287,5093
9,10700,5334
9,11112,5169
9,11523,6173
9,11937,5536
9,12348,5956
9,12760,5958
9,13173,5833
9,13585,6070
9,13997,5546
9,14410,5224
9,14822,5776
9,15233,5312
9,15647,4559
9,16058,4790
9,16470,5162
9,16883,4498
9,17295,3968
9,17707,3766
9,18120,5151
9,18532,5063
9,18943,3915
9,19355,4172
9,19768,4253
9,20180,4745
9,20592,4068
9,21005,4170
9,21417,4590
9,21828,4008
9,22242,4432
9,22653,4172
9,23065,4156
9,23478,4017
9,23890,4783
9,24302,4563
9,24715,4423
9,25127,4133
9,25538,4161
9,25952,4161
9,26363,3909
9,26775,4093
9,27188,4650
9,27600,4960
9,28012,4451
9,28423,4916
9,28837,4069
9,29248,4443
9,29660,3583
9,30073,4126
9,30485,4529
9,30897,4773
9,31310,3933
9,31722,4835
9,32133,3863
9,32547,4263
9,32958,3729
9,33370,4516
9,33783,4537
9,34195,4201
9,34607,4285
9,35020,4077
9,35432,4048
9,35843,3579
9,36257,4234
9,36668,3913
9,37080,4227
9,37492,4132
9,37905,4015
9,38317,4126
9,38728,3926
9,39142,3715
9,39553,4005
9,39965,3852
9,40378,4194
9,40790,3957
9,41202,3782
9,41615,4207
9,42027,4217
9,42438,3623
9,42852,3973
9,43263,4045
9,43675,3336
9,44088,3913
9,44500,3802
9,44912,3864
9,45325,4958
9,45737,3665
9,46148,4457
9,46560,3817
9,46973,4526
9,47385,3994
9,47797,3129
9,48210,3826
9,48622,3788
9,49033,3449
9,49447,3881
9,49858,3901
9,50270,3739
9,50683,3684
9,51095,3727
9,51507,3583
9,51920,3793
9,52332,3789
9,52743,4144
9,53157,3687
9,53568,3962
9,53980,4265
9,54393,3853
9,54805,3890
9,55217,4428
9,55628,4268
9,56042,3162
9,56453,4173
9,56865,3943
9,57278,4234
9,57690,4084
9,58102,3532
9,58515,3937
9,58927,4048
9,59338,3872
9,59752,3773
9,60163,3448
9,60575,3551
9,60988,4009
9,61400,3567
9,61812,4230
9,62225,3940
9,62637,3452
9,63048,3854
9,63462,3529
9,63873,4505
9,64285,3683
9,64698,4341
9,65110,4127
9,65522,3990
9,65933,3528
9,66347,3772
9,66758,3553
9,67170,3576
9,67583,3487
9,67995,3921
9,68407,4210
9,68820,3516
9,69232,3781
9,69643,4127
9,70057,3808
9,70468,3452
9,70880,3324
9,71293,3739
9,71705,3707
9,72117,3865
9,72530,3430
9,72942,4320
9,73353,3554
9,73767,3171
9,74178,3318
9,74590,3433
9,75002,3374
9,75415,3497
9,75827,3662
9,76238,3971
9,76652,3662
9,77063,4470
9,77475,4728
9,77888,5945
9,78300,8324
9,78712,12043
9,79125,16454
9,79537,24162
9,79948,35999
9,80362,47882
9,80773,69707
9,81185,88595
9,81598,110861
9,82010,135195
9,82422,163625
9,82835,189563
9,83247,204834
9,83658,226383
9,84070,242907
9,84483,246249
9,84895,250091
9,85307,249847
9,85720,243782
9,86132,234975
9,86543,224758
9,86957,212050
9,87368,203297
9,87780,191399
9,88193,176137
9,88605,163735
9,89017,148736
9,89430,138836
9,89842,128240
9,90253,116360
9,90667,106256
9,91078,95353
9,91490,88241
9,91903,79662
9,92315,74221
9,92727,67991
9,93138,59962
9,93552,55070
9,93963,47733
9,94375,44729
9,94788,41289
9,95200,36134
9,95612,33659
9,96025,30014
9,96437,27433
9,96848,25807
9,97262,20781
9,97673,20102
9,98085,19130
9,98498,16608
9,98910,16062
9,99322,15334
9,99735,13682
10,00147,12877
10,00558,12396
10,00972,11009
10,01383,11124
10,01795,9101
10,02207,10303
10,02620,10110
10,03032,10048
10,03443,8598
10,03857,7900
10,04268,8088
10,04680,7943
10,05093,6978
10,05505,7299
10,05917,6625
10,06330,6074
10,06742,6269
10,07153,6125
10,07567,5570
10,07978,5067
10,08390,5913
10,08803,5544
10,09215,6229
10,09627,5424
10,10040,5172
10,10452,5117
10,10863,5002
10,11275,5250
10,11688,5841
10,12100,4735
10,12512,5411
10,12925,5010
10,13337,5074
10,13748,4988
10,14162,3745
10,14573,4923
10,14985,4385
10,15398,4186
10,15810,4342
10,16222,4939
10,16635,5086
10,17047,3742
10,17458,4106
10,17872,4283
10,18283,4108
10,18695,4413
10,19108,4084
10,19520,3962
10,19932,3597
10,20343,4491
10,20757,3521
10,21168,4054
10,21580,4255
10,21993,3763
10,22405,4038
10,22817,4164
10,23230,4136
10,23642,3485
10,24053,3734
10,24467,3284
10,24878,3104
10,25290,4331
10,25703,3763
10,26115,4000
10,26527,3280
10,26940,3230
10,27352,3730
10,27763,3999
10,28177,3530
10,28588,3530
10,29000,3744
10,29412,4440
10,29825,3299
10,30237,2837
10,30648,3638
10,31062,3426
10,31473,3009
10,31885,3339
10,32298,3228
10,32710,3339
10,33122,3498
10,33535,3476
10,33947,3150
10,34358,2745
10,34772,3262
10,35183,3592
10,35595,3306
10,36008,3718
10,36420,3987
10,36832,3537
10,37245,2724
10,37657,3542
10,38068,3372
10,38480,3368
10,38893,3872
10,39305,3818
10,39717,3521
10,40130,3737
10,40542,3506
10,40953,4108
10,41367,3311
10,41778,4257
10,42190,3983
10,42603,4029
10,43015,3714
10,43427,3939
10,43840,3397
10,44252,4124
10,44663,3602
10,45077,3133
10,45488,3495
10,45900,3477
10,46313,3768
10,46725,3423
10,47137,2859
10,47548,3273
10,47962,3625
10,48373,3182
10,48785,3439
10,49198,3094
10,49610,2887
10,50022,3062
10,50435,2944
10,50847,2951
10,51258,2815
10,51672,3008
10,52083,2961
10,52495,3030
10,52908,3552
10,53320,3004
10,53732,3013
10,54145,3339
10,54557,3538
10,54968,2648
10,55382,3559
10,55793,2663
10,56205,2913
10,56617,3545
10,57030,2661
10,57442,3152
10,57853,2616
10,58267,3209
10,58678,3065
10,59090,3041
10,59503,2935
10,59915,2673
10,60327,2741
10,60740,3243
10,61152,3074
10,61563,3014
10,61977,2621
10,62388,3352
10,62800,2313
10,63213,3050
10,63625,3106
10,64037,2922
10,64450,2833
10,64862,2594
10,65273,3075
10,65685,2870
10,66098,3082
10,66510,3273
10,66922,2815
10,67335,3144
10,67747,3717
10,68158,2570
10,68572,2651
10,68983,2663
10,69395,2666
10,69808,3028
10,70220,2738
10,70632,2763
10,71045,3008
10,71457,3388
10,71868,2710
10,72282,2742
10,72693,3163
10,73105,2672
10,73518,2695
10,73930,2950
10,74342,2848
10,74753,3188
10,75167,2528
10,75578,2413
10,75990,2900
10,76403,2444
10,76815,2523
10,77227,2824
10,77640,2667
10,78052,2793
10,78463,2750
10,78877,2979
10,79288,2601
10,79700,2663
10,80113,2635
10,80525,2464
10,80937,2598
10,81350,2730
10,81762,2828
10,82173,2659
10,82587,2672
10,82998,3125
10,83410,3366
10,83822,2919
10,84235,2366
10,84647,2745
10,85058,2699
10,85472,2668
10,85883,3393
10,86295,2968
10,86708,3145
10,87120,2722
10,87532,2285
10,87945,2851
10,88357,2817
10,88768,2723
10,89182,2742
10,89593,3134
10,90005,2829
10,90418,2661
10,90830,2977
10,91242,2445
10,91655,3111
10,92067,2441
10,92478,2888
10,92890,2618
10,93303,2437
10,93715,2731
10,94127,2839
10,94540,3074
10,94952,2959
10,95363,2622
10,95777,2366
10,96188,2704
10,96600,3266
10,97013,3044
10,97425,2944
10,97837,2471
10,98250,2848
10,98662,2599
10,99073,2659
10,99487,3025
10,99898,2715
11,00310,2818
11,00723,2772
11,01135,2740
11,01547,2883
11,01958,2924
11,02372,2916
11,02783,2916
11,03195,2421
11,03608,2288
11,04020,2993
11,04432,2367
11,04845,2697
11,05257,2512
11,05668,2732
11,06082,2818
11,06493,3088
11,06905,2533
11,07318,2840
11,07730,2904
11,08142,2985
11,08555,3001
11,08967,3620
11,09378,3401
11,09792,3225
11,10203,2736
11,10615,2754
11,11027,2508
11,11440,2695
11,11852,2686
11,12263,2666
11,12677,2792
11,13088,3095
11,13500,2865
11,13913,2931
11,14325,2898
11,14737,3079
11,15150,3005
11,15562,2765
11,15973,2410
11,16387,2780
11,16798,3009
11,17210,2423
11,17623,2365
11,18035,2623
11,18447,3027
11,18860,2711
11,19272,2680
11,19683,2514
11,20095,2419
11,20508,2293
11,20920,2780
11,21332,2447
11,21745,2817
11,22157,2777
11,22568,2358
11,22982,2220
11,23393,2405
11,23805,2591
11,24218,2355
11,24630,2597
11,25042,2453
11,25455,2051
11,25867,2779
11,26278,2105
11,26692,2229
11,27103,3389
11,27515,3111
11,27928,4428
11,28340,6066
11,28752,10621
11,29165,14835
11,29577,23809
11,29988,35982
11,30400,54736
11,30813,81045
11,31225,117056
11,31637,155544
11,32050,205875
11,32462,264700
11,32873,328525
11,33287,387683
11,33698,442783
11,34110,502903
11,34523,551027
11,34935,591620
11,35347,606371
11,35760,626735
11,36172,631016
11,36583,614448
11,36997,597570
11,37408,563435
11,37820,531410
11,38233,487413
11,38645,447851
11,39057,413213
11,39468,371313
11,39882,330354
11,40293,297180
11,40705,262592
11,41118,232678
11,41530,206071
11,41942,182619
11,42355,158151
11,42767,140731
11,43178,121263
11,43592,107417
11,44003,91199
11,44415,83542
11,44828,71459
11,45240,65403
11,45652,59175
11,46065,50211
11,46477,44493
11,46888,41458
11,47302,39609
11,47713,33026
11,48125,30181
11,48537,27057
11,48950,24606
11,49362,23701
11,49773,22516
11,50187,20853
11,50598,18160
11,51010,16102
11,51423,16829
11,51835,16174
11,52247,14999
11,52660,13863
11,53072,13466
11,53483,11656
11,53897,12029
11,54308,10894
11,54720,12007
11,55133,10311
11,55545,10413
11,55957,9011
11,56370,9422
11,56782,9281
11,57193,9144
11,57605,7679
11,58018,8758
11,58430,7937
11,58842,7426
11,59255,8272
11,59667,6734
11,60078,7096
11,60492,6583
11,60903,6878
11,61315,5135
11,61728,6903
11,62140,6497
11,62552,6251
11,62965,6057
11,63377,5478
11,63788,5691
11,64202,5367
11,64613,4523
11,65025,4603
11,65438,4734
11,65850,5296
11,66262,5085
11,66673,4161
11,67087,3634
11,67498,4632
11,67910,4581
11,68323,4390
11,68735,4546
11,69147,3835
11,69560,3787
11,69972,4784
11,70383,3947
11,70797,4098
11,71208,3121
11,71620,4048
11,72033,3900
11,72445,3743
11,72857,3791
11,73270,3893
11,73682,3204
11,74093,3539
11,74507,3461
11,74918,3232
11,75330,2754
11,75742,3073
11,76155,3201
11,76567,3705
11,76978,3472
11,77392,3340
11,77803,3010
11,78215,3787
11,78628,3222
11,79040,3541
11,79452,3174
11,79865,3182
11,80277,3053
11,80688,3132
11,81102,2821
11,81513,2484
11,81925,2565
11,82338,3426
11,82750,3241
11,83162,2847
11,83575,3040
11,83987,2929
11,84398,3079
11,84810,2802
11,85223,2916
11,85635,2708
11,86047,3044
11,86460,3015
11,86872,2993
11,87283,2510
11,87697,2536
11,88108,2611
11,88520,2565
11,88933,3125
11,89345,2861
11,89757,2509
11,90170,2662
11,90582,2904
11,90993,2970
11,91407,2884
11,91818,2160
11,92230,2324
11,92643,3028
11,93055,2747
11,93467,2537
11,93878,2239
11,94292,2333
11,94703,2572
11,95115,2754
11,95528,2817
11,95940,2828
11,96352,2099
11,96765,2475
11,97177,2908
11,97588,2518
11,98002,2349
11,98413,2682
11,98825,2758
11,99238,2182
11,99650,2656
12,00062,2409
12,00475,2323
12,00887,2634
12,01298,1995
12,01712,2795
12,02123,2592
12,02535,2256
12,02947,2254
12,03360,2124
12,03772,2357
12,04183,2124
12,04597,2200
12,05008,2328
12,05420,2875
12,05833,2681
12,06245,2803
12,06657,3034
12,07070,3041
12,07482,4019
12,07893,4008
12,08307,3966
12,08718,4458
12,09130,5037
12,09543,5160
12,09955,5061
12,10367,5491
12,10780,5406
12,11192,5557
12,11603,5260
12,12015,5932
12,12428,4983
12,12840,5068
12,13252,4724
12,13665,4731
12,14077,5507
12,14488,4638
12,14902,4123
12,15313,4792
12,15725,3968
12,16138,3237
12,16550,3652
12,16962,3648
12,17375,4030
12,17787,2486
12,18198,3219
12,18612,3196
12,19023,2620
12,19435,2225
12,19848,2977
12,20260,2440
12,20672,2885
12,21083,2405
12,21497,2324
12,21908,2141
12,22320,2070
12,22733,2238
12,23145,2225
12,23557,2034
12,23970,2397
12,24382,1930
12,24793,2284
12,25207,2768
12,25618,2257
12,26030,2251
12,26443,1654
12,26855,2117
12,27267,2091
12,27680,2247
12,28092,2248
12,28503,1860
12,28917,1781
12,29328,2275
12,29740,2278
12,30152,2209
12,30565,2150
12,30977,1905
12,31388,2099
12,31802,1897
12,32213,2208
12,32625,2318
12,33038,2271
12,33450,2026
12,33862,1667
12,34275,1624
12,34687,1780
12,35098,2424
12,35512,1331
12,35923,2277
12,36335,2145
12,36748,2197
12,37160,2378
12,37572,2222
12,37985,2213
12,38397,2337
12,38808,2202
12,39220,1570
12,39633,2520
12,40045,1477
12,40457,2402
12,40870,2079
12,41282,1355
12,41693,2212
12,42107,1858
12,42518,1948
12,42930,2057
12,43343,1892
12,43755,2042
12,44167,2065
12,44580,1866
12,44992,2101
12,45403,2242
12,45817,1891
12,46228,2114
12,46640,2019
12,47053,1748
12,47465,1251
12,47877,2026
12,48288,2814
12,48702,1768
12,49113,2092
12,49525,2035
12,49938,1709
12,50350,2120
12,50762,2061
12,51175,1902
12,51587,1702
12,51998,1880
12,52412,2463
12,52823,2065
12,53235,2001
12,53648,1961
12,54060,1817
12,54472,1985
12,54885,2293
12,55297,2790
12,55708,2802
12,56122,2818
12,56533,3287
12,56945,3027
12,57357,3144
12,57770,3247
12,58182,3426
12,58593,3109
12,59007,2447
12,59418,2408
12,59830,1893
12,60243,1747
12,60655,2163
12,61067,2068
12,61480,1704
12,61892,1939
12,62303,1474
12,62717,1768
12,63128,2154
12,63540,2076
12,63953,1768
12,64365,1803
12,64777,1469
12,65190,2366
12,65602,2105
12,66013,2020
12,66425,1933
12,66838,1697
12,67250,2001
12,67662,1890
12,68075,1887
12,68487,2316
12,68898,1645
12,69312,2143
12,69723,1921
12,70135,1319
12,70548,1861
12,70960,1864
12,71372,1870
12,71785,1798
12,72197,2082
12,72608,1674
12,73022,2184
12,73433,2051
12,73845,1815
12,74258,1587
12,74670,1835
12,75082,1979
12,75493,2082
12,75907,1739
12,76318,1667
12,76730,1214
12,77143,1601
12,77555,1633
12,77967,1621
12,78380,2012
12,78792,1659
12,79203,1614
12,79617,1700
12,80028,2098
12,80440,1578
12,80853,1998
12,81265,2186
12,81677,1661
12,82090,1668
12,82502,2267
12,82913,1838
12,83327,2293
12,83738,2292
12,84150,2392
12,84562,1634
12,84975,1902
12,85387,1954
12,85798,1960
12,86212,2031
12,86623,1470
12,87035,1635
12,87448,1757
12,87860,1500
12,88272,1633
12,88685,1840
12,89097,1964
12,89508,1912
12,89922,2502
12,90333,3010
12,90745,4496
12,91158,6695
12,91570,9525
12,91982,14766
12,92395,22465
12,92807,34920
12,93218,49597
12,93632,67545
12,94043,94634
12,94455,126539
12,94867,160790
12,95280,200438
12,95692,237797
12,96103,272432
12,96517,306176
12,96928,327411
12,97340,345570
12,97753,360229
12,98165,358692
12,98577,355002
12,98990,342257
12,99402,325383
12,99813,303587
13,00227,279493
13,00638,254161
13,01050,225171
13,01463,202669
13,01875,175450
13,02287,152167
13,02700,135490
13,03112,114783
13,03523,98974
13,03935,84939
13,04348,73644
13,04760,64632
13,05172,55622
13,05585,48833
13,05997,42304
13,06408,36027
13,06822,34045
13,07233,28265
13,07645,26630
13,08058,24425
13,08470,21689
13,08882,19612
13,09295,18211
13,09707,16749
13,10118,15055
13,10532,13823
13,10943,13319
13,11355,12016
13,11768,11619
13,12180,10488
13,12592,9776
13,13003,9337
13,13417,8254
13,13828,8044
13,14240,7540
13,14653,6810
13,15065,6555
13,15477,6897
13,15890,5442
13,16302,6680
13,16713,5645
13,17127,5517
13,17538,5471
13,17950,5488
13,18363,4882
13,18775,5550
13,19187,4869
13,19600,4650
13,20012,4842
13,20423,4163
13,20837,3975
13,21248,4086
13,21660,3482
13,22072,3870
13,22485,3900
13,22897,3782
13,23308,3963
13,23722,3508
13,24133,3386
13,24545,3044
13,24958,3143
13,25370,3465
13,25782,3330
13,26195,2725
13,26607,3194
13,27018,2405
13,27432,2961
13,27843,3004
13,28255,2938
13,28668,3495
13,29080,3049
13,29492,2924
13,29905,2330
13,30317,2858
13,30728,2198
13,31140,2581
13,31553,2508
13,31965,2851
13,32377,2366
13,32790,2458
13,33202,2623
13,33613,2200
13,34027,1940
13,34438,2309
13,34850,2583
13,35263,2229
13,35675,2711
13,36087,2473
13,36500,1936
13,36912,2301
13,37323,2400
13,37737,1889
13,38148,1612
13,38560,1912
13,38973,2067
13,39385,1584
13,39797,2234
13,40208,2125
13,40622,1891
13,41033,2212
13,41445,1871
13,41858,2251
13,42270,2430
13,42682,2012
13,43095,1957
13,43507,1347
13,43918,2023
13,44332,1722
13,44743,1773
13,45155,1431
13,45568,2060
13,45980,1857
13,46392,1591
13,46805,1475
13,47217,1339
13,47628,1693
13,48042,1949
13,48453,1656
13,48865,1810
13,49277,2156
13,49690,1762
13,50102,1882
13,50513,1993
13,50927,1355
13,51338,1542
13,51750,1366
13,52163,1969
13,52575,1437
13,52987,1627
13,53400,1622
13,53812,1474
13,54223,1923
13,54637,1121
13,55048,1910
13,55460,1373
13,55873,1554
13,56285,1986
13,56697,2122
13,57110,2030
13,57522,1579
13,57933,1308
13,58345,1888
13,58758,1868
13,59170,1708
13,59582,1616
13,59995,1853
13,60407,1182
13,60818,1524
13,61232,1706
13,61643,1591
13,62055,1509
13,62468,1593
13,62880,1820
13,63292,1569
13,63705,1732
13,64117,1504
13,64528,1532
13,64942,1840
13,65353,1220
13,65765,1586
13,66178,1057
13,66590,1575
13,67002,1789
13,67413,1819
13,67827,1311
13,68238,1595
13,68650,1636
13,69063,1961
13,69475,1134
13,69887,1518
13,70300,1552
13,70712,1363
13,71123,1365
13,71537,1579
13,71948,1593
13,72360,1454
13,72773,1042
13,73185,1725
13,73597,1502
13,74010,1731
13,74422,1599
13,74833,2082
13,75247,1737
13,75658,1301
13,76070,2112
13,76482,1749
13,76895,2045
13,77307,1839
13,77718,1897
13,78132,1804
13,78543,1725
13,78955,2749
13,79368,2307
13,79780,3274
13,80192,3171
13,80605,3147
13,81017,3927
13,81428,3458
13,81842,3368
13,82253,4022
13,82665,3843
13,83078,3114
13,83490,3714
13,83902,2801
13,84315,3683
13,84727,3139
13,85138,3691
13,85550,2892
13,85963,3197
13,86375,2816
13,86787,2697
13,87200,2194
13,87612,2292
13,88023,1686
13,88437,2395
13,88848,1857
13,89260,2037
13,89673,1514
13,90085,1591
13,90497,1859
13,90910,1780
13,91322,1576
13,91733,1755
13,92147,1632
13,92558,1215
13,92970,1165
13,93383,1235
13,93795,1566
13,94207,1601
13,94618,1218
13,95032,1481
13,95443,1257
13,95855,1580
13,96268,1455
13,96680,1198
13,97092,1262
13,97505,1633
13,97917,1569
13,98328,1242
13,98742,1256
13,99153,1047
13,99565,1731
13,99978,1394
14,00390,1488
14,00802,1576
14,01215,1335
14,01627,1642
14,02038,1661
14,02452,1408
14,02863,1152
14,03275,1145
14,03687,1346
14,04100,1795
14,04512,1307
14,04923,1159
14,05337,823
14,05748,1409
14,06160,1140
14,06573,1420
14,06985,1630
14,07397,1602
14,07810,1049
14,08222,1302
14,08633,1425
14,09047,1057
14,09458,1432
14,09870,1561
14,10283,1352
14,10695,1429
14,11107,1251
14,11520,1264
14,11932,1212
14,12343,1304
14,12755,1157
14,13168,1463
14,13580,981
14,13992,1545
14,14405,1282
14,14817,1017
14,15228,1106
14,15642,1330
14,16053,912
14,16465,1404
14,16878,1319
14,17290,1664
14,17702,1813
14,18115,1570
14,18527,1501
14,18938,1292
14,19352,1306
14,19763,1204
14,20175,1390
14,20588,1196
14,21000,1378
14,21412,1131
14,21823,1560
14,22237,1628
14,22648,1459
14,23060,1432
14,23473,1572
14,23885,1293
14,24297,1296
14,24710,1463
14,25122,972
14,25533,1387
14,25947,1305
14,26358,1989
14,26770,1171
14,27183,1478
14,27595,1116
14,28007,1532
14,28420,1420
14,28832,1363
14,29243,1241
14,29657,1369
14,30068,1434
14,30480,1463
14,30892,1393
14,31305,1187
14,31717,1022
14,32128,1105
14,32542,1335
14,32953,1307
14,33365,1905
14,33778,1542
14,34190,1659
14,34602,1046
14,35015,1497
14,35427,1571
14,35838,1642
14,36252,1898
14,36663,1867
14,37075,2149
14,37488,2226
14,37900,2283
14,38312,2070
14,38725,2648
14,39137,2594
14,39548,3475
14,39960,3333
14,40373,3137
14,40785,3504
14,41197,3283
14,41610,3010
14,42022,3029
14,42433,2984
14,42847,2592
14,43258,2922
14,43670,2457
14,44083,2306
14,44495,2303
14,44907,2099
14,45320,1831
14,45732,1811
14,46143,1986
14,46557,1441
14,46968,1808
14,47380,1760
14,47793,1690
14,48205,1758
14,48617,1661
14,49028,1628
14,49442,1293
14,49853,1125
14,50265,1466
14,50678,1535
14,51090,1572
14,51502,1516
14,51915,1255
14,52327,960
14,52738,1421
14,53152,1509
14,53563,1268
14,53975,1151
14,54388,992
14,54800,1727
14,55212,1275
14,55625,1214
14,56037,1219
14,56448,1687
14,56862,1288
14,57273,1213
14,57685,1769
14,58098,2102
14,58510,2944
14,58922,4187
14,59333,7358
14,59747,11086
14,60158,19030
14,60570,30450
14,60983,49173
14,61395,69917
14,61807,101590
14,62220,145571
14,62632,194779
14,63043,256530
14,63457,328645
14,63868,409375
14,64280,487016
14,64693,583502
14,65105,653693
14,65517,726187
14,65930,785603
14,66342,817657
14,66753,841415
14,67167,840736
14,67578,806058
14,67990,784478
14,68402,722407
14,68815,651057
14,69227,587205
14,69638,515564
14,70052,450499
14,70463,384732
14,70875,333014
14,71288,275846
14,71700,232877
14,72112,198202
14,72525,171557
14,72937,145466
14,73348,122796
14,73762,106751
14,74173,92512
14,74585,80286
14,74998,70362
14,75410,62757
14,75822,58351
14,76235,49369
14,76647,44073
14,77058,38610
14,77470,37457
14,77883,32192
14,78295,31094
14,78707,29944
14,79120,25385
14,79532,23820
14,79943,22592
14,80357,23207
14,80768,19997
14,81180,18573
14,81593,18532
14,82005,16741
14,82417,14820
14,82830,15673
14,83242,13800
14,83653,13629
14,84067,11405
14,84478,11758
14,84890,11878
14,85303,10702
14,85715,9816
14,86127,8707
14,86538,8325
14,86952,8189
14,87363,9020
14,87775,8251
14,88188,7186
14,88600,6926
14,89012,6800
14,89425,5743
14,89837,6176
14,90248,5361
14,90662,5519
14,91073,5238
14,91485,5416
14,91898,5565
14,92310,4966
14,92722,5285
14,93135,4721
14,93547,4486
14,93958,4247
14,94372,4699
14,94783,4489
14,95195,4461
14,95607,4298
14,96020,4227
14,96432,3321
14,96843,3739
14,97257,3364
14,97668,3586
14,98080,3045
14,98493,2521
14,98905,2909
14,99317,3862
14,99730,3427
15,00142,2823
15,00553,2768
15,00967,3792
15,01378,2869
15,01790,3081
15,02203,2328
15,02615,2535
15,03027,3016
15,03440,3498
15,03852,2451
15,04263,1887
15,04675,2249
15,05088,2017
15,05500,2034
15,05912,2009
15,06325,2269
15,06737,2136
15,07148,2408
15,07562,1949
15,07973,2299
15,08385,2015
15,08798,2156
15,09210,2260
15,09622,2280
15,10035,1793
15,10447,1891
15,10858,2044
15,11272,2180
15,11683,1909
15,12095,1461
15,12508,1459
15,12920,2033
15,13332,1105
15,13743,1492
15,14157,2195
15,14568,1618
15,14980,1743
15,15393,1655
15,15805,1783
15,16217,1716
15,16630,1487
15,17042,1161
15,17453,1699
15,17867,1028
15,18278,1426
15,18690,1462
15,19103,1890
15,19515,1774
15,19927,1055
15,20340,1605
15,20752,1455
15,21163,1661
15,21577,1857
15,21988,1188
15,22400,1158
15,22812,1470
15,23225,1330
15,23637,1138
15,24048,1547
15,24462,1283
15,24873,1131
15,25285,1712
15,25698,1552
15,26110,1378
15,26522,1103
15,26935,1668
15,27347,992
15,27758,1563
15,28172,1227
15,28583,1099
15,28995,904
15,29408,604
15,29820,1485
15,30232,964
15,30645,1702
15,31057,1652
15,31468,1051
15,31880,1150
15,32293,1169
15,32705,1101
15,33117,631
15,33530,1681
15,33942,1516
15,34353,850
15,34767,1179
15,35178,1315
15,35590,1376
15,36003,1648
15,36415,1617
15,36827,1093
15,37240,1226
15,37652,1368
15,38063,1356
15,38477,768
15,38888,1304
15,39300,1036
15,39713,1220
15,40125,1700
15,40537,1140
15,40948,1052
15,41362,1133
15,41773,1423
15,42185,1139
15,42598,1387
15,43010,930
15,43422,1075
15,43835,999
15,44247,1176
15,44658,1345
15,45072,1275
15,45483,877
15,45895,1105
15,46308,713
15,46720,1240
15,47132,840
15,47545,1351
15,47957,1232
15,48368,1610
15,48782,1514
15,49193,1161
15,49605,1407
15,50017,1662
15,50430,1692
15,50842,1526
15,51253,1655
15,51667,2088
15,52078,1682
15,52490,1697
15,52903,1945
15,53315,2216
15,53727,1837
15,54140,2164
15,54552,2011
15,54963,1402
15,55377,1620
15,55788,1455
15,56200,1540
15,56613,1367
15,57025,1657
15,57437,1076
15,57850,1399
15,58262,1286
15,58673,1056
15,59085,1426
15,59498,1027
15,59910,1201
15,60322,1306
15,60735,1479
15,61147,733
15,61558,766
15,61972,872
15,62383,1263
15,62795,1566
15,63208,1005
15,63620,1187
15,64032,1152
15,64445,1127
15,64857,784
15,65268,1135
15,65682,1422
15,66093,1051
15,66505,1029
15,66918,836
15,67330,993
15,67742,864
15,68153,1400
15,68567,950
15,68978,555
15,69390,1113
15,69803,1074
15,70215,1262
15,70627,1129
15,71040,1262
15,71452,902
15,71863,982
15,72277,857
15,72688,1488
15,73100,1465
15,73513,864
15,73925,1008
15,74337,1495
15,74750,1106
15,75162,1280
15,75573,2026
15,75987,2899
15,76398,4732
15,76810,8520
15,77222,13738
15,77635,21908
15,78047,34211
15,78458,51488
15,78872,72802
15,79283,97886
15,79695,129171
15,80108,166581
15,80520,205419
15,80932,248651
15,81345,289642
15,81757,322936
15,82168,353004
15,82582,377750
15,82993,390798
15,83405,390226
15,83818,379476
15,84230,362519
15,84642,345152
15,85055,319124
15,85467,292942
15,85878,257008
15,86290,225035
15,86703,196740
15,87115,171939
15,87527,145798
15,87940,124398
15,88352,107000
15,88763,90503
15,89177,75604
15,89588,68940
15,90000,57309
15,90413,49075
15,90825,43370
15,91237,38668
15,91650,33253
15,92062,29312
15,92473,27068
15,92887,24519
15,93298,21452
15,93710,17517
15,94123,18106
15,94535,15832
15,94947,14613
15,95358,14403
15,95772,13277
15,96183,12308
15,96595,11531
15,97008,10725
15,97420,8226
15,97832,9210
15,98245,8073
15,98657,8084
15,99068,6962
15,99482,5695
15,99893,6426
16,00305,6320
16,00718,4672
16,01130,5109
16,01542,5182
16,01955,4382
16,02367,4526
16,02778,3698
16,03192,3875
16,03603,3414
16,04015,3696
16,04427,3544
16,04840,3200
16,05252,4212
16,05663,2983
16,06077,3288
16,06488,2881
16,06900,2918
16,07313,2139
16,07725,2448
16,08137,2398
16,08550,2073
16,08962,2714
16,09373,2670
16,09787,2220
16,10198,1903
16,10610,2012
16,11023,2067
16,11435,1556
16,11847,1669
16,12260,2201
16,12672,1515
16,13083,1452
16,13495,1612
16,13908,2318
16,14320,2727
16,14732,2980
16,15145,2342
16,15557,3468
16,15968,3408
16,16382,3249
16,16793,2127
16,17205,2384
16,17618,2041
16,18030,994
16,18442,1350
16,18855,1319
16,19267,1208
16,19678,827
16,20092,1440
16,20503,1396
16,20915,999
16,21328,1154
16,21740,1077
16,22152,1374
16,22565,1334
16,22977,1457
16,23388,1120
16,23800,1394
16,24213,1014
16,24625,1020
16,25037,1180
16,25450,1776
16,25862,790
16,26273,1144
16,26687,804
16,27098,1037
16,27510,1121
16,27923,1166
16,28335,1265
16,28747,1721
16,29160,2278
16,29572,3276
16,29983,5711
16,30397,8558
16,30808,12108
16,31220,19984
16,31633,32130
16,32045,47808
16,32457,68927
16,32868,97252
16,33282,129575
16,33693,172603
16,34105,212479
16,34518,257722
16,34930,304514
16,35342,355198
16,35755,380157
16,36167,417064
16,36578,442536
16,36992,442559
16,37403,446726
16,37815,422181
16,38228,403862
16,38640,366085
16,39052,330166
16,39465,288515
16,39877,258745
16,40288,220665
16,40702,189560
16,41113,158613
16,41525,137088
16,41937,112475
16,42350,97032
16,42762,81275
16,43173,68125
16,43587,58610
16,43998,51890
16,44410,44293
16,44823,40097
16,45235,35294
16,45647,31290
16,46060,26169
16,46472,25111
16,46883,22243
16,47297,19791
16,47708,19464
16,48120,17478
16,48533,15844
16,48945,13981
16,49357,13252
16,49770,12802
16,50182,11469
16,50593,11335
16,51005,8742
16,51418,10491
16,51830,9409
16,52242,7897
16,52655,8188
16,53067,7228
16,53478,6701
16,53892,7477
16,54303,5623
16,54715,5436
16,55128,5181
16,55540,5242
16,55952,5702
16,56365,5045
16,56777,4890
16,57188,4337
16,57602,4324
16,58013,3145
16,58425,3332
16,58838,4069
16,59250,4115
16,59662,4033
16,60073,2768
16,60487,3520
16,60898,3269
16,61310,2614
16,61723,2094
16,62135,3015
16,62547,2605
16,62960,3373
16,63372,2579
16,63783,2469
16,64197,2327
16,64608,2216
16,65020,2181
16,65433,1553
16,65845,2668
16,66257,2102
16,66670,1875
16,67082,2270
16,67493,1856
16,67907,2494
16,68318,2291
16,68730,2142
16,69142,2248
16,69555,2314
16,69967,2325
16,70378,2007
16,70792,2140
16,71203,1755
16,71615,1894
16,72028,2188
16,72440,1587
16,72852,2059
16,73265,1988
16,73677,2094
16,74088,1506
16,74502,1912
16,74913,1872
16,75325,2022
16,75738,2087
16,76150,1470
16,76562,1524
16,76975,1411
16,77387,1712
16,77798,1351
16,78210,1978
16,78623,1859
16,79035,1675
16,79447,1515
16,79860,1502
16,80272,982
16,80683,1502
16,81097,908
16,81508,1225
16,81920,1230
16,82333,678
16,82745,847
16,83157,1091
16,83570,942
16,83982,942
16,84393,1242
16,84807,1025
16,85218,1102
16,85630,1099
16,86043,1402
16,86455,1403
16,86867,1071
16,87278,950
16,87692,528
16,88103,1322
16,88515,615
16,88928,1059
16,89340,674
16,89752,1373
16,90165,1622
16,90577,935
16,90988,907
16,91402,984
16,91813,1066
16,92225,721
16,92638,1177
16,93050,801
16,93462,1094
16,93875,904
16,94287,1020
16,94698,1180
16,95112,1141
16,95523,1196
16,95935,1453
16,96347,999
16,96760,1095
16,97172,978
16,97583,1181
16,97997,1201
16,98408,515
16,98820,1372
16,99233,1148
16,99645,850
17,00057,867
17,00470,910
17,00882,1602
17,01293,1227
17,01707,529
17,02118,1136
17,02530,556
17,02943,638
17,03355,940
17,03767,1476
17,04180,1035
17,04592,1055
17,05003,1404
17,05415,704
17,05828,1274
17,06240,1040
17,06652,647
17,07065,873
17,07477,822
17,07888,1095
17,08302,949
17,08713,877
17,09125,627
17,09538,1290
17,09950,921
17,10362,758
17,10775,957
17,11187,801
17,11598,1073
17,12012,815
17,12423,993
17,12835,1093
17,13248,900
17,13660,843
17,14072,1072
17,14483,1195
17,14897,1256
17,15308,904
17,15720,1380
17,16133,686
17,16545,1091
17,16957,1177
17,17370,769
17,17782,1162
17,18193,686
17,18607,834
17,19018,1126
17,19430,897
17,19843,899
17,20255,801
17,20667,1447
17,21080,1114
17,21492,560
17,21903,1015
17,22317,639
17,22728,1142
17,23140,667
17,23552,591
17,23965,1235
17,24377,1510
17,24788,1194
17,25202,645
17,25613,1021
17,26025,1089
17,26438,1481
17,26850,1101
17,27262,1243
17,27675,1151
17,28087,830
17,28498,1183
17,28912,1090
17,29323,911
17,29735,913
17,30148,1050
17,30560,774
17,30972,604
17,31385,901
17,31797,818
17,32208,717
17,32620,900
17,33033,852
17,33445,1076
17,33857,374
17,34270,861
17,34682,863
17,35093,1157
17,35507,960
17,35918,1022
17,36330,657
17,36743,751
17,37155,969
17,37567,801
17,37980,691
17,38392,1128
17,38803,854
17,39217,942
17,39628,850
17,40040,781
17,40453,1145
17,40865,915
17,41277,1128
17,41688,867
17,42102,670
17,42513,815
17,42925,746
17,43338,821
17,43750,599
17,44162,600
17,44575,888
17,44987,958
17,45398,914
17,45812,701
17,46223,926
17,46635,1747
17,47048,2510
17,47460,4276
17,47872,6600
17,48285,11551
17,48697,20159
17,49108,31167
17,49522,49089
17,49933,70647
17,50345,96515
17,50757,128551
17,51170,164474
17,51582,209620
17,51993,248599
17,52407,296157
17,52818,342877
17,53230,377265
17,53643,406115
17,54055,419486
17,54467,423822
17,54880,421644
17,55292,408922
17,55703,379903
17,56117,354620
17,56528,317834
17,56940,280847
17,57353,245631
17,57765,214560
17,58177,181202
17,58590,158005
17,59002,131336
17,59413,112735
17,59825,97040
17,60238,80787
17,60650,70025
17,61062,59735
17,61475,51130
17,61887,45730
17,62298,38950
17,62712,35714
17,63123,30843
17,63535,26462
17,63948,23237
17,64360,22616
17,64772,20167
17,65185,17612
17,65597,15985
17,66008,15372
17,66422,14153
17,66833,12301
17,67245,11254
17,67658,10838
17,68070,10664
17,68482,9663
17,68893,8398
17,69307,8514
17,69718,8809
17,70130,7130
17,70543,6407
17,70955,6079
17,71367,5630
17,71780,5826
17,72192,5324
17,72603,5327
17,73017,3990
17,73428,4359
17,73840,4561
17,74253,3486
17,74665,3665
17,75077,2686
17,75490,3099
17,75902,3178
17,76313,2719
17,76727,3208
17,77138,2649
17,77550,2853
17,77963,2561
17,78375,2723
17,78787,2558
17,79198,2377
17,79612,1985
17,80023,2376
17,80435,1143
17,80848,1626
17,81260,1425
17,81672,2045
17,82085,1513
17,82497,1944
17,82908,1426
17,83322,797
17,83733,1551
17,84145,1173
17,84558,1267
17,84970,1778
17,85382,1702
17,85795,1248
17,86207,1527
17,86618,1099
17,87032,1039
17,87443,1185
17,87855,862
17,88267,910
17,88680,831
17,89092,1123
17,89503,1379
17,89917,1268
17,90328,1292
17,90740,1196
17,91153,984
17,91565,1340
17,91977,1585
17,92390,870
17,92802,1205
17,93213,1118
17,93627,957
17,94038,1363
17,94450,1268
17,94863,1213
17,95275,933
17,95687,896
17,96100,576
17,96512,932
17,96923,1606
17,97335,1182
17,97748,1844
17,98160,2809
17,98572,5101
17,98985,6625
17,99397,11364
17,99808,20640
18,00222,34020
18,00633,54202
18,01045,80548
18,01458,116939
18,01870,167204
18,02282,228775
18,02695,307712
18,03107,407481
18,03518,511442
18,03932,634044
18,04343,761477
18,04755,896066
18,05168,1023597
18,05580,1153964
18,05992,1270875
18,06403,1363872
18,06817,1442598
18,07228,1459464
18,07640,1446593
18,08053,1381895
18,08465,1289690
18,08877,1186613
18,09290,1049621
18,09702,907007
18,10113,771492
18,10527,646762
18,10938,545118
18,11350,453485
18,11763,381424
18,12175,317069
18,12587,265427
18,13000,229411
18,13412,191377
18,13823,161625
18,14237,144542
18,14648,125995
18,15060,109215
18,15472,100027
18,15885,86566
18,16297,80686
18,16708,73277
18,17122,67109
18,17533,60519
18,17945,54334
18,18358,51263
18,18770,45256
18,19182,43235
18,19595,39165
18,20007,37884
18,20418,36060
18,20832,32951
18,21243,30484
18,21655,29628
18,22068,27747
18,22480,25416
18,22892,25224
18,23305,22882
18,23717,20694
18,24128,20457
18,24540,17103
18,24953,18079
18,25365,16614
18,25777,16869
18,26190,15446
18,26602,13382
18,27013,13938
18,27427,13061
18,27838,13094
18,28250,11844
18,28663,11473
18,29075,10762
18,29487,10255
18,29900,10037
18,30312,8608
18,30723,8422
18,31137,7641
18,31548,8204
18,31960,7797
18,32373,7292
18,32785,6365
18,33197,7160
18,33608,6908
18,34022,6380
18,34433,6232
18,34845,5393
18,35258,5203
18,35670,5640
18,36082,4567
18,36495,4907
18,36907,4790
18,37318,4905
18,37732,3929
18,38143,4894
18,38555,3871
18,38968,3757
18,39380,4335
18,39792,3975
18,40205,3962
18,40617,3238
18,41028,3296
18,41442,3538
18,41853,3164
18,42265,2758
18,42677,3201
18,43090,2535
18,43502,2451
18,43913,2416
18,44327,2358
18,44738,2310
18,45150,2033
18,45563,1983
18,45975,2076
18,46387,1997
18,46800,1887
18,47212,2182
18,47623,1712
18,48037,2058
18,48448,1810
18,48860,1560
18,49273,1558
18,49685,2234
18,50097,2165
18,50510,2522
18,50922,1766
18,51333,2051
18,51745,2036
18,52158,1863
18,52570,1769
18,52982,1839
18,53395,1729
18,53807,2011
18,54218,1431
18,54632,1475
18,55043,2003
18,55455,1217
18,55868,1159
18,56280,1910
18,56692,1583
18,57105,1227
18,57517,1576
18,57928,1938
18,58342,1110
18,58753,1652
18,59165,1365
18,59578,1003
18,59990,1393
18,60402,1430
18,60813,957
18,61227,1400
18,61638,1464
18,62050,1235
18,62463,1144
18,62875,1392
18,63287,1484
18,63700,1095
18,64112,1345
18,64523,1234
18,64937,1607
18,65348,1899
18,65760,1498
18,66173,1789
18,66585,2436
18,66997,2679
18,67410,2204
18,67822,3572
18,68233,3168
18,68647,4195
18,69058,5278
18,69470,4464
18,69882,4430
18,70295,5732
18,70707,4985
18,71118,4976
18,71532,4707
18,71943,4933
18,72355,4091
18,72768,4504
18,73180,3470
18,73592,3334
18,74005,2762
18,74417,2854
18,74828,2528
18,75242,2242
18,75653,2335
18,76065,2490
18,76478,1964
18,76890,1624
18,77302,2144
18,77715,1573
18,78127,2304
18,78538,1219
18,78950,1657
18,79363,1216
18,79775,1070
18,80187,1108
18,80600,1579
18,81012,1265
18,81423,882
18,81837,1601
18,82248,1178
18,82660,1456
18,83073,1791
18,83485,1814
18,83897,1501
18,84310,1466
18,84722,1432
18,85133,1300
18,85547,1378
18,85958,1099
18,86370,932
18,86783,1153
18,87195,1221
18,87607,1086
18,88018,1217
18,88432,1361
18,88843,1167
18,89255,1123
18,89668,801
18,90080,874
18,90492,939
18,90905,1297
18,91317,946
18,91728,965
18,92142,999
18,92553,1493
18,92965,2488
18,93378,2071
18,93790,5774
18,94202,8658
18,94615,14154
18,95027,24152
18,95438,38280
18,95852,55477
18,96263,77625
18,96675,105098
18,97087,144814
18,97500,183707
18,97912,231476
18,98323,280614
18,98737,321621
18,99148,364856
18,99560,397973
18,99973,423222
19,00385,440643
19,00797,442444
19,01210,436955
19,01622,420026
19,02033,387084
19,02447,357673
19,02858,320719
19,03270,279224
19,03683,242633
19,04095,209219
19,04507,176280
19,04920,148630
19,05332,127312
19,05743,107811
19,06155,90727
19,06568,78317
19,06980,69102
19,07392,58622
19,07805,51563
19,08217,43393
19,08628,38387
19,09042,34960
19,09453,32142
19,09865,26783
19,10278,23410
19,10690,22456
19,11102,20351
19,11515,17659
19,11927,17363
19,12338,16844
19,12752,13351
19,13163,14118
19,13575,12950
19,13988,11194
19,14400,10110
19,14812,9326
19,15223,7623
19,15637,8262
19,16048,7399
19,16460,7975
19,16873,7368
19,17285,7228
19,17697,5607
19,18110,6581
19,18522,5423
19,18933,4416
19,19347,5419
19,19758,5416
19,20170,5508
19,20583,5474
19,20995,5418
19,21407,5700
19,21820,5165
19,22232,5997
19,22643,5902
19,23057,4429
19,23468,4178
19,23880,4668
19,24292,4977
19,24705,4249
19,25117,3699
19,25528,3177
19,25942,3670
19,26353,3531
19,26765,2879
19,27178,2146
19,27590,2355
19,28002,2996
19,28415,2058
19,28827,2061
19,29238,1372
19,29652,1652
19,30063,1730
19,30475,1261
19,30888,1416
19,31300,2038
19,31712,1248
19,32125,1610
19,32537,1512
19,32948,1254
19,33360,1532
19,33773,1565
19,34185,1268
19,34597,1326
19,35010,1187
19,35422,1155
19,35833,1417
19,36247,1468
19,36658,1474
19,37070,909
19,37483,1347
19,37895,1673
19,38307,1618
19,38720,1121
19,39132,1089
19,39543,1882
19,39957,1143
19,40368,1844
19,40780,1165
19,41193,1555
19,41605,1228
19,42017,1896
19,42430,1237
19,42842,1051
19,43253,832
19,43665,1793
19,44078,862
19,44490,1403
19,44902,1362
19,45315,1036
19,45727,947
19,46138,1517
19,46552,1447
19,46963,718
19,47375,803
19,47788,836
19,48200,882
19,48612,971
19,49025,930
19,49437,788
19,49848,430
19,50262,1160
19,50673,765
19,51085,886
19,51498,688
19,51910,722
19,52322,1160
19,52733,1065
19,53147,1054
19,53558,807
19,53970,547
19,54383,1028
19,54795,799
19,55207,862
19,55620,734
19,56032,807
19,56443,563
19,56857,1020
19,57268,661
19,57680,710
19,58093,554
19,58505,989
19,58917,700
19,59330,872
19,59742,873
19,60153,907
19,60567,990
19,60978,893
19,61390,422
19,61802,585
19,62215,1096
19,62627,402
19,63038,895
19,63452,961
19,63863,1992
19,64275,2330
19,64688,3164
19,65100,4501
19,65512,8863
19,65925,12469
19,66337,22852
19,66748,34352
19,67162,53806
19,67573,76969
19,67985,107549
19,68398,141391
19,68810,185252
19,69222,236178
19,69635,282532
19,70047,334901
19,70458,397700
19,70870,435223
19,71283,468800
19,71695,489917
19,72107,502160
19,72520,509151
19,72932,496135
19,73343,469282
19,73757,431024
19,74168,383428
19,74580,338090
19,74993,295818
19,75405,251474
19,75817,210293
19,76230,176868
19,76642,149776
19,77053,126958
19,77467,103511
19,77878,89927
19,78290,75670
19,78703,67091
19,79115,58134
19,79527,52130
19,79938,44324
19,80352,39428
19,80763,34521
19,81175,30498
19,81588,28588
19,82000,25167
19,82412,23448
19,82825,21052
19,83237,19609
19,83648,19002
19,84062,16399
19,84473,16555
19,84885,13518
19,85298,12973
19,85710,11171
19,86122,11169
19,86535,10563
19,86947,10462
19,87358,8126
19,87772,8896
19,88183,8278
19,88595,7243
19,89007,7754
19,89420,7067
19,89832,7174
19,90243,5374
19,90657,5122
19,91068,5335
19,91480,5667
19,91893,5217
19,92305,4925
19,92717,4533
19,93130,3912
19,93542,3905
19,93953,4065
19,94367,4185
19,94778,3331
19,95190,4157
19,95603,2996
19,96015,2898
19,96427,3441
19,96840,2324
19,97252,2027
19,97663,2652
19,98075,2322
19,98488,3157
19,98900,2608
19,99312,2160
19,99725,1997
20,00137,1821
20,00548,2524
20,00962,2329
20,01373,2412
20,01785,1817
20,02198,1917
20,02610,1756
20,03022,1694
20,03435,2073
20,03847,1772
20,04258,2291
20,04672,1707
20,05083,1396
20,05495,1562
20,05908,1566
20,06320,1646
20,06732,1380
20,07143,1535
20,07557,1399
20,07968,1763
20,08380,1469
20,08793,1600
20,09205,1019
20,09617,1251
20,10030,976
20,10442,1139
20,10853,1772
20,11267,1277
20,11678,1169
20,12090,643
20,12503,1235
20,12915,1179
20,13327,1253
20,13740,975
20,14152,1468
20,14563,1411
20,14977,779
20,15388,1066
20,15800,1193
20,16212,1438
20,16625,978
20,17037,904
20,17448,979
20,17862,751
20,18273,1219
20,18685,878
20,19098,906
20,19510,867
20,19922,763
20,20335,1194
20,20747,996
20,21158,1318
20,21572,428
20,21983,857
20,22395,1015
20,22808,814
20,23220,1124
20,23632,1552
20,24045,807
20,24457,958
20,24868,844
20,25280,1337
20,25693,643
20,26105,838
20,26517,896
20,26930,1194
20,27342,1024
20,27753,876
20,28167,788
20,28578,1197
20,28990,792
20,29403,461
20,29815,1272
20,30227,887
20,30640,1005
20,31052,712
20,31463,1174
20,31877,859
20,32288,783
20,32700,1058
20,33113,1119
20,33525,1040
20,33937,1179
20,34348,1151
20,34762,705
20,35173,1007
20,35585,925
20,35998,897
20,36410,740
20,36822,545
20,37235,1193
20,37647,919
20,38058,650
20,38472,819
20,38883,744
20,39295,804
20,39708,659
20,40120,1082
20,40532,528
20,40945,628
20,41357,713
20,41768,214
20,42182,699
20,42593,813
20,43005,766
20,43417,527
20,43830,645
20,44242,785
20,44653,535
20,45067,1333
20,45478,620
20,45890,892
20,46303,772
20,46715,810
20,47127,846
20,47540,553
20,47952,925
20,48363,636
20,48777,429
20,49188,410
20,49600,634
20,50013,429
20,50425,762
20,50837,790
20,51250,988
20,51662,946
20,52073,713
20,52485,1271
20,52898,254
20,53310,780
20,53722,829
20,54135,1162
20,54547,909
20,54958,811
20,55372,1268
20,55783,1288
20,56195,1386
20,56608,1939
20,57020,1927
20,57432,3258
20,57845,4982
20,58257,6705
20,58668,13444
20,59082,19532
20,59493,32126
20,59905,48688
20,60318,67040
20,60730,97461
20,61142,130041
20,61553,173752
20,61967,222384
20,62378,264645
20,62790,327356
20,63203,375881
20,63615,421260
20,64027,461192
20,64440,482109
20,64852,499355
20,65263,493891
20,65677,474829
20,66088,454658
20,66500,423546
20,66913,377490
20,67325,333736
20,67737,297281
20,68150,259692
20,68562,219553
20,68973,186456
20,69387,158915
20,69798,131997
20,70210,112804
20,70622,97869
20,71035,83082
20,71447,68782
20,71858,61050
20,72272,53148
20,72683,46813
20,73095,42484
20,73508,36149
20,73920,30649
20,74332,28056
20,74745,25418
20,75157,23088
20,75568,21976
20,75982,19510
20,76393,17756
20,76805,15838
20,77218,14806
20,77630,13948
20,78042,13012
20,78455,13336
20,78867,10928
20,79278,10338
20,79690,9935
20,80103,8879
20,80515,8861
20,80927,7341
20,81340,7539
20,81752,7300
20,82163,5767
20,82577,5370
20,82988,5705
20,83400,5354
20,83813,5616
20,84225,5535
20,84637,4263
20,85050,4384
20,85462,4302
20,85873,4263
20,86287,3990
20,86698,4283
20,87110,3482
20,87523,3397
20,87935,3237
20,88347,3395
20,88758,3021
20,89172,2720
20,89583,3252
20,89995,2762
20,90408,2187
20,90820,2016
20,91232,2254
20,91645,1872
20,92057,1660
20,92468,1844
20,92882,1659
20,93293,1982
20,93705,1779
20,94118,1285
20,94530,2026
20,94942,1301
20,95355,1611
20,95767,1025
20,96178,1323
20,96592,1057
20,97003,1596
20,97415,1216
20,97828,685
20,98240,1134
20,98652,1459
20,99063,1040
20,99477,1418
20,99888,992
21,00300,1023
21,00713,1206
21,01125,1232
21,01537,1238
21,01950,1650
21,02362,1131
21,02773,1209
21,03187,783
21,03598,1228
21,04010,2043
21,04423,1133
21,04835,1032
21,05247,1342
21,05660,1577
21,06072,705
21,06483,696
21,06897,1262
21,07308,1016
21,07720,839
21,08132,556
21,08545,1293
21,08957,1232
21,09368,1069
21,09782,452
21,10193,1159
21,10605,911
21,11018,639
21,11430,901
21,11842,790
21,12255,1060
21,12667,1082
21,13078,1297
21,13492,872
21,13903,738
21,14315,1113
21,14728,1221
21,15140,621
21,15552,805
21,15965,840
21,16377,890
21,16788,732
21,17200,821
21,17613,858
21,18025,1075
21,18437,1120
21,18850,856
21,19262,572
21,19673,533
21,20087,723
21,20498,429
21,20910,566
21,21323,566
21,21735,755
21,22147,835
21,22560,442
21,22972,706
21,23383,647
21,23797,862
21,24208,887
21,24620,993
21,25033,632
21,25445,1065
21,25857,1677
21,26268,2865
21,26682,4730
21,27093,7204
21,27505,12223
21,27918,20338
21,28330,33163
21,28742,53587
21,29155,74143
21,29567,113910
21,29978,154898
21,30392,207129
21,30803,277142
21,31215,345655
21,31628,441390
21,32040,530647
21,32452,631376
21,32865,730955
21,33277,835062
21,33688,930109
21,34102,1004103
21,34513,1061032
21,34925,1100342
21,35337,1110167
21,35750,1076141
21,36162,1037431
21,36573,943511
21,36987,852004
21,37398,753226
21,37810,644574
21,38223,543295
21,38635,456156
21,39047,380356
21,39460,317375
21,39872,270795
21,40283,226093
21,40697,189242
21,41108,166335
21,41520,139679
21,41933,122205
21,42345,106100
21,42757,91476
21,43170,83163
21,43582,71638
21,43993,66658
21,44405,61834
21,44818,54222
21,45230,49938
21,45642,45249
21,46055,43498
21,46467,37049
21,46878,34607
21,47292,32513
21,47703,31015
21,48115,29206
21,48528,26972
21,48940,25080
21,49352,23515
21,49765,22680
21,50177,21336
21,50588,19039
21,51002,18326
21,51413,17058
21,51825,15993
21,52238,13864
21,52650,16095
21,53062,13443
21,53473,13957
21,53887,12069
21,54298,11162
21,54710,10481
21,55123,10494
21,55535,9745
21,55947,9523
21,56360,9000
21,56772,9071
21,57183,7048
21,57597,7886
21,58008,7787
21,58420,7135
21,58833,6853
21,59245,7139
21,59657,6185
21,60070,6115
21,60482,6043
21,60893,4944
21,61307,5152
21,61718,5265
21,62130,5191
21,62542,4596
21,62955,4090
21,63367,4584
21,63778,4828
21,64192,4019
21,64603,3270
21,65015,3549
21,65428,3812
21,65840,3633
21,66252,3772
21,66665,3222
21,67077,3152
21,67488,2845
21,67902,3471
21,68313,2864
21,68725,3322
21,69138,2638
21,69550,2816
21,69962,2101
21,70375,1782
21,70787,2063
21,71198,2377
21,71610,1823
21,72023,2022
21,72435,1821
21,72847,2902
21,73260,1590
21,73672,2100
21,74083,2368
21,74497,2055
21,74908,1937
21,75320,1595
21,75733,1777
21,76145,2262
21,76557,1797
21,76970,784
21,77382,1333
21,77793,2105
21,78207,2449
21,78618,3107
21,79030,4822
21,79443,8217
21,79855,13574
21,80267,19939
21,80678,33358
21,81092,46505
21,81503,69130
21,81915,95258
21,82328,131128
21,82740,173106
21,83152,214532
21,83565,263567
21,83977,314577
21,84388,360048
21,84802,409703
21,85213,457680
21,85625,491401
21,86038,503626
21,86450,515514
21,86862,508402
21,87275,483017
21,87687,450827
21,88098,417146
21,88512,378418
21,88923,333680
21,89335,290573
21,89747,248037
21,90160,214061
21,90572,180761
21,90983,149247
21,91397,130434
21,91808,112044
21,92220,96375
21,92633,80875
21,93045,68384
21,93457,61528
21,93870,54734
21,94282,46395
21,94693,41686
21,95107,36855
21,95518,33471
21,95930,30638
21,96343,27409
21,96755,23033
21,97167,21816
21,97580,19149
21,97992,18044
21,98403,18878
21,98815,15481
21,99228,15273
21,99640,13439
22,00052,14757
22,00465,11422
22,00877,10786
22,01288,10597
22,01702,9719
22,02113,9126
22,02525,9003
22,02938,8307
22,03350,9792
22,03762,10454
22,04175,12018
22,04587,15340
22,04998,19793
22,05412,28087
22,05823,42157
22,06235,58826
22,06648,84758
22,07060,119147
22,07472,158764
22,07883,215890
22,08297,282950
22,08708,357050
22,09120,446820
22,09533,529093
22,09945,636024
22,10357,738213
22,10770,836936
22,11182,917636
22,11593,992333
22,12007,1018961
22,12418,1036537
22,12830,1017636
22,13243,976284
22,13655,903127
22,14067,819068
22,14480,734509
22,14892,635501
22,15303,550918
22,15717,468145
22,16128,397276
22,16540,334065
22,16952,281919
22,17365,238646
22,17777,200322
22,18188,170950
22,18602,149473
22,19013,131988
22,19425,113219
22,19838,100924
22,20250,89827
22,20662,78983
22,21075,72849
22,21487,65486
22,21898,59155
22,22312,53366
22,22723,48983
22,23135,46355
22,23548,42118
22,23960,37405
22,24372,36093
22,24785,35244
22,25197,31540
22,25608,27259
22,26020,27328
22,26433,24895
22,26845,23279
22,27257,22116
22,27670,21138
22,28082,18479
22,28493,18199
22,28907,16771
22,29318,15421
22,29730,16541
22,30143,15811
22,30555,13235
22,30967,12794
22,31380,11517
22,31792,11490
22,32203,12371
22,32617,9381
22,33028,10823
22,33440,9826
22,33853,8142
22,34265,8859
22,34677,7272
22,35088,8001
22,35502,7131
22,35913,7286
22,36325,6666
22,36738,6589
22,37150,6929
22,37562,5950
22,37975,5439
22,38387,5741
22,38798,6168
22,39212,5420
22,39623,4849
22,40035,4487
22,40448,5488
22,40860,4990
22,41272,4590
22,41685,4037
22,42097,4531
22,42508,4809
22,42922,4030
22,43333,4758
22,43745,4766
22,44157,3459
22,44570,2372
22,44982,4339
22,45393,2514
22,45807,2785
22,46218,3237
22,46630,3649
22,47043,3727
22,47455,2983
22,47867,2312
22,48280,2259
22,48692,3033
22,49103,2856
22,49517,2744
22,49928,2332
22,50340,2096
22,50753,2343
22,51165,1992
22,51577,2416
22,51990,1811
22,52402,1615
22,52813,1643
22,53225,1783
22,53638,1324
22,54050,1741
22,54462,1696
22,54875,1996
22,55287,1850
22,55698,1664
22,56112,1381
22,56523,1175
22,56935,1796
22,57348,1928
22,57760,1621
22,58172,1235
22,58585,1423
22,58997,1469
22,59408,1304
22,59822,1667
22,60233,1143
22,60645,1125
22,61058,986
22,61470,1587
22,61882,1175
22,62295,1397
22,62707,1235
22,63118,1309
22,63530,1152
22,63943,1977
22,64355,1206
22,64767,1432
22,65180,1534
22,65592,1007
22,66003,1368
22,66417,1989
22,66828,975
22,67240,1579
22,67653,661
22,68065,1546
22,68477,1947
22,68890,1885
22,69302,3316
22,69713,3983
22,70127,5805
22,70538,10030
22,70950,14732
22,71363,23112
22,71775,38358
22,72187,52948
22,72598,79481
22,73012,108845
22,73423,146371
22,73835,183917
22,74248,241379
22,74660,284942
22,75072,342904
22,75485,389797
22,75897,426782
22,76308,459153
22,76722,479880
22,77133,487858
22,77545,476542
22,77958,459680
22,78370,427291
22,78782,393054
22,79195,351984
22,79607,304396
22,80018,265794
22,80432,227623
22,80843,195970
22,81255,163598
22,81667,136526
22,82080,115230
22,82492,99697
22,82903,86968
22,83317,72805
22,83728,64710
22,84140,56402
22,84553,49689
22,84965,44108
22,85377,36795
22,85790,33383
22,86202,33296
22,86613,29270
22,87027,25525
22,87438,24689
22,87850,23192
22,88263,23047
22,88675,20941
22,89087,18718
22,89500,17619
22,89912,16710
22,90323,17354
22,90735,14497
22,91148,13836
22,91560,13178
22,91972,10964
22,92385,9880
22,92797,10757
22,93208,9153
22,93622,8624
22,94033,8262
22,94445,7562
22,94858,6487
22,95270,6861
22,95682,6481
22,96095,6393
22,96507,5149
22,96918,5132
22,97332,4796
22,97743,4252
22,98155,3979
22,98568,5414
22,98980,4485
22,99392,4928
22,99803,4295
23,00217,3673
23,00628,4136
23,01040,3515
23,01453,3190
23,01865,3707
23,02277,2869
23,02690,2980
23,03102,3324
23,03513,3508
23,03927,2517
23,04338,3733
23,04750,3637
23,05163,3431
23,05575,3771
23,05987,4326
23,06400,4814
23,06812,5224
23,07223,5420
23,07637,5528
23,08048,4985
23,08460,4636
23,08872,3421
23,09285,2439
23,09697,1777
23,10108,1908
23,10522,1906
23,10933,2056
23,11345,2111
23,11758,2025
23,12170,1683
23,12582,2350
23,12995,1525
23,13407,1247
23,13818,1399
23,14232,1694
23,14643,1701
23,15055,1723
23,15468,1619
23,15880,2070
23,16292,1981
23,16705,1606
23,17117,2725
23,17528,2756
23,17940,1995
23,18353,1995
23,18765,1504
23,19177,3322
23,19590,1645
23,20002,2304
23,20413,2511
23,20827,2190
23,21238,2086
23,21650,1725
23,22063,1705
23,22475,1687
23,22887,1677
23,23300,1436
23,23712,1728
23,24123,1455
23,24537,1362
23,24948,1864
23,25360,1620
23,25773,1593
23,26185,1669
23,26597,1817
23,27008,2270
23,27422,1988
23,27833,2726
23,28245,4772
23,28658,6581
23,29070,11289
23,29482,18747
23,29895,29712
23,30307,43459
23,30718,64674
23,31132,88348
23,31543,119462
23,31955,159840
23,32368,201660
23,32780,250323
23,33192,296726
23,33605,340396
23,34017,386437
23,34428,416207
23,34842,440563
23,35253,454215
23,35665,449009
23,36077,447029
23,36490,415793
23,36902,391779
23,37313,352516
23,37727,316926
23,38138,274630
23,38550,239778
23,38963,207071
23,39375,177704
23,39787,151217
23,40200,130496
23,40612,110259
23,41023,90508
23,41437,79516
23,41848,68342
23,42260,56925
23,42673,53806
23,43085,47410
23,43497,41452
23,43910,35341
23,44322,32220
23,44733,27894
23,45145,26213
23,45558,26286
23,45970,22867
23,46382,19520
23,46795,17950
23,47207,17913
23,47618,17168
23,48032,14104
23,48443,14458
23,48855,13191
23,49268,12801
23,49680,13167
23,50092,9921
23,50505,9727
23,50917,8950
23,51328,9607
23,51742,8653
23,52153,7962
23,52565,7465
23,52978,6694
23,53390,6545
23,53802,6522
23,54213,5622
23,54627,5883
23,55038,5512
23,55450,5377
23,55863,5557
23,56275,4601
23,56687,4529
23,57100,4113
23,57512,3520
23,57923,3282
23,58337,3334
23,58748,3516
23,59160,3928
23,59573,4230
23,59985,3095
23,60397,3520
23,60810,3509
23,61222,3037
23,61633,3116
23,62047,2925
23,62458,2759
23,62870,2908
23,63282,3592
23,63695,3355
23,64107,3385
23,64518,3564
23,64932,2357
23,65343,3217
23,65755,2498
23,66168,2482
23,66580,2425
23,66992,2253
23,67405,2236
23,67817,2634
23,68228,2029
23,68642,2133
23,69053,1634
23,69465,1980
23,69878,1872
23,70290,1512
23,70702,1248
23,71115,1846
23,71527,1646
23,71938,1463
23,72350,1560
23,72763,1642
23,73175,1147
23,73587,1640
23,74000,1506
23,74412,1870
23,74823,1143
23,75237,1192
23,75648,1989
23,76060,1820
23,76473,1544
23,76885,1356
23,77297,988
23,77710,1610
23,78122,1029
23,78533,798
23,78947,1071
23,79358,1403
23,79770,1358
23,80183,1502
23,80595,1523
23,81007,1345
23,81418,1571
23,81832,1245
23,82243,1072
23,82655,1108
23,83068,1466
23,83480,1117
23,83892,1209
23,84305,1494
23,84717,1069
23,85128,1164
23,85542,979
23,85953,1091
23,86365,1380
23,86778,1269
23,87190,1302
23,87602,1092
23,88015,981
23,88427,1272
23,88838,826
23,89252,1139
23,89663,872
23,90075,1013
23,90487,986
23,90900,963
23,91312,1211
23,91723,950
23,92137,1652
23,92548,784
23,92960,832
23,93373,753
23,93785,1066
23,94197,1234
23,94610,778
23,95022,1061
23,95433,854
23,95847,1003
23,96258,1195
23,96670,1483
23,97083,1462
23,97495,1327
23,97907,1043
23,98320,1461
23,98732,942
23,99143,761
23,99555,1174
23,99968,952
24,00380,671
24,00792,422
24,01205,690
24,01617,1229
24,02028,954
24,02442,1252
24,02853,1484
24,03265,1146
24,03678,1334
24,04090,1127
24,04502,735
24,04915,691
24,05327,951
24,05738,1190
24,06152,810
24,06563,1040
24,06975,1103
24,07388,1237
24,07800,553
24,08212,826
24,08623,538
24,09037,513
24,09448,898
24,09860,1097
24,10273,1094
24,10685,765
24,11097,603
24,11510,1015
24,11922,775
24,12333,990
24,12747,961
24,13158,1403
24,13570,1577
24,13983,2349
24,14395,2791
24,14807,6673
24,15220,8748
24,15632,13253
24,16043,20781
24,16457,33526
24,16868,48567
24,17280,68680
24,17692,95421
24,18105,124571
24,18517,159578
24,18928,197485
24,19342,250580
24,19753,285066
24,20165,326261
24,20578,365579
24,20990,394428
24,21402,415846
24,21815,416306
24,22227,416953
24,22638,398522
24,23052,381090
24,23463,351740
24,23875,316467
24,24288,285634
24,24700,248454
24,25112,212792
24,25525,182334
24,25937,154974
24,26348,134815
24,26760,116018
24,27173,94141
24,27585,83587
24,27997,71618
24,28410,64395
24,28822,56709
24,29233,48568
24,29647,43210
24,30058,40340
24,30470,33624
24,30883,30015
24,31295,28588
24,31707,25804
24,32120,22691
24,32532,23358
24,32943,19394
24,33357,18258
24,33768,17723
24,34180,18271
24,34593,19563
24,35005,20908
24,35417,24206
24,35830,32989
24,36242,43182
24,36653,58121
24,37065,82636
24,37478,109364
24,37890,149370
24,38302,192385
24,38715,251165
24,39127,318581
24,39538,394298
24,39952,479320
24,40363,562807
24,40775,676708
24,41188,789513
24,41600,891674
24,42012,998687
24,42425,1074072
24,42837,1136597
24,43248,1184249
24,43662,1192964
24,44073,1177302
24,44485,1129708
24,44898,1054334
24,45310,946650
24,45722,835128
24,46133,721431
24,46547,614100
24,46958,518950
24,47370,431408
24,47783,359563
24,48195,299847
24,48607,255385
24,49020,216559
24,49432,186264
24,49843,163766
24,50257,143399
24,50668,128802
24,51080,110330
24,51493,99351
24,51905,92773
24,52317,80491
24,52730,75063
24,53142,69469
24,53553,62236
24,53967,58245
24,54378,53437
24,54790,48560
24,55202,45828
24,55615,40347
24,56027,38601
24,56438,36634
24,56852,36718
24,57263,33453
24,57675,32300
24,58088,29641
24,58500,26061
24,58912,26507
24,59325,25131
24,59737,23906
24,60148,22972
24,60562,22036
24,60973,19835
24,61385,17901
24,61798,17546
24,62210,16796
24,62622,16392
24,63035,15038
24,63447,13938
24,63858,15043
24,64270,12408
24,64683,13012
24,65095,11659
24,65507,11341
24,65920,10291
24,66332,10320
24,66743,10357
24,67157,8239
24,67568,9015
24,67980,9443
24,68393,8250
24,68805,8254
24,69217,8231
24,69630,8823
24,70042,6992
24,70453,7219
24,70867,8347
24,71278,7587
24,71690,10955
24,72103,14150
24,72515,17575
24,72927,26866
24,73338,36936
24,73752,49205
24,74163,71925
24,74575,95582
24,74988,124347
24,75400,162134
24,75812,199703
24,76225,241153
24,76637,276562
24,77048,311738
24,77462,343550
24,77873,371920
24,78285,383330
24,78698,393792
24,79110,385760
24,79522,374618
24,79935,347772
24,80347,330452
24,80758,296102
24,81172,265915
24,81583,224817
24,81995,199858
24,82407,174643
24,82820,150070
24,83232,125342
24,83643,106834
24,84057,90153
24,84468,78715
24,84880,68608
24,85293,60965
24,85705,53684
24,86117,47663
24,86530,42576
24,86942,38473
24,87353,35918
24,87767,31523
24,88178,28709
24,88590,27354
24,89003,25083
24,89415,23045
24,89827,20992
24,90240,18955
24,90652,18859
24,91063,16685
24,91475,15640
24,91888,14545
24,92300,13243
24,92712,13547
24,93125,12503
24,93537,11434
24,93948,12090
24,94362,10205
24,94773,10569
24,95185,9440
24,95598,8251
24,96010,8557
24,96422,8277
24,96835,7570
24,97247,7738
24,97658,7876
24,98072,6367
24,98483,6760
24,98895,6311
24,99308,6213
24,99720,5521
25,00132,5537
25,00543,4732
25,00957,5350
25,01368,4972
25,01780,4713
25,02193,4985
25,02605,4012
25,03017,4225
25,03430,4089
25,03842,4241
25,04253,4284
25,04667,4229
25,05078,3734
25,05490,3429
25,05903,4731
25,06315,3934
25,06727,4921
25,07140,5371
25,07552,5674
25,07963,9955
25,08377,14428
25,08788,19089
25,09200,30337
25,09612,43466
25,10025,60141
25,10437,86198
25,10848,120314
25,11262,156417
25,11673,197122
25,12085,245884
25,12498,305207
25,12910,354356
25,13322,414140
25,13735,461397
25,14147,503506
25,14558,537528
25,14972,548846
25,15383,548574
25,15795,534367
25,16208,516174
25,16620,480573
25,17032,430189
25,17445,388538
25,17857,334602
25,18268,295784
25,18680,249422
25,19093,213075
25,19505,180063
25,19917,157531
25,20330,132241
25,20742,113872
25,21153,97119
25,21567,82779
25,21978,74486
25,22390,65698
25,22803,58754
25,23215,51269
25,23627,44291
25,24040,41636
25,24452,37528
25,24863,35008
25,25277,30612
25,25688,28450
25,26100,27438
25,26513,24160
25,26925,22480
25,27337,20931
25,27748,19540
25,28162,18927
25,28573,16073
25,28985,17355
25,29398,15792
25,29810,14610
25,30222,13698
25,30635,13369
25,31047,13224
25,31458,11447
25,31872,12298
25,32283,9161
25,32695,10111
25,33108,9529
25,33520,8970
25,33932,7414
25,34345,7906
25,34757,7927
25,35168,6475
25,35582,7049
25,35993,6416
25,36405,6124
25,36817,5384
25,37230,5472
25,37642,5280
25,38053,4988
25,38467,5201
25,38878,5637
25,39290,4410
25,39703,4595
25,40115,5230
25,40527,3846
25,40940,3185
25,41352,3672
25,41763,3990
25,42177,3908
25,42588,3598
25,43000,2537
25,43413,3623
25,43825,3341
25,44237,3375
25,44650,2034
25,45062,2874
25,45473,2433
25,45885,1905
25,46298,2834
25,46710,3440
25,47122,2085
25,47535,2345
25,47947,1600
25,48358,2838
25,48772,2212
25,49183,1694
25,49595,2509
25,50008,2327
25,50420,1394
25,50832,2081
25,51245,2261
25,51657,1735
25,52068,2232
25,52482,1938
25,52893,2135
25,53305,1728
25,53718,2867
25,54130,1830
25,54542,1835
25,54953,1505
25,55367,1792
25,55778,2452
25,56190,1646
25,56603,1643
25,57015,1823
25,57427,1578
25,57840,1726
25,58252,2336
25,58663,2124
25,59077,1378
25,59488,1412
25,59900,1547
25,60313,1700
25,60725,1463
25,61137,2725
25,61550,1053
25,61962,1571
25,62373,1115
25,62787,1401
25,63198,1421
25,63610,2405
25,64022,988
25,64435,1455
25,64847,2277
25,65258,1528
25,65672,1962
25,66083,1410
25,66495,1394
25,66908,2234
25,67320,2068
25,67732,1839
25,68145,1485
25,68557,2366
25,68968,1657
25,69382,2176
25,69793,2017
25,70205,1529
25,70618,1518
25,71030,1574
25,71442,1460
25,71855,1998
25,72267,1765
25,72678,1904
25,73090,1784
25,73503,1874
25,73915,1115
25,74327,1776
25,74740,1392
25,75152,1405
25,75563,1308
25,75977,709
25,76388,1754
25,76800,1525
25,77213,1762
25,77625,1734
25,78037,1476
25,78450,1802
25,78862,1922
25,79273,1814
25,79687,2242
25,80098,2716
25,80510,4244
25,80923,6596
25,81335,9721
25,81747,17511
25,82158,24548
25,82572,38593
25,82983,56472
25,83395,80258
25,83808,109369
25,84220,144347
25,84632,190230
25,85045,235243
25,85457,291471
25,85868,352267
25,86282,418128
25,86693,480837
25,87105,535220
25,87518,577783
25,87930,621486
25,88342,637915
25,88755,622423
25,89167,607541
25,89578,572448
25,89992,522762
25,90403,462327
25,90815,406646
25,91228,352576
25,91640,293824
25,92052,252253
25,92463,215085
25,92877,181983
25,93288,153059
25,93700,131613
25,94113,113953
25,94525,95487
25,94937,83590
25,95350,79160
25,95762,67346
25,96173,58857
25,96587,53637
25,96998,49257
25,97410,43690
25,97823,41363
25,98235,38813
25,98647,34104
25,99060,32137
25,99472,30175
25,99883,27464
26,00297,24957
26,00708,25750
26,01120,21622
26,01532,20628
26,01945,19374
26,02357,19241
26,02768,17798
26,03182,16992
26,03593,15419
26,04005,14820
26,04418,14798
26,04830,14598
26,05242,12572
26,05655,12602
26,06067,10967
26,06478,12899
26,06892,10151
26,07303,11886
26,07715,8977
26,08128,9323
26,08540,8703
26,08952,8158
26,09365,8345
26,09777,8298
26,10188,6871
26,10600,7004
26,11013,6888
26,11425,6525
26,11837,6368
26,12250,6020
26,12662,5404
26,13073,4657
26,13487,4700
26,13898,5181
26,14310,4572
26,14723,5363
26,15135,6792
26,15547,5214
26,15960,4149
26,16372,4682
26,16783,5140
26,17197,4024
26,17608,3572
26,18020,4243
26,18433,3993
26,18845,3808
26,19257,3638
26,19668,3709
26,20082,3875
26,20493,3729
26,20905,3237
26,21318,3016
26,21730,2226
26,22142,3226
26,22555,2998
26,22967,3942
26,23378,3432
26,23792,3438
26,24203,3388
26,24615,3462
26,25028,4989
26,25440,5840
26,25852,7757
26,26265,11355
26,26677,15265
26,27088,23009
26,27502,29688
26,27913,41563
26,28325,60011
26,28737,84542
26,29150,110892
26,29562,149222
26,29973,192299
26,30387,241483
26,30798,292704
26,31210,349063
26,31623,391329
26,32035,428462
26,32447,470494
26,32860,487809
26,33272,483087
26,33683,484085
26,34097,472422
26,34508,437367
26,34920,403860
26,35333,361952
26,35745,320494
26,36157,275720
26,36570,237847
26,36982,207298
26,37393,178034
26,37805,152525
26,38218,128233
26,38630,111092
26,39042,95127
26,39455,83184
26,39867,72805
26,40278,62368
26,40692,55998
26,41103,49836
26,41515,42755
26,41928,40840
26,42340,35973
26,42752,34819
26,43165,30428
26,43577,27333
26,43988,26744
26,44402,24284
26,44813,22688
26,45225,20694
26,45638,17745
26,46050,18446
26,46462,16501
26,46873,16357
26,47287,15556
26,47698,15266
26,48110,13984
26,48523,11438
26,48935,12315
26,49347,11176
26,49760,9996
26,50172,11707
26,50583,9834
26,50997,9361
26,51408,9385
26,51820,9009
26,52233,8016
26,52645,7337
26,53057,7606
26,53470,7338
26,53882,7137
26,54293,6779
26,54707,6864
26,55118,6472
26,55530,5952
26,55942,5343
26,56355,4893
26,56767,5326
26,57178,4315
26,57592,4898
26,58003,4829
26,58415,4948
26,58828,5669
26,59240,3890
26,59652,4394
26,60065,4198
26,60477,4414
26,60888,4948
26,61302,3411
26,61713,3328
26,62125,3967
26,62538,4008
26,62950,3563
26,63362,3373
26,63775,4251
26,64187,3550
26,64598,2938
26,65010,3411
26,65423,3158
26,65835,3325
26,66247,3157
26,66660,2645
26,67072,3097
26,67483,3010
26,67897,2957
26,68308,2682
26,68720,3433
26,69133,3335
26,69545,2663
26,69957,3334
26,70370,2257
26,70782,3134
26,71193,3331
26,71607,4010
26,72018,3937
26,72430,3420
26,72843,3546
26,73255,3477
26,73667,4036
26,74078,3753
26,74492,4086
26,74903,4567
26,75315,3564
26,75728,4125
26,76140,4053
26,76552,3069
26,76965,3760
26,77377,4387
26,77788,2580
26,78202,2658
26,78613,3790
26,79025,3200
26,79438,3694
26,79850,2662
26,80262,2854
26,80675,2799
26,81087,2881
26,81498,2663
26,81912,2629
26,82323,2969
26,82735,2223
26,83147,2533
26,83560,2037
26,83972,2344
26,84383,2071
26,84797,1910
26,85208,2149
26,85620,2140
26,86033,2167
26,86445,1873
26,86857,1428
26,87270,2447
26,87682,1921
26,88093,2651
26,88507,2266
26,88918,1558
26,89330,1479
26,89743,1461
26,90155,1936
26,90567,1787
26,90980,1836
26,91392,1749
26,91803,1986
26,92215,2063
26,92628,1991
26,93040,1933
26,93452,1923
26,93865,2210
26,94277,2253
26,94688,2602
26,95102,1412
26,95513,2025
26,95925,1173
26,96338,1474
26,96750,1435
26,97162,2313
26,97575,1479
26,97987,1854
26,98398,1684
26,98812,1699
26,99223,1661
26,99635,1389
27,00048,1660
27,00460,1375
27,00872,1963
27,01283,2745
27,01697,1466
27,02108,1911
27,02520,1929
27,02933,1295
27,03345,1538
27,03757,1453
27,04170,1321
27,04582,2158
27,04993,1495
27,05407,2408
27,05818,1290
27,06230,2375
27,06643,3062
27,07055,4853
27,07467,5912
27,07880,9545
27,08292,14187
27,08703,22223
27,09117,31103
27,09528,46905
27,09940,70053
27,10352,94943
27,10765,124955
27,11177,164012
27,11588,208496
27,12002,255417
27,12413,296401
27,12825,342652
27,13238,380414
27,13650,412481
27,14062,432695
27,14475,436253
27,14887,443297
27,15298,425683
27,15712,403370
27,16123,374395
27,16535,338341
27,16948,304493
27,17360,266842
27,17772,228404
27,18185,199217
27,18597,173196
27,19008,147165
27,19420,126363
27,19833,113761
27,20245,94320
27,20657,81273
27,21070,71706
27,21482,65173
27,21893,58186
27,22307,55810
27,22718,52395
27,23130,53935
27,23543,56517
27,23955,64601
27,24367,75255
27,24780,90493
27,25192,114418
27,25603,146855
27,26017,184621
27,26428,228746
27,26840,281887
27,27253,343989
27,27665,418846
27,28077,491009
27,28488,569282
27,28902,670510
27,29313,772751
27,29725,875837
27,30138,979897
27,30550,1083687
27,30962,1162424
27,31375,1212524
27,31787,1269875
27,32198,1286798
27,32612,1248207
27,33023,1181819
27,33435,1097696
27,33848,974877
27,34260,852149
27,34672,723603
27,35085,622250
27,35497,520202
27,35908,443326
27,36322,370092
27,36733,319406
27,37145,273199
27,37557,237199
27,37970,201559
27,38382,181431
27,38793,159888
27,39207,146724
27,39618,128390
27,40030,117256
27,40443,107577
27,40855,98039
27,41267,88142
27,41680,81712
27,42092,77873
27,42503,69118
27,42917,67539
27,43328,62569
27,43740,57327
27,44153,55602
27,44565,51855
27,44977,50073
27,45390,46627
27,45802,43887
27,46213,42539
27,46627,39593
27,47038,38257
27,47450,36170
27,47862,34129
27,48275,34818
27,48687,31154
27,49098,28738
27,49512,28247
27,49923,27138
27,50335,25744
27,50748,24833
27,51160,23002
27,51572,20765
27,51985,21603
27,52397,19365
27,52808,19971
27,53222,19291
27,53633,17342
27,54045,17102
27,54458,17460
27,54870,15634
27,55282,15981
27,55695,14180
27,56107,15875
27,56518,14008
27,56930,13995
27,57343,11849
27,57755,12677
27,58167,12039
27,58580,12050
27,58992,11090
27,59403,12678
27,59817,10817
27,60228,11905
27,60640,12377
27,61053,14420
27,61465,17422
27,61877,23254
27,62290,29551
27,62702,41754
27,63113,54606
27,63527,76838
27,63938,100053
27,64350,131714
27,64763,168290
27,65175,215379
27,65587,264661
27,65998,310841
27,66412,347045
27,66823,394716
27,67235,417682
27,67648,452160
27,68060,467461
27,68472,471863
27,68885,467535
27,69297,461178
27,69708,441380
27,70122,440337
27,70533,421411
27,70945,424979
27,71358,422521
27,71770,430872
27,72182,444956
27,72595,463751
27,73007,466928
27,73418,474704
27,73832,483692
27,74243,483846
27,74655,466943
27,75067,456891
27,75480,426060
27,75892,391897
27,76303,356650
27,76717,324213
27,77128,289715
27,77540,250808
27,77953,221851
27,78365,193285
27,78777,170900
27,79190,146835
27,79602,130343
27,80013,113863
27,80427,100532
27,80838,87249
27,81250,78806
27,81663,71688
27,82075,64829
27,82487,57911
27,82900,53423
27,83312,48442
27,83723,43025
27,84135,41907
27,84548,38292
27,84960,35209
27,85372,34032
27,85785,30340
27,86197,28865
27,86608,27343
27,87022,25405
27,87433,24447
27,87845,23124
27,88258,22253
27,88670,20416
27,89082,19729
27,89495,20402
27,89907,19165
27,90318,20029
27,90732,17943
27,91143,17103
27,91555,20759
27,91968,20187
27,92380,25326
27,92792,28925
27,93203,40348
27,93617,54709
27,94028,72097
27,94440,90935
27,94853,124383
27,95265,161497
27,95677,197012
27,96090,247012
27,96502,304933
27,96913,359113
27,97327,418528
27,97738,472444
27,98150,513988
27,98563,558373
27,98975,587326
27,99387,594393
27,99800,585064
28,00212,568461
28,00623,534095
28,01037,491252
28,01448,448035
28,01860,393709
28,02272,344176
28,02685,297709
28,03097,258571
28,03508,222806
28,03922,188616
28,04333,167489
28,04745,142261
28,05158,124498
28,05570,108151
28,05982,97494
28,06395,85997
28,06807,76655
28,07218,70052
28,07632,61178
28,08043,57479
28,08455,48609
28,08868,50468
28,09280,44892
28,09692,41948
28,10105,40686
28,10517,37320
28,10928,35797
28,11340,31326
28,11753,30947
28,12165,29470
28,12577,28318
28,12990,27102
28,13402,24082
28,13813,24639
28,14227,23963
28,14638,22960
28,15050,21253
28,15463,19716
28,15875,20078
28,16287,16996
28,16700,18268
28,17112,17342
28,17523,17821
28,17937,14984
28,18348,14758
28,18760,13791
28,19173,13468
28,19585,12878
28,19997,11158
28,20408,11883
28,20822,10624
28,21233,10244
28,21645,9683
28,22058,9510
28,22470,9518
28,22882,9205
28,23295,8768
28,23707,8464
28,24118,8622
28,24532,7524
28,24943,7918
28,25355,7419
28,25768,8638
28,26180,7838
28,26592,8134
28,27005,7090
28,27417,5998
28,27828,7063
28,28242,6649
28,28653,6881
28,29065,6656
28,29477,6168
28,29890,5519
28,30302,7013
28,30713,6446
28,31127,6127
28,31538,5862
28,31950,6130
28,32363,5629
28,32775,6797
28,33187,4694
28,33600,4631
28,34012,5443
28,34423,4022
28,34837,5666
28,35248,4855
28,35660,4292
28,36073,4498
28,36485,4608
28,36897,5522
28,37310,5174
28,37722,4568
28,38133,4971
28,38545,4989
28,38958,6125
28,39370,5084
28,39782,4698
28,40195,5691
28,40607,5651
28,41018,5184
28,41432,5340
28,41843,6163
28,42255,5250
28,42668,6030
28,43080,5557
28,43492,5819
28,43905,5519
28,44317,5786
28,44728,5589
28,45142,4928
28,45553,5413
28,45965,5825
28,46378,5443
28,46790,4581
28,47202,4330
28,47613,5082
28,48027,3691
28,48438,5090
28,48850,4311
28,49263,4645
28,49675,4184
28,50087,4653
28,50500,4488
28,50912,3672
28,51323,4532
28,51737,4188
28,52148,4080
28,52560,4146
28,52973,4105
28,53385,4198
28,53797,3950
28,54210,4129
28,54622,2930
28,55033,3573
28,55447,3891
28,55858,3798
28,56270,4237
28,56682,4638
28,57095,5124
28,57507,3901
28,57918,6869
28,58332,8853
28,58743,12319
28,59155,18348
28,59568,25764
28,59980,35165
28,60392,50572
28,60805,72632
28,61217,95923
28,61628,130190
28,62042,173430
28,62453,210283
28,62865,266617
28,63278,320678
28,63690,383101
28,64102,439041
28,64515,499169
28,64927,556962
28,65338,610759
28,65750,646191
28,66163,665426
28,66575,645334
28,66987,630638
28,67400,588471
28,67812,553310
28,68223,491855
28,68637,428006
28,69048,373656
28,69460,316614
28,69873,270513
28,70285,231148
28,70697,199129
28,71110,176296
28,71522,149489
28,71933,132803
28,72347,116524
28,72758,103968
28,73170,91060
28,73583,83939
28,73995,74685
28,74407,67573
28,74818,63757
28,75232,56766
28,75643,52234
28,76055,49579
28,76468,45939
28,76880,41908
28,77292,40587
28,77705,37728
28,78117,36072
28,78528,33836
28,78942,32141
28,79353,27781
28,79765,26588
28,80178,27221
28,80590,26599
28,81002,24933
28,81415,23654
28,81827,23351
28,82238,20476
28,82652,21079
28,83063,20251
28,83475,18925
28,83887,17927
28,84300,18282
28,84712,15653
28,85123,16195
28,85537,14675
28,85948,14442
28,86360,13416
28,86773,13734
28,87185,13401
28,87597,12870
28,88010,11596
28,88422,11418
28,88833,10893
28,89247,11590
28,89658,10408
28,90070,8874
28,90483,9744
28,90895,9295
28,91307,10612
28,91720,8873
28,92132,8871
28,92543,8441
28,92955,8452
28,93368,9204
28,93780,7540
28,94192,8745
28,94605,7896
28,95017,7894
28,95428,8995
28,95842,8080
28,96253,8365
28,96665,8502
28,97078,7686
28,97490,8343
28,97902,6223
28,98315,7336
28,98727,7513
28,99138,7380
28,99552,6622
28,99963,6617
29,00375,5429
29,00788,5650
29,01200,6049
29,01612,6795
29,02023,8282
29,02437,6697
29,02848,8006
29,03260,10732
29,03673,12335
29,04085,17194
29,04497,24115
29,04910,33463
29,05322,50144
29,05733,70187
29,06147,100492
29,06558,139785
29,06970,190014
29,07383,248026
29,07795,320624
29,08207,394052
29,08620,477642
29,09032,566121
29,09443,655363
29,09857,729876
29,10268,785556
29,10680,840224
29,11093,867610
29,11505,874848
29,11917,858012
29,12328,821248
29,12742,767117
29,13153,709478
29,13565,648503
29,13978,578670
29,14390,515499
29,14802,449458
29,15215,394901
29,15627,340785
29,16038,296752
29,16452,256684
29,16863,219022
29,17275,190303
29,17688,173336
29,18100,150326
29,18512,134862
29,18925,117005
29,19337,104995
29,19748,93402
29,20162,84314
29,20573,79282
29,20985,72538
29,21397,63852
29,21810,60975
29,22222,58297
29,22633,52970
29,23047,49040
29,23458,44536
29,23870,41575
29,24283,41540
29,24695,37810
29,25107,35777
29,25520,33985
29,25932,31479
29,26343,29602
29,26757,28131
29,27168,27889
29,27580,27651
29,27993,26895
29,28405,25300
29,28817,25899
29,29230,26611
29,29642,24234
29,30053,23627
29,30465,23140
29,30878,21398
29,31290,21060
29,31702,17965
29,32115,17338
29,32527,17679
29,32938,15805
29,33352,15064
29,33763,14137
29,34175,13489
29,34588,13016
29,35000,13222
29,35412,12873
29,35825,11709
29,36237,11633
29,36648,10602
29,37062,10036
29,37473,10578
29,37885,11453
29,38298,10248
29,38710,9592
29,39122,9130
29,39533,9187
29,39947,9332
29,40358,9231
29,40770,9341
29,41183,8140
29,41595,8652
29,42007,8115
29,42420,8629
29,42832,7174
29,43243,7132
29,43657,8360
29,44068,6890
29,44480,8419
29,44893,6724
29,45305,7397
29,45717,6361
29,46130,8084
29,46542,6823
29,46953,6362
29,47367,7304
29,47778,6662
29,48190,6742
29,48602,6738
29,49015,6315
29,49427,6731
29,49838,6063
29,50252,7061
29,50663,5538
29,51075,5998
29,51488,5360
29,51900,6204
29,52312,6607
29,52725,6536
29,53137,6221
29,53548,5481
29,53962,5959
29,54373,4915
29,54785,5257
29,55198,5768
29,55610,5600
29,56022,5199
29,56435,5600
29,56847,5014
29,57258,5591
29,57670,5089
29,58083,5100
29,58495,5410
29,58907,4905
29,59320,5177
29,59732,4255
29,60143,5364
29,60557,4181
29,60968,4597
29,61380,5498
29,61793,5351
29,62205,6500
29,62617,5011
29,63030,4403
29,63442,5604
29,63853,5030
29,64267,4289
29,64678,5261
29,65090,4871
29,65503,5428
29,65915,4290
29,66327,4103
29,66738,3341
29,67152,3914
29,67563,4222
29,67975,4189
29,68388,3159
29,68800,4369
29,69212,4031
29,69625,3302
29,70037,3371
29,70448,4428
29,70862,3228
29,71273,3404
29,71685,2983
29,72098,3440
29,72510,4347
29,72922,3711
29,73335,3018
29,73747,3337
29,74158,4937
29,74572,4801
29,74983,3308
29,75395,4083
29,75807,4404
29,76220,4461
29,76632,4002
29,77043,4437
29,77457,3410
29,77868,3897
29,78280,5509
29,78693,4369
29,79105,3901
29,79517,3578
29,79930,3628
29,80342,3879
29,80753,4702
29,81167,4425
29,81578,5666
29,81990,4900
29,82403,3713
29,82815,4786
29,83227,4242
29,83640,3682
29,84052,3908
29,84463,4145
29,84875,4874
29,85288,3978
29,85700,3818
29,86112,4398
29,86525,3574
29,86937,4186
29,87348,3480
29,87762,4207
29,88173,3269
29,88585,4607
29,88998,4615
29,89410,4498
29,89822,4184
29,90235,6003
29,90647,8380
29,91058,10470
29,91472,14729
29,91883,22038
29,92295,29601
29,92708,41360
29,93120,58689
29,93532,81800
29,93943,109082
29,94357,144280
29,94768,185390
29,95180,238876
29,95593,289408
29,96005,351693
29,96417,420864
29,96830,487754
29,97242,574388
29,97653,651092
29,98067,757998
29,98478,837424
29,98890,948464
29,99303,1048679
29,99715,1131856
30,00127,1197311
30,00540,1246429
30,00952,1265294
30,01363,1264166
30,01777,1223359
30,02188,1142788
30,02600,1031377
30,03012,899166
30,03425,782193
30,03837,664181
30,04248,565244
30,04662,486893
30,05073,409790
30,05485,348643
30,05898,303123
30,06310,259605
30,06722,226613
30,07135,202965
30,07547,183447
30,07958,163347
30,08372,145277
30,08783,135495
30,09195,128051
30,09608,118540
30,10020,107418
30,10432,99340
30,10845,93305
30,11257,86719
30,11668,79665
30,12080,75878
30,12493,73571
30,12905,67927
30,13317,62674
30,13730,58709
30,14142,56010
30,14553,52747
30,14967,51727
30,15378,49516
30,15790,48179
30,16203,44385
30,16615,42408
30,17027,39760
30,17440,37524
30,17852,39353
30,18263,35734
30,18677,33402
30,19088,33259
30,19500,33247
30,19913,29301
30,20325,30135
30,20737,27595
30,21148,26544
30,21562,25584
30,21973,23687
30,22385,24576
30,22798,24517
30,23210,22534
30,23622,22072
30,24035,21879
30,24447,19688
30,24858,19606
30,25272,20936
30,25683,18566
30,26095,18806
30,26508,15736
30,26920,17063
30,27332,16628
30,27745,16248
30,28157,15896
30,28568,14008
30,28982,15071
30,29393,14874
30,29805,15172
30,30217,14616
30,30630,14138
30,31042,15647
30,31453,13528
30,31867,13015
30,32278,13840
30,32690,11493
30,33103,13489
30,33515,13291
30,33927,11576
30,34340,11815
30,34752,12281
30,35163,11373
30,35577,11565
30,35988,11588
30,36400,11378
30,36813,10521
30,37225,10893
30,37637,10826
30,38050,9458
30,38462,9458
30,38873,10659
30,39285,9070
30,39698,8540
30,40110,9109
30,40522,9029
30,40935,10037
30,41347,9620
30,41758,9163
30,42172,9406
30,42583,8507
30,42995,9484
30,43408,8200
30,43820,7440
30,44232,7635
30,44645,8334
30,45057,8084
30,45468,8304
30,45882,7946
30,46293,8182
30,46705,8370
30,47118,7529
30,47530,7366
30,47942,7899
30,48353,7291
30,48767,6478
30,49178,8186
30,49590,7300
30,50003,6879
30,50415,8278
30,50827,7725
30,51240,5964
30,51652,6291
30,52063,7175
30,52477,8353
30,52888,7344
30,53300,7209
30,53713,6762
30,54125,8338
30,54537,6403
30,54950,6866
30,55362,7911
30,55773,7521
30,56187,8425
30,56598,9450
30,57010,10422
30,57422,14582
30,57835,20168
30,58247,27627
30,58658,37178
30,59072,52728
30,59483,71634
30,59895,101100
30,60308,130706
30,60720,169265
30,61132,216558
30,61545,270540
30,61957,323261
30,62368,385243
30,62782,445731
30,63193,498791
30,63605,544086
30,64018,586465
30,64430,610697
30,64842,627029
30,65255,614478
30,65667,589655
30,66078,558393
30,66490,512711
30,66903,459494
30,67315,408958
30,67727,354461
30,68140,309469
30,68552,264609
30,68963,229891
30,69377,201670
30,69788,173707
30,70200,154043
30,70613,135584
30,71025,123840
30,71437,109041
30,71850,99731
30,72262,88405
30,72673,80423
30,73087,71736
30,73498,68672
30,73910,63729
30,74323,58673
30,74735,54734
30,75147,50722
30,75560,47481
30,75972,42809
30,76383,41445
30,76795,40566
30,77208,36789
30,77620,34693
30,78032,32377
30,78445,32497
30,78857,32024
30,79268,29445
30,79682,27956
30,80093,25135
30,80505,25204
30,80918,24800
30,81330,24480
30,81742,23472
30,82155,21961
30,82567,21809
30,82978,20568
30,83392,21342
30,83803,19568
30,84215,18164
30,84628,18778
30,85040,17998
30,85452,16354
30,85863,14696
30,86277,15578
30,86688,15768
30,87100,15145
30,87513,15873
30,87925,14208
30,88337,13935
30,88750,14846
30,89162,12810
30,89573,13716
30,89987,13816
30,90398,13698
30,90810,12895
30,91223,12876
30,91635,14328
30,92047,13194
30,92460,13054
30,92872,12912
30,93283,12686
30,93697,13060
30,94108,12886
30,94520,13163
30,94932,11851
30,95345,12085
30,95757,12690
30,96168,11272
30,96582,11561
30,96993,11050
30,97405,10948
30,97818,10640
30,98230,9979
30,98642,8751
30,99055,10079
30,99467,9719
30,99878,7955
31,00292,7566
31,00703,9449
31,01115,8621
31,01528,8797
31,01940,8627
31,02352,8223
31,02765,7515
31,03177,7524
31,03588,8492
31,04000,7042
31,04413,6754
31,04825,7633
31,05237,8155
31,05650,8257
31,06062,7590
31,06473,6145
31,06887,7183
31,07298,7462
31,07710,6399
31,08123,7203
31,08535,6768
31,08947,7141
31,09360,5344
31,09772,6628
31,10183,7461
31,10597,6482
31,11008,7482
31,11420,6936
31,11833,6477
31,12245,4931
31,12657,5633
31,13068,7063
31,13482,6092
31,13893,7571
31,14305,7225
31,14718,6314
31,15130,7045
31,15542,6846
31,15955,6950
31,16367,7358
31,16778,6809
31,17192,6817
31,17603,6269
31,18015,7501
31,18428,6391
31,18840,7021
31,19252,7111
31,19665,6559
31,20077,6273
31,20488,6670
31,20902,7045
31,21313,7123
31,21725,6580
31,22137,7130
31,22550,7257
31,22962,6460
31,23373,7311
31,23787,6196
31,24198,7679
31,24610,6486
31,25023,7087
31,25435,6688
31,25847,6886
31,26260,6249
31,26672,6570
31,27083,7015
31,27497,6526
31,27908,6080
31,28320,6737
31,28733,6610
31,29145,6727
31,29557,7036
31,29970,6348
31,30382,6888
31,30793,7036
31,31205,6892
31,31618,6434
31,32030,7125
31,32442,7117
31,32855,7762
31,33267,6720
31,33678,5858
31,34092,6683
31,34503,6370
31,34915,7297
31,35328,6996
31,35740,6024
31,36152,7359
31,36565,6789
31,36977,6677
31,37388,6077
31,37802,5439
31,38213,6480
31,38625,6458
31,39038,6563
31,39450,5678
31,39862,5511
31,40273,5524
31,40687,4796
31,41098,5319
31,41510,6082
31,41923,5211
31,42335,5161
31,42747,6380
31,43160,5235
31,43572,5723
31,43983,6353
31,44397,5710
31,44808,6222
31,45220,6121
31,45633,5712
31,46045,5492
31,46457,6698
31,46870,6161
31,47282,6650
31,47693,7354
31,48107,7043
31,48518,7261
31,48930,6901
31,49342,7099
31,49755,7424
31,50167,5920
31,50578,6949
31,50992,6588
31,51403,6569
31,51815,6106
31,52228,7073
31,52640,6758
31,53052,6474
31,53465,7854
31,53877,6545
31,54288,6854
31,54702,5101
31,55113,6142
31,55525,5901
31,55938,6012
31,56350,6142
31,56762,5323
31,57175,5720
31,57587,5700
31,57998,6226
31,58410,6114
31,58823,6432
31,59235,5429
31,59647,5305
31,60060,4885
31,60472,5639
31,60883,5577
31,61297,4981
31,61708,5952
31,62120,4089
31,62533,5556
31,62945,6641
31,63357,5071
31,63770,5937
31,64182,5693
31,64593,5090
31,65007,4960
31,65418,6389
31,65830,4817
31,66243,5315
31,66655,4647
31,67067,5248
31,67478,6839
31,67892,5785
31,68303,5680
31,68715,5510
31,69128,5516
31,69540,5325
31,69952,6382
31,70365,5058
31,70777,6202
31,71188,6239
31,71602,5024
31,72013,5437
31,72425,6556
31,72838,5160
31,73250,5582
31,73662,4537
31,74075,6503
31,74487,5171
31,74898,6289
31,75312,4985
31,75723,4823
31,76135,5875
31,76547,4735
31,76960,5190
31,77372,5517
31,77783,6192
31,78197,5396
31,78608,5684
31,79020,5812
31,79433,5784
31,79845,5651
31,80257,4505
31,80670,5446
31,81082,5139
31,81493,4732
31,81907,6021
31,82318,5274
31,82730,4326
31,83143,5244
31,83555,5765
31,83967,4752
31,84380,5497
31,84792,6333
31,85203,5801
31,85615,4926
31,86028,4465
31,86440,5581
31,86852,5928
31,87265,5873
31,87677,5633
31,88088,5729
31,88502,5092
31,88913,6138
31,89325,6227
31,89738,5056
31,90150,6240
31,90562,5559
31,90975,6000
31,91387,4404
31,91798,5724
31,92212,5919
31,92623,5973
31,93035,4264
31,93448,5956
31,93860,5465
31,94272,4455
31,94683,5067
31,95097,4891
31,95508,5665
31,95920,4773
31,96333,4843
31,96745,5471
31,97157,6440
31,97570,5401
31,97982,5215
31,98393,5369
31,98807,5598
31,99218,5860
31,99630,5244
32,00043,4916
32,00455,6180
32,00867,6496
32,01280,5669
32,01692,6184
32,02103,6754
32,02517,6570
32,02928,5948
32,03340,4549
32,03752,5663
32,04165,5875
32,04577,5579
32,04988,4936
32,05402,6375
32,05813,5741
32,06225,5648
32,06638,5325
32,07050,6346
32,07462,5873
32,07875,5565
32,08287,5345
32,08698,6617
32,09112,6379
32,09523,5170
32,09935,5784
32,10348,5314
32,10760,5239
32,11172,5036
32,11585,5082
32,11997,6814
32,12408,4931
32,12820,5932
32,13233,5186
32,13645,6847
32,14057,5431
32,14470,6314
32,14882,7011
32,15293,6939
32,15707,7931
32,16118,8845
32,16530,7992
32,16943,8059
32,17355,7988
32,17767,7781
32,18180,9218
32,18592,6995
32,19003,6610
32,19417,6689
32,19828,7864
32,20240,6407
32,20653,6527
32,21065,6563
32,21477,6456
32,21888,6631
32,22302,7291
32,22713,6058
32,23125,6151
32,23538,5227
32,23950,5389
32,24362,5796
32,24775,4844
32,25187,5193
32,25598,5560
32,26012,5857
32,26423,5132
32,26835,5689
32,27248,5449
32,27660,5214
32,28072,5975
32,28485,5100
32,28897,6124
32,29308,5428
32,29722,6327
32,30133,5154
32,30545,6727
32,30958,5906
32,31370,7032
32,31782,9954
32,32193,11415
32,32607,16228
32,33018,20602
32,33430,30630
32,33843,38061
32,34255,52287
32,34667,70824
32,35080,93582
32,35492,122863
32,35903,155326
32,36317,187792
32,36728,224472
32,37140,258954
32,37553,293311
32,37965,323142
32,38377,342791
32,38790,357305
32,39202,353263
32,39613,354501
32,40027,339354
32,40438,317026
32,40850,290061
32,41262,262960
32,41675,236168
32,42087,213617
32,42498,183491
32,42912,163225
32,43323,141365
32,43735,124443
32,44148,109181
32,44560,93996
32,44972,84912
32,45385,74524
32,45797,68560
32,46208,60921
32,46622,54300
32,47033,50645
32,47445,44352
32,47858,43373
32,48270,36142
32,48682,35597
32,49095,30924
32,49507,32796
32,49918,29219
32,50330,28056
32,50743,25490
32,51155,25797
32,51567,23380
32,51980,23620
32,52392,20668
32,52803,19362
32,53217,19208
32,53628,17332
32,54040,17983
32,54453,16753
32,54865,18829
32,55277,15223
32,55690,15330
32,56102,14513
32,56513,14598
32,56927,15177
32,57338,13883
32,57750,14565
32,58163,14042
32,58575,14511
32,58987,13051
32,59398,13037
32,59812,12476
32,60223,11626
32,60635,12720
32,61048,12084
32,61460,12142
32,61872,11868
32,62285,10693
32,62697,10958
32,63108,11277
32,63522,10321
32,63933,11830
32,64345,10640
32,64758,10019
32,65170,8975
32,65582,9101
32,65995,11169
32,66407,9573
32,66818,9996
32,67232,7595
32,67643,9799
32,68055,9524
32,68467,9768
32,68880,8215
32,69292,9201
32,69703,8542
32,70117,9080
32,70528,7769
32,70940,7413
32,71353,7558
32,71765,9379
32,72177,7966
32,72590,8703
32,73002,8320
32,73413,8668
32,73827,8465
32,74238,6992
32,74650,6583
32,75063,7335
32,75475,6995
32,75887,7943
32,76300,7829
32,76712,7416
32,77123,7663
32,77535,6659
32,77948,8443
32,78360,9264
