D:\MassHunter\GCMS\1\data\Amal\Constant flow\80C\80C_1ml-min_8C-min_1.D Thu Aug 01 19:57:28 2024
Start of data points
6,24088	63359
6,24502	93765
6,24913	136291
6,25325	186844
6,25738	235316
6,26150	290992
6,26562	344948
6,26975	373499
6,27387	403259
6,27798	408664
6,28210	406520
6,28623	396634
6,29035	389520
6,29447	373086
6,29860	351727
6,30272	328144
6,30683	314664
6,31097	288199
6,31508	274544
6,31920	257440
6,32333	236692
6,32745	230234
6,33157	216167
6,33570	205939
6,33982	195122
6,34393	179337
6,34807	175552
6,35218	164511
6,35630	150814
6,36043	143422
6,36455	134886
6,36867	123968
6,37278	119499
6,37692	110383
6,38103	102890
6,38515	96627
6,38928	88865
6,39340	80846
6,39752	76499
6,40165	70620
6,40577	64610
6,40988	61013
6,41402	54609
6,41813	51807
6,42225	46005
6,42638	43684
6,43050	41609
6,43462	36940
6,43875	36999
6,44287	33719
6,44698	32027
6,45112	30244
6,45523	26461
6,45935	26037
6,46347	25529
6,46760	23936
6,47172	22702
6,47583	21176
6,47997	20625
6,48408	20128
6,48820	18753
6,49233	18511
6,49645	17923
6,50057	16966
6,50470	15986
6,50882	16369
6,51293	15715
6,51707	14500
6,52118	15190
6,52530	14708
6,52943	14161
6,53355	13561
6,53767	14068
6,54180	13433
6,54592	13982
6,55003	12794
6,55415	12718
6,55828	12407
6,56240	13222
6,56652	13501
6,57065	13000
6,57477	12073
6,57888	12622
6,58302	11427
6,58713	13180
6,59125	11835
6,59538	11951
6,59950	11202
6,60362	12295
6,60775	11419
6,61187	12137
6,61598	11066
6,62012	11659
6,62423	11088
6,62835	11188
6,63248	11003
6,63660	11909
6,64072	12106
6,64483	11012
6,64897	11093
6,65308	10918
6,65720	11215
6,66133	11264
6,66545	10862
6,66957	10776
6,67370	11024
6,67782	9704
6,68193	10190
6,68607	10047
6,69018	9697
6,69430	10712
6,69843	9740
6,70255	9232
6,70667	9529
6,71080	9531
6,71492	9987
6,71903	9919
6,72317	9581
6,72728	9920
6,73140	9381
6,73552	9416
6,73965	9365
6,74377	9546
6,74788	9994
6,75202	9267
6,75613	9181
6,76025	9297
6,76438	9141
6,76850	9674
6,77262	9259
6,77675	9729
6,78087	9579
6,78498	9310
6,78912	9552
6,79323	9409
6,79735	8106
6,80148	9553
6,80560	9085
6,80972	8507
6,81385	9299
6,81797	9695
6,82208	8319
6,82620	9533
6,83033	8936
6,83445	9391
6,83857	9248
6,84270	8321
6,84682	9505
6,85093	9186
6,85507	8544
6,85918	9136
6,86330	8790
6,86743	8357
6,87155	8619
6,87567	8861
6,87980	8405
6,88392	8985
6,88803	9596
6,89217	8491
6,89628	9405
6,90040	8262
6,90453	8613
6,90865	9043
6,91277	8992
6,91688	8288
6,92102	8637
6,92513	8805
6,92925	8918
6,93338	8379
6,93750	9083
6,94162	8808
6,94575	9281
6,94987	8770
6,95398	8909
6,95812	8475
6,96223	8750
6,96635	9520
6,97048	8423
6,97460	9060
6,97872	8057
6,98285	9060
6,98697	8820
6,99108	8806
6,99522	8410
6,99933	8788
7,00345	8207
7,00757	8280
7,01170	8506
7,01582	8263
7,01993	8234
7,02407	7783
7,02818	7703
7,03230	7831
7,03643	8101
7,04055	7950
7,04467	8293
7,04880	6739
7,05292	7693
7,05703	7556
7,06117	7558
7,06528	7448
7,06940	8126
7,07353	8034
7,07765	7636
7,08177	8068
7,08590	8216
7,09002	8221
7,09413	8055
7,09825	7565
7,10238	8327
7,10650	7796
7,11062	7727
7,11475	7897
7,11887	7459
7,12298	7982
7,12712	7528
7,13123	7759
7,13535	7625
7,13948	8084
7,14360	7859
7,14772	7332
7,15185	7107
7,15597	7093
7,16008	7510
7,16422	7811
7,16833	7277
7,17245	7606
7,17658	8127
7,18070	6819
7,18482	7009
7,18893	7450
7,19307	7172
7,19718	7513
7,20130	6560
7,20543	7421
7,20955	6862
7,21367	6420
7,21780	7575
7,22192	7085
7,22603	7229
7,23017	7105
7,23428	7348
7,23840	8059
7,24253	8073
7,24665	7587
7,25077	7228
7,25490	7729
7,25902	6590
7,26313	7447
7,26727	7182
7,27138	7694
7,27550	7562
7,27962	7861
7,28375	6929
7,28787	7870
7,29198	7115
7,29612	7640
7,30023	7282
7,30435	7440
7,30848	6722
7,31260	7351
7,31672	7390
7,32085	7910
7,32497	7455
7,32908	7996
7,33322	9265
7,33733	7766
7,34145	8608
7,34558	9047
7,34970	8748
7,35382	8685
7,35795	8228
7,36207	7408
7,36618	7885
7,37030	8788
7,37443	8298
7,37855	7491
7,38267	7490
7,38680	6687
7,39092	7970
7,39503	7631
7,39917	7831
7,40328	7881
7,40740	7209
7,41153	7443
7,41565	7415
7,41977	7212
7,42390	6342
7,42802	6698
7,43213	7088
7,43627	7693
7,44038	6875
7,44450	7182
7,44863	7155
7,45275	7134
7,45687	7213
7,46098	6604
7,46512	7545
7,46923	6632
7,47335	6914
7,47748	7383
7,48160	7157
7,48572	6497
7,48985	7665
7,49397	6980
7,49808	6806
7,50222	6283
7,50633	7049
7,51045	7725
7,51458	6903
7,51870	6259
7,52282	7062
7,52695	7063
7,53107	6514
7,53518	6399
7,53932	7390
7,54343	6750
7,54755	6901
7,55168	7147
7,55580	7148
7,55992	6322
7,56403	6966
7,56817	6029
7,57228	6964
7,57640	6851
7,58053	6756
7,58465	6489
7,58877	7498
7,59290	7416
7,59702	7421
7,60113	6593
7,60527	7245
7,60938	7327
7,61350	6941
7,61763	6767
7,62175	7043
7,62587	7684
7,63000	6890
7,63412	7117
7,63823	7417
7,64237	7626
7,64648	6967
7,65060	6436
7,65472	7610
7,65885	7363
7,66297	7414
7,66708	6623
7,67122	7053
7,67533	7234
7,67945	6480
7,68358	8013
7,68770	6223
7,69182	7051
7,69595	6379
7,70007	7922
7,70418	6781
7,70832	7248
7,71243	6463
7,71655	7038
7,72068	7746
7,72480	7367
7,72892	6997
7,73305	6456
7,73717	6405
7,74128	7075
7,74540	7701
7,74953	6941
7,75365	6057
7,75777	7246
7,76190	6670
7,76602	7603
7,77013	6289
7,77427	6763
7,77838	6729
7,78250	6838
7,78663	7327
7,79075	6011
7,79487	6622
7,79900	7427
7,80312	6934
7,80723	8342
7,81137	11063
7,81548	12415
7,81960	17744
7,82373	26929
7,82785	35920
7,83197	52741
7,83608	72884
7,84022	90608
7,84433	108049
7,84845	126861
7,85258	142940
7,85670	150687
7,86082	154472
7,86495	151694
7,86907	143019
7,87318	136763
7,87732	130915
7,88143	115463
7,88555	105909
7,88968	96938
7,89380	87448
7,89792	76737
7,90205	69976
7,90617	62349
7,91028	53682
7,91442	48221
7,91853	40399
7,92265	35211
7,92677	32558
7,93090	29666
7,93502	25627
7,93913	22631
7,94327	20325
7,94738	17205
7,95150	17401
7,95563	15327
7,95975	14145
7,96387	13443
7,96800	11988
7,97212	10562
7,97623	10529
7,98037	10116
7,98448	10185
7,98860	10011
7,99273	9074
7,99685	9144
8,00097	8257
8,00510	7978
8,00922	7351
8,01333	6903
8,01745	7701
8,02158	7967
8,02570	7161
8,02982	7669
8,03395	7867
8,03807	5946
8,04218	6436
8,04632	8183
8,05043	6206
8,05455	6809
8,05868	6058
8,06280	6223
8,06692	6438
8,07105	6684
8,07517	6474
8,07928	6876
8,08342	6672
8,08753	6015
8,09165	6954
8,09578	6200
8,09990	6436
8,10402	6599
8,10813	6485
8,11227	6469
8,11638	6114
8,12050	6151
8,12463	6214
8,12875	6017
8,13287	5799
8,13700	5988
8,14112	6385
8,14523	6623
8,14937	6341
8,15348	5408
8,15760	5792
8,16173	6850
8,16585	6581
8,16997	6016
8,17410	6233
8,17822	5701
8,18233	5955
8,18647	6255
8,19058	5460
8,19470	6441
8,19882	5574
8,20295	5608
8,20707	5752
8,21118	6256
8,21532	6503
8,21943	5504
8,22355	5943
8,22768	5636
8,23180	6018
8,23592	5712
8,24005	5694
8,24417	5973
8,24828	6450
8,25242	6412
8,25653	8072
8,26065	8144
8,26478	8397
8,26890	9977
8,27302	8586
8,27715	9523
8,28127	8154
8,28538	8623
8,28950	7410
8,29363	7329
8,29775	6346
8,30187	5689
8,30600	5616
8,31012	5687
8,31423	5690
8,31837	5626
8,32248	5460
8,32660	5591
8,33073	5712
8,33485	5221
8,33897	4843
8,34310	5343
8,34722	5096
8,35133	5525
8,35547	5511
8,35958	5614
8,36370	4622
8,36783	5772
8,37195	5632
8,37607	4796
8,38018	6087
8,38432	6309
8,38843	5640
8,39255	5461
8,39668	6752
8,40080	6240
8,40492	5051
8,40905	6242
8,41317	6703
8,41728	6406
8,42142	5720
8,42553	5601
8,42965	5680
8,43378	5244
8,43790	5138
8,44202	5299
8,44615	4715
8,45027	6234
8,45438	5251
8,45852	5777
8,46263	4661
8,46675	5269
8,47087	5017
8,47500	4902
8,47912	5589
8,48323	5015
8,48737	5455
8,49148	4785
8,49560	5172
8,49973	4738
8,50385	5386
8,50797	4922
8,51210	5246
8,51622	5182
8,52033	4981
8,52447	4577
8,52858	4603
8,53270	4875
8,53683	4990
8,54095	4802
8,54507	5133
8,54920	4935
8,55332	5335
8,55743	5412
8,56155	5158
8,56568	4450
8,56980	4353
8,57392	5095
8,57805	5497
8,58217	4955
8,58628	4542
8,59042	4757
8,59453	4624
8,59865	4146
8,60278	4878
8,60690	5173
8,61102	4721
8,61515	4228
8,61927	4282
8,62338	4798
8,62752	4534
8,63163	4171
8,63575	5777
8,63988	4992
8,64400	4854
8,64812	4542
8,65223	4607
8,65637	5636
8,66048	4622
8,66460	4222
8,66873	4601
8,67285	4810
8,67697	5115
8,68110	5191
8,68522	4792
8,68933	4744
8,69347	5295
8,69758	4739
8,70170	4252
8,70583	4695
8,70995	5120
8,71407	4584
8,71820	4258
8,72232	4943
8,72643	4277
8,73057	4523
8,73468	4424
8,73880	4504
8,74292	4392
8,74705	5386
8,75117	4451
8,75528	4470
8,75942	4628
8,76353	4290
8,76765	4167
8,77178	4869
8,77590	5291
8,78002	4302
8,78415	4894
8,78827	4516
8,79238	4694
8,79652	4666
8,80063	4513
8,80475	4542
8,80888	4685
8,81300	5729
8,81712	4625
8,82125	5565
8,82537	4877
8,82948	5025
8,83360	5205
8,83773	5002
8,84185	5186
8,84597	5051
8,85010	5183
8,85422	5864
8,85833	5334
8,86247	5285
8,86658	5167
8,87070	6362
8,87483	5078
8,87895	4932
8,88307	5007
8,88720	4690
8,89132	5266
8,89543	5267
8,89957	4595
8,90368	4363
8,90780	4627
8,91193	4474
8,91605	4385
8,92017	4511
8,92428	4114
8,92842	4166
8,93253	4228
8,93665	4052
8,94078	4115
8,94490	5073
8,94902	4359
8,95315	3979
8,95727	3942
8,96138	5078
8,96552	4381
8,96963	4977
8,97375	5196
8,97788	5696
8,98200	5920
8,98612	6739
8,99025	6783
8,99437	6546
8,99848	6562
9,00262	7385
9,00673	7159
9,01085	7553
9,01497	6394
9,01910	5722
9,02322	5710
9,02733	5764
9,03147	4532
9,03558	5103
9,03970	5033
9,04383	4405
9,04795	4820
9,05207	4838
9,05620	4271
9,06032	4237
9,06443	4315
9,06857	4840
9,07268	4727
9,07680	3732
9,08093	4440
9,08505	5464
9,08917	5868
9,09330	5447
9,09742	4314
9,10153	5186
9,10565	4796
9,10978	4697
9,11390	5245
9,11802	5499
9,12215	4816
9,12627	4521
9,13038	4358
9,13452	4573
9,13863	3757
9,14275	4481
9,14688	4120
9,15100	4414
9,15512	4485
9,15925	4317
9,16337	4178
9,16748	3773
9,17162	5271
9,17573	3603
9,17985	3686
9,18398	3886
9,18810	4223
9,19222	4089
9,19635	3251
9,20047	3878
9,20458	3959
9,20870	3775
9,21283	3913
9,21695	4184
9,22107	3716
9,22520	3707
9,22932	3388
9,23343	4102
9,23757	4178
9,24168	4496
9,24580	3630
9,24993	3862
9,25405	4158
9,25817	4243
9,26230	3856
9,26642	4035
9,27053	4087
9,27467	4435
9,27878	4843
9,28290	4244
9,28703	4323
9,29115	4611
9,29527	4314
9,29938	4460
9,30352	4556
9,30763	3701
9,31175	4005
9,31588	4244
9,32000	3320
9,32412	3994
9,32825	4236
9,33237	3678
9,33648	3652
9,34062	4042
9,34473	4542
9,34885	3526
9,35298	3811
9,35710	3062
9,36122	2953
9,36535	3753
9,36947	3657
9,37358	3604
9,37772	3587
9,38183	3744
9,38595	4120
9,39007	3543
9,39420	3793
9,39832	3998
9,40243	3792
9,40657	4033
9,41068	3570
9,41480	3387
9,41893	3164
9,42305	4128
9,42717	4516
9,43130	3256
9,43542	3563
9,43953	3283
9,44367	3697
9,44778	3383
9,45190	3588
9,45603	4286
9,46015	3501
9,46427	3634
9,46840	3772
9,47252	4067
9,47663	4009
9,48075	4186
9,48488	3552
9,48900	3732
9,49312	3155
9,49725	3866
9,50137	3947
9,50548	3930
9,50962	3729
9,51373	3650
9,51785	4163
9,52198	4526
9,52610	4266
9,53022	4435
9,53435	4443
9,53847	4514
9,54258	4492
9,54672	4844
9,55083	4700
9,55495	4417
9,55908	4302
9,56320	4838
9,56732	4314
9,57143	3962
9,57557	3971
9,57968	3675
9,58380	4696
9,58793	3790
9,59205	3437
9,59617	3212
9,60030	3531
9,60442	3633
9,60853	3282
9,61267	3961
9,61678	3865
9,62090	3794
9,62503	3696
9,62915	3756
9,63327	4219
9,63740	3749
9,64152	4113
9,64563	4353
9,64977	4126
9,65388	4060
9,65800	4088
9,66212	3933
9,66625	3877
9,67037	3737
9,67448	4744
9,67862	3290
9,68273	4005
9,68685	3798
9,69098	4057
9,69510	4349
9,69922	3790
9,70335	4154
9,70747	3272
9,71158	3441
9,71572	3483
9,71983	3243
9,72395	3918
9,72808	3870
9,73220	2970
9,73632	2854
9,74045	3444
9,74457	3552
9,74868	3301
9,75280	4072
9,75693	3577
9,76105	3893
9,76517	4376
9,76930	3357
9,77342	3955
9,77753	3485
9,78167	3597
9,78578	4187
9,78990	3866
9,79403	4158
9,79815	3496
9,80227	3754
9,80640	3432
9,81052	3464
9,81463	3979
9,81877	3922
9,82288	3349
9,82700	3535
9,83113	4119
9,83525	4575
9,83937	3643
9,84348	4202
9,84762	4583
9,85173	4081
9,85585	3741
9,85998	4122
9,86410	6036
9,86822	8720
9,87235	14993
9,87647	24788
9,88058	47481
9,88472	82709
9,88883	131783
9,89295	212141
9,89708	308904
9,90120	419274
9,90532	540755
9,90945	656329
9,91357	749006
9,91768	807977
9,92182	817781
9,92593	809310
9,93005	750011
9,93417	685606
9,93830	597648
9,94242	514470
9,94653	425424
9,95067	347837
9,95478	278320
9,95890	223800
9,96303	176623
9,96715	140647
9,97127	115549
9,97540	92374
9,97952	76432
9,98363	62436
9,98777	54313
9,99188	45617
9,99600	39847
10,00013	35660
10,00425	31881
10,00837	29746
10,01250	25338
10,01662	20967
10,02073	20454
10,02485	19286
10,02898	17658
10,03310	16508
10,03722	14869
10,04135	14082
10,04547	12656
10,04958	11536
10,05372	12964
10,05783	11201
10,06195	9978
10,06608	9789
10,07020	10086
10,07432	9150
10,07845	8424
10,08257	8355
10,08668	7647
10,09082	8199
10,09493	7491
10,09905	7484
10,10318	6778
10,10730	6636
10,11142	6789
10,11553	6563
10,11967	6241
10,12378	6361
10,12790	5989
10,13203	5574
10,13615	5752
10,14027	5671
10,14440	6164
10,14852	5455
10,15263	5081
10,15677	5652
10,16088	5727
10,16500	3915
10,16913	5598
10,17325	5643
10,17737	4703
10,18150	5338
10,18562	4891
10,18973	4751
10,19387	5377
10,19798	4745
10,20210	4746
10,20622	4429
10,21035	4515
10,21447	6003
10,21858	5393
10,22272	4405
10,22683	5523
10,23095	4232
10,23508	4583
10,23920	4385
10,24332	4444
10,24745	4002
10,25157	4721
10,25568	4332
10,25982	4352
10,26393	4344
10,26805	3733
10,27218	4493
10,27630	3855
10,28042	4243
10,28455	3661
10,28867	3049
10,29278	3989
10,29690	3645
10,30103	4167
10,30515	4061
10,30927	3951
10,31340	4328
10,31752	3283
10,32163	3850
10,32577	3928
10,32988	3851
10,33400	4562
10,33813	3815
10,34225	4289
10,34637	3377
10,35050	3465
10,35462	3328
10,35873	4108
10,36287	3633
10,36698	3695
10,37110	3942
10,37523	3868
10,37935	4486
10,38347	3433
10,38758	3478
10,39172	4251
10,39583	4169
10,39995	4323
10,40408	4128
10,40820	3136
10,41232	3138
10,41645	3795
10,42057	3846
10,42468	3726
10,42882	3162
10,43293	3679
10,43705	2651
10,44118	3842
10,44530	3578
10,44942	3589
10,45355	4168
10,45767	4014
10,46178	4705
10,46592	4877
10,47003	6179
10,47415	7134
10,47827	7135
10,48240	8392
10,48652	6940
10,49063	6585
10,49477	5853
10,49888	4586
10,50300	3423
10,50713	3775
10,51125	2836
10,51537	3731
10,51950	3485
10,52362	3308
10,52773	3690
10,53187	3272
10,53598	3691
10,54010	3500
10,54423	3295
10,54835	3572
10,55247	2828
10,55660	3874
10,56072	3097
10,56483	3213
10,56895	3147
10,57308	3127
10,57720	3350
10,58132	3660
10,58545	3348
10,58957	2762
10,59368	3177
10,59782	3410
10,60193	3323
10,60605	3329
10,61018	3589
10,61430	2938
10,61842	3863
10,62255	2381
10,62667	3015
10,63078	3776
10,63492	3306
10,63903	2843
10,64315	2889
10,64728	3345
10,65140	3020
10,65552	4202
10,65963	3576
10,66377	3954
10,66788	3122
10,67200	3589
10,67613	3245
10,68025	3491
10,68437	3325
10,68850	3091
10,69262	3394
10,69673	3105
10,70087	3546
10,70498	3424
10,70910	3408
10,71323	3027
10,71735	3481
10,72147	3411
10,72560	3350
10,72972	3582
10,73383	3404
10,73797	2870
10,74208	3177
10,74620	3114
10,75032	3320
10,75445	3392
10,75857	3725
10,76268	3256
10,76682	3105
10,77093	3216
10,77505	3640
10,77918	3895
10,78330	2999
10,78742	2717
10,79155	3920
10,79567	2547
10,79978	3410
10,80392	3178
10,80803	2924
10,81215	3096
10,81628	3144
10,82040	2875
10,82452	2827
10,82865	2261
10,83277	3380
10,83688	3249
10,84100	2647
10,84513	2851
10,84925	3219
10,85337	2744
10,85750	3219
10,86162	2875
10,86573	3033
10,86987	2954
10,87398	3266
10,87810	2905
10,88223	2545
10,88635	2825
10,89047	2349
10,89460	3057
10,89872	2763
10,90283	3039
10,90697	2823
10,91108	3146
10,91520	2617
10,91933	2900
10,92345	2565
10,92757	2892
10,93170	3870
10,93582	5931
10,93993	8728
10,94405	16189
10,94818	29170
10,95230	52345
10,95642	85804
10,96055	137526
10,96467	205524
10,96878	280971
10,97292	365724
10,97703	445865
10,98115	496872
10,98528	531804
10,98940	547116
10,99352	517784
10,99765	473544
11,00177	424051
11,00588	356080
11,01002	291568
11,01413	237879
11,01825	186784
11,02238	143996
11,02650	114025
11,03062	90840
11,03473	70930
11,03887	59231
11,04298	48240
11,04710	40261
11,05123	34879
11,05535	31301
11,05947	26220
11,06360	22573
11,06772	20284
11,07183	18187
11,07597	15612
11,08008	14278
11,08420	13643
11,08833	12314
11,09245	11699
11,09657	10666
11,10070	9471
11,10482	8591
11,10893	8964
11,11307	8168
11,11718	8255
11,12130	7060
11,12542	7279
11,12955	6376
11,13367	6028
11,13778	5805
11,14192	5363
11,14603	6986
11,15015	5832
11,15428	4993
11,15840	4952
11,16252	4621
11,16665	5049
11,17077	4725
11,17488	4912
11,17902	5104
11,18313	4594
11,18725	4159
11,19138	3583
11,19550	4295
11,19962	3554
11,20375	5397
11,20787	3811
11,21198	3637
11,21610	3303
11,22023	3807
11,22435	4141
11,22847	3800
11,23260	3415
11,23672	3770
11,24083	3496
11,24497	3623
11,24908	3523
11,25320	3860
11,25733	3146
11,26145	3347
11,26557	4018
11,26970	2864
11,27382	4039
11,27793	3535
11,28207	3101
11,28618	4033
11,29030	2850
11,29443	3084
11,29855	3629
11,30267	2994
11,30678	2869
11,31092	3520
11,31503	3186
11,31915	3258
11,32328	2529
11,32740	2514
11,33152	3078
11,33565	2882
11,33977	2999
11,34388	2807
11,34802	2575
11,35213	2847
11,35625	2978
11,36038	2767
11,36450	3370
11,36862	2806
11,37275	4090
11,37687	3372
11,38098	4905
11,38512	4651
11,38923	5157
11,39335	4725
11,39747	4490
11,40160	4834
11,40572	3845
11,40983	4535
11,41397	3856
11,41808	4019
11,42220	3571
11,42633	3434
11,43045	4000
11,43457	3005
11,43870	3012
11,44282	3244
11,44693	3313
11,45107	2151
11,45518	2520
11,45930	2733
11,46343	2918
11,46755	2615
11,47167	3261
11,47580	2374
11,47992	2749
11,48403	2854
11,48815	2619
11,49228	3153
11,49640	3585
11,50052	2149
11,50465	2489
11,50877	2876
11,51288	2690
11,51702	2575
11,52113	2348
11,52525	3223
11,52938	2522
11,53350	2574
11,53762	2435
11,54175	2801
11,54587	2645
11,54998	2603
11,55412	2384
11,55823	2275
11,56235	3406
11,56648	3238
11,57060	2989
11,57472	2701
11,57883	2845
11,58297	2720
11,58708	2450
11,59120	2926
11,59533	2682
11,59945	2179
11,60357	3391
11,60770	2755
11,61182	2734
11,61593	2230
11,62007	2203
11,62418	2458
11,62830	3183
11,63243	3255
11,63655	2622
11,64067	2981
11,64480	2156
11,64892	2816
11,65303	2656
11,65717	2269
11,66128	2290
11,66540	2416
11,66952	2741
11,67365	3188
11,67777	2481
11,68188	2248
11,68602	2552
11,69013	2141
11,69425	2899
11,69838	2367
11,70250	2590
11,70662	2529
11,71075	2905
11,71487	1760
11,71898	2104
11,72312	2284
11,72723	2193
11,73135	2062
11,73548	2223
11,73960	2301
11,74372	2815
11,74785	2552
11,75197	2202
11,75608	2170
11,76020	2558
11,76433	2423
11,76845	2308
11,77257	3030
11,77670	1934
11,78082	2707
11,78493	2157
11,78907	3221
11,79318	2118
11,79730	2709
11,80143	2801
11,80555	2801
11,80967	3312
11,81380	2338
11,81792	2326
11,82203	3103
11,82617	3135
11,83028	3315
11,83440	3238
11,83853	3414
11,84265	2509
11,84677	3185
11,85088	3629
11,85502	3602
11,85913	2929
11,86325	3289
11,86738	3428
11,87150	2980
11,87562	3553
11,87975	2845
11,88387	3186
11,88798	3147
11,89212	2720
11,89623	3568
11,90035	2982
11,90448	3242
11,90860	2819
11,91272	3649
11,91685	2196
11,92097	2871
11,92508	2327
11,92922	2475
11,93333	2458
11,93745	2175
11,94157	2361
11,94570	2068
11,94982	2157
11,95393	2361
11,95807	2674
11,96218	2236
11,96630	2478
11,97043	2820
11,97455	2122
11,97867	3014
11,98280	3928
11,98692	6997
11,99103	12922
11,99517	27460
11,99928	54815
12,00340	104308
12,00753	182223
12,01165	297754
12,01577	448472
12,01990	638149
12,02402	843169
12,02813	1033931
12,03225	1203131
12,03638	1305870
12,04050	1325028
12,04462	1269389
12,04875	1138787
12,05287	979634
12,05698	803017
12,06112	640585
12,06523	502725
12,06935	386464
12,07348	293595
12,07760	224633
12,08172	173578
12,08585	137769
12,08997	109670
12,09408	90182
12,09822	74543
12,10233	64687
12,10645	53392
12,11058	45168
12,11470	40482
12,11882	35263
12,12293	29699
12,12707	29512
12,13118	24230
12,13530	24379
12,13943	20098
12,14355	18897
12,14767	18565
12,15180	16093
12,15592	16040
12,16003	15119
12,16417	13455
12,16828	12064
12,17240	11383
12,17653	11119
12,18065	10564
12,18477	9861
12,18890	10093
12,19302	9895
12,19713	8176
12,20127	7538
12,20538	7767
12,20950	7764
12,21362	7794
12,21775	6375
12,22187	6680
12,22598	6013
12,23012	5633
12,23423	5905
12,23835	5221
12,24248	5259
12,24660	4752
12,25072	5030
12,25485	4564
12,25897	5139
12,26308	4867
12,26722	4361
12,27133	3296
12,27545	4082
12,27958	3899
12,28370	3989
12,28782	3902
12,29195	4093
12,29607	3566
12,30018	4416
12,30430	3307
12,30843	3267
12,31255	3968
12,31667	3791
12,32080	3819
12,32492	3828
12,32903	4023
12,33317	3446
12,33728	3438
12,34140	3026
12,34553	3477
12,34965	3127
12,35377	3289
12,35790	2730
12,36202	3198
12,36613	2767
12,37027	3247
12,37438	3567
12,37850	3488
12,38263	2674
12,38675	2842
12,39087	3090
12,39498	3295
12,39912	3009
12,40323	3016
12,40735	2817
12,41148	2907
12,41560	2938
12,41972	2692
12,42385	3182
12,42797	2949
12,43208	2481
12,43622	2918
12,44033	2897
12,44445	2974
12,44858	2593
12,45270	2963
12,45682	2708
12,46095	2728
12,46507	2776
12,46918	2909
12,47332	1890
12,47743	3185
12,48155	2897
12,48568	2724
12,48980	2807
12,49392	2943
12,49803	2329
12,50217	2315
12,50628	2850
12,51040	3057
12,51453	3085
12,51865	3407
12,52277	3400
12,52690	3785
12,53102	3407
12,53513	3718
12,53927	3552
12,54338	4022
12,54750	5557
12,55163	5365
12,55575	5269
12,55987	6717
12,56400	7711
12,56812	9564
12,57223	10384
12,57637	11629
12,58048	11497
12,58460	13585
12,58872	12830
12,59285	12291
12,59697	10655
12,60108	9181
12,60522	7054
12,60933	5552
12,61345	6333
12,61758	3918
12,62170	4806
12,62582	4183
12,62995	2909
12,63407	3628
12,63818	2392
12,64232	2836
12,64643	2853
12,65055	2639
12,65468	2213
12,65880	2486
12,66292	2154
12,66705	2809
12,67117	2704
12,67528	2451
12,67940	2135
12,68353	2105
12,68765	1932
12,69177	2816
12,69590	2180
12,70002	2516
12,70413	2586
12,70827	2053
12,71238	1843
12,71650	2212
12,72063	1813
12,72475	2412
12,72887	2366
12,73300	2356
12,73712	3055
12,74123	2508
12,74537	2867
12,74948	1869
12,75360	2046
12,75773	1888
12,76185	2550
12,76597	2919
12,77008	2258
12,77422	1776
12,77833	2182
12,78245	1690
12,78658	2426
12,79070	2406
12,79482	2067
12,79895	1958
12,80307	2622
12,80718	2129
12,81132	2349
12,81543	1753
12,81955	2044
12,82368	1554
12,82780	1903
12,83192	1954
12,83605	1898
12,84017	1948
12,84428	2131
12,84842	2227
12,85253	2304
12,85665	1865
12,86077	2114
12,86490	2532
12,86902	1753
12,87313	2476
12,87727	2475
12,88138	2000
12,88550	2015
12,88963	2320
12,89375	2091
12,89787	1731
12,90200	1862
12,90612	2364
12,91023	1447
12,91437	2031
12,91848	1745
12,92260	2094
12,92673	2283
12,93085	1592
12,93497	1985
12,93910	2098
12,94322	1513
12,94733	1670
12,95145	1460
12,95558	1690
12,95970	2229
12,96382	1644
12,96795	1944
12,97207	2062
12,97618	2178
12,98032	2333
12,98443	1951
12,98855	2115
12,99268	2460
12,99680	2129
13,00092	3655
13,00505	3650
13,00917	6964
13,01328	12116
13,01742	25311
13,02153	47707
13,02565	86941
13,02978	147019
13,03390	231310
13,03802	344445
13,04213	468079
13,04627	585542
13,05038	676602
13,05450	725343
13,05863	737672
13,06275	696262
13,06687	632548
13,07100	536216
13,07512	433250
13,07923	344296
13,08337	266433
13,08748	202451
13,09160	152621
13,09573	114930
13,09985	89564
13,10397	69510
13,10810	57188
13,11222	46107
13,11633	39439
13,12047	32274
13,12458	27414
13,12870	22734
13,13282	20804
13,13695	19106
13,14107	16314
13,14518	15245
13,14932	12958
13,15343	11714
13,15755	10761
13,16168	10021
13,16580	9792
13,16992	8397
13,17405	8462
13,17817	7550
13,18228	6918
13,18642	7900
13,19053	6937
13,19465	5321
13,19878	5502
13,20290	5383
13,20702	4915
13,21115	5648
13,21527	5036
13,21938	4776
13,22350	4792
13,22763	4009
13,23175	4296
13,23587	4210
13,24000	3908
13,24412	3718
13,24823	3230
13,25237	3883
13,25648	2980
13,26060	3500
13,26473	3347
13,26885	2674
13,27297	2791
13,27710	2393
13,28122	2725
13,28533	3030
13,28947	1971
13,29358	2432
13,29770	2841
13,30183	3007
13,30595	3092
13,31007	2417
13,31418	2756
13,31832	2661
13,32243	2466
13,32655	1837
13,33068	2376
13,33480	2666
13,33892	2328
13,34305	3065
13,34717	2365
13,35128	2212
13,35542	2399
13,35953	1993
13,36365	2701
13,36778	2388
13,37190	2487
13,37602	2026
13,38015	1792
13,38427	2285
13,38838	1789
13,39252	1975
13,39663	2485
13,40075	1478
13,40487	1943
13,40900	1579
13,41312	1914
13,41723	2013
13,42137	1509
13,42548	1780
13,42960	2232
13,43373	1440
13,43785	1991
13,44197	1776
13,44610	2006
13,45022	1523
13,45433	2490
13,45847	1779
13,46258	1900
13,46670	2269
13,47083	1872
13,47495	1986
13,47907	2721
13,48320	2012
13,48732	1873
13,49143	2063
13,49555	1403
13,49968	1632
13,50380	1652
13,50792	1862
13,51205	1711
13,51617	2206
13,52028	2160
13,52442	2009
13,52853	2374
13,53265	3069
13,53678	2456
13,54090	3978
13,54502	4234
13,54915	4675
13,55327	4689
13,55738	4616
13,56152	4347
13,56563	3658
13,56975	3700
13,57388	3177
13,57800	2938
13,58212	2510
13,58623	2222
13,59037	2290
13,59448	2434
13,59860	2022
13,60273	1802
13,60685	2772
13,61097	1836
13,61510	2619
13,61922	2378
13,62333	3091
13,62747	4166
13,63158	4799
13,63570	4612
13,63983	5266
13,64395	4803
13,64807	5139
13,65220	4086
13,65632	4824
13,66043	4051
13,66457	2690
13,66868	2187
13,67280	2358
13,67692	2030
13,68105	2429
13,68517	2066
13,68928	2062
13,69342	1972
13,69753	1690
13,70165	2044
13,70578	2456
13,70990	1211
13,71402	2316
13,71815	1731
13,72227	2065
13,72638	943
13,73052	1719
13,73463	1784
13,73875	1314
13,74288	1331
13,74700	1990
13,75112	1857
13,75525	1207
13,75937	1398
13,76348	1571
13,76760	2029
13,77173	2042
13,77585	1383
13,77997	1937
13,78410	1589
13,78822	1463
13,79233	1728
13,79647	2177
13,80058	2005
13,80470	2115
13,80883	1642
13,81295	1269
13,81707	1745
13,82120	1819
13,82532	1648
13,82943	2178
13,83357	1532
13,83768	1243
13,84180	1819
13,84593	2303
13,85005	1312
13,85417	1205
13,85828	1265
13,86242	1538
13,86653	1480
13,87065	1628
13,87478	1375
13,87890	2151
13,88302	1523
13,88715	1316
13,89127	1821
13,89538	1081
13,89952	1306
13,90363	1369
13,90775	1327
13,91188	2042
13,91600	1454
13,92012	2085
13,92425	1545
13,92837	1426
13,93248	1189
13,93662	1852
13,94073	1424
13,94485	1356
13,94897	1612
13,95310	1499
13,95722	1410
13,96133	1985
13,96547	2433
13,96958	1901
13,97370	3021
13,97783	4241
13,98195	4137
13,98607	7687
13,99020	12782
13,99432	22259
13,99843	40849
14,00257	76239
14,00668	142147
14,01080	241430
14,01493	397002
14,01905	590117
14,02317	842546
14,02730	1099747
14,03142	1344900
14,03553	1544313
14,03965	1643690
14,04378	1617448
14,04790	1523948
14,05202	1329729
14,05615	1093200
14,06027	860575
14,06438	654481
14,06852	495167
14,07263	364673
14,07675	273318
14,08088	207391
14,08500	160994
14,08912	124559
14,09325	100854
14,09737	84549
14,10148	70622
14,10562	57935
14,10973	51402
14,11385	44313
14,11798	38464
14,12210	35150
14,12622	29356
14,13035	27544
14,13447	24711
14,13858	23742
14,14270	22499
14,14683	21962
14,15095	20329
14,15507	19597
14,15920	18617
14,16332	19011
14,16743	17824
14,17157	17651
14,17568	15782
14,17980	14140
14,18393	13915
14,18805	12316
14,19217	11537
14,19630	9264
14,20042	8500
14,20453	6886
14,20867	7911
14,21278	6671
14,21690	6680
14,22103	6270
14,22515	6001
14,22927	6472
14,23338	5065
14,23752	5294
14,24163	5288
14,24575	4651
14,24988	4211
14,25400	3985
14,25812	4080
14,26225	3785
14,26637	4049
14,27048	3538
14,27462	3727
14,27873	3160
14,28285	3901
14,28698	3121
14,29110	3092
14,29522	2748
14,29935	2863
14,30347	3271
14,30758	2800
14,31172	2463
14,31583	2537
14,31995	2771
14,32407	2865
14,32820	3439
14,33232	3079
14,33643	2239
14,34057	3098
14,34468	2903
14,34880	2868
14,35293	2439
14,35705	2531
14,36117	3302
14,36530	2233
14,36942	2779
14,37353	2670
14,37767	2145
14,38178	2655
14,38590	2553
14,39003	1963
14,39415	2212
14,39827	1381
14,40240	2733
14,40652	1952
14,41063	1728
14,41475	2806
14,41888	1642
14,42300	2020
14,42712	2334
14,43125	1722
14,43537	1539
14,43948	1357
14,44362	2157
14,44773	941
14,45185	1210
14,45598	1356
14,46010	1846
14,46422	1611
14,46835	2100
14,47247	1730
14,47658	2154
14,48072	1799
14,48483	2217
14,48895	2669
14,49308	3184
14,49720	5009
14,50132	5358
14,50543	7126
14,50957	7134
14,51368	6931
14,51780	6336
14,52193	4544
14,52605	3312
14,53017	2916
14,53430	1857
14,53842	2226
14,54253	1774
14,54667	1785
14,55078	1771
14,55490	2120
14,55903	1408
14,56315	1961
14,56727	1634
14,57140	1734
14,57552	1928
14,57963	1530
14,58377	1784
14,58788	1283
14,59200	1414
14,59612	1580
14,60025	2000
14,60437	1587
14,60848	1777
14,61262	1763
14,61673	1790
14,62085	1063
14,62498	1759
14,62910	1418
14,63322	1219
14,63735	1061
14,64147	1473
14,64558	1726
14,64972	1446
14,65383	2136
14,65795	4112
14,66208	8394
14,66620	20177
14,67032	37608
14,67445	75225
14,67857	132514
14,68268	215675
14,68680	320046
14,69093	448605
14,69505	568762
14,69917	675849
14,70330	742005
14,70742	763779
14,71153	733899
14,71567	666689
14,71978	578259
14,72390	474926
14,72803	372851
14,73215	288530
14,73627	220204
14,74040	168977
14,74452	127494
14,74863	97364
14,75277	77973
14,75688	60135
14,76100	51068
14,76513	41478
14,76925	35795
14,77337	32595
14,77748	25235
14,78162	22651
14,78573	19905
14,78985	16947
14,79398	14607
14,79810	14113
14,80222	12497
14,80635	12783
14,81047	9801
14,81458	9488
14,81872	9006
14,82283	6729
14,82695	7168
14,83108	6340
14,83520	5120
14,83932	5966
14,84345	5729
14,84757	4225
14,85168	5060
14,85582	4909
14,85993	5003
14,86405	3946
14,86817	3760
14,87230	2890
14,87642	3689
14,88053	2721
14,88467	3203
14,88878	3434
14,89290	2337
14,89703	2933
14,90115	3027
14,90527	2825
14,90940	2523
14,91352	1995
14,91763	2090
14,92177	2315
14,92588	3633
14,93000	4074
14,93413	7758
14,93825	17804
14,94237	36006
14,94650	71419
14,95062	124662
14,95473	212330
14,95885	324196
14,96298	460499
14,96710	608083
14,97122	735924
14,97535	826946
14,97947	861148
14,98358	833815
14,98772	762269
14,99183	652645
14,99595	532716
15,00008	416409
15,00420	317968
15,00832	238875
15,01245	178736
15,01657	133965
15,02068	100980
15,02482	80625
15,02893	60640
15,03305	51767
15,03718	41870
15,04130	34511
15,04542	28923
15,04953	25793
15,05367	21878
15,05778	18905
15,06190	15983
15,06603	15585
15,07015	15224
15,07427	12909
15,07840	12302
15,08252	9833
15,08663	9571
15,09077	9372
15,09488	8399
15,09900	7717
15,10313	7332
15,10725	6897
15,11137	6166
15,11550	6384
15,11962	5088
15,12373	5461
15,12787	5811
15,13198	5235
15,13610	4052
15,14022	4493
15,14435	4550
15,14847	3789
15,15258	4212
15,15672	4121
15,16083	3934
15,16495	3152
15,16908	3146
15,17320	2887
15,17732	2847
15,18145	2650
15,18557	3107
15,18968	2849
15,19382	2859
15,19793	2500
15,20205	1932
15,20618	2559
15,21030	2229
15,21442	2221
15,21855	2909
15,22267	2072
15,22678	2022
15,23090	2164
15,23503	2366
15,23915	2423
15,24327	2305
15,24740	2216
15,25152	1382
15,25563	2340
15,25977	1838
15,26388	2494
15,26800	2287
15,27213	1978
15,27625	2315
15,28037	2228
15,28450	1937
15,28862	2064
15,29273	1699
15,29687	2338
15,30098	2303
15,30510	1407
15,30923	2318
15,31335	2280
15,31747	1681
15,32158	1957
15,32572	1678
15,32983	2171
15,33395	2043
15,33808	2554
15,34220	2383
15,34632	2095
15,35045	2946
15,35457	2949
15,35868	2772
15,36282	2301
15,36693	2422
15,37105	2521
15,37518	1911
15,37930	2098
15,38342	2247
15,38755	2441
15,39167	1690
15,39578	2181
15,39992	2021
15,40403	2087
15,40815	2530
15,41227	2601
15,41640	2754
15,42052	2301
15,42463	1395
15,42877	2291
15,43288	1665
15,43700	2331
15,44113	2166
15,44525	2043
15,44937	2011
15,45350	1327
15,45762	1617
15,46173	1821
15,46587	1253
15,46998	1492
15,47410	1532
15,47823	1682
15,48235	1633
15,48647	1526
15,49060	1220
15,49472	1407
15,49883	1516
15,50295	1842
15,50708	1651
15,51120	1885
15,51532	2212
15,51945	2018
15,52357	1992
15,52768	1624
15,53182	2023
15,53593	1831
15,54005	1773
15,54418	1236
15,54830	1710
15,55242	1995
15,55655	1256
15,56067	1341
15,56478	1789
15,56892	1715
15,57303	1616
15,57715	3004
15,58128	3081
15,58540	6886
15,58952	15420
15,59363	31079
15,59777	60965
15,60188	113966
15,60600	187817
15,61013	290258
15,61425	419976
15,61837	563377
15,62250	687180
15,62662	782216
15,63073	829771
15,63487	818448
15,63898	744458
15,64310	657028
15,64723	546189
15,65135	425096
15,65547	326982
15,65960	249769
15,66372	187839
15,66783	139963
15,67197	108637
15,67608	83548
15,68020	64298
15,68433	55160
15,68845	45103
15,69257	36441
15,69668	34067
15,70082	26002
15,70493	23761
15,70905	20862
15,71318	18310
15,71730	16375
15,72142	14966
15,72555	12943
15,72967	11491
15,73378	11490
15,73792	9381
15,74203	8322
15,74615	8214
15,75028	7097
15,75440	5663
15,75852	6563
15,76265	6173
15,76677	5489
15,77088	5474
15,77502	4802
15,77913	4304
15,78325	4005
15,78737	4265
15,79150	4221
15,79562	4034
15,79973	3975
15,80387	3332
15,80798	3197
15,81210	3328
15,81623	3242
15,82035	3069
15,82447	3473
15,82860	4810
15,83272	8549
15,83683	17558
15,84097	37461
15,84508	78644
15,84920	153150
15,85333	268918
15,85745	445030
15,86157	680708
15,86570	988612
15,86982	1345005
15,87393	1743721
15,87805	2138978
15,88218	2475449
15,88630	2676729
15,89042	2695798
15,89455	2550470
15,89867	2232345
15,90278	1823163
15,90692	1404189
15,91103	1045902
15,91515	770235
15,91928	554675
15,92340	407115
15,92752	303442
15,93165	240940
15,93577	190229
15,93988	152122
15,94402	124872
15,94813	101689
15,95225	88890
15,95638	76555
15,96050	68001
15,96462	57186
15,96873	52110
15,97287	47259
15,97698	42109
15,98110	38686
15,98523	35254
15,98935	31234
15,99347	29007
15,99760	25481
16,00172	24400
16,00583	23755
16,00997	21358
16,01408	19594
16,01820	19645
16,02233	17774
16,02645	15838
16,03057	15017
16,03470	14153
16,03882	12299
16,04293	12147
16,04707	11086
16,05118	10408
16,05530	10570
16,05942	10842
16,06355	9442
16,06767	9254
16,07178	8581
16,07592	7962
16,08003	7493
16,08415	6969
16,08828	6871
16,09240	7658
16,09652	6375
16,10065	6556
16,10477	5908
16,10888	5985
16,11302	5449
16,11713	5100
16,12125	4926
16,12538	5494
16,12950	4262
16,13362	4392
16,13775	4744
16,14187	4967
16,14598	4621
16,15010	4359
16,15423	3280
16,15835	4353
16,16247	3483
16,16660	3264
16,17072	3462
16,17483	3254
16,17897	3590
16,18308	4148
16,18720	3441
16,19133	4387
16,19545	3246
16,19957	3509
16,20370	2536
16,20782	3526
16,21193	4324
16,21607	3950
16,22018	4264
16,22430	3340
16,22843	3952
16,23255	3692
16,23667	3551
16,24078	2906
16,24492	2868
16,24903	2234
16,25315	2404
16,25728	3355
16,26140	3324
16,26552	2683
16,26965	2876
16,27377	2275
16,27788	2449
16,28202	2009
16,28613	2999
16,29025	3138
16,29438	3986
16,29850	5972
16,30262	6736
16,30675	9084
16,31087	9224
16,31498	8747
16,31912	7413
16,32323	5875
16,32735	4999
16,33147	4858
16,33560	3035
16,33972	3684
16,34383	3139
16,34797	3551
16,35208	6254
16,35620	9708
16,36033	21751
16,36445	40863
16,36857	75100
16,37270	131861
16,37682	215668
16,38093	328326
16,38507	460391
16,38918	599696
16,39330	729193
16,39743	829089
16,40155	845311
16,40567	827518
16,40980	751158
16,41392	642497
16,41803	511931
16,42215	408098
16,42628	310784
16,43040	233663
16,43452	180191
16,43865	135729
16,44277	109158
16,44688	87296
16,45102	71954
16,45513	61570
16,45925	53531
16,46338	45311
16,46750	38513
16,47162	34841
16,47575	29427
16,47987	25847
16,48398	24153
16,48812	20634
16,49223	19132
16,49635	18764
16,50048	17247
16,50460	17092
16,50872	17581
16,51283	16649
16,51697	16587
16,52108	14916
16,52520	15261
16,52933	13275
16,53345	12549
16,53757	11031
16,54170	9006
16,54582	8921
16,54993	7739
16,55407	7157
16,55818	6550
16,56230	6784
16,56643	7211
16,57055	4631
16,57467	4713
16,57880	4073
16,58292	4420
16,58703	4072
16,59117	3961
16,59528	3584
16,59940	4319
16,60352	3473
16,60765	4325
16,61177	3804
16,61588	3424
16,62002	3943
16,62413	3411
16,62825	3317
16,63238	3589
16,63650	2834
16,64062	3059
16,64475	3223
16,64887	3169
16,65298	3247
16,65712	2742
16,66123	2884
16,66535	2953
16,66948	2206
16,67360	3379
16,67772	2291
16,68185	2784
16,68597	2696
16,69008	3783
16,69420	6335
16,69833	10928
16,70245	24522
16,70657	48440
16,71070	91446
16,71482	161984
16,71893	264432
16,72307	399599
16,72718	542359
16,73130	702742
16,73543	837993
16,73955	925009
16,74367	942012
16,74780	901777
16,75192	808328
16,75603	671840
16,76017	540611
16,76428	410380
16,76840	314083
16,77253	232668
16,77665	167648
16,78077	128056
16,78488	100229
16,78902	75971
16,79313	62120
16,79725	50486
16,80138	43347
16,80550	36474
16,80962	31513
16,81375	27821
16,81787	24372
16,82198	21686
16,82612	18394
16,83023	17834
16,83435	15459
16,83848	13116
16,84260	12146
16,84672	10917
16,85085	11512
16,85497	10740
16,85908	8360
16,86322	9642
16,86733	9018
16,87145	8453
16,87557	6469
16,87970	7626
16,88382	5416
16,88793	6482
16,89207	5696
16,89618	7334
16,90030	6820
16,90443	6623
16,90855	6191
16,91267	7388
16,91680	6538
16,92092	6511
16,92503	5962
16,92917	5392
16,93328	4714
16,93740	4248
16,94153	4207
16,94565	4120
16,94977	3817
16,95390	3934
16,95802	3628
16,96213	3182
16,96625	4743
16,97038	3987
16,97450	3629
16,97862	4660
16,98275	4437
16,98687	5073
16,99098	4090
16,99512	4282
16,99923	4494
17,00335	3827
17,00748	3276
17,01160	4420
17,01572	3612
17,01985	3020
17,02397	3618
17,02808	3198
17,03222	3557
17,03633	2705
17,04045	2665
17,04458	2588
17,04870	2455
17,05282	3073
17,05693	2336
17,06107	2330
17,06518	2974
17,06930	3298
17,07343	2103
17,07755	2705
17,08167	2746
17,08580	2542
17,08992	2136
17,09403	2001
17,09817	2457
17,10228	1595
17,10640	2023
17,11053	1805
17,11465	1379
17,11877	2149
17,12290	2116
17,12702	1653
17,13113	1599
17,13527	2608
17,13938	1880
17,14350	1896
17,14762	2697
17,15175	2416
17,15587	2068
17,15998	2649
17,16412	2553
17,16823	3110
17,17235	3096
17,17648	2211
17,18060	2288
17,18472	2865
17,18885	2912
17,19297	3267
17,19708	4360
17,20122	8125
17,20533	15108
17,20945	31558
17,21358	60735
17,21770	112986
17,22182	188855
17,22595	299988
17,23007	437105
17,23418	586067
17,23832	734629
17,24243	849387
17,24655	902366
17,25067	896894
17,25480	850809
17,25892	736488
17,26303	613169
17,26717	490107
17,27128	378142
17,27540	288281
17,27953	210605
17,28365	155505
17,28777	125373
17,29190	94444
17,29602	73601
17,30013	61419
17,30427	51568
17,30838	40715
17,31250	35864
17,31663	30936
17,32075	27300
17,32487	24341
17,32900	22752
17,33312	20151
17,33723	18231
17,34135	16424
17,34548	16276
17,34960	14374
17,35372	14491
17,35785	12143
17,36197	11006
17,36608	10838
17,37022	9004
17,37433	9264
17,37845	9523
17,38258	7868
17,38670	8165
17,39082	7656
17,39495	7526
17,39907	5447
17,40318	6965
17,40732	6623
17,41143	6187
17,41555	4636
17,41968	4740
17,42380	4997
17,42792	4435
17,43203	5130
17,43617	6658
17,44028	7957
17,44440	8879
17,44853	11675
17,45265	14598
17,45677	17106
17,46090	19558
17,46502	20662
17,46913	23792
17,47327	21849
17,47738	19321
17,48150	19177
17,48563	16227
17,48975	15406
17,49387	12750
17,49800	11068
17,50212	9508
17,50623	7801
17,51037	7759
17,51448	7420
17,51860	6860
17,52272	9151
17,52685	14564
17,53097	26401
17,53508	50787
17,53922	91184
17,54333	166885
17,54745	277170
17,55158	448316
17,55570	670950
17,55982	947832
17,56395	1226112
17,56807	1541395
17,57218	1798988
17,57632	1960473
17,58043	2028539
17,58455	1924276
17,58868	1729055
17,59280	1447170
17,59692	1131799
17,60105	867136
17,60517	641223
17,60928	471274
17,61340	346713
17,61753	262547
17,62165	205073
17,62577	158359
17,62990	125105
17,63402	105941
17,63813	90397
17,64227	75971
17,64638	64144
17,65050	58506
17,65463	52565
17,65875	45542
17,66287	42091
17,66700	37670
17,67112	34860
17,67523	30266
17,67937	27272
17,68348	25151
17,68760	23777
17,69173	22738
17,69585	19778
17,69997	19376
17,70408	18372
17,70822	16946
17,71233	17152
17,71645	14618
17,72058	14443
17,72470	14043
17,72882	12997
17,73295	12241
17,73707	11389
17,74118	10923
17,74532	11225
17,74943	9563
17,75355	8724
17,75768	9341
17,76180	8892
17,76592	7964
17,77005	7590
17,77417	8186
17,77828	8151
17,78242	7162
17,78653	7395
17,79065	5904
17,79477	6461
17,79890	7386
17,80302	9817
17,80713	15136
17,81127	26215
17,81538	46735
17,81950	86939
17,82363	149855
17,82775	235474
17,83187	354466
17,83600	503659
17,84012	649432
17,84423	794695
17,84837	896723
17,85248	955123
17,85660	949377
17,86073	873199
17,86485	758238
17,86897	640235
17,87310	500686
17,87722	385346
17,88133	291364
17,88545	227144
17,88958	169857
17,89370	128955
17,89782	100950
17,90195	83135
17,90607	67181
17,91018	54140
17,91432	47464
17,91843	39920
17,92255	35393
17,92668	31911
17,93080	26894
17,93492	24661
17,93905	23219
17,94317	23617
17,94728	25403
17,95142	33045
17,95553	53934
17,95965	88624
17,96378	149777
17,96790	253070
17,97202	401456
17,97613	606365
17,98027	866543
17,98438	1165643
17,98850	1458275
17,99263	1700372
17,99675	1880103
18,00087	1928176
18,00500	1832379
18,00912	1616691
18,01323	1335130
18,01737	1064790
18,02148	814513
18,02560	606849
18,02973	446417
18,03385	337392
18,03797	261929
18,04210	199999
18,04622	159903
18,05033	131327
18,05447	110284
18,05858	92237
18,06270	80086
18,06682	71506
18,07095	61564
18,07507	53585
18,07918	49322
18,08332	44148
18,08743	38773
18,09155	36217
18,09568	34132
18,09980	30567
18,10392	29651
18,10805	27466
18,11217	25297
18,11628	23781
18,12042	23364
18,12453	22275
18,12865	21236
18,13278	18938
18,13690	18627
18,14102	17752
18,14515	16343
18,14927	13969
18,15338	15096
18,15750	14352
18,16163	12540
18,16575	12723
18,16987	12511
18,17400	11554
18,17812	10255
18,18223	10855
18,18637	10064
18,19048	10327
18,19460	9553
18,19873	8765
18,20285	8854
18,20697	8254
18,21110	8877
18,21522	8233
18,21933	7907
18,22347	7221
18,22758	6804
18,23170	7087
18,23583	7087
18,23995	6782
18,24407	6904
18,24818	7710
18,25232	6276
18,25643	6183
18,26055	7680
18,26468	7416
18,26880	10882
18,27292	20383
18,27705	35375
18,28117	66401
18,28528	121991
18,28942	198901
18,29353	318302
18,29765	455142
18,30178	610234
18,30590	756027
18,31002	863453
18,31415	901857
18,31827	879124
18,32238	814936
18,32652	708582
18,33063	575458
18,33475	457693
18,33887	350098
18,34300	263355
18,34712	199321
18,35123	154904
18,35537	120349
18,35948	97070
18,36360	76881
18,36773	67687
18,37185	54852
18,37597	47357
18,38010	41534
18,38422	38923
18,38833	31814
18,39247	28528
18,39658	26835
18,40070	24715
18,40483	24440
18,40895	21109
18,41307	19811
18,41720	18581
18,42132	16014
18,42543	16917
18,42955	15001
18,43368	13054
18,43780	13198
18,44192	12085
18,44605	10851
18,45017	10286
18,45428	10409
18,45842	10335
18,46253	10952
18,46665	10023
18,47078	10571
18,47490	10004
18,47902	9280
18,48315	10182
18,48727	9363
18,49138	10158
18,49552	8888
18,49963	8668
18,50375	8051
18,50788	7830
18,51200	6728
18,51612	8282
18,52023	7515
18,52437	7520
18,52848	7413
18,53260	7840
18,53673	7382
18,54085	7350
18,54497	7962
18,54910	7030
18,55322	7413
18,55733	7134
18,56147	6674
18,56558	6890
18,56970	6263
18,57383	5524
18,57795	5020
18,58207	6175
18,58620	6915
18,59032	6918
18,59443	7868
18,59857	12483
18,60268	22326
18,60680	39034
18,61092	71956
18,61505	127843
18,61917	209633
18,62328	322383
18,62742	459369
18,63153	613353
18,63565	735202
18,63978	817413
18,64390	848904
18,64802	833303
18,65215	752289
18,65627	655109
18,66038	533600
18,66452	415022
18,66863	321264
18,67275	240568
18,67688	182106
18,68100	138667
18,68512	109611
18,68925	84603
18,69337	70544
18,69748	57736
18,70160	49896
18,70573	41728
18,70985	37027
18,71397	33115
18,71810	28714
18,72222	25594
18,72633	25485
18,73047	23130
18,73458	21635
18,73870	21337
18,74283	19714
18,74695	18229
18,75107	17627
18,75520	18353
18,75932	14602
18,76343	14934
18,76757	13327
18,77168	13981
18,77580	11829
18,77993	11260
18,78405	11507
18,78817	10533
18,79228	10540
18,79642	10520
18,80053	8791
18,80465	9721
18,80878	8572
18,81290	8913
18,81702	8487
18,82115	9264
18,82527	7843
18,82938	8239
18,83352	6495
18,83763	7737
18,84175	7460
18,84588	7901
18,85000	6904
18,85412	6749
18,85825	6284
18,86237	5672
18,86648	5786
18,87062	6477
18,87473	6168
18,87885	6449
18,88298	6090
18,88710	5677
18,89122	5799
18,89533	6782
18,89947	5392
18,90358	6048
18,90770	6413
18,91183	5825
18,91595	6119
18,92007	5817
18,92420	4794
18,92832	4836
18,93243	4956
18,93657	4567
18,94068	5241
18,94480	4733
18,94893	5263
18,95305	5274
18,95717	5428
18,96130	4600
18,96542	4306
18,96953	5705
18,97367	4193
18,97778	4226
18,98190	4256
18,98602	4778
18,99015	5702
18,99427	4449
18,99838	4432
19,00252	3866
19,00663	4388
19,01075	4293
19,01488	4532
19,01900	4882
19,02312	5016
19,02725	3985
19,03137	4038
19,03548	3163
19,03962	3922
19,04373	4517
19,04785	6121
19,05198	7360
19,05610	11947
19,06022	22393
19,06435	45500
19,06847	83563
19,07258	144144
19,07670	234266
19,08083	353755
19,08495	502650
19,08907	676855
19,09320	868243
19,09732	1041801
19,10143	1210456
19,10557	1380253
19,10968	1566388
19,11380	1779317
19,11793	1983654
19,12205	2193996
19,12617	2365773
19,13030	2435119
19,13442	2380711
19,13853	2172098
19,14267	1818407
19,14678	1461824
19,15090	1117983
19,15503	821667
19,15915	610328
19,16327	459240
19,16738	350446
19,17152	273398
19,17563	221757
19,17975	182222
19,18388	154156
19,18800	128830
19,19212	113369
19,19625	100098
19,20037	88404
19,20448	79690
19,20862	71064
19,21273	65694
19,21685	60793
19,22098	53035
19,22510	49602
19,22922	47460
19,23335	40931
19,23747	41444
19,24158	36705
19,24572	35390
19,24983	34933
19,25395	33708
19,25807	31763
19,26220	33562
19,26632	34297
19,27043	37722
19,27457	40689
19,27868	39227
19,28280	39176
19,28693	38256
19,29105	36194
19,29517	33631
19,29930	33162
19,30342	28615
19,30753	26185
19,31167	23437
19,31578	24254
19,31990	20105
19,32403	17957
19,32815	17242
19,33227	16774
19,33640	18598
19,34052	22140
19,34463	28578
19,34875	45976
19,35288	74088
19,35700	125580
19,36112	203887
19,36525	296502
19,36937	412973
19,37348	531986
19,37762	647817
19,38173	713617
19,38585	746691
19,38998	724711
19,39410	653505
19,39822	569729
19,40235	468405
19,40647	367240
19,41058	286618
19,41472	216373
19,41883	166551
19,42295	131137
19,42708	102511
19,43120	81066
19,43532	64949
19,43943	58087
19,44357	48849
19,44768	44131
19,45180	38292
19,45593	35037
19,46005	32832
19,46417	29954
19,46830	30062
19,47242	31511
19,47653	39441
19,48067	55404
19,48478	85804
19,48890	139491
19,49303	221512
19,49715	336513
19,50127	481089
19,50540	640023
19,50952	812571
19,51363	934237
19,51777	1019848
19,52188	1040273
19,52600	981461
19,53012	865777
19,53425	726653
19,53837	583022
19,54248	453675
19,54662	343360
19,55073	263399
19,55485	206250
19,55898	159635
19,56310	126667
19,56722	105822
19,57135	88919
19,57547	75549
19,57958	66941
19,58372	58647
19,58783	52023
19,59195	50703
19,59608	48984
19,60020	44387
19,60432	42070
19,60845	38341
19,61257	34158
19,61668	32482
19,62080	27641
19,62493	26955
19,62905	24677
19,63317	21904
19,63730	22089
19,64142	21039
19,64553	19672
19,64967	19432
19,65378	19208
19,65790	18035
19,66203	17387
19,66615	17578
19,67027	16642
19,67440	16821
19,67852	15543
19,68263	16938
19,68677	15431
19,69088	14188
19,69500	14290
19,69913	12034
19,70325	11610
19,70737	10716
19,71148	11077
19,71562	11230
19,71973	12513
19,72385	9593
19,72798	9734
19,73210	10783
19,73622	10656
19,74035	8694
19,74447	9987
19,74858	9979
19,75272	9480
19,75683	9272
19,76095	8773
19,76508	10037
19,76920	10423
19,77332	10518
19,77745	8519
19,78157	9291
19,78568	9246
19,78982	9781
19,79393	9661
19,79805	9924
19,80217	13015
19,80630	18403
19,81042	36609
19,81453	62135
19,81867	112339
19,82278	192825
19,82690	302345
19,83103	454134
19,83515	623310
19,83927	817331
19,84340	998157
19,84752	1138294
19,85163	1180123
19,85577	1146251
19,85988	1031526
19,86400	868326
19,86813	690592
19,87225	532424
19,87637	400865
19,88050	302235
19,88462	235036
19,88873	180066
19,89285	144013
19,89698	117636
19,90110	99212
19,90522	85287
19,90935	72470
19,91347	65926
19,91758	56701
19,92172	53928
19,92583	47063
19,92995	43636
19,93408	40138
19,93820	34999
19,94232	35195
19,94645	31466
19,95057	31793
19,95468	31361
19,95882	28033
19,96293	28227
19,96705	27834
19,97118	25684
19,97530	25438
19,97942	23991
19,98353	22593
19,98767	21639
19,99178	21426
19,99590	19662
20,00003	18058
20,00415	19438
20,00827	16865
20,01240	15684
20,01652	15963
20,02063	15183
20,02477	14359
20,02888	14480
20,03300	14023
20,03713	12751
20,04125	13658
20,04537	13211
20,04950	13270
20,05362	13624
20,05773	12013
20,06187	12992
20,06598	12778
20,07010	12343
20,07422	11555
20,07835	11726
20,08247	12437
20,08658	16238
20,09072	24563
20,09483	40365
20,09895	67193
20,10308	114391
20,10720	197010
20,11132	298374
20,11545	426714
20,11957	579877
20,12368	725068
20,12782	836761
20,13193	904465
20,13605	906603
20,14018	865487
20,14430	759753
20,14842	636386
20,15255	502599
20,15667	384102
20,16078	297159
20,16490	231130
20,16903	179695
20,17315	143282
20,17727	111771
20,18140	90519
20,18552	78837
20,18963	63937
20,19377	57599
20,19788	52852
20,20200	45754
20,20613	42227
20,21025	38625
20,21437	35435
20,21850	31670
20,22262	29235
20,22673	26059
20,23087	25482
20,23498	24864
20,23910	23584
20,24323	21921
20,24735	21384
20,25147	19909
20,25558	21707
20,25972	17347
20,26383	17358
20,26795	17964
20,27208	17116
20,27620	16405
20,28032	16090
20,28445	14473
20,28857	14582
20,29268	14023
20,29682	14780
20,30093	13446
20,30505	12691
20,30918	13745
20,31330	13363
20,31742	13569
20,32155	14521
20,32567	11664
20,32978	10725
20,33392	13596
20,33803	11719
20,34215	11782
20,34627	10927
20,35040	10467
20,35452	12187
20,35863	10824
20,36277	11274
20,36688	9887
20,37100	10734
20,37513	11508
20,37925	9296
20,38337	10193
20,38750	10904
20,39162	10592
20,39573	10265
20,39987	10547
20,40398	10022
20,40810	9509
20,41223	10049
20,41635	11006
20,42047	11008
20,42460	10271
20,42872	11016
20,43283	11173
20,43697	12404
20,44108	11743
20,44520	10477
20,44932	11597
20,45345	12196
20,45757	11409
20,46168	10635
20,46582	11704
20,46993	11248
20,47405	9443
20,47818	10080
20,48230	10317
20,48642	9557
20,49055	9995
20,49467	8902
20,49878	9276
20,50292	10654
20,50703	14633
20,51115	20622
20,51528	35140
20,51940	63414
20,52352	116219
20,52765	204285
20,53177	344309
20,53588	534251
20,54000	810899
20,54413	1159546
20,54825	1547001
20,55237	1995600
20,55650	2425666
20,56062	2807232
20,56473	3072677
20,56887	3144665
20,57298	3063624
20,57710	2754291
20,58123	2311165
20,58535	1830050
20,58947	1390663
20,59360	1035799
20,59772	769653
20,60183	586657
20,60597	458981
20,61008	364414
20,61420	299983
20,61833	251703
20,62245	207468
20,62657	186989
20,63068	163542
20,63482	141601
20,63893	130958
20,64305	117684
20,64718	104449
20,65130	98245
20,65542	89945
20,65955	86273
20,66367	79873
20,66778	76252
20,67192	73325
20,67603	65954
20,68015	64508
20,68428	62709
20,68840	57151
20,69252	53648
20,69665	53929
20,70077	49158
20,70488	46892
20,70902	43482
20,71313	43504
20,71725	40614
20,72137	38171
20,72550	38873
20,72962	37807
20,73373	37294
20,73787	35320
20,74198	35810
20,74610	34775
20,75023	31678
20,75435	32405
20,75847	30675
20,76260	30289
20,76672	27354
20,77083	28927
20,77497	29888
20,77908	32931
20,78320	37087
20,78733	49821
20,79145	72989
20,79557	113416
20,79970	173703
20,80382	272030
20,80793	393077
20,81205	523358
20,81618	653439
20,82030	761339
20,82442	830019
20,82855	832679
20,83267	794580
20,83678	712764
20,84092	598313
20,84503	508353
20,84915	438458
20,85328	387244
20,85740	377721
20,86152	412129
20,86565	477629
20,86977	570049
20,87388	666918
20,87802	748519
20,88213	796338
20,88625	803232
20,89038	769742
20,89450	719061
20,89862	659833
20,90273	615488
20,90687	614829
20,91098	641569
20,91510	721667
20,91923	844128
20,92335	971628
20,92747	1092505
20,93160	1167926
20,93572	1175298
20,93983	1114013
20,94397	987686
20,94808	843408
20,95220	693997
20,95633	546222
20,96045	429028
20,96457	337670
20,96870	266416
20,97282	218645
20,97693	178501
20,98107	153977
20,98518	134755
20,98930	115674
20,99342	105704
20,99755	95820
21,00167	88861
21,00578	79140
21,00992	73348
21,01403	68386
21,01815	63025
21,02228	58594
21,02640	52906
21,03052	52535
21,03465	48978
21,03877	46615
21,04288	45032
21,04702	41338
21,05113	40390
21,05525	39024
21,05938	34914
21,06350	35963
21,06762	34058
21,07175	33268
21,07587	31162
21,07998	30253
21,08410	30316
21,08823	29735
21,09235	26994
21,09647	29079
21,10060	30389
21,10472	32468
21,10883	32279
21,11297	32343
21,11708	31328
21,12120	27834
21,12533	26021
21,12945	25844
21,13357	22318
21,13770	24560
21,14182	23912
21,14593	21811
21,15007	24044
21,15418	23193
21,15830	23562
21,16243	24519
21,16655	23121
21,17067	21370
21,17478	22908
21,17892	23475
21,18303	27386
21,18715	35907
21,19128	52080
21,19540	84349
21,19952	135195
21,20365	207322
21,20777	320014
21,21188	457961
21,21602	619413
21,22013	801899
21,22425	977297
21,22838	1118779
21,23250	1194906
21,23662	1194321
21,24075	1092171
21,24487	936312
21,24898	765724
21,25312	599002
21,25723	467327
21,26135	358044
21,26547	283118
21,26960	227926
21,27372	186439
21,27783	154035
21,28197	132520
21,28608	116280
21,29020	104697
21,29433	92474
21,29845	83314
21,30257	74849
21,30670	71165
21,31082	66474
21,31493	59661
21,31907	57331
21,32318	52124
21,32730	51896
21,33143	50218
21,33555	47444
21,33967	48603
21,34380	43866
21,34792	43397
21,35203	39255
21,35615	40746
21,36028	38323
21,36440	34011
21,36852	34437
21,37265	35812
21,37677	32921
21,38088	30111
21,38502	29726
21,38913	29541
21,39325	29886
21,39738	28431
21,40150	29537
21,40562	29390
21,40975	26865
21,41387	27909
21,41798	26328
21,42212	27740
21,42623	26688
21,43035	23342
21,43448	25960
21,43860	24663
21,44272	21901
21,44683	21975
21,45097	21118
21,45508	21430
21,45920	23835
21,46333	24359
21,46745	29396
21,47157	41957
21,47570	60603
21,47982	93559
21,48393	147786
21,48807	230293
21,49218	342662
21,49630	473845
21,50043	616742
21,50455	773541
21,50867	881473
21,51280	942222
21,51692	951545
21,52103	886929
21,52517	785054
21,52928	666067
21,53340	541625
21,53752	423515
21,54165	337425
21,54577	268210
21,54988	215654
21,55402	183027
21,55813	163869
21,56225	160553
21,56638	169854
21,57050	201811
21,57462	261521
21,57875	337503
21,58287	435516
21,58698	532049
21,59112	607827
21,59523	670994
21,59935	687412
21,60348	673407
21,60760	622351
21,61172	543458
21,61585	463265
21,61997	387493
21,62408	308277
21,62820	250160
21,63233	200834
21,63645	163741
21,64057	133276
21,64470	115628
21,64882	100440
21,65293	88369
21,65707	77066
21,66118	70134
21,66530	66831
21,66943	61679
21,67355	54922
21,67767	49408
21,68180	48328
21,68592	46190
21,69003	43377
21,69417	41794
21,69828	37037
21,70240	37975
21,70653	35293
21,71065	33743
21,71477	31632
21,71888	30954
21,72302	32660
21,72713	30078
21,73125	30303
21,73538	29006
21,73950	26425
21,74362	26732
21,74775	28732
21,75187	25472
21,75598	26118
21,76012	24252
21,76423	25903
21,76835	24938
21,77248	24527
21,77660	25637
21,78072	24534
21,78485	22795
21,78897	23259
21,79308	22835
21,79722	23112
21,80133	23237
21,80545	21680
21,80957	20897
21,81370	20079
21,81782	20371
21,82193	20331
21,82607	20796
21,83018	18894
21,83430	19568
21,83843	17240
21,84255	19854
21,84667	19335
21,85080	20540
21,85492	21992
21,85903	28003
21,86317	34601
21,86728	53742
21,87140	80245
21,87553	129382
21,87965	198311
21,88377	289730
21,88790	416749
21,89202	568853
21,89613	749453
21,90025	967231
21,90438	1189641
21,90850	1441179
21,91262	1676421
21,91675	1934145
21,92087	2109865
21,92498	2179006
21,92912	2101170
21,93323	1875907
21,93735	1594340
21,94148	1282932
21,94560	986841
21,94972	773590
21,95385	598396
21,95797	482020
21,96208	386743
21,96622	324449
21,97033	274885
21,97445	240686
21,97858	214337
21,98270	191378
21,98682	168491
21,99093	152223
21,99507	138779
21,99918	128713
22,00330	115614
22,00743	111828
22,01155	99948
22,01567	96236
22,01980	92064
22,02392	86771
22,02803	82046
22,03217	77629
22,03628	72727
22,04040	68613
22,04453	65753
22,04865	64122
22,05277	61079
22,05690	56955
22,06102	53843
22,06513	54225
22,06927	54133
22,07338	49238
22,07750	49986
22,08163	46945
22,08575	46086
22,08987	42586
22,09398	43628
22,09812	42161
22,10223	42208
22,10635	40350
22,11048	39072
22,11460	39475
22,11872	39090
22,12285	38727
22,12697	38649
22,13108	35136
22,13522	37064
22,13933	35829
22,14345	34447
22,14758	34728
22,15170	34251
22,15582	32717
22,15995	32868
22,16407	31370
22,16818	30413
22,17232	30550
22,17643	31531
22,18055	27258
22,18467	28340
22,18880	29371
22,19292	28861
22,19703	27500
22,20117	28484
22,20528	26180
22,20940	25974
22,21353	26564
22,21765	26273
22,22177	25338
22,22590	25549
22,23002	24786
22,23413	28199
22,23827	27392
22,24238	30821
22,24650	36092
22,25063	47808
22,25475	72801
22,25887	105329
22,26300	156811
22,26712	228987
22,27123	330533
22,27535	448706
22,27948	588014
22,28360	731869
22,28772	864547
22,29185	962577
22,29597	1013299
22,30008	1011136
22,30422	949218
22,30833	857663
22,31245	744151
22,31658	628625
22,32070	511267
22,32482	419225
22,32895	343828
22,33307	280191
22,33718	236113
22,34132	197520
22,34543	171669
22,34955	153882
22,35368	133817
22,35780	122061
22,36192	106580
22,36603	98277
22,37017	91192
22,37428	86550
22,37840	80258
22,38253	74057
22,38665	68525
22,39077	67559
22,39490	62240
22,39902	58412
22,40313	55248
22,40727	52715
22,41138	51362
22,41550	48917
22,41963	47386
22,42375	43344
22,42787	44082
22,43200	43329
22,43612	39768
22,44023	37424
22,44437	38970
22,44848	39583
22,45260	37896
22,45672	35730
22,46085	32854
22,46497	32851
22,46908	32880
22,47322	32472
22,47733	30089
22,48145	31253
22,48558	29265
22,48970	29080
22,49382	29556
22,49795	29938
22,50207	28706
22,50618	27683
22,51032	27349
22,51443	25719
22,51855	25917
22,52268	26968
22,52680	25322
22,53092	23045
22,53505	24619
22,53917	23618
22,54328	23752
22,54740	24210
22,55153	23904
22,55565	24620
22,55977	23260
22,56390	24266
22,56802	23897
22,57213	24451
22,57627	24201
22,58038	24222
22,58450	26258
22,58863	25516
22,59275	26617
22,59687	25371
22,60100	26883
22,60512	29627
22,60923	28915
22,61337	30171
22,61748	30738
22,62160	30603
22,62573	32897
22,62985	32525
22,63397	31155
22,63808	28684
22,64222	27422
22,64633	26955
22,65045	24390
22,65458	23726
22,65870	21917
22,66282	21224
22,66695	20125
22,67107	21269
22,67518	19529
22,67932	19484
22,68343	19808
22,68755	19419
22,69168	19742
22,69580	18688
22,69992	21450
22,70405	20862
22,70817	21388
22,71228	20503
22,71642	19266
22,72053	20069
22,72465	22087
22,72877	19650
22,73290	18898
22,73702	20321
22,74113	20507
22,74527	17891
22,74938	17989
22,75350	19621
22,75763	20132
22,76175	19160
22,76587	18776
22,77000	20808
22,77412	19945
22,77823	20608
22,78237	19016
22,78648	19168
22,79060	18548
22,79473	19967
22,79885	19083
22,80297	17570
22,80710	17931
22,81122	17971
22,81533	16824
22,81945	18319
22,82358	18525
22,82770	19182
22,83182	19864
22,83595	18500
22,84007	20214
22,84418	17920
22,84832	20606
22,85243	19436
22,85655	21261
22,86068	20488
22,86480	20338
22,86892	19927
22,87305	18620
22,87717	20031
22,88128	19488
22,88542	17541
22,88953	20193
22,89365	16844
22,89778	19432
22,90190	17229
22,90602	18579
22,91013	20030
22,91427	18628
22,91838	17441
22,92250	15854
22,92663	18300
22,93075	17377
22,93487	19020
22,93900	16182
22,94312	17019
22,94723	18683
22,95137	18955
22,95548	19151
22,95960	19650
22,96373	19728
22,96785	18649
22,97197	18913
22,97610	19645
22,98022	17867
22,98433	17245
22,98847	18692
22,99258	18334
22,99670	18984
23,00082	19028
23,00495	19055
23,00907	17144
23,01318	18676
23,01732	17307
23,02143	17876
23,02555	19243
23,02968	16414
23,03380	18821
23,03792	18542
23,04205	17500
23,04617	16565
23,05028	17236
23,05442	17800
23,05853	17843
23,06265	17795
23,06678	17248
23,07090	19589
23,07502	17380
23,07915	17195
23,08327	17789
23,08738	16933
23,09150	17331
23,09563	16672
23,09975	17529
23,10387	18905
23,10800	17302
23,11212	18147
23,11623	16103
23,12037	16403
23,12448	18299
23,12860	17628
23,13273	17771
23,13685	18719
23,14097	16762
23,14510	18466
23,14922	17653
23,15333	16998
23,15747	18425
23,16158	18801
23,16570	17938
23,16983	18979
23,17395	17553
23,17807	17148
23,18218	17969
23,18632	17653
23,19043	16999
23,19455	18153
23,19868	17633
23,20280	17282
23,20692	18493
23,21105	17647
23,21517	18030
23,21928	18553
23,22342	16191
23,22753	16958
23,23165	16594
23,23578	15173
23,23990	17681
23,24402	16903
23,24815	16607
23,25227	15635
23,25638	15968
23,26052	15852
23,26463	16365
23,26875	16417
23,27287	15175
23,27700	17331
23,28112	15553
23,28523	13329
23,28937	16726
23,29348	16361
23,29760	17378
23,30173	16981
23,30585	16639
23,30997	17092
23,31410	17617
23,31822	16919
23,32233	17986
23,32647	18570
23,33058	18521
23,33470	16682
23,33883	18566
23,34295	17483
23,34707	17368
23,35120	17683
23,35532	17962
23,35943	17775
23,36355	18800
23,36768	17610
23,37180	18468
23,37592	18648
23,38005	20227
23,38417	23959
23,38828	27741
23,39242	35960
23,39653	48478
23,40065	70328
23,40478	102806
23,40890	142913
23,41302	191172
23,41715	252946
23,42127	320924
23,42538	385162
23,42952	441877
23,43363	482090
23,43775	503780
23,44188	505547
23,44600	484558
23,45012	443098
23,45423	410958
23,45837	359865
23,46248	315206
23,46660	266352
23,47073	227439
23,47485	194390
23,47897	162671
23,48310	136320
23,48722	125867
23,49133	105149
23,49547	91094
23,49958	83570
23,50370	74906
23,50783	70638
23,51195	65847
23,51607	58241
23,52020	54817
23,52432	49625
23,52843	47075
23,53257	44559
23,53668	42412
23,54080	43095
23,54492	40283
23,54905	39087
23,55317	38359
23,55728	35105
23,56142	35781
23,56553	32612
23,56965	34687
23,57378	30367
23,57790	31118
23,58202	29464
23,58615	28491
23,59027	27843
23,59438	28882
23,59852	27763
23,60263	27215
23,60675	25671
23,61088	26436
23,61500	26757
23,61912	25045
23,62325	23442
23,62737	25325
23,63148	23712
23,63562	23818
23,63973	24067
23,64385	25771
23,64797	23481
23,65210	21687
23,65622	23722
23,66033	20305
23,66447	22519
23,66858	20802
23,67270	21711
23,67683	23705
23,68095	22538
23,68507	22521
23,68920	23035
23,69332	22049
23,69743	21214
23,70157	22282
23,70568	20872
23,70980	21290
23,71393	21161
23,71805	21875
23,72217	19956
23,72630	20593
23,73042	19165
23,73453	20221
23,73865	20837
23,74278	20910
23,74690	20670
23,75102	20890
23,75515	19326
23,75927	20763
23,76338	19628
23,76752	19200
23,77163	19557
23,77575	18107
23,77988	18061
23,78400	18996
23,78812	18233
23,79225	19636
23,79637	18808
23,80048	17922
23,80462	17101
23,80873	16145
23,81285	17620
23,81698	17109
23,82110	18368
23,82522	16165
23,82933	17892
23,83347	18833
23,83758	17727
23,84170	17941
23,84583	17222
23,84995	18497
23,85407	18524
23,85820	18002
23,86232	18480
23,86643	17288
23,87057	18198
23,87468	18130
23,87880	19321
23,88293	18937
23,88705	18325
23,89117	18575
23,89530	17710
23,89942	18824
23,90353	18944
23,90767	18845
23,91178	17303
23,91590	17502
23,92002	19115
23,92415	17069
23,92827	17046
23,93238	18033
23,93652	17901
23,94063	16777
23,94475	15758
23,94888	14702
23,95300	17003
23,95712	19018
23,96125	16884
23,96537	17378
23,96948	17722
23,97362	17021
23,97773	14956
23,98185	17844
23,98598	16708
23,99010	16692
23,99422	16277
23,99835	17770
24,00247	16837
24,00658	17212
24,01070	15881
24,01483	16280
24,01895	16043
24,02307	17060
24,02720	15815
24,03132	19443
24,03543	17553
24,03957	18761
24,04368	16404
24,04780	16733
24,05193	19005
24,05605	17669
24,06017	17184
24,06430	19164
24,06842	19234
24,07253	16426
24,07667	17720
24,08078	16714
24,08490	16802
24,08903	16888
24,09315	17649
24,09727	17750
24,10138	18486
24,10552	18366
24,10963	16723
24,11375	18082
24,11788	16953
24,12200	17685
24,12612	18437
24,13025	17505
24,13437	18625
24,13848	17223
24,14262	18676
24,14673	17500
24,15085	18514
24,15498	18686
24,15910	16719
24,16322	18317
24,16735	17895
24,17147	15893
24,17558	17047
24,17972	18100
24,18383	18958
24,18795	18669
24,19207	17870
24,19620	18477
24,20032	18625
24,20443	18984
24,20857	18337
24,21268	18876
24,21680	16448
24,22093	18385
24,22505	17972
24,22917	16626
24,23330	17172
24,23742	17460
24,24153	18135
24,24567	17721
24,24978	17009
24,25390	16331
24,25803	17640
24,26215	17506
24,26627	17188
24,27040	17444
24,27452	17711
24,27863	15448
24,28275	16704
24,28688	17120
24,29100	16709
24,29512	17594
24,29925	16411
24,30337	17825
24,30748	16215
24,31162	17125
24,31573	17794
24,31985	17858
24,32398	15968
24,32810	16458
24,33222	18211
24,33635	17204
