D:\MassHunter\GCMS\1\data\Amal\Constant flow\120C\120C_1ml-min_9C-min_3.D Mon Sep 16 18:33:52 2024
Start of data points
5,19107	193529
5,19518	190700
5,19930	188808
5,20343	180361
5,20755	180740
5,21167	175824
5,21580	173904
5,21992	175820
5,22403	170211
5,22817	164302
5,23228	159970
5,23640	158866
5,24053	154531
5,24465	154992
5,24877	151561
5,25290	150023
5,25702	147513
5,26113	149377
5,26527	147666
5,26938	147420
5,27350	148141
5,27762	137594
5,28175	137445
5,28587	137916
5,28998	135866
5,29412	134923
5,29823	137499
5,30235	134978
5,30648	140791
5,31060	159008
5,31472	193144
5,31885	260927
5,32297	370639
5,32708	493586
5,33122	636257
5,33533	746397
5,33945	827642
5,34358	861798
5,34770	876361
5,35182	864538
5,35595	839881
5,36007	813867
5,36418	781901
5,36830	747532
5,37243	718509
5,37655	686204
5,38067	655528
5,38480	634991
5,38892	605444
5,39303	584889
5,39717	564541
5,40128	541446
5,40540	514423
5,40953	494964
5,41365	478484
5,41777	460403
5,42190	441498
5,42602	415197
5,43013	400705
5,43427	391684
5,43838	370856
5,44250	358208
5,44663	338974
5,45075	323803
5,45487	312503
5,45898	294213
5,46312	287398
5,46723	263316
5,47135	256390
5,47548	245167
5,47960	230967
5,48372	216890
5,48785	205228
5,49197	191685
5,49608	181191
5,50022	171706
5,50433	162684
5,50845	156751
5,51258	144784
5,51670	138671
5,52082	133127
5,52495	124400
5,52907	123401
5,53318	118056
5,53732	112317
5,54143	108981
5,54555	104816
5,54967	101839
5,55380	97670
5,55792	95893
5,56203	92129
5,56617	90571
5,57028	86462
5,57440	87491
5,57853	84954
5,58265	84901
5,58677	83466
5,59090	82962
5,59502	82581
5,59913	79005
5,60327	79067
5,60738	75610
5,61150	77419
5,61563	75338
5,61975	74353
5,62387	73870
5,62800	74374
5,63212	73669
5,63623	72514
5,64035	71411
5,64448	70468
5,64860	70931
5,65272	69836
5,65685	69985
5,66097	69825
5,66508	67544
5,66922	66736
5,67333	69053
5,67745	67932
5,68158	65459
5,68570	66877
5,68982	64526
5,69395	66354
5,69807	67072
5,70218	67076
5,70632	65482
5,71043	66389
5,71455	66908
5,71868	66510
5,72280	65120
5,72692	65206
5,73103	66991
5,73517	64171
5,73928	67615
5,74340	64548
5,74753	64339
5,75165	63130
5,75577	65195
5,75990	64366
5,76402	64191
5,76813	63494
5,77227	65879
5,77638	64271
5,78050	62028
5,78463	61072
5,78875	62899
5,79287	63045
5,79700	61154
5,80112	61533
5,80523	60052
5,80937	58782
5,81348	58940
5,81760	62463
5,82172	59312
5,82585	60895
5,82997	61261
5,83408	59429
5,83822	57577
5,84233	59658
5,84645	59006
5,85058	57589
5,85470	58576
5,85882	59158
5,86295	56134
5,86707	56913
5,87118	56607
5,87532	55503
5,87943	53938
5,88355	53828
5,88768	54810
5,89180	52971
5,89592	52659
5,90005	55629
5,90417	54087
5,90828	53800
5,91240	55360
5,91653	53984
5,92065	54299
5,92477	54066
5,92890	51201
5,93302	52172
5,93713	52748
5,94127	51140
5,94538	53789
5,94950	55972
5,95363	55208
5,95775	55281
5,96187	55705
5,96600	56874
5,97012	56222
5,97423	55701
5,97837	57347
5,98248	54678
5,98660	55672
5,99073	55401
5,99485	55877
5,99897	52907
6,00308	52433
6,00722	54830
6,01133	54217
6,01545	50013
6,01958	52325
6,02370	52634
6,02782	53008
6,03195	53492
6,03607	49749
6,04018	49364
6,04432	51421
6,04843	52511
6,05255	51393
6,05668	51140
6,06080	49758
6,06492	48868
6,06905	47063
6,07317	51489
6,07728	49180
6,08142	47769
6,08553	48691
6,08965	48857
6,09377	50373
6,09790	48580
6,10202	50337
6,10613	47877
6,11027	49517
6,11438	47488
6,11850	49509
6,12263	48420
6,12675	48084
6,13087	49091
6,13500	48743
6,13912	46262
6,14323	46523
6,14737	43802
6,15148	46634
6,15560	46485
6,15973	46404
6,16385	49895
6,16797	46980
6,17210	44891
6,17622	47146
6,18033	48772
6,18445	47826
6,18858	46186
6,19270	45927
6,19682	47671
6,20095	50823
6,20507	58462
6,20918	78996
6,21332	118030
6,21743	190804
6,22155	303949
6,22568	453090
6,22980	636009
6,23392	810196
6,23805	966227
6,24217	1088274
6,24628	1153880
6,25042	1184947
6,25453	1185682
6,25865	1141885
6,26278	1093223
6,26690	1038627
6,27102	996636
6,27513	943850
6,27927	886264
6,28338	845997
6,28750	789566
6,29163	740128
6,29575	695207
6,29987	646953
6,30400	616563
6,30812	574491
6,31223	534549
6,31637	501727
6,32048	451302
6,32460	423845
6,32873	387932
6,33285	359620
6,33697	327098
6,34110	298466
6,34522	270991
6,34933	247179
6,35347	218659
6,35758	197891
6,36170	177053
6,36582	162082
6,36995	144174
6,37407	131220
6,37818	121446
6,38232	107422
6,38643	98992
6,39055	91821
6,39468	88329
6,39880	80633
6,40292	74397
6,40705	70058
6,41117	66004
6,41528	61737
6,41942	60903
6,42353	58123
6,42765	55387
6,43178	54027
6,43590	51115
6,44002	48822
6,44415	48291
6,44827	47296
6,45238	45262
6,45650	47773
6,46063	45158
6,46475	47044
6,46887	45287
6,47300	41724
6,47712	44029
6,48123	42333
6,48537	41543
6,48948	41973
6,49360	39777
6,49773	39186
6,50185	42144
6,50597	39544
6,51010	39812
6,51422	40312
6,51833	40059
6,52247	40679
6,52658	40704
6,53070	40383
6,53483	39583
6,53895	39454
6,54307	37476
6,54718	38732
6,55132	39019
6,55543	37610
6,55955	39391
6,56368	38888
6,56780	37060
6,57192	38009
6,57605	35578
6,58017	36284
6,58428	37269
6,58842	37576
6,59253	36439
6,59665	36878
6,60078	35245
6,60490	35056
6,60902	36548
6,61315	36426
6,61727	36129
6,62138	35348
6,62552	35319
6,62963	35318
6,63375	33889
6,63787	32950
6,64200	33449
6,64612	34720
6,65023	31956
6,65437	34411
6,65848	32275
6,66260	33521
6,66673	33716
6,67085	34092
6,67497	33059
6,67910	32978
6,68322	33594
6,68733	32483
6,69147	32883
6,69558	32405
6,69970	31682
6,70383	33799
6,70795	32158
6,71207	31407
6,71620	31901
6,72032	32707
6,72443	30255
6,72855	31001
6,73268	31113
6,73680	30817
6,74092	30656
6,74505	31665
6,74917	31224
6,75328	31191
6,75742	32011
6,76153	30859
6,76565	31331
6,76978	31130
6,77390	30941
6,77802	32969
6,78215	35684
6,78627	43080
6,79038	61174
6,79452	90208
6,79863	138698
6,80275	214382
6,80688	308126
6,81100	410131
6,81512	518935
6,81923	606980
6,82337	671514
6,82748	702396
6,83160	716142
6,83573	700703
6,83985	678950
6,84397	646003
6,84810	613609
6,85222	575579
6,85633	531021
6,86047	496180
6,86458	462253
6,86870	425126
6,87283	400344
6,87695	360014
6,88107	334474
6,88520	304032
6,88932	280071
6,89343	247987
6,89757	221985
6,90168	196537
6,90580	178427
6,90993	158702
6,91405	139467
6,91817	121583
6,92228	108151
6,92642	100994
6,93053	87325
6,93465	80078
6,93878	72754
6,94290	66750
6,94702	60649
6,95115	57894
6,95527	54971
6,95938	50864
6,96352	47838
6,96763	44811
6,97175	42975
6,97588	43890
6,98000	41159
6,98412	38058
6,98825	37962
6,99237	36107
6,99648	35796
7,00062	36796
7,00473	34534
7,00885	33991
7,01297	33712
7,01710	33345
7,02122	33357
7,02533	33836
7,02947	33182
7,03358	33948
7,03770	33834
7,04183	34563
7,04595	35002
7,05007	34194
7,05420	33960
7,05832	34219
7,06243	33312
7,06657	32970
7,07068	34069
7,07480	33032
7,07893	33735
7,08305	31518
7,08717	31650
7,09130	32335
7,09542	30657
7,09953	31412
7,10365	32632
7,10778	31260
7,11190	31361
7,11602	30639
7,12015	30913
7,12427	29673
7,12838	31920
7,13252	29721
7,13663	30358
7,14075	28937
7,14488	29496
7,14900	28196
7,15312	29401
7,15725	28838
7,16137	28662
7,16548	27704
7,16962	27444
7,17373	28983
7,17785	27894
7,18198	26679
7,18610	27488
7,19022	27766
7,19433	25602
7,19847	26427
7,20258	25281
7,20670	24847
7,21083	24980
7,21495	25007
7,21907	25406
7,22320	24256
7,22732	25665
7,23143	25806
7,23557	23833
7,23968	24086
7,24380	24228
7,24793	24519
7,25205	24009
7,25617	24305
7,26030	24109
7,26442	25088
7,26853	25188
7,27267	24159
7,27678	22697
7,28090	24377
7,28502	23891
7,28915	25096
7,29327	23517
7,29738	25091
7,30152	23089
7,30563	24547
7,30975	22800
7,31388	22518
7,31800	23530
7,32212	23422
7,32625	24658
7,33037	23928
7,33448	24654
7,33862	22948
7,34273	22514
7,34685	23713
7,35098	23729
7,35510	23810
7,35922	23103
7,36335	23685
7,36747	23221
7,37158	24985
7,37570	22380
7,37983	24023
7,38395	24794
7,38807	24020
7,39220	23912
7,39632	23527
7,40043	23766
7,40457	24011
7,40868	22736
7,41280	24155
7,41693	24523
7,42105	22298
7,42517	27329
7,42930	38023
7,43342	53805
7,43753	93097
7,44167	164858
7,44578	283308
7,44990	455662
7,45403	673520
7,45815	911631
7,46227	1175241
7,46638	1411568
7,47052	1581999
7,47463	1670596
7,47875	1702098
7,48288	1675846
7,48700	1598271
7,49112	1492127
7,49525	1382543
7,49937	1261845
7,50348	1160677
7,50762	1042709
7,51173	931310
7,51585	838999
7,51998	735192
7,52410	635552
7,52822	556594
7,53235	482615
7,53647	404525
7,54058	343520
7,54472	295037
7,54883	250700
7,55295	216859
7,55707	184540
7,56120	160250
7,56532	138790
7,56943	120367
7,57357	107402
7,57768	95128
7,58180	85670
7,58593	78073
7,59005	69357
7,59417	64161
7,59830	59679
7,60242	56649
7,60653	52148
7,61067	49207
7,61478	48181
7,61890	43113
7,62303	43167
7,62715	41065
7,63127	39774
7,63540	39339
7,63952	36617
7,64363	37066
7,64775	36329
7,65188	33414
7,65600	32840
7,66012	32734
7,66425	30625
7,66837	31682
7,67248	31675
7,67662	29237
7,68073	29394
7,68485	28208
7,68898	28487
7,69310	28572
7,69722	27988
7,70135	28122
7,70547	27448
7,70958	26903
7,71372	26276
7,71783	24884
7,72195	25927
7,72608	25117
7,73020	24859
7,73432	23597
7,73843	24581
7,74257	24935
7,74668	25258
7,75080	24707
7,75493	25305
7,75905	23412
7,76317	25286
7,76730	22475
7,77142	23416
7,77553	22900
7,77967	22887
7,78378	23376
7,78790	22887
7,79203	22564
7,79615	22819
7,80027	23272
7,80440	22083
7,80852	23940
7,81263	22411
7,81677	21871
7,82088	22635
7,82500	22498
7,82912	21600
7,83325	21605
7,83737	21017
7,84148	20727
7,84562	22153
7,84973	22808
7,85385	22804
7,85798	22096
7,86210	23433
7,86622	21429
7,87035	21328
7,87447	21463
7,87858	20197
7,88272	19304
7,88683	20798
7,89095	20966
7,89508	19891
7,89920	21458
7,90332	21426
7,90745	20448
7,91157	20344
7,91568	20353
7,91980	21129
7,92393	21332
7,92805	21051
7,93217	21867
7,93630	22671
7,94042	21492
7,94453	21379
7,94867	19307
7,95278	21675
7,95690	20531
7,96103	21231
7,96515	21329
7,96927	21207
7,97340	21531
7,97752	20652
7,98163	20984
7,98577	20808
7,98988	21689
7,99400	19460
7,99813	20526
8,00225	19850
8,00637	19833
8,01048	19693
8,01462	20966
8,01873	20087
8,02285	20341
8,02698	18668
8,03110	19244
8,03522	18506
8,03935	20205
8,04347	19020
8,04758	20204
8,05172	20427
8,05583	20934
8,05995	20862
8,06408	21170
8,06820	22778
8,07232	23883
8,07645	25581
8,08057	26508
8,08468	27372
8,08882	25445
8,09293	28054
8,09705	25802
8,10117	26913
8,10530	26207
8,10942	25942
8,11353	27449
8,11767	26868
8,12178	30713
8,12590	37060
8,13003	50096
8,13415	72269
8,13827	123199
8,14240	196139
8,14652	303671
8,15063	436597
8,15477	597492
8,15888	754384
8,16300	892895
8,16713	971712
8,17125	1023249
8,17537	1013936
8,17950	974636
8,18362	914614
8,18773	825497
8,19185	744249
8,19598	657341
8,20010	571955
8,20422	492775
8,20835	407551
8,21247	347325
8,21658	291237
8,22072	243853
8,22483	203390
8,22895	166542
8,23308	142533
8,23720	122133
8,24132	102542
8,24545	89864
8,24957	79272
8,25368	67672
8,25782	62800
8,26193	53888
8,26605	51455
8,27018	48082
8,27430	44173
8,27842	41267
8,28253	37895
8,28667	35211
8,29078	35903
8,29490	34332
8,29903	33279
8,30315	31731
8,30727	30337
8,31140	29271
8,31552	27007
8,31963	28863
8,32377	27601
8,32788	25981
8,33200	26017
8,33613	25076
8,34025	23774
8,34437	24457
8,34850	24280
8,35262	24483
8,35673	22408
8,36087	22501
8,36498	20920
8,36910	22956
8,37322	22398
8,37735	20899
8,38147	21934
8,38558	20823
8,38972	20083
8,39383	22121
8,39795	19925
8,40208	21653
8,40620	20003
8,41032	20034
8,41445	19356
8,41857	18428
8,42268	20606
8,42682	20468
8,43093	20388
8,43505	18508
8,43918	19288
8,44330	19941
8,44742	16809
8,45155	17899
8,45567	18563
8,45978	19046
8,46390	19378
8,46803	18989
8,47215	17400
8,47627	17994
8,48040	19086
8,48452	18309
8,48863	18048
8,49277	18951
8,49688	17783
8,50100	17082
8,50513	20452
8,50925	21443
8,51337	22146
8,51750	22482
8,52162	22912
8,52573	21146
8,52987	24459
8,53398	22986
8,53810	21335
8,54223	21249
8,54635	20570
8,55047	19831
8,55460	20582
8,55872	20073
8,56283	19485
8,56695	17795
8,57108	19535
8,57520	17867
8,57932	17436
8,58345	18576
8,58757	16985
8,59168	18524
8,59582	17606
8,59993	17287
8,60405	17598
8,60818	16239
8,61230	16325
8,61642	17781
8,62055	17272
8,62467	16168
8,62878	15448
8,63292	16431
8,63703	17137
8,64115	15661
8,64528	16270
8,64940	16533
8,65352	15383
8,65763	15390
8,66177	15706
8,66588	15470
8,67000	16013
8,67413	15654
8,67825	16363
8,68237	15784
8,68650	15291
8,69062	15631
8,69473	15187
8,69887	14953
8,70298	15826
8,70710	15430
8,71123	16049
8,71535	15979
8,71947	16338
8,72360	16158
8,72772	16779
8,73183	16110
8,73597	19688
8,74008	18278
8,74420	20620
8,74832	20115
8,75245	23774
8,75657	21597
8,76068	21570
8,76482	20926
8,76893	22058
8,77305	20480
8,77718	21177
8,78130	18685
8,78542	19025
8,78955	19172
8,79367	19263
8,79778	19195
8,80192	17409
8,80603	16357
8,81015	16608
8,81428	16150
8,81840	16836
8,82252	17112
8,82665	17062
8,83077	16129
8,83488	16864
8,83900	16457
8,84313	20032
8,84725	28744
8,85137	46281
8,85550	87297
8,85962	161374
8,86373	297118
8,86787	513119
8,87198	803135
8,87610	1157728
8,88023	1532392
8,88435	1887290
8,88847	2178391
8,89260	2328230
8,89672	2376265
8,90083	2292226
8,90497	2116189
8,90908	1877398
8,91320	1636619
8,91733	1389041
8,92145	1148585
8,92557	934687
8,92968	749345
8,93382	593815
8,93793	481010
8,94205	385229
8,94618	312651
8,95030	258375
8,95442	214885
8,95855	177021
8,96267	155276
8,96678	133441
8,97092	112845
8,97503	104549
8,97915	93782
8,98328	85398
8,98740	72650
8,99152	71213
8,99565	64731
8,99977	60600
9,00388	54317
9,00802	55758
9,01213	50359
9,01625	50009
9,02037	49910
9,02450	48318
9,02862	47138
9,03273	48289
9,03687	46698
9,04098	45378
9,04510	43173
9,04923	41500
9,05335	39545
9,05747	36830
9,06160	36094
9,06572	34521
9,06983	33296
9,07397	30548
9,07808	29620
9,08220	28133
9,08633	26492
9,09045	27998
9,09457	24881
9,09870	26189
9,10282	24438
9,10693	24726
9,11105	24606
9,11518	24164
9,11930	20688
9,12342	21500
9,12755	23440
9,13167	21857
9,13578	21046
9,13992	20319
9,14403	21562
9,14815	21976
9,15228	21018
9,15640	20012
9,16052	20480
9,16465	20094
9,16877	19953
9,17288	19438
9,17702	20745
9,18113	19931
9,18525	21071
9,18938	22326
9,19350	23052
9,19762	24824
9,20173	22524
9,20587	25001
9,20998	24222
9,21410	24186
9,21823	23618
9,22235	24772
9,22647	23020
9,23060	23217
9,23472	21498
9,23883	21836
9,24297	23230
9,24708	22988
9,25120	25563
9,25533	22024
9,25945	21720
9,26357	19532
9,26770	20517
9,27182	21143
9,27593	19347
9,28007	17959
9,28418	18375
9,28830	17484
9,29242	16860
9,29655	18246
9,30067	17680
9,30478	17425
9,30892	16361
9,31303	17299
9,31715	17562
9,32128	17745
9,32540	18019
9,32952	17116
9,33365	16337
9,33777	18211
9,34188	16459
9,34602	15795
9,35013	16380
9,35425	15699
9,35838	16118
9,36250	15239
9,36662	14604
9,37075	15761
9,37487	15780
9,37898	17009
9,38310	17649
9,38723	19894
9,39135	23662
9,39547	37040
9,39960	60221
9,40372	105111
9,40783	176881
9,41197	289042
9,41608	428021
9,42020	614829
9,42433	802183
9,42845	974249
9,43257	1095485
9,43670	1152049
9,44082	1162082
9,44493	1096127
9,44907	1006299
9,45318	877721
9,45730	731083
9,46143	608730
9,46555	496971
9,46967	392915
9,47378	314370
9,47792	259156
9,48203	209713
9,48615	169868
9,49028	140791
9,49440	119618
9,49852	103353
9,50265	88593
9,50677	77958
9,51088	69304
9,51502	61958
9,51913	59655
9,52325	52507
9,52738	48500
9,53150	43926
9,53562	41142
9,53975	39715
9,54387	36602
9,54798	33979
9,55212	33171
9,55623	32851
9,56035	30645
9,56447	29256
9,56860	27764
9,57272	27375
9,57683	28749
9,58097	30938
9,58508	39604
9,58920	62472
9,59333	103734
9,59745	175572
9,60157	293246
9,60570	452714
9,60982	660515
9,61393	865673
9,61807	1062363
9,62218	1228822
9,62630	1312022
9,63043	1331240
9,63455	1244725
9,63867	1121160
9,64280	961386
9,64692	797075
9,65103	650173
9,65515	516099
9,65928	408862
9,66340	323428
9,66752	257311
9,67165	205492
9,67577	170484
9,67988	139871
9,68402	118424
9,68813	102480
9,69225	86296
9,69638	72972
9,70050	70714
9,70462	62189
9,70875	56845
9,71287	53393
9,71698	48797
9,72112	46342
9,72523	41847
9,72935	40561
9,73348	37996
9,73760	36825
9,74172	34661
9,74583	32652
9,74997	32448
9,75408	30069
9,75820	29361
9,76233	29374
9,76645	25700
9,77057	27377
9,77470	24328
9,77882	25997
9,78293	23929
9,78707	23993
9,79118	23743
9,79530	23636
9,79943	21486
9,80355	21183
9,80767	21405
9,81180	19748
9,81592	20530
9,82003	20568
9,82417	20103
9,82828	20782
9,83240	18823
9,83652	19505
9,84065	19500
9,84477	20355
9,84888	19278
9,85302	17606
9,85713	18915
9,86125	18325
9,86538	17608
9,86950	17698
9,87362	16806
9,87775	16892
9,88187	16416
9,88598	17932
9,89012	17068
9,89423	17281
9,89835	15358
9,90248	17163
9,90660	16412
9,91072	15560
9,91485	16447
9,91897	16713
9,92308	17696
9,92720	16321
9,93133	15829
9,93545	14447
9,93957	16588
9,94370	14766
9,94782	14919
9,95193	14532
9,95607	14285
9,96018	12466
9,96430	12774
9,96843	14767
9,97255	15193
9,97667	15552
9,98080	14363
9,98492	14090
9,98903	15408
9,99317	16093
9,99728	15579
10,00140	14802
10,00553	17341
10,00965	15522
10,01377	15590
10,01788	14200
10,02202	14427
10,02613	14730
10,03025	15281
10,03438	14938
10,03850	13403
10,04262	13899
10,04675	14393
10,05087	15775
10,05498	15542
10,05912	14526
10,06323	14515
10,06735	15085
10,07148	15071
10,07560	15585
10,07972	15367
10,08385	14320
10,08797	15892
10,09208	14888
10,09622	14617
10,10033	15236
10,10445	15909
10,10857	15644
10,11270	15151
10,11682	14984
10,12093	14683
10,12507	17688
10,12918	21362
10,13330	28909
10,13743	47338
10,14155	82547
10,14567	149306
10,14980	253164
10,15392	401392
10,15803	578220
10,16217	792307
10,16628	996190
10,17040	1166627
10,17453	1267862
10,17865	1271378
10,18277	1214935
10,18690	1083820
10,19102	927863
10,19513	771077
10,19927	623482
10,20338	495098
10,20750	391877
10,21162	310066
10,21575	246648
10,21987	197128
10,22398	163267
10,22812	138675
10,23223	116282
10,23635	97893
10,24048	85398
10,24460	76839
10,24872	68326
10,25285	63430
10,25697	57132
10,26108	52038
10,26522	47574
10,26933	44524
10,27345	43850
10,27758	39594
10,28170	38354
10,28582	37001
10,28995	35085
10,29407	32063
10,29818	33484
10,30230	31355
10,30643	31030
10,31055	39624
10,31467	54868
10,31880	92565
10,32292	173811
10,32703	318830
10,33117	587386
10,33528	990227
10,33940	1542976
10,34353	2218187
10,34765	2905118
10,35177	3584877
10,35590	4080888
10,36002	4358397
10,36413	4335867
10,36827	3987669
10,37238	3470957
10,37650	2852697
10,38063	2289214
10,38475	1781600
10,38887	1372008
10,39298	1055359
10,39712	815674
10,40123	646683
10,40535	515668
10,40948	425611
10,41360	350846
10,41772	302317
10,42185	255848
10,42597	220663
10,43008	200765
10,43422	171198
10,43833	155692
10,44245	140980
10,44658	124977
10,45070	113712
10,45482	103787
10,45895	97098
10,46307	90870
10,46718	84082
10,47132	78579
10,47543	75319
10,47955	71082
10,48367	66624
10,48780	63864
10,49192	58761
10,49603	56996
10,50017	55300
10,50428	51452
10,50840	50528
10,51253	45643
10,51665	47218
10,52077	46027
10,52490	43323
10,52902	42356
10,53313	40303
10,53727	38321
10,54138	37831
10,54550	35544
10,54963	33729
10,55375	33887
10,55787	32904
10,56200	33145
10,56612	29267
10,57023	30635
10,57435	30225
10,57848	30432
10,58260	27658
10,58672	26743
10,59085	26820
10,59497	26377
10,59908	24975
10,60322	24605
10,60733	25469
10,61145	25869
10,61558	23915
10,61970	23262
10,62382	24072
10,62795	23590
10,63207	24188
10,63618	23515
10,64032	23080
10,64443	23877
10,64855	22492
10,65268	22513
10,65680	21450
10,66092	23570
10,66503	21587
10,66917	22208
10,67328	20684
10,67740	21499
10,68153	19291
10,68565	19050
10,68977	18011
10,69390	18663
10,69802	19487
10,70213	19205
10,70627	17899
10,71038	18270
10,71450	17621
10,71863	19015
10,72275	20112
10,72687	19273
10,73100	21360
10,73512	21469
10,73923	20410
10,74337	20352
10,74748	19871
10,75160	20534
10,75572	21469
10,75985	21794
10,76397	25001
10,76808	33033
10,77222	54118
10,77633	92941
10,78045	169653
10,78458	287437
10,78870	459553
10,79282	664019
10,79695	909500
10,80107	1125837
10,80518	1275711
10,80932	1342677
10,81343	1321471
10,81755	1223777
10,82168	1066472
10,82580	888236
10,82992	721713
10,83405	576249
10,83817	453391
10,84228	361078
10,84640	286861
10,85053	228671
10,85465	184355
10,85877	155353
10,86290	131840
10,86702	112292
10,87113	100993
10,87527	86734
10,87938	81685
10,88350	72523
10,88763	66343
10,89175	63792
10,89587	60685
10,90000	58008
10,90412	55621
10,90823	51625
10,91237	50088
10,91648	47599
10,92060	43124
10,92473	38477
10,92885	39067
10,93297	36301
10,93708	34148
10,94122	32687
10,94533	32306
10,94945	33171
10,95358	28896
10,95770	29936
10,96182	29915
10,96595	32255
10,97007	32748
10,97418	33026
10,97832	36743
10,98243	38107
10,98655	37256
10,99068	36501
10,99480	35944
10,99892	35845
11,00305	31386
11,00717	31350
11,01128	29451
11,01542	27718
11,01953	26055
11,02365	26777
11,02777	25339
11,03190	27771
11,03602	36222
11,04013	58552
11,04427	98796
11,04838	172148
11,05250	302577
11,05663	489875
11,06075	731277
11,06487	992803
11,06900	1260379
11,07312	1452266
11,07723	1538207
11,08137	1525553
11,08548	1411399
11,08960	1235272
11,09373	1021016
11,09785	820565
11,10197	640724
11,10610	498919
11,11022	391594
11,11433	306936
11,11845	246414
11,12258	200751
11,12670	168270
11,13082	143459
11,13495	119201
11,13907	106453
11,14318	92528
11,14732	83224
11,15143	74872
11,15555	68048
11,15968	66285
11,16380	57955
11,16792	54432
11,17205	51367
11,17617	49158
11,18028	46437
11,18442	46286
11,18853	40041
11,19265	38728
11,19678	38385
11,20090	35036
11,20502	33231
11,20913	32575
11,21327	31897
11,21738	30353
11,22150	30697
11,22563	28866
11,22975	27716
11,23387	27090
11,23800	28351
11,24212	27680
11,24623	25838
11,25037	26170
11,25448	26126
11,25860	24511
11,26273	23540
11,26685	23215
11,27097	23929
11,27510	23227
11,27922	25011
11,28333	22914
11,28747	23148
11,29158	23124
11,29570	23802
11,29982	23255
11,30395	22723
11,30807	20970
11,31218	20208
11,31632	20149
11,32043	20477
11,32455	20014
11,32868	19671
11,33280	19873
11,33692	18740
11,34105	19695
11,34517	17555
11,34928	19945
11,35342	19479
11,35753	20225
11,36165	18938
11,36578	19397
11,36990	18057
11,37402	18868
11,37815	17591
11,38227	17484
11,38638	18937
11,39050	19405
11,39463	18026
11,39875	17423
11,40287	17461
11,40700	16915
11,41112	16509
11,41523	16605
11,41937	16646
11,42348	18191
11,42760	16357
11,43173	17044
11,43585	16071
11,43997	18262
11,44410	17408
11,44822	17500
11,45233	18590
11,45647	18715
11,46058	17323
11,46470	17431
11,46883	16112
11,47295	19378
11,47707	23606
11,48118	29860
11,48532	48160
11,48943	90204
11,49355	157301
11,49768	272640
11,50180	454126
11,50592	667345
11,51005	925162
11,51417	1159747
11,51828	1346777
11,52242	1437855
11,52653	1435236
11,53065	1364628
11,53478	1189526
11,53890	1010230
11,54302	814835
11,54715	656145
11,55127	515951
11,55538	400677
11,55952	319620
11,56363	253679
11,56775	207570
11,57187	175737
11,57600	145771
11,58012	126018
11,58423	109260
11,58837	98321
11,59248	85184
11,59660	76701
11,60073	67852
11,60485	64788
11,60897	61271
11,61310	53647
11,61722	50123
11,62133	49046
11,62547	45024
11,62958	46328
11,63370	39999
11,63783	39845
11,64195	38878
11,64607	36130
11,65020	34405
11,65432	31643
11,65843	33347
11,66255	33559
11,66668	30658
11,67080	29792
11,67492	30573
11,67905	29719
11,68317	27306
11,68728	26355
11,69142	27667
11,69553	25227
11,69965	24176
11,70378	24209
11,70790	24322
11,71202	24296
11,71615	23964
11,72027	24132
11,72438	21348
11,72852	24156
11,73263	24946
11,73675	34542
11,74088	56197
11,74500	100079
11,74912	188796
11,75323	354178
11,75737	618419
11,76148	990473
11,76560	1489437
11,76973	2047370
11,77385	2629898
11,77797	3107209
11,78210	3383552
11,78622	3445244
11,79033	3235988
11,79447	2825356
11,79858	2351565
11,80270	1877902
11,80683	1462921
11,81095	1130743
11,81507	890937
11,81920	698241
11,82332	565679
11,82743	464992
11,83157	379918
11,83568	326993
11,83980	280411
11,84392	245084
11,84805	210695
11,85217	186412
11,85628	166950
11,86042	147192
11,86453	136215
11,86865	121818
11,87278	116147
11,87690	105610
11,88102	98899
11,88515	91959
11,88927	83299
11,89338	79159
11,89752	74352
11,90163	73502
11,90575	70009
11,90988	66119
11,91400	61124
11,91812	59122
11,92225	55352
11,92637	55818
11,93048	51265
11,93462	52303
11,93873	49825
11,94285	50192
11,94697	46252
11,95110	44981
11,95522	43990
11,95933	42584
11,96347	39400
11,96758	40291
11,97170	38811
11,97583	38925
11,97995	39002
11,98407	38248
11,98820	47873
11,99232	62056
11,99643	95301
12,00057	161971
12,00468	276067
12,00880	448526
12,01293	679583
12,01705	940215
12,02117	1211500
12,02530	1434449
12,02942	1570223
12,03353	1584718
12,03765	1500139
12,04178	1331810
12,04590	1143722
12,05002	936600
12,05415	750899
12,05827	594052
12,06238	467234
12,06652	374830
12,07063	306903
12,07475	251868
12,07888	209614
12,08300	182030
12,08712	154740
12,09125	135546
12,09537	120280
12,09948	109097
12,10362	97886
12,10773	93598
12,11185	84239
12,11598	87489
12,12010	99289
12,12422	137333
12,12833	216193
12,13247	351517
12,13658	602547
12,14070	963053
12,14483	1434499
12,14895	2001222
12,15307	2570093
12,15720	3013706
12,16132	3260620
12,16543	3238807
12,16957	3016817
12,17368	2632465
12,17780	2178215
12,18193	1759966
12,18605	1377825
12,19017	1076629
12,19430	852104
12,19842	670176
12,20253	545561
12,20667	443383
12,21078	373378
12,21490	314042
12,21902	268916
12,22315	234810
12,22727	207746
12,23138	186070
12,23552	166409
12,23963	152607
12,24375	137026
12,24788	129020
12,25200	114609
12,25612	111469
12,26025	99382
12,26437	98939
12,26848	90137
12,27262	82851
12,27673	83020
12,28085	75906
12,28498	72860
12,28910	69388
12,29322	67715
12,29735	63141
12,30147	60774
12,30558	60975
12,30970	56551
12,31383	55978
12,31795	52054
12,32207	52849
12,32620	51442
12,33032	48127
12,33443	47345
12,33857	46081
12,34268	45612
12,34680	43968
12,35093	41274
12,35505	41383
12,35917	41696
12,36330	40132
12,36742	37434
12,37153	38028
12,37567	35620
12,37978	37487
12,38390	35655
12,38803	39829
12,39215	46725
12,39627	58600
12,40038	87068
12,40452	144446
12,40863	245315
12,41275	405131
12,41688	624774
12,42100	879619
12,42512	1144640
12,42925	1427201
12,43337	1675084
12,43748	1914502
12,44162	2169890
12,44573	2477144
12,44985	2842013
12,45398	3223029
12,45810	3591753
12,46222	3852702
12,46635	3897628
12,47047	3699192
12,47458	3310081
12,47872	2771199
12,48283	2244177
12,48695	1759282
12,49107	1373332
12,49520	1071351
12,49932	851413
12,50343	686716
12,50757	562326
12,51168	470510
12,51580	401147
12,51993	346978
12,52405	305193
12,52817	271331
12,53230	241972
12,53642	217378
12,54053	196857
12,54467	179960
12,54878	164632
12,55290	153108
12,55703	142627
12,56115	133743
12,56527	124705
12,56940	117190
12,57352	114526
12,57763	108215
12,58175	100740
12,58588	95936
12,59000	91765
12,59412	89188
12,59825	88041
12,60237	84630
12,60648	79392
12,61062	76119
12,61473	75041
12,61885	70993
12,62298	70069
12,62710	66901
12,63122	64563
12,63535	64893
12,63947	63435
12,64358	59632
12,64772	58490
12,65183	57400
12,65595	54045
12,66008	52564
12,66420	52934
12,66832	48924
12,67243	47526
12,67657	46731
12,68068	46490
12,68480	50033
12,68893	52696
12,69305	66550
12,69717	94250
12,70130	149206
12,70542	246240
12,70953	394697
12,71367	588104
12,71778	814198
12,72190	1038971
12,72603	1238609
12,73015	1345512
12,73427	1386870
12,73840	1315810
12,74252	1180370
12,74663	1007843
12,75077	840572
12,75488	671555
12,75900	544230
12,76312	431039
12,76725	349467
12,77137	283945
12,77548	231303
12,77962	200294
12,78373	173395
12,78785	148753
12,79198	130546
12,79610	117929
12,80022	107960
12,80435	101522
12,80847	92453
12,81258	85282
12,81672	79916
12,82083	80709
12,82495	74446
12,82908	69317
12,83320	68377
12,83732	65430
12,84145	63504
12,84557	57046
12,84968	55735
12,85380	53734
12,85793	52928
12,86205	48840
12,86617	47128
12,87030	48373
12,87442	44989
12,87853	46372
12,88267	44806
12,88678	42687
12,89090	41765
12,89503	41409
12,89915	40576
12,90327	40633
12,90740	38603
12,91152	37814
12,91563	39268
12,91977	34573
12,92388	36541
12,92800	34119
12,93213	34204
12,93625	35245
12,94037	33390
12,94448	34491
12,94862	33818
12,95273	33048
12,95685	35170
12,96098	33925
12,96510	34114
12,96922	35432
12,97335	32571
12,97747	32767
12,98158	33136
12,98572	33351
12,98983	33046
12,99395	31736
12,99808	31894
13,00220	33798
13,00632	30785
13,01045	32443
13,01457	30810
13,01868	29697
13,02282	29449
13,02693	29726
13,03105	28663
13,03517	29852
13,03930	27379
13,04342	27481
13,04753	28651
13,05167	27163
13,05578	29246
13,05990	26802
13,06403	27251
13,06815	25630
13,07227	28639
13,07640	30839
13,08052	37438
13,08463	54278
13,08877	95782
13,09288	171881
13,09700	329830
13,10113	605566
13,10525	1034249
13,10937	1629350
13,11350	2408083
13,11762	3247483
13,12173	4066210
13,12585	4697286
13,12998	5031100
13,13410	4944245
13,13822	4578508
13,14235	3999504
13,14647	3316719
13,15058	2684400
13,15472	2143311
13,15883	1669173
13,16295	1322204
13,16708	1059151
13,17120	865673
13,17532	706791
13,17945	593637
13,18357	501414
13,18768	430404
13,19182	376028
13,19593	333861
13,20005	299610
13,20418	272409
13,20830	242663
13,21242	222671
13,21653	204989
13,22067	188670
13,22478	171645
13,22890	164257
13,23303	151001
13,23715	143625
13,24127	131466
13,24540	127690
13,24952	116784
13,25363	115075
13,25777	106387
13,26188	104358
13,26600	101178
13,27013	93063
13,27425	92935
13,27837	86474
13,28250	81112
13,28662	80661
13,29073	78958
13,29487	74936
13,29898	73621
13,30310	71763
13,30722	69913
13,31135	69987
13,31547	68145
13,31958	64940
13,32372	64968
13,32783	61992
13,33195	65168
13,33608	72425
13,34020	77478
13,34432	89263
13,34845	107203
13,35257	139660
13,35668	200817
13,36082	297936
13,36493	443504
13,36905	625920
13,37318	826951
13,37730	1009474
13,38142	1156553
13,38555	1215076
13,38967	1210897
13,39378	1122174
13,39790	977927
13,40203	838457
13,40615	694477
13,41027	562485
13,41440	455954
13,41852	368309
13,42263	301857
13,42677	250570
13,43088	212493
13,43500	181532
13,43913	162904
13,44325	159624
13,44737	169195
13,45150	200206
13,45562	274832
13,45973	408133
13,46387	614853
13,46798	882912
13,47210	1187678
13,47623	1480474
13,48035	1704821
13,48447	1809237
13,48860	1799437
13,49272	1666685
13,49683	1461415
13,50095	1229277
13,50508	1011722
13,50920	821220
13,51332	659564
13,51745	538251
13,52157	437902
13,52568	364695
13,52982	314637
13,53393	272181
13,53805	232478
13,54218	208754
13,54630	188881
13,55042	170468
13,55455	158271
13,55867	145939
13,56278	137468
13,56692	126670
13,57103	119172
13,57515	112335
13,57928	106072
13,58340	99002
13,58752	96301
13,59163	88336
13,59577	86810
13,59988	83310
13,60400	79166
13,60813	74604
13,61225	73109
13,61637	69520
13,62050	67471
13,62462	67547
13,62873	64636
13,63287	65126
13,63698	62740
13,64110	58229
13,64523	60764
13,64935	58382
13,65347	58301
13,65760	58749
13,66172	55375
13,66583	54129
13,66997	54180
13,67408	52580
13,67820	49815
13,68232	51667
13,68645	48078
13,69057	51923
13,69468	48973
13,69882	50436
13,70293	48078
13,70705	46625
13,71118	46788
13,71530	48118
13,71942	55009
13,72355	67987
13,72767	91577
13,73178	145410
13,73592	248509
13,74003	411732
13,74415	657742
13,74828	971404
13,75240	1331095
13,75652	1679037
13,76065	1926938
13,76477	2024423
13,76888	1977720
13,77300	1799160
13,77713	1536189
13,78125	1284514
13,78537	1024945
13,78950	837879
13,79362	667707
13,79773	542040
13,80187	453898
13,80598	378453
13,81010	329047
13,81423	285605
13,81835	249337
13,82247	222019
13,82660	199931
13,83072	182182
13,83483	166452
13,83897	151247
13,84308	141845
13,84720	132187
13,85133	127379
13,85545	119853
13,85957	111053
13,86368	106412
13,86782	102604
13,87193	96240
13,87605	94591
13,88018	90812
13,88430	88287
13,88842	86711
13,89255	83440
13,89667	79388
13,90078	76729
13,90492	77234
13,90903	74462
13,91315	73864
13,91728	70904
13,92140	67056
13,92552	68039
13,92965	66607
13,93377	64838
13,93788	60113
13,94202	60276
13,94613	57410
13,95025	60575
13,95437	58247
13,95850	54266
13,96262	56489
13,96673	54315
13,97087	50373
13,97498	54198
13,97910	52549
13,98323	53204
13,98735	65047
13,99147	84873
13,99560	123909
13,99972	193793
14,00383	316949
14,00797	497687
14,01208	732273
14,01620	995088
14,02033	1262509
14,02445	1439007
14,02857	1542375
14,03270	1507383
14,03682	1411252
14,04093	1222453
14,04505	1041130
14,04918	851513
14,05330	693581
14,05742	568215
14,06155	462498
14,06567	383466
14,06978	319603
14,07392	270843
14,07803	239394
14,08215	207300
14,08628	181391
14,09040	165556
14,09452	153521
14,09865	139894
14,10277	127668
14,10688	122138
14,11102	110174
14,11513	105621
14,11925	101758
14,12338	95641
14,12750	92466
14,13162	87132
14,13573	87100
14,13987	80743
14,14398	78025
14,14810	76284
14,15223	73237
14,15635	71457
14,16047	70966
14,16460	67055
14,16872	65862
14,17283	63507
14,17697	63640
14,18108	59784
14,18520	60728
14,18933	57866
14,19345	59346
14,19757	57929
14,20170	54811
14,20582	57076
14,20993	53806
14,21407	52043
14,21818	52784
14,22230	52976
14,22642	53682
14,23055	50581
14,23467	52844
14,23878	50844
14,24292	50756
14,24703	49572
14,25115	50275
14,25528	48619
14,25940	49787
14,26352	49009
14,26765	47993
14,27177	47939
14,27588	49878
14,28002	49454
14,28413	48326
14,28825	49541
14,29238	49145
14,29650	47642
14,30062	48550
14,30475	46686
14,30887	45915
14,31298	47838
14,31710	47068
14,32123	46373
14,32535	46308
14,32947	47192
14,33360	47393
14,33772	53183
14,34183	66157
14,34597	92385
14,35008	146508
14,35420	251946
14,35833	431752
14,36245	714594
14,36657	1141676
14,37070	1691011
14,37482	2349944
14,37893	3112070
14,38307	3786508
14,38718	4328659
14,39130	4614254
14,39543	4626136
14,39955	4372320
14,40367	3974528
14,40778	3592903
14,41192	3235364
14,41603	2842255
14,42015	2489961
14,42428	2150813
14,42840	1816642
14,43252	1529268
14,43665	1263715
14,44077	1053458
14,44488	876892
14,44902	733997
14,45313	630773
14,45725	549633
14,46138	487703
14,46550	428689
14,46962	388953
14,47375	353637
14,47787	315109
14,48198	290196
14,48612	271030
14,49023	255535
14,49435	240942
14,49847	221790
14,50260	210975
14,50672	196795
14,51083	189950
14,51497	177133
14,51908	166971
14,52320	161790
14,52733	152973
14,53145	147418
14,53557	141585
14,53970	141339
14,54382	136223
14,54793	127656
14,55207	125916
14,55618	124167
14,56030	116700
14,56443	119020
14,56855	111389
14,57267	109934
14,57680	113393
14,58092	107199
14,58503	104463
14,58915	103578
14,59328	101723
14,59740	105119
14,60152	107020
14,60565	114032
14,60977	129888
14,61388	161749
14,61802	224444
14,62213	327544
14,62625	471171
14,63038	679035
14,63450	907825
14,63862	1122796
14,64275	1278267
14,64687	1380030
14,65098	1381253
14,65512	1287709
14,65923	1158864
14,66335	1017760
14,66748	862752
14,67160	767345
14,67572	711648
14,67983	720552
14,68397	786651
14,68808	921241
14,69220	1109896
14,69633	1331290
14,70045	1553482
14,70457	1771273
14,70870	1990907
14,71282	2178515
14,71693	2356543
14,72107	2483910
14,72518	2567292
14,72930	2518704
14,73343	2365209
14,73755	2150779
14,74167	1867775
14,74580	1599801
14,74992	1344410
14,75403	1118802
14,75817	929943
14,76228	781307
14,76640	674052
14,77052	574472
14,77465	511178
14,77877	452815
14,78288	405018
14,78702	367894
14,79113	336742
14,79525	306015
14,79938	283682
14,80350	262409
14,80762	244472
14,81175	229805
14,81587	216386
14,81998	199705
14,82412	191829
14,82823	187870
14,83235	176379
14,83648	169859
14,84060	159343
14,84472	155502
14,84885	148280
14,85297	142124
14,85708	135550
14,86120	131965
14,86533	130898
14,86945	120054
14,87357	120082
14,87770	116481
14,88182	114790
14,88593	108351
14,89007	104547
14,89418	102950
14,89830	102985
14,90243	95803
14,90655	97947
14,91067	94798
14,91480	92275
14,91892	89926
14,92303	90115
14,92717	86049
14,93128	85754
14,93540	85155
14,93953	85319
14,94365	92378
14,94777	98056
14,95188	119286
14,95602	156153
14,96013	225769
14,96425	333012
14,96838	508281
14,97250	746775
14,97662	1063542
14,98075	1404380
14,98487	1711510
14,98898	1927175
14,99312	2011461
14,99723	1962339
15,00135	1796222
15,00548	1571288
15,00960	1335477
15,01372	1126520
15,01785	928092
15,02197	785502
15,02608	661473
15,03022	576335
15,03433	500253
15,03845	433822
15,04257	391094
15,04670	346337
15,05082	316615
15,05493	290611
15,05907	267993
15,06318	246844
15,06730	227845
15,07143	215222
15,07555	204734
15,07967	194994
15,08380	187217
15,08792	172529
15,09203	167930
15,09617	163446
15,10028	159234
15,10440	154269
15,10853	152855
15,11265	145187
15,11677	138188
15,12090	136977
15,12502	130882
15,12913	124702
15,13325	122335
15,13738	119171
15,14150	115340
15,14562	112656
15,14975	108053
15,15387	106922
15,15798	101803
15,16212	100549
15,16623	98291
15,17035	94652
15,17448	94457
15,17860	96059
15,18272	90526
15,18685	89313
15,19097	91609
15,19508	86755
15,19922	88714
15,20333	87279
15,20745	84476
15,21158	83942
15,21570	83245
15,21982	85574
15,22395	95525
15,22807	109378
15,23218	135432
15,23630	187192
15,24043	276806
15,24455	416721
15,24867	608597
15,25280	838945
15,25692	1091421
15,26103	1311620
15,26517	1467914
15,26928	1546036
15,27340	1512352
15,27753	1415827
15,28165	1272298
15,28577	1102190
15,28990	943786
15,29402	797652
15,29813	676005
15,30227	573918
15,30638	487573
15,31050	424498
15,31463	373897
15,31875	333099
15,32287	307729
15,32698	285713
15,33112	287778
15,33523	298541
15,33935	344189
15,34348	407641
15,34760	515314
15,35172	638129
15,35585	779163
15,35997	925566
15,36408	1035784
15,36822	1101702
15,37233	1101813
15,37645	1072933
15,38058	989853
15,38470	883044
15,38882	783129
15,39295	667447
15,39707	579253
15,40118	492358
15,40532	417209
15,40943	364234
15,41355	320734
15,41767	288498
15,42180	252702
15,42592	233081
15,43003	213265
15,43417	195473
15,43828	180040
15,44240	170297
15,44653	159590
15,45065	152576
15,45477	143349
15,45890	136546
15,46302	129655
15,46713	124901
15,47127	122504
15,47538	118059
15,47950	112349
15,48363	108770
15,48775	111136
15,49187	105118
15,49600	101019
15,50012	98320
15,50423	98392
15,50835	92969
15,51248	93154
15,51660	90349
15,52072	89275
15,52485	87511
15,52897	85221
15,53308	89935
15,53722	86773
15,54133	85088
15,54545	85436
15,54958	83207
15,55370	79348
15,55782	82852
15,56195	82553
15,56607	86365
15,57018	93234
15,57432	107817
15,57843	141984
15,58255	196229
15,58668	286586
15,59080	432439
15,59492	646618
15,59903	946529
15,60317	1342700
15,60728	1810763
15,61140	2332808
15,61553	2871432
15,61965	3311266
15,62377	3585578
15,62790	3670852
15,63202	3512093
15,63613	3198828
15,64027	2808387
15,64438	2376141
15,64850	1991564
15,65263	1658363
15,65675	1392031
15,66087	1177739
15,66500	1016106
15,66912	877930
15,67323	777179
15,67737	689596
15,68148	620953
15,68560	557975
15,68972	512079
15,69385	464356
15,69797	430518
15,70208	404367
15,70622	371769
15,71033	345191
15,71445	329584
15,71858	306406
15,72270	294009
15,72682	275456
15,73095	258888
15,73507	250726
15,73918	239350
15,74332	225410
15,74743	213937
15,75155	207112
15,75568	205438
15,75980	194536
15,76392	186237
15,76805	179316
15,77217	171934
15,77628	168309
15,78040	165797
15,78453	153302
15,78865	151098
15,79277	148305
15,79690	145030
15,80102	136954
15,80513	136445
15,80927	134350
15,81338	129769
15,81750	130159
15,82163	128685
15,82575	122415
15,82987	121728
15,83400	118520
15,83812	117365
15,84223	115793
15,84637	112747
15,85048	110526
15,85460	108672
15,85873	107170
15,86285	106776
15,86697	105083
15,87108	102234
15,87522	101206
15,87933	101556
15,88345	100135
15,88758	99678
15,89170	96909
15,89582	98418
15,89995	96481
15,90407	92528
15,90818	94259
15,91232	91550
15,91643	89068
15,92055	89333
15,92468	88452
15,92880	90142
15,93292	91696
15,93705	100443
15,94117	110111
15,94528	137399
15,94942	175986
15,95353	243543
15,95765	343078
15,96177	489903
15,96590	670261
15,97002	891329
15,97413	1123407
15,97827	1341393
15,98238	1519397
15,98650	1611969
15,99063	1600105
15,99475	1551976
15,99887	1439896
16,00300	1293942
16,00712	1142464
16,01123	987293
16,01537	858265
16,01948	739399
16,02360	649656
16,02773	569853
16,03185	513918
16,03597	462060
16,04010	407079
16,04422	375132
16,04833	346494
16,05245	316131
16,05658	297183
16,06070	278271
16,06482	257394
16,06895	245172
16,07307	229549
16,07718	220587
16,08132	211311
16,08543	199501
16,08955	192039
16,09368	181473
16,09780	175309
16,10192	171473
16,10605	166085
16,11017	158372
16,11428	150402
16,11842	147974
16,12253	142908
16,12665	142781
16,13078	134287
16,13490	130323
16,13902	129022
16,14313	124918
16,14727	122547
16,15138	120206
16,15550	115710
16,15963	113806
16,16375	110521
16,16787	110386
16,17200	109470
16,17612	104412
16,18023	100093
16,18437	103266
16,18848	102210
16,19260	97487
16,19673	98888
16,20085	97340
16,20497	95895
16,20910	94668
16,21322	90674
16,21733	91023
16,22147	90785
16,22558	91531
16,22970	90058
16,23382	90505
16,23795	87739
16,24207	85639
16,24618	85050
16,25032	83501
16,25443	85016
16,25855	84037
16,26268	82385
16,26680	82312
16,27092	82474
16,27505	79695
16,27917	80139
16,28328	78242
16,28742	79886
16,29153	76881
16,29565	79482
16,29978	78675
16,30390	75775
16,30802	79372
16,31215	77952
16,31627	79294
16,32038	75295
16,32450	77028
16,32863	77806
16,33275	75875
16,33687	74614
16,34100	74893
16,34512	73807
16,34923	71673
16,35337	73635
16,35748	70782
16,36160	73438
16,36573	70968
16,36985	70669
16,37397	67723
16,37810	66723
16,38222	71409
16,38633	69762
16,39047	67179
16,39458	64080
16,39870	65800
16,40283	65388
16,40695	63096
16,41107	66495
16,41518	68229
16,41932	68122
16,42343	71937
16,42755	75385
16,43168	79280
16,43580	86785
16,43992	94642
16,44405	97370
16,44817	108732
16,45228	114161
16,45642	119557
16,46053	123640
16,46465	122352
16,46878	123029
16,47290	121240
16,47702	109419
16,48115	107669
16,48527	98855
16,48938	100745
16,49352	93587
16,49763	89029
16,50175	84756
16,50587	85344
16,51000	77599
16,51412	76193
16,51823	77100
16,52237	75112
16,52648	74790
16,53060	72883
16,53473	68807
16,53885	74518
16,54297	68291
16,54710	70358
16,55122	71652
16,55533	68586
16,55947	70074
16,56358	72777
16,56770	68087
16,57183	69874
16,57595	69444
16,58007	67863
16,58420	66437
16,58832	67835
16,59243	65961
16,59655	68697
16,60068	64617
16,60480	65098
16,60892	65586
16,61305	64876
16,61717	64655
16,62128	66987
16,62542	64675
16,62953	65933
16,63365	65839
16,63778	66303
16,64190	65037
16,64602	66047
16,65015	66369
16,65427	66344
16,65838	66426
16,66252	66934
16,66663	66581
16,67075	66337
16,67488	65341
16,67900	67586
16,68312	64728
16,68723	62980
16,69137	63931
16,69548	63474
16,69960	65429
16,70373	63361
16,70785	64254
16,71197	63159
16,71610	63979
16,72022	63445
16,72433	60969
16,72847	60502
16,73258	61148
16,73670	63162
16,74083	63716
16,74495	63713
16,74907	61868
16,75320	61272
16,75732	64988
16,76143	64744
16,76557	64205
16,76968	61927
16,77380	63429
16,77793	61917
16,78205	64462
16,78617	61074
16,79028	64346
16,79442	63869
16,79853	62549
16,80265	62193
16,80678	66842
16,81090	63124
16,81502	60818
16,81915	61694
16,82327	59857
16,82738	60147
16,83152	63562
16,83563	58943
16,83975	61235
16,84388	61913
16,84800	60898
16,85212	60698
16,85625	61535
16,86037	62830
16,86448	61740
16,86862	62334
16,87273	63730
16,87685	62528
16,88097	63333
16,88510	63706
16,88922	61621
16,89333	62993
16,89747	60179
16,90158	60958
16,90570	61191
16,90983	59427
16,91395	56924
16,91807	60853
16,92220	57217
16,92632	59109
16,93043	59338
16,93457	56983
16,93868	55310
16,94280	58092
16,94693	58952
16,95105	61844
16,95517	59110
16,95930	56815
16,96342	55066
16,96753	57891
16,97165	56607
16,97578	57489
16,97990	57252
16,98402	57346
16,98815	57059
16,99227	56161
16,99638	56453
17,00052	57458
17,00463	59359
17,00875	58013
17,01288	57446
17,01700	55239
17,02112	58436
17,02525	56818
17,02937	56687
17,03348	58784
17,03762	57766
17,04173	65259
17,04585	70692
17,04998	84797
17,05410	102584
17,05822	131187
17,06233	168638
17,06647	216600
17,07058	287652
17,07470	365009
17,07883	440768
17,08295	520803
17,08707	602506
17,09120	661421
17,09532	684666
17,09943	700063
17,10357	687783
17,10768	659620
17,11180	615022
17,11593	564436
17,12005	511142
17,12417	465323
17,12830	417949
17,13242	372979
17,13653	334342
17,14067	302354
17,14478	269417
17,14890	252264
17,15302	227726
17,15715	213725
17,16127	197025
17,16538	182594
17,16952	165882
17,17363	163267
17,17775	151278
17,18188	141565
17,18600	131555
17,19012	131996
17,19425	126249
17,19837	117621
17,20248	117596
17,20662	111926
17,21073	109163
17,21485	103486
17,21898	101073
17,22310	98544
17,22722	96453
17,23135	92764
17,23547	88747
17,23958	90460
17,24370	86530
17,24783	86554
17,25195	82789
17,25607	83486
17,26020	82251
17,26432	78203
17,26843	79024
17,27257	75226
17,27668	77085
17,28080	74952
17,28493	77470
17,28905	73367
17,29317	75767
17,29730	70635
17,30142	72034
17,30553	70294
17,30967	69840
17,31378	69205
17,31790	67869
17,32203	69217
17,32615	68793
17,33027	70287
17,33438	67911
17,33852	68822
17,34263	66382
17,34675	67301
17,35088	66043
17,35500	65897
17,35912	66117
17,36325	65684
17,36737	65403
17,37148	63394
17,37562	61775
17,37973	62143
17,38385	63605
17,38798	60758
17,39210	59851
17,39622	61947
17,40035	62822
17,40447	61351
17,40858	62308
17,41272	61079
17,41683	59460
17,42095	57610
17,42507	57650
17,42920	57052
17,43332	57274
17,43743	57275
17,44157	59143
17,44568	56554
17,44980	57976
17,45393	57873
17,45805	57728
17,46217	54104
17,46630	57464
17,47042	54887
17,47453	56058
17,47867	57606
17,48278	56797
17,48690	57473
17,49103	56212
17,49515	54397
17,49927	57383
17,50340	53872
17,50752	54724
17,51163	55988
17,51575	54409
17,51988	56735
17,52400	55166
17,52812	54887
17,53225	52334
17,53637	54947
17,54048	54798
17,54462	54707
17,54873	53383
17,55285	56276
17,55698	55102
17,56110	55439
17,56522	52443
17,56935	52698
17,57347	53693
17,57758	54400
17,58172	55632
17,58583	55535
17,58995	54677
17,59408	55650
17,59820	55443
17,60232	55346
17,60643	56472
17,61057	53192
