D:\MassHunter\GCMS\1\data\Amal\Constant flow\110C\110C_1ml-min_10C-min_1.D Tue Jul 30 15:52:25 2024
Start of data points
5,59092	29781
5,59505	28640
5,59917	31573
5,60328	34057
5,60742	41188
5,61153	53618
5,61565	75249
5,61977	104636
5,62390	137679
5,62802	170090
5,63213	191162
5,63627	212726
5,64038	222428
5,64450	226890
5,64863	217917
5,65275	212422
5,65687	203571
5,66100	199550
5,66512	190981
5,66923	178736
5,67337	169732
5,67748	161624
5,68160	153807
5,68573	148340
5,68985	140249
5,69397	130071
5,69810	126788
5,70222	120306
5,70633	115550
5,71045	107949
5,71458	98649
5,71870	92600
5,72282	86697
5,72695	83484
5,73107	75558
5,73518	70189
5,73932	64674
5,74343	62022
5,74755	56084
5,75168	53053
5,75580	51973
5,75992	46421
5,76405	44041
5,76817	42257
5,77228	39080
5,77642	37316
5,78053	36874
5,78465	35468
5,78878	34868
5,79290	33989
5,79702	31233
5,80113	31773
5,80527	28570
5,80938	29096
5,81350	28865
5,81763	27943
5,82175	27878
5,82587	26662
5,83000	25681
5,83412	25442
5,83823	25701
5,84237	25027
5,84648	25196
5,85060	24473
5,85473	24786
5,85885	24675
5,86297	23193
5,86710	24916
5,87122	24476
5,87533	24441
5,87947	23665
5,88358	24552
5,88770	22811
5,89182	24967
5,89595	23062
5,90007	23204
5,90418	22449
5,90832	22467
5,91243	22790
5,91655	22559
5,92068	22574
5,92480	23893
5,92892	23901
5,93305	23175
5,93717	23153
5,94128	22408
5,94542	23976
5,94953	23719
5,95365	21315
5,95778	20801
5,96190	22289
5,96602	22805
5,97015	20843
5,97427	20221
5,97838	22452
5,98250	21642
5,98663	22217
5,99075	20513
5,99487	22290
5,99900	21394
6,00312	21991
6,00723	21739
6,01137	22328
6,01548	21557
6,01960	22488
6,02373	22094
6,02785	22993
6,03197	20828
6,03610	21897
6,04022	22048
6,04433	21384
6,04847	20957
6,05258	21637
6,05670	21680
6,06083	22215
6,06495	22474
6,06907	19963
6,07318	20729
6,07732	21352
6,08143	21929
6,08555	22007
6,08968	21369
6,09380	19933
6,09792	20961
6,10205	19210
6,10617	21187
6,11028	20679
6,11442	21666
6,11853	22703
6,12265	21855
6,12678	22981
6,13090	23210
6,13502	23095
6,13915	24050
6,14327	23124
6,14738	23112
6,15152	23277
6,15563	23731
6,15975	23169
6,16387	20739
6,16800	22556
6,17212	21716
6,17623	20907
6,18037	21732
6,18448	22455
6,18860	19296
6,19273	20554
6,19685	21829
6,20097	21343
6,20510	21325
6,20922	20391
6,21333	20249
6,21747	20974
6,22158	19515
6,22570	19666
6,22983	19366
6,23395	18870
6,23807	20346
6,24220	19492
6,24632	20106
6,25043	18858
6,25455	18591
6,25868	18089
6,26280	17797
6,26692	18535
6,27105	19005
6,27517	17742
6,27928	18922
6,28342	18519
6,28753	17715
6,29165	18344
6,29578	18192
6,29990	19479
6,30402	18556
6,30815	18527
6,31227	20629
6,31638	20684
6,32052	21681
6,32463	21474
6,32875	24015
6,33288	21768
6,33700	21841
6,34112	22541
6,34523	22396
6,34937	23023
6,35348	22368
6,35760	20054
6,36173	21068
6,36585	20284
6,36997	20522
6,37410	19959
6,37822	18066
6,38233	17953
6,38647	18509
6,39058	18210
6,39470	18232
6,39883	16206
6,40295	17074
6,40707	17440
6,41120	17279
6,41532	16270
6,41943	16444
6,42357	16561
6,42768	16390
6,43180	16377
6,43592	16179
6,44005	17751
6,44417	16849
6,44828	17704
6,45242	16391
6,45653	15883
6,46065	15769
6,46478	14993
6,46890	15570
6,47302	17315
6,47715	15760
6,48127	16833
6,48538	15538
6,48952	16003
6,49363	16026
6,49775	15359
6,50188	15435
6,50600	15014
6,51012	14685
6,51425	14512
6,51837	14953
6,52248	15221
6,52660	14621
6,53073	15177
6,53485	15264
6,53897	14890
6,54310	14226
6,54722	14845
6,55133	15109
6,55547	14525
6,55958	14773
6,56370	15236
6,56783	14459
6,57195	13949
6,57607	14632
6,58020	14583
6,58432	14717
6,58843	14578
6,59257	14210
6,59668	14734
6,60080	14273
6,60493	15909
6,60905	15642
6,61317	15334
6,61728	15834
6,62142	15601
6,62553	17179
6,62965	15694
6,63378	16738
6,63790	16523
6,64202	18258
6,64615	22588
6,65027	33183
6,65438	55472
6,65852	98088
6,66263	172135
6,66675	295289
6,67088	448572
6,67500	632679
6,67912	811779
6,68325	968061
6,68737	1090855
6,69148	1158462
6,69562	1171215
6,69973	1150641
6,70385	1086294
6,70797	1024262
6,71210	941893
6,71622	877407
6,72033	792928
6,72447	725205
6,72858	650206
6,73270	582554
6,73683	507831
6,74095	449129
6,74507	390082
6,74920	333925
6,75332	283491
6,75743	239806
6,76157	207805
6,76568	176039
6,76980	147582
6,77393	129191
6,77805	108740
6,78217	92548
6,78630	80380
6,79042	69714
6,79453	62144
6,79865	54150
6,80278	48380
6,80690	42974
6,81102	38174
6,81515	34641
6,81927	32144
6,82338	30015
6,82752	27612
6,83163	26680
6,83575	23451
6,83988	23964
6,84400	22254
6,84812	21881
6,85225	20560
6,85637	19331
6,86048	19972
6,86462	19562
6,86873	17294
6,87285	17275
6,87698	17245
6,88110	17867
6,88522	15911
6,88935	16428
6,89347	15828
6,89758	14849
6,90170	16192
6,90583	14628
6,90995	15305
6,91407	14072
6,91820	14807
6,92232	14808
6,92643	15198
6,93057	13816
6,93468	13831
6,93880	15017
6,94293	13994
6,94705	14404
6,95117	14020
6,95530	13141
6,95942	15548
6,96353	14681
6,96767	14818
6,97178	15422
6,97590	13909
6,98003	14344
6,98415	14875
6,98827	15007
6,99238	13640
6,99652	13389
7,00063	13309
7,00475	12360
7,00888	13262
7,01300	12921
7,01712	14155
7,02125	13071
7,02537	13569
7,02948	13176
7,03362	13348
7,03773	13329
7,04185	13062
7,04598	12230
7,05010	13794
7,05422	14240
7,05835	13137
7,06247	12584
7,06658	12637
7,07072	13855
7,07483	14098
7,07895	13142
7,08307	13670
7,08720	12455
7,09132	12199
7,09543	11162
7,09957	12131
7,10368	12183
7,10780	11717
7,11193	11736
7,11605	11908
7,12017	11708
7,12430	11976
7,12842	12465
7,13253	11608
7,13667	11241
7,14078	11506
7,14490	10265
7,14903	11445
7,15315	11315
7,15727	11868
7,16140	12049
7,16552	11498
7,16963	12218
7,17375	12127
7,17788	11010
7,18200	11629
7,18612	12079
7,19025	11698
7,19437	12977
7,19848	12278
7,20262	12198
7,20673	11502
7,21085	11602
7,21498	12011
7,21910	11955
7,22322	12452
7,22735	11470
7,23147	11646
7,23558	11410
7,23972	11869
7,24383	11054
7,24795	10462
7,25208	11328
7,25620	10793
7,26032	10991
7,26443	10648
7,26857	11092
7,27268	10663
7,27680	11835
7,28093	12573
7,28505	20725
7,28917	33871
7,29330	63217
7,29742	113715
7,30153	194395
7,30567	296363
7,30978	425818
7,31390	560536
7,31803	678040
7,32215	767827
7,32627	815925
7,33040	815658
7,33452	798482
7,33863	745014
7,34277	686778
7,34688	629195
7,35100	556350
7,35512	481122
7,35925	419877
7,36337	352352
7,36748	296778
7,37162	244710
7,37573	198590
7,37985	162356
7,38398	134252
7,38810	108408
7,39222	89105
7,39635	75102
7,40047	62234
7,40458	52406
7,40872	45601
7,41283	37798
7,41695	36202
7,42108	32502
7,42520	26355
7,42932	25070
7,43345	22995
7,43757	21588
7,44168	19645
7,44580	20302
7,44993	17946
7,45405	18153
7,45817	17213
7,46230	16272
7,46642	15276
7,47053	14508
7,47467	12916
7,47878	13966
7,48290	12900
7,48703	13753
7,49115	11481
7,49527	12696
7,49940	11805
7,50352	11972
7,50763	11743
7,51177	11577
7,51588	11638
7,52000	12134
7,52413	11291
7,52825	11446
7,53237	11022
7,53648	11399
7,54062	12911
7,54473	13258
7,54885	15578
7,55298	16341
7,55710	16735
7,56122	17769
7,56535	18300
7,56947	18337
7,57358	17990
7,57772	17348
7,58183	17214
7,58595	15162
7,59008	15250
7,59420	15032
7,59832	14354
7,60245	12991
7,60657	11131
7,61068	11470
7,61482	11598
7,61893	11992
7,62305	10050
7,62717	10441
7,63130	10297
7,63542	9946
7,63953	10330
7,64367	10532
7,64778	9391
7,65190	9884
7,65603	8837
7,66015	8560
7,66427	8576
7,66840	9194
7,67252	8279
7,67663	8785
7,68077	8554
7,68488	9492
7,68900	8301
7,69313	8894
7,69725	8783
7,70137	8580
7,70550	8834
7,70962	8507
7,71373	8633
7,71785	8443
7,72198	7918
7,72610	7828
7,73022	8767
7,73435	9001
7,73847	8995
7,74258	8037
7,74672	8720
7,75083	8300
7,75495	8034
7,75908	8084
7,76320	8295
7,76732	8734
7,77145	7919
7,77557	7472
7,77968	8329
7,78382	8723
7,78793	8915
7,79205	8860
7,79618	8108
7,80030	8119
7,80442	8291
7,80853	7735
7,81267	9468
7,81678	8003
7,82090	8503
7,82503	8195
7,82915	8801
7,83327	9474
7,83740	8806
7,84152	8182
7,84563	8101
7,84977	9189
7,85388	8910
7,85800	9465
7,86213	8899
7,86625	8722
7,87037	8118
7,87450	8327
7,87862	9275
7,88273	8916
7,88687	9046
7,89098	8924
7,89510	8647
7,89922	8776
7,90335	8224
7,90747	8062
7,91158	7812
7,91572	7675
7,91983	7909
7,92395	7843
7,92808	7982
7,93220	8237
7,93632	8110
7,94045	6941
7,94457	6870
7,94868	7759
7,95282	8391
7,95693	10303
7,96105	15726
7,96518	30027
7,96930	61104
7,97342	124141
7,97755	238341
7,98167	430665
7,98578	690132
7,98990	1008217
7,99403	1355993
7,99815	1688688
8,00227	1957574
8,00640	2118843
8,01052	2154768
8,01463	2076749
8,01877	1916496
8,02288	1694063
8,02700	1432690
8,03113	1191336
8,03525	972708
8,03937	755961
8,04350	591244
8,04762	456566
8,05173	347372
8,05587	271068
8,05998	209822
8,06410	160137
8,06823	128913
8,07235	107359
8,07647	88254
8,08058	72169
8,08472	62786
8,08883	54648
8,09295	47589
8,09708	42723
8,10120	37514
8,10532	37484
8,10945	34735
8,11357	33111
8,11768	33025
8,12182	30949
8,12593	26973
8,13005	25671
8,13418	23553
8,13830	21857
8,14242	18646
8,14655	17269
8,15067	16694
8,15478	16360
8,15892	15824
8,16303	16104
8,16715	13806
8,17127	13430
8,17540	14590
8,17952	13546
8,18363	12133
8,18777	12303
8,19188	12272
8,19600	11161
8,20013	11071
8,20425	10661
8,20837	10859
8,21250	10905
8,21662	9650
8,22073	9436
8,22487	10692
8,22898	9381
8,23310	9314
8,23723	9429
8,24135	9070
8,24547	9772
8,24960	9409
8,25372	8228
8,25783	8397
8,26195	7978
8,26608	9485
8,27020	8958
8,27432	8910
8,27845	8606
8,28257	7952
8,28668	8360
8,29082	9156
8,29493	7993
8,29905	8071
8,30318	7861
8,30730	7375
8,31142	8258
8,31555	7483
8,31967	7441
8,32378	8103
8,32792	8485
8,33203	8148
8,33615	8650
8,34028	7957
8,34440	8545
8,34852	7717
8,35263	7872
8,35677	7321
8,36088	7613
8,36500	8750
8,36913	7099
8,37325	7220
8,37737	7597
8,38150	6329
8,38562	7191
8,38973	6564
8,39387	6816
8,39798	7427
8,40210	7571
8,40623	7474
8,41035	6523
8,41447	7185
8,41860	6255
8,42272	6658
8,42683	7118
8,43097	7990
8,43508	7082
8,43920	8127
8,44333	7485
8,44745	7315
8,45157	8620
8,45568	8165
8,45982	7576
8,46393	7662
8,46805	7191
8,47218	8075
8,47630	6804
8,48042	7097
8,48455	8204
8,48867	8052
8,49278	6478
8,49692	7442
8,50103	6742
8,50515	7448
8,50928	6700
8,51340	6709
8,51752	6921
8,52165	6816
8,52577	6618
8,52988	6133
8,53402	6419
8,53813	6509
8,54225	7372
8,54637	7503
8,55050	8924
8,55462	8169
8,55873	11101
8,56287	11476
8,56698	12475
8,57110	13084
8,57523	14635
8,57935	14676
8,58347	14733
8,58760	15381
8,59172	15188
8,59583	13442
8,59997	13939
8,60408	12368
8,60820	12270
8,61233	11009
8,61645	10397
8,62057	9958
8,62470	9139
8,62882	9305
8,63293	8601
8,63705	7615
8,64118	7713
8,64530	7017
8,64942	6898
8,65355	6162
8,65767	7470
8,66178	8553
8,66592	12029
8,67003	22438
8,67415	47877
8,67828	92346
8,68240	180331
8,68652	310672
8,69065	491899
8,69477	704748
8,69888	928143
8,70302	1118429
8,70713	1233206
8,71125	1289207
8,71538	1260207
8,71950	1150674
8,72362	993344
8,72773	820323
8,73187	653200
8,73598	490923
8,74010	369144
8,74423	271245
8,74835	200056
8,75247	147141
8,75660	112648
8,76072	86559
8,76483	69817
8,76897	57334
8,77308	49767
8,77720	41137
8,78133	35194
8,78545	31253
8,78957	28557
8,79370	25449
8,79782	22261
8,80193	20590
8,80607	21253
8,81018	18289
8,81430	17523
8,81842	15830
8,82255	14727
8,82667	13642
8,83078	11855
8,83492	12606
8,83903	11860
8,84315	11393
8,84728	12378
8,85140	10678
8,85552	9894
8,85965	9668
8,86377	9559
8,86788	9508
8,87202	9653
8,87613	7991
8,88025	9059
8,88438	8502
8,88850	7380
8,89262	7446
8,89675	7005
8,90087	8136
8,90498	7918
8,90910	7495
8,91323	6970
8,91735	7446
8,92147	6271
8,92560	6658
8,92972	7424
8,93383	6654
8,93797	6658
8,94208	7062
8,94620	6723
8,95033	7026
8,95445	6254
8,95857	6276
8,96270	6930
8,96682	7334
8,97093	6182
8,97507	6296
8,97918	5850
8,98330	6140
8,98743	6008
8,99155	5553
8,99567	6132
8,99978	5373
9,00392	6671
9,00803	5359
9,01215	5459
9,01628	6668
9,02040	5555
9,02452	5865
9,02865	6365
9,03277	6403
9,03688	6925
9,04102	8160
9,04513	9223
9,04925	10824
9,05338	10536
9,05750	11487
9,06162	12074
9,06575	12424
9,06987	11964
9,07398	9861
9,07812	9720
9,08223	9563
9,08635	8702
9,09047	7921
9,09460	6462
9,09872	6240
9,10283	6944
9,10697	6480
9,11108	6292
9,11520	5356
9,11933	5950
9,12345	5799
9,12757	5800
9,13170	5138
9,13582	5146
9,13993	4791
9,14407	5118
9,14818	6431
9,15230	5345
9,15643	5076
9,16055	5069
9,16467	4637
9,16880	5142
9,17292	4683
9,17703	6095
9,18115	5097
9,18528	4764
9,18940	5479
9,19352	5577
9,19765	5043
9,20177	5116
9,20588	5139
9,21002	5341
9,21413	5062
9,21825	4748
9,22238	5499
9,22650	5194
9,23062	6699
9,23475	6504
9,23887	6646
9,24298	8298
9,24712	9410
9,25123	9743
9,25535	10084
9,25948	10745
9,26360	12508
9,26772	11841
9,27183	12155
9,27597	10710
9,28008	10228
9,28420	9732
9,28833	7689
9,29245	7251
9,29657	5560
9,30070	5953
9,30482	5507
9,30893	5239
9,31307	5371
9,31718	5602
9,32130	4934
9,32543	5130
9,32955	5078
9,33367	5311
9,33780	4698
9,34192	4839
9,34603	5034
9,35017	4851
9,35428	4724
9,35840	4263
9,36252	5226
9,36665	5882
9,37077	8077
9,37488	12874
9,37902	27596
9,38313	63249
9,38725	141154
9,39138	279536
9,39550	507541
9,39962	846538
9,40375	1262226
9,40787	1750108
9,41198	2247819
9,41612	2681114
9,42023	2935450
9,42435	3002524
9,42848	2823093
9,43260	2440157
9,43672	1965481
9,44085	1480660
9,44497	1064204
9,44908	746996
9,45320	527602
9,45733	370156
9,46145	272344
9,46557	205082
9,46970	156304
9,47382	125728
9,47793	100679
9,48207	86260
9,48618	72085
9,49030	62403
9,49443	55829
9,49855	49041
9,50267	42776
9,50680	40152
9,51092	38516
9,51503	35995
9,51917	34863
9,52328	35707
9,52740	34618
9,53153	32935
9,53565	32982
9,53977	29227
9,54388	27151
9,54802	25672
9,55213	22903
9,55625	22146
9,56038	20654
9,56450	21523
9,56862	21574
9,57275	22300
9,57687	20758
9,58098	19366
9,58512	15573
9,58923	14102
9,59335	12642
9,59748	12238
9,60160	9997
9,60572	10501
9,60985	9413
9,61397	9682
9,61808	9214
9,62222	9359
9,62633	8400
9,63045	9030
9,63457	9545
9,63870	8239
9,64282	7795
9,64693	8200
9,65107	7820
9,65518	8312
9,65930	8052
9,66343	8611
9,66755	10565
9,67167	9404
9,67580	11339
9,67992	13960
9,68403	13706
9,68817	13405
9,69228	13498
9,69640	13693
9,70053	13239
9,70465	11003
9,70877	11089
9,71290	10053
9,71702	9551
9,72113	8928
9,72525	7180
9,72938	7043
9,73350	6755
9,73762	6971
9,74175	7508
9,74587	7386
9,74998	7584
9,75412	9004
9,75823	10397
9,76235	10934
9,76648	9335
9,77060	10092
9,77472	9906
9,77885	8569
9,78297	9338
9,78708	9137
9,79122	6998
9,79533	8186
9,79945	6592
9,80358	5976
9,80770	6421
9,81182	5663
9,81593	6022
9,82007	5443
9,82418	4866
9,82830	5704
9,83243	4616
9,83655	6472
9,84067	5318
9,84480	3727
9,84892	5407
9,85303	5228
9,85717	4795
9,86128	4450
9,86540	4766
9,86953	5185
9,87365	4264
9,87777	5309
9,88190	5275
9,88602	5661
9,89013	7772
9,89427	15052
9,89838	33100
9,90250	66282
9,90662	134050
9,91075	249750
9,91487	427027
9,91898	647786
9,92312	899750
9,92723	1164271
9,93135	1337704
9,93548	1444551
9,93960	1421649
9,94372	1275184
9,94785	1083479
9,95197	848333
9,95608	644467
9,96022	464245
9,96433	330065
9,96845	234941
9,97258	174474
9,97670	132350
9,98082	100030
9,98495	78823
9,98907	68181
9,99318	54852
9,99730	47040
10,00143	38863
10,00555	33282
10,00967	28962
10,01380	24710
10,01792	23843
10,02203	21266
10,02617	18109
10,03028	17914
10,03440	15176
10,03853	13951
10,04265	12916
10,04677	12279
10,05090	12048
10,05502	11808
10,05913	11625
10,06327	10090
10,06738	9977
10,07150	11146
10,07563	11974
10,07975	16590
10,08387	30250
10,08800	56649
10,09212	116643
10,09623	222437
10,10035	383215
10,10448	607671
10,10860	878774
10,11272	1160084
10,11685	1408919
10,12097	1551704
10,12508	1588464
10,12922	1460495
10,13333	1246332
10,13745	975613
10,14158	741142
10,14570	517287
10,14982	363085
10,15395	250272
10,15807	182074
10,16218	133704
10,16632	103132
10,17043	81691
10,17455	64554
10,17868	51142
10,18280	44073
10,18692	40263
10,19103	34653
10,19517	30384
10,19928	28082
10,20340	24680
10,20753	21853
10,21165	19999
10,21577	17231
10,21990	16872
10,22402	17134
10,22813	14427
10,23227	14080
10,23638	13265
10,24050	12211
10,24463	11463
10,24875	11175
10,25287	10383
10,25700	9359
10,26112	9864
10,26523	10199
10,26937	7540
10,27348	8872
10,27760	7810
10,28172	6938
10,28585	8230
10,28997	7594
10,29408	6853
10,29822	6436
10,30233	6417
10,30645	6249
10,31058	6270
10,31470	6076
10,31882	6471
10,32295	5842
10,32707	6644
10,33118	6895
10,33532	6339
10,33943	6337
10,34355	4971
10,34768	6304
10,35180	6226
10,35592	5827
10,36005	4732
10,36417	5415
10,36828	5355
10,37240	5406
10,37653	5480
10,38065	5401
10,38477	4896
10,38890	5026
10,39302	4497
10,39713	5149
10,40127	4307
10,40538	4398
10,40950	3948
10,41363	5333
10,41775	4849
10,42187	4996
10,42600	4227
10,43012	5671
10,43423	5623
10,43837	5731
10,44248	5358
10,44660	5465
10,45073	5514
10,45485	5435
10,45897	4674
10,46308	4959
10,46722	5190
10,47133	5400
10,47545	5175
10,47958	5313
10,48370	5064
10,48782	4690
10,49195	5196
10,49607	5430
10,50018	5062
10,50432	4956
10,50843	4006
10,51255	3697
10,51668	4370
10,52080	4187
10,52492	4585
10,52905	4339
10,53317	4368
10,53728	4328
10,54142	4603
10,54553	4814
10,54965	5549
10,55377	4820
10,55790	4934
10,56202	5154
10,56613	4621
10,57027	5620
10,57438	5039
10,57850	5555
10,58263	5352
10,58675	6037
10,59087	7540
10,59500	16159
10,59912	36005
10,60323	76221
10,60737	156305
10,61148	285894
10,61560	486618
10,61973	756846
10,62385	1037842
10,62797	1289072
10,63210	1482308
10,63622	1551970
10,64033	1481700
10,64445	1310005
10,64858	1069134
10,65270	821676
10,65682	598725
10,66095	415738
10,66507	294039
10,66918	211065
10,67332	150829
10,67743	115288
10,68155	89523
10,68568	73561
10,68980	59620
10,69392	50986
10,69805	41148
10,70217	37293
10,70628	31941
10,71042	27527
10,71453	23717
10,71865	21203
10,72278	19618
10,72690	17194
10,73102	16849
10,73513	17285
10,73927	14887
10,74338	14962
10,74750	13162
10,75163	12924
10,75575	9725
10,75987	12152
10,76400	15596
10,76812	24402
10,77223	45330
10,77637	95479
10,78048	194033
10,78460	374411
10,78873	657030
10,79285	1058574
10,79697	1611568
10,80110	2278226
10,80522	2997795
10,80933	3730884
10,81347	4402517
10,81758	4805813
10,82170	4846755
10,82582	4420191
10,82995	3629664
10,83407	2717826
10,83818	1896627
10,84232	1263273
10,84643	832744
10,85055	567194
10,85468	405780
10,85880	302718
10,86292	233877
10,86705	187551
10,87117	154913
10,87528	129050
10,87942	110444
10,88353	96793
10,88765	84006
10,89178	74160
10,89590	67028
10,90002	58611
10,90415	52008
10,90827	50248
10,91238	45313
10,91650	38861
10,92063	37769
10,92475	33608
10,92887	33651
10,93300	31139
10,93712	27918
10,94123	29248
10,94537	27393
10,94948	24991
10,95360	23449
10,95773	21761
10,96185	21650
10,96597	19128
10,97010	18136
10,97422	19680
10,97833	20224
10,98247	22557
10,98658	24106
10,99070	22340
10,99483	19833
10,99895	15254
11,00307	13154
11,00718	13098
11,01132	12076
11,01543	11284
11,01955	11150
11,02368	9542
11,02780	10443
11,03192	9498
11,03605	9880
11,04017	8864
11,04428	8162
11,04842	8539
11,05253	8866
11,05665	9197
11,06078	8549
11,06490	8744
11,06902	9398
11,07315	9361
11,07727	9968
11,08138	8925
11,08552	10766
11,08963	9106
11,09375	9528
11,09787	9317
11,10200	8488
11,10612	8611
11,11023	7105
11,11437	5980
11,11848	5918
11,12260	6263
11,12673	6356
11,13085	8052
11,13497	7173
11,13910	7205
11,14322	7588
11,14733	8107
11,15147	8041
11,15558	9656
11,15970	10076
11,16383	8876
11,16795	10471
11,17207	9384
11,17620	8648
11,18032	8989
11,18443	12842
11,18855	20108
11,19268	41967
11,19680	84010
11,20092	173133
11,20505	323470
11,20917	535892
11,21328	812766
11,21742	1111410
11,22153	1375465
11,22565	1548462
11,22978	1588577
11,23390	1492122
11,23802	1275682
11,24215	999307
11,24627	739011
11,25038	528646
11,25452	367184
11,25863	258362
11,26275	184595
11,26688	139757
11,27100	108566
11,27512	83655
11,27923	69106
11,28337	57854
11,28748	51723
11,29160	46786
11,29573	39913
11,29985	37070
11,30397	38362
11,30810	37009
11,31222	34818
11,31633	33122
11,32047	29751
11,32458	27518
11,32870	25007
11,33283	22211
11,33695	20541
11,34107	17457
11,34520	16628
11,34932	15601
11,35343	14530
11,35757	14184
11,36168	15717
11,36580	15912
11,36992	19453
11,37405	20385
11,37817	22142
11,38228	23479
11,38642	24726
11,39053	22455
11,39465	21205
11,39878	19999
11,40290	17072
11,40702	14150
11,41115	13082
11,41527	11266
11,41938	9868
11,42352	9537
11,42763	8345
11,43175	10631
11,43588	13381
11,44000	24164
11,44412	48956
11,44825	104789
11,45237	201219
11,45648	358197
11,46060	570703
11,46473	865063
11,46885	1177707
11,47297	1456546
11,47710	1652263
11,48122	1719419
11,48533	1599297
11,48947	1357347
11,49358	1057119
11,49770	781338
11,50183	542496
11,50595	377657
11,51007	258024
11,51420	183839
11,51832	134510
11,52243	105558
11,52657	84446
11,53068	69070
11,53480	56181
11,53893	46936
11,54305	41783
11,54717	37664
11,55128	33003
11,55542	30007
11,55953	26590
11,56365	24525
11,56778	23159
11,57190	20605
11,57602	19970
11,58015	18829
11,58427	17215
11,58838	16231
11,59252	15091
11,59663	13956
11,60075	13365
11,60488	11766
11,60900	11304
11,61312	10446
11,61725	10899
11,62137	11120
11,62548	9799
11,62962	9134
11,63373	9766
11,63785	9478
11,64198	10108
11,64610	10028
11,65022	9024
11,65433	9848
11,65847	9896
11,66258	10049
11,66670	10343
11,67083	9754
11,67495	10137
11,67907	10069
11,68320	7761
11,68732	9565
11,69143	7341
11,69557	8431
11,69968	8233
11,70380	6186
11,70793	7266
11,71205	7363
11,71617	5885
11,72030	6831
11,72442	7055
11,72853	6246
11,73267	5192
11,73678	6987
11,74090	7073
11,74502	5863
11,74915	5560
11,75327	6263
11,75738	5912
11,76152	5745
11,76563	7566
11,76975	5961
11,77388	6083
11,77800	6580
11,78212	6550
11,78625	6313
11,79037	6984
11,79448	6650
11,79862	6341
11,80273	5894
11,80685	6381
11,81098	6614
11,81510	6545
11,81922	6509
11,82335	6364
11,82747	6812
11,83158	5689
11,83570	7449
11,83983	8334
11,84395	11546
11,84807	24844
11,85220	49981
11,85632	106525
11,86043	204457
11,86457	362721
11,86868	592621
11,87280	879036
11,87693	1202492
11,88105	1482582
11,88517	1644448
11,88930	1664168
11,89342	1548262
11,89753	1304577
11,90167	1018815
11,90578	747420
11,90990	530510
11,91403	368066
11,91815	257140
11,92227	186058
11,92638	140878
11,93052	108495
11,93463	86546
11,93875	68110
11,94288	58660
11,94700	49542
11,95112	44607
11,95525	42240
11,95937	36277
11,96348	31625
11,96762	28584
11,97173	26662
11,97585	24348
11,97998	22567
11,98410	20619
11,98822	19050
11,99235	17259
11,99647	16034
12,00058	16123
12,00472	14736
12,00883	14372
12,01295	13396
12,01707	12291
12,02120	11842
12,02532	10840
12,02943	12352
12,03357	9587
12,03768	12200
12,04180	9763
12,04593	9931
12,05005	10352
12,05417	9996
12,05830	8920
12,06242	8553
12,06653	7801
12,07067	6327
12,07478	8819
12,07890	9712
12,08303	14194
12,08715	22917
12,09127	48978
12,09540	100421
12,09952	195242
12,10363	355289
12,10775	590006
12,11188	890768
12,11600	1283168
12,12012	1733172
12,12425	2240494
12,12837	2729217
12,13248	3124410
12,13662	3359242
12,14073	3310885
12,14485	2957699
12,14898	2416514
12,15310	1789160
12,15722	1275468
12,16135	874484
12,16547	601822
12,16958	427261
12,17372	319139
12,17783	236769
12,18195	189161
12,18608	154102
12,19020	125734
12,19432	106205
12,19843	89665
12,20257	79901
12,20668	68573
12,21080	60922
12,21493	56185
12,21905	49528
12,22317	48328
12,22730	42760
12,23142	39635
12,23553	35611
12,23967	33536
12,24378	33082
12,24790	30992
12,25203	29750
12,25615	27353
12,26027	26976
12,26440	25371
12,26852	23203
12,27263	21396
12,27677	22577
12,28088	21210
12,28500	20252
12,28912	20028
12,29325	17865
12,29737	17731
12,30148	17271
12,30562	16069
12,30973	19237
12,31385	24874
12,31798	41372
12,32210	77020
12,32622	144006
12,33035	244419
12,33447	404646
12,33858	616963
12,34272	866784
12,34683	1137386
12,35095	1388493
12,35508	1578902
12,35920	1630354
12,36332	1558240
12,36745	1372621
12,37157	1124043
12,37568	855215
12,37980	624688
12,38393	442994
12,38805	316802
12,39217	226264
12,39630	166170
12,40042	127494
12,40453	98263
12,40867	83704
12,41278	70445
12,41690	59227
12,42103	53590
12,42515	46103
12,42927	45765
12,43340	57039
12,43752	70140
12,44163	117542
12,44577	214481
12,44988	384418
12,45400	644948
12,45813	1020330
12,46225	1493294
12,46637	2040376
12,47048	2585780
12,47462	3053191
12,47873	3326413
12,48285	3311897
12,48698	2995377
12,49110	2434909
12,49522	1840764
12,49935	1305000
12,50347	885931
12,50758	609703
12,51172	427709
12,51583	316435
12,51995	242867
12,52408	191485
12,52820	155581
12,53232	134308
12,53645	114082
12,54057	96884
12,54468	88867
12,54882	73884
12,55293	66040
12,55705	62939
12,56117	55591
12,56530	51993
12,56942	49739
12,57353	46762
12,57767	45006
12,58178	41041
12,58590	35052
12,59003	36248
12,59415	33686
12,59827	32544
12,60240	31382
12,60652	28059
12,61063	26994
12,61477	26763
12,61888	24837
12,62300	23086
12,62713	22128
12,63125	20483
12,63537	19196
12,63950	19286
12,64362	17400
12,64773	19212
12,65185	16723
12,65598	17158
12,66010	16080
12,66422	14853
12,66835	14012
12,67247	14732
12,67658	16607
12,68072	20466
12,68483	32487
12,68895	63385
12,69308	122970
12,69720	237637
12,70132	423555
12,70545	664847
12,70957	971823
12,71368	1284814
12,71782	1533154
12,72193	1641680
12,72605	1594165
12,73018	1413219
12,73430	1155891
12,73842	874337
12,74253	617354
12,74667	436281
12,75078	314754
12,75490	222792
12,75903	165131
12,76315	127782
12,76727	103965
12,77140	83190
12,77552	72713
12,77963	62825
12,78377	50515
12,78788	46284
12,79200	43415
12,79613	37584
12,80025	34518
12,80437	31347
12,80850	29336
12,81262	26795
12,81673	26141
12,82087	23331
12,82498	22046
12,82910	23527
12,83322	21471
12,83735	20200
12,84147	17948
12,84558	17074
12,84972	18686
12,85383	18890
12,85795	16592
12,86208	19699
12,86620	20416
12,87032	20436
12,87445	21294
12,87857	19989
12,88268	19856
12,88682	19621
12,89093	18922
12,89505	16489
12,89918	18148
12,90330	15604
12,90742	17804
12,91155	15017
12,91567	16828
12,91978	15154
12,92390	14312
12,92803	13658
12,93215	11675
12,93627	12044
12,94040	11827
12,94452	12336
12,94863	14364
12,95277	19912
12,95688	33382
12,96100	70135
12,96513	136047
12,96925	253655
12,97337	438698
12,97750	692377
12,98162	985590
12,98573	1257397
12,98987	1489589
12,99398	1562160
12,99810	1511687
13,00223	1314840
13,00635	1058396
13,01047	791766
13,01458	566425
13,01872	400115
13,02283	280676
13,02695	203371
13,03108	150894
13,03520	117626
13,03932	95824
13,04345	77665
13,04757	64315
13,05168	58739
13,05582	53086
13,05993	47163
13,06405	43388
13,06818	40182
13,07230	37464
13,07642	36700
13,08055	33384
13,08467	30409
13,08878	30340
13,09292	26742
13,09703	25767
13,10115	23524
13,10527	21300
13,10940	20243
13,11352	19534
13,11763	19172
13,12177	17511
13,12588	16454
13,13000	16616
13,13413	16223
13,13825	15313
13,14237	14812
13,14650	14805
13,15062	15220
13,15473	14516
13,15887	14167
13,16298	15552
13,16710	12963
13,17123	13791
13,17535	13838
13,17947	14164
13,18360	12563
13,18772	14528
13,19183	12508
13,19595	13031
13,20008	11365
13,20420	11762
13,20832	12575
13,21245	10240
13,21657	11909
13,22068	11780
13,22482	12346
13,22893	13364
13,23305	13746
13,23718	14764
13,24130	12857
13,24542	12015
13,24955	12215
13,25367	12053
13,25778	12605
13,26192	10954
13,26603	10970
13,27015	10685
13,27428	10260
13,27840	10366
13,28252	10009
13,28665	8850
13,29077	9154
13,29488	9315
13,29900	9244
13,30313	11123
13,30725	15009
13,31137	23641
13,31550	48926
13,31962	99201
13,32373	198635
13,32787	367530
13,33198	642508
13,33610	1045894
13,34023	1591171
13,34435	2268133
13,34847	3056137
13,35260	3814507
13,35672	4450068
13,36083	4792163
13,36497	4851674
13,36908	4447553
13,37320	3683737
13,37733	2799697
13,38145	1989662
13,38557	1366793
13,38968	933218
13,39382	658727
13,39793	484831
13,40205	369296
13,40618	293092
13,41030	240778
13,41442	205453
13,41855	169891
13,42267	148458
13,42678	129069
13,43092	119766
13,43503	105758
13,43915	95409
13,44328	86359
13,44740	79307
13,45152	71963
13,45565	66796
13,45977	62536
13,46388	59863
13,46802	55855
13,47213	50768
13,47625	48985
13,48037	48338
13,48450	44479
13,48862	38492
13,49273	37933
13,49687	38334
13,50098	35397
13,50510	34530
13,50923	32927
13,51335	30988
13,51747	29585
13,52160	28269
13,52572	28694
13,52983	26116
13,53397	25330
13,53808	26908
13,54220	34113
13,54633	42393
13,55045	64491
13,55457	109062
13,55870	192533
13,56282	328509
13,56693	522780
13,57105	773974
13,57518	1036715
13,57930	1258917
13,58342	1394570
13,58755	1371719
13,59167	1269124
13,59578	1064212
13,59992	837526
13,60403	620723
13,60815	448132
13,61228	319782
13,61640	231601
13,62052	172458
13,62465	134156
13,62877	106716
13,63288	92743
13,63702	89658
13,64113	100544
13,64525	133581
13,64938	201519
13,65350	322706
13,65762	513591
13,66173	758275
13,66587	1059220
13,66998	1344729
13,67410	1593329
13,67823	1713841
13,68235	1680859
13,68647	1510739
13,69060	1246391
13,69472	962095
13,69883	703823
13,70297	499653
13,70708	361668
13,71120	263702
13,71533	200135
13,71945	156995
13,72357	131769
13,72770	110258
13,73182	95557
13,73593	83469
13,74007	74150
13,74418	68866
13,74830	57671
13,75242	54440
13,75655	50231
13,76067	48157
13,76478	45561
13,76892	40900
13,77303	39844
13,77715	38279
13,78128	34634
13,78540	34008
13,78952	30554
13,79365	31693
13,79777	29462
13,80188	28648
13,80602	27710
13,81013	27109
13,81425	26309
13,81838	26692
13,82250	26533
13,82662	23949
13,83075	23948
13,83487	23644
13,83898	24306
13,84310	23767
13,84723	22389
13,85135	21236
13,85547	21794
13,85960	21997
13,86372	21404
13,86783	21181
13,87197	19437
13,87608	20173
13,88020	17714
13,88433	19829
13,88845	26257
13,89257	34371
13,89670	59457
13,90082	109316
13,90493	199313
13,90907	350739
13,91318	562380
13,91730	836565
13,92143	1157861
13,92555	1486269
13,92967	1746558
13,93378	1877638
13,93792	1808781
13,94203	1560111
13,94615	1219399
13,95028	908833
13,95440	646572
13,95852	451793
13,96265	323738
13,96677	243397
13,97088	186389
13,97502	150300
13,97913	124148
13,98325	108721
13,98738	92832
13,99150	81924
13,99562	73966
13,99975	66283
14,00387	59965
14,00798	54429
14,01212	51612
14,01623	48981
14,02035	45932
14,02447	43916
14,02860	42581
14,03272	42178
14,03683	40072
14,04097	39710
14,04508	37863
14,04920	38650
14,05333	35824
14,05745	32966
14,06157	30530
14,06570	28815
14,06982	29689
14,07393	28440
14,07807	27595
14,08218	27767
14,08630	28464
14,09043	28036
14,09455	27058
14,09867	25572
14,10280	23859
14,10692	23188
14,11103	25094
14,11515	24026
14,11928	21522
14,12340	22683
14,12752	25274
14,13165	30303
14,13577	48898
14,13988	85004
14,14402	155378
14,14813	276664
14,15225	458961
14,15638	702321
14,16050	972863
14,16462	1243696
14,16875	1446452
14,17287	1535606
14,17698	1489024
14,18112	1315561
14,18523	1066574
14,18935	811931
14,19348	595977
14,19760	425107
14,20172	314874
14,20583	231271
14,20997	174022
14,21408	142316
14,21820	115069
14,22233	96710
14,22645	84597
14,23057	72194
14,23470	67970
14,23882	60020
14,24293	54713
14,24707	50319
14,25118	45874
14,25530	44602
14,25943	43134
14,26355	37451
14,26767	39562
14,27180	35422
14,27592	33214
14,28003	33842
14,28417	31997
14,28828	29178
14,29240	31441
14,29652	28437
14,30065	26239
14,30477	26509
14,30888	26078
14,31302	24957
14,31713	24196
14,32125	22288
14,32538	23330
14,32950	23591
14,33362	21385
14,33775	21074
14,34187	21058
14,34598	20318
14,35012	21404
14,35423	20877
14,35835	19631
14,36248	20074
14,36660	19467
14,37072	17696
14,37485	16722
14,37897	19047
14,38308	18544
14,38720	16979
14,39133	20275
14,39545	19198
14,39957	20394
14,40370	19459
14,40782	19842
14,41193	18762
14,41607	17768
14,42018	18546
14,42430	19357
14,42843	18475
14,43255	17345
14,43667	18472
14,44080	16982
14,44492	18067
14,44903	17831
14,45317	20889
14,45728	23362
14,46140	35730
14,46553	56238
14,46965	94260
14,47377	165247
14,47788	273598
14,48202	436955
14,48613	658769
14,49025	940098
14,49438	1302822
14,49850	1709593
14,50262	2177838
14,50675	2697616
14,51087	3278707
14,51498	3778956
14,51912	4174560
14,52323	4288300
14,52735	4069653
14,53148	3554297
14,53560	2953469
14,53972	2345636
14,54385	1824466
14,54797	1374351
14,55208	1041948
14,55622	784436
14,56033	599229
14,56445	462446
14,56857	375195
14,57270	313149
14,57682	265243
14,58093	225971
14,58507	196983
14,58918	175047
14,59330	157928
14,59743	143984
14,60155	127256
14,60567	118967
14,60980	112839
14,61392	100731
14,61803	94925
14,62217	87107
14,62628	82950
14,63040	77600
14,63453	73617
14,63865	70101
14,64277	66432
14,64690	63446
14,65102	62475
14,65513	58803
14,65925	57071
14,66338	54319
14,66750	52781
14,67162	49550
14,67575	49659
14,67987	46782
14,68398	46126
14,68812	45218
14,69223	44948
14,69635	46854
14,70048	45706
14,70460	48192
14,70872	56402
14,71285	69694
14,71697	97674
14,72108	152144
14,72522	244209
14,72933	382254
14,73345	569923
14,73758	795791
14,74170	1036282
14,74582	1234193
14,74993	1356532
14,75407	1354113
14,75818	1229001
14,76230	1050915
14,76643	849810
14,77055	668445
14,77467	546017
14,77880	485399
14,78292	494572
14,78703	582854
14,79117	757276
14,79528	999896
14,79940	1251086
14,80353	1520285
14,80765	1769943
14,81177	1951126
14,81590	2068199
14,82002	2163799
14,82413	2206343
14,82827	2185223
14,83238	2021431
14,83650	1810659
14,84063	1547375
14,84475	1246386
14,84887	973609
14,85298	740568
14,85712	571520
14,86123	441200
14,86535	355760
14,86948	285000
14,87360	251558
14,87772	212381
14,88185	189272
14,88597	169776
14,89008	152778
14,89422	139883
14,89833	127374
14,90245	118565
14,90658	106099
14,91070	97026
14,91482	91302
14,91895	86697
14,92307	80870
14,92718	77454
14,93132	70339
14,93543	67788
14,93955	64545
14,94367	59630
14,94780	60663
14,95192	57959
14,95603	54336
14,96017	51705
14,96428	49734
14,96840	49860
14,97253	45714
14,97665	44984
14,98077	43644
14,98490	41734
14,98902	38256
14,99313	39567
14,99727	38602
15,00138	38911
15,00550	37287
15,00963	36127
15,01375	34826
15,01787	34598
15,02200	36082
15,02612	36073
15,03023	41295
15,03435	53824
15,03848	78318
15,04260	124900
15,04672	200349
15,05085	319265
15,05497	469998
15,05908	681157
15,06322	903531
15,06733	1161687
15,07145	1398466
15,07558	1589477
15,07970	1661554
15,08382	1606759
15,08795	1421933
15,09207	1176899
15,09618	921724
15,10032	696759
15,10443	528054
15,10855	400902
15,11268	314611
15,11680	252916
15,12092	209099
15,12503	178781
15,12917	153853
15,13328	138521
15,13740	120412
15,14153	113091
15,14565	100702
15,14977	95524
15,15390	87705
15,15802	80555
15,16213	74856
15,16627	71229
15,17038	67268
15,17450	66448
15,17863	63229
15,18275	60617
15,18687	61423
15,19100	58086
15,19512	54380
15,19923	53841
15,20337	51218
15,20748	46497
15,21160	45606
15,21572	44833
15,21985	43614
15,22397	42307
15,22808	38589
15,23222	39496
15,23633	37985
15,24045	37847
15,24458	36776
15,24870	36741
15,25282	35851
15,25695	36123
15,26107	33788
15,26518	34019
15,26932	32642
15,27343	32527
15,27755	34093
15,28168	35261
15,28580	34340
15,28992	37125
15,29405	39645
15,29817	54680
15,30228	75249
15,30640	121450
15,31053	195509
15,31465	302842
15,31877	460272
15,32290	654813
15,32702	875080
15,33113	1096360
15,33527	1265599
15,33938	1364598
15,34350	1349338
15,34763	1247927
15,35175	1093213
15,35587	902967
15,36000	717517
15,36412	550915
15,36823	423941
15,37237	330652
15,37648	261680
15,38060	215990
15,38473	180855
15,38885	154343
15,39297	143275
15,39708	133638
15,40122	145092
15,40533	168264
15,40945	226282
15,41358	313732
15,41770	438980
15,42182	577866
15,42595	753843
15,43007	906272
15,43418	1017917
15,43832	1061097
15,44243	1035429
15,44655	953789
15,45068	827639
15,45480	684205
15,45892	552701
15,46305	437285
15,46717	343589
15,47128	268501
15,47542	221814
15,47953	183325
15,48365	151082
15,48777	131294
15,49190	114491
15,49602	101923
15,50013	93265
15,50427	83932
15,50838	79016
15,51250	71174
15,51663	69668
15,52075	66218
15,52487	61333
15,52900	57178
15,53312	53888
15,53723	51742
15,54137	49738
15,54548	50340
15,54960	44564
15,55373	46297
15,55785	43858
15,56197	43797
15,56610	40522
15,57022	39111
15,57433	39433
15,57845	39610
15,58258	37680
15,58670	36516
15,59082	34827
15,59495	32989
15,59907	35476
15,60318	33914
15,60732	35519
15,61143	32012
15,61555	34870
15,61968	37314
15,62380	45210
15,62792	59410
15,63205	85268
15,63617	128126
15,64028	189721
15,64442	282197
15,64853	408518
15,65265	570254
15,65678	761712
15,66090	994619
15,66502	1256003
15,66913	1550821
15,67327	1857297
15,67738	2160130
15,68150	2471649
15,68563	2711716
15,68975	2836213
15,69387	2742086
15,69800	2458823
15,70212	2037467
15,70623	1622968
15,71037	1236156
15,71448	934144
15,71860	718939
15,72273	565935
15,72685	464457
15,73097	387647
15,73510	327306
15,73922	284280
15,74333	246535
15,74747	222942
15,75158	205041
15,75570	184050
15,75982	170170
15,76395	152492
15,76807	146822
15,77218	133328
15,77632	126134
15,78043	120361
15,78455	110976
15,78868	102352
15,79280	98169
15,79692	93369
15,80105	87651
15,80517	85229
15,80928	81227
15,81342	80381
15,81753	75272
15,82165	70879
15,82578	70785
15,82990	64923
15,83402	68724
15,83815	62740
15,84227	60233
15,84638	59139
15,85050	55215
15,85463	54591
15,85875	53044
15,86287	52112
15,86700	53189
15,87112	51174
15,87523	47910
15,87937	46905
15,88348	46601
15,88760	45968
15,89173	43747
15,89585	45277
15,89997	43509
15,90410	39762
15,90822	41515
15,91233	40314
15,91647	41230
15,92058	40558
15,92470	38098
15,92883	38878
15,93295	38625
15,93707	38650
15,94118	36402
15,94532	36628
15,94943	40915
15,95355	35047
15,95768	35618
15,96180	36074
15,96592	36253
15,97005	37835
15,97417	45472
15,97828	56535
15,98242	77736
15,98653	118893
15,99065	175317
15,99478	254065
15,99890	369211
16,00302	511415
16,00715	674679
16,01127	874005
16,01538	1048495
16,01952	1228808
16,02363	1331445
16,02775	1369537
16,03187	1311542
16,03600	1210681
16,04012	1062328
16,04423	886301
16,04837	723002
16,05248	572810
16,05660	462463
16,06073	371510
16,06485	306441
16,06897	259826
16,07310	215008
16,07722	194960
16,08133	170351
16,08547	152015
16,08958	135599
16,09370	123161
16,09783	114222
16,10195	107891
16,10607	97502
16,11020	95319
16,11432	88216
16,11843	84570
16,12255	79610
16,12668	76568
16,13080	71534
16,13492	70073
16,13905	66719
16,14317	64437
16,14728	60949
16,15142	62825
16,15553	65530
16,15965	67235
16,16378	62771
16,16790	61206
16,17202	60543
16,17615	59085
16,18027	52832
16,18438	50333
16,18852	48940
16,19263	45652
16,19675	46446
16,20088	41961
16,20500	42725
16,20912	42321
16,21323	38870
16,21737	39234
16,22148	39826
16,22560	35769
16,22973	35223
16,23385	35731
16,23797	36080
16,24210	36081
16,24622	34654
16,25033	34864
16,25447	33594
16,25858	33549
16,26270	32295
16,26683	32159
16,27095	31349
16,27507	33337
16,27920	33911
16,28332	32160
16,28743	31313
16,29157	30819
16,29568	29450
16,29980	31010
16,30392	31868
16,30805	29758
16,31217	28411
16,31628	29823
16,32042	27385
16,32453	31332
16,32865	29055
16,33278	29457
16,33690	32552
16,34102	31264
16,34515	32249
16,34927	30917
16,35338	33834
16,35752	33870
16,36163	32202
16,36575	32132
16,36988	29865
16,37400	28267
16,37812	27670
16,38225	27934
16,38637	27897
16,39048	23491
16,39462	25190
16,39873	24823
16,40285	24887
16,40697	24215
16,41110	25928
16,41522	24212
16,41933	25067
16,42347	22856
16,42758	24065
16,43170	21174
16,43583	23783
16,43995	22014
16,44407	24233
16,44820	23176
16,45232	22297
16,45643	25364
16,46057	22740
16,46468	23019
16,46880	21404
16,47293	23409
16,47705	24987
16,48117	23362
16,48530	25275
16,48942	24038
16,49353	26071
16,49765	26249
16,50178	25745
16,50590	25665
16,51002	25472
16,51415	26516
16,51827	24787
16,52238	23894
16,52652	24671
16,53063	23621
16,53475	22285
16,53888	24378
16,54300	23021
16,54712	22966
16,55125	24318
16,55537	23443
16,55948	23338
16,56362	21821
16,56773	24736
16,57185	24006
16,57598	26331
16,58010	24896
16,58422	23534
16,58833	22635
16,59247	21996
16,59658	24530
16,60070	22006
16,60483	22601
16,60895	23317
16,61307	22922
16,61720	24876
16,62132	22407
16,62543	22721
16,62957	20280
16,63368	21757
16,63780	21287
16,64193	22571
16,64605	21073
16,65017	21999
16,65430	23382
16,65842	21437
16,66253	22910
16,66667	23959
16,67078	22626
16,67490	23353
16,67902	22058
16,68315	22443
16,68727	24018
16,69138	22691
16,69552	21990
16,69963	23199
16,70375	20379
16,70788	23455
16,71200	21512
16,71612	23104
16,72025	22179
16,72437	22203
16,72848	21116
16,73262	20678
16,73673	19320
16,74085	19673
16,74498	18952
16,74910	20301
16,75322	20678
16,75735	20911
16,76147	20714
16,76558	19775
16,76970	20430
16,77383	20650
16,77795	22983
16,78207	20991
16,78620	22273
16,79032	22966
16,79443	22842
16,79857	22280
16,80268	23379
16,80680	23664
16,81093	21871
16,81505	21690
16,81917	21097
16,82330	19320
16,82742	20944
16,83153	18503
16,83567	21348
16,83978	21254
16,84390	20108
16,84803	19307
16,85215	19402
16,85627	20046
16,86038	19971
16,86452	19861
16,86863	22027
16,87275	19357
16,87688	20325
16,88100	18905
16,88512	20248
16,88925	19436
16,89337	18820
16,89748	20689
16,90162	20372
16,90573	19934
16,90985	20540
16,91398	20480
16,91810	19612
16,92222	19746
16,92635	19349
16,93047	20979
16,93458	20635
16,93872	20944
16,94283	19496
16,94695	20749
16,95107	19634
16,95520	19758
16,95932	21210
16,96343	21106
16,96757	19881
16,97168	19160
16,97580	19491
16,97993	19435
16,98405	21340
16,98817	18994
16,99230	19527
16,99642	19341
17,00053	20926
17,00467	18952
17,00878	19625
17,01290	20792
17,01703	20091
17,02115	20151
17,02527	19627
17,02940	21379
17,03352	19318
17,03763	19785
17,04175	25492
17,04588	25549
17,05000	36458
17,05412	46894
17,05825	70591
17,06237	103860
17,06648	149770
17,07062	218594
17,07473	304521
17,07885	394010
17,08298	504945
17,08710	592501
17,09122	688592
17,09535	729920
17,09947	754320
17,10358	741240
17,10772	690091
17,11183	628591
17,11595	552456
17,12008	474789
17,12420	404300
17,12832	335876
17,13243	281165
17,13657	234421
17,14068	201875
17,14480	170232
17,14893	147041
17,15305	130813
17,15717	113751
17,16130	103693
17,16542	93209
17,16953	87417
17,17367	77507
17,17778	71513
17,18190	66742
17,18603	65434
17,19015	59428
17,19427	58134
17,19840	54939
17,20252	50443
17,20663	50489
17,21077	46541
17,21488	47788
17,21900	46101
17,22312	43117
17,22725	40908
17,23137	39139
17,23548	39368
17,23962	38370
17,24373	38708
17,24785	37066
17,25198	36788
17,25610	35903
17,26022	34857
17,26435	33643
17,26847	34468
17,27258	32500
17,27672	31446
17,28083	32412
17,28495	32136
17,28908	30310
17,29320	30849
17,29732	30400
17,30145	30350
17,30557	29489
17,30968	29280
17,31380	28778
17,31793	27431
17,32205	28003
17,32617	28831
17,33030	28822
17,33442	27174
17,33853	27180
17,34267	24208
17,34678	29362
17,35090	25942
17,35503	24641
17,35915	23438
17,36327	26053
17,36740	24633
17,37152	25176
17,37563	25503
17,37977	27279
17,38388	24227
17,38800	23438
17,39213	24151
17,39625	22613
17,40037	22884
17,40448	22512
17,40862	23736
17,41273	23052
17,41685	22067
17,42098	23173
17,42510	22662
17,42922	22514
17,43335	22288
17,43747	22789
17,44158	19940
17,44572	20709
17,44983	22457
17,45395	21680
17,45808	20671
17,46220	21362
17,46632	21716
17,47045	21831
17,47457	22550
17,47868	19861
17,48282	20635
17,48693	21204
17,49105	19447
17,49517	21759
17,49930	20456
17,50342	20129
17,50753	20903
17,51167	21398
17,51578	19006
17,51990	20862
17,52403	21341
17,52815	19872
17,53227	22473
17,53640	20287
17,54052	21038
17,54463	20317
17,54877	21942
17,55288	20652
17,55700	20173
17,56113	19266
17,56525	22075
17,56937	19551
17,57350	19469
17,57762	19730
17,58173	21485
17,58585	19604
17,58998	19215
17,59410	19499
17,59822	19643
17,60235	20891
17,60647	22704
17,61058	19309
17,61472	19511
17,61883	19800
17,62295	19026
17,62708	20858
17,63120	21951
17,63532	22077
17,63945	20631
17,64357	20560
17,64768	20581
17,65182	19841
17,65593	20588
17,66005	20807
17,66418	19030
17,66830	19235
17,67242	20968
17,67653	20288
17,68067	20301
17,68478	19371
17,68890	20776
17,69303	19664
17,69715	18527
17,70127	19761
17,70540	20073
17,70952	20216
17,71363	20146
17,71777	22055
17,72188	19359
17,72600	21011
17,73013	21626
17,73425	21940
17,73837	20667
17,74250	19739
17,74662	22160
17,75073	22642
17,75487	19949
17,75898	20851
17,76310	21755
