D:\MassHunter\GCMS\1\data\Amal\Constant flow\110C\110C_1ml-min_7C-min_2.D Tue Sep 03 20:17:38 2024
Start of data points
5,34110	151974
5,34522	145266
5,34935	144370
5,35347	138457
5,35758	136196
5,36172	135434
5,36583	134227
5,36995	132084
5,37407	127936
5,37820	126311
5,38232	124096
5,38643	121213
5,39057	118599
5,39468	119201
5,39880	116859
5,40293	115738
5,40705	115006
5,41117	114181
5,41530	111053
5,41942	112336
5,42353	107711
5,42767	112582
5,43178	108481
5,43590	105509
5,44003	104331
5,44415	103281
5,44827	105945
5,45240	102178
5,45652	101284
5,46063	97625
5,46475	98990
5,46888	98099
5,47300	97161
5,47712	96752
5,48125	98279
5,48537	95075
5,48948	94929
5,49362	94624
5,49773	95011
5,50185	92500
5,50598	91235
5,51010	89039
5,51422	91647
5,51835	93014
5,52247	89448
5,52658	88874
5,53072	89563
5,53483	90946
5,53895	89461
5,54308	88045
5,54720	84579
5,55132	86642
5,55543	82769
5,55957	84411
5,56368	88080
5,56780	87394
5,57193	85088
5,57605	84972
5,58017	85278
5,58430	83822
5,58842	83675
5,59253	83532
5,59667	80190
5,60078	81812
5,60490	80722
5,60903	80212
5,61315	79616
5,61727	79909
5,62140	79051
5,62552	80197
5,62963	79202
5,63377	78225
5,63788	78151
5,64200	80276
5,64612	77497
5,65025	76751
5,65437	78749
5,65848	78121
5,66262	78118
5,66673	77170
5,67085	76694
5,67498	74896
5,67910	75270
5,68322	76052
5,68735	77232
5,69147	74511
5,69558	79471
5,69972	78700
5,70383	80137
5,70795	81069
5,71208	82163
5,71620	80897
5,72032	80979
5,72445	81590
5,72857	81575
5,73268	81915
5,73680	81057
5,74093	82122
5,74505	81590
5,74917	82282
5,75330	80569
5,75742	82715
5,76153	83989
5,76567	84922
5,76978	88076
5,77390	84272
5,77803	86527
5,78215	86301
5,78627	86404
5,79040	84735
5,79452	83172
5,79863	80119
5,80277	81590
5,80688	82128
5,81100	82188
5,81513	82493
5,81925	81399
5,82337	82350
5,82748	78786
5,83162	80022
5,83573	79475
5,83985	78426
5,84398	75703
5,84810	78908
5,85222	77784
5,85635	77990
5,86047	78903
5,86458	73010
5,86872	73777
5,87283	73488
5,87695	72389
5,88108	71475
5,88520	68710
5,88932	75047
5,89345	72360
5,89757	70609
5,90168	69588
5,90582	69144
5,90993	69209
5,91405	68525
5,91817	69096
5,92230	75502
5,92642	87300
5,93053	107213
5,93467	149252
5,93878	216717
5,94290	307810
5,94703	428941
5,95115	565985
5,95527	680263
5,95940	781031
5,96352	853076
5,96763	870768
5,97177	882895
5,97588	856741
5,98000	832292
5,98413	795204
5,98825	749932
5,99237	709007
5,99650	664636
6,00062	627192
6,00473	593949
6,00885	552634
6,01298	528255
6,01710	493975
6,02122	464656
6,02535	436394
6,02947	410464
6,03358	388323
6,03772	364227
6,04183	351508
6,04595	327428
6,05008	309871
6,05420	296754
6,05832	275639
6,06245	263967
6,06657	248551
6,07068	232396
6,07482	220593
6,07893	211920
6,08305	201543
6,08718	190797
6,09130	177856
6,09542	170661
6,09953	161197
6,10367	150552
6,10778	145039
6,11190	131392
6,11603	122666
6,12015	117565
6,12427	112396
6,12840	103251
6,13252	99974
6,13663	95102
6,14077	91032
6,14488	87210
6,14900	83034
6,15313	80002
6,15725	77856
6,16137	74580
6,16550	73051
6,16962	71801
6,17373	66947
6,17787	67581
6,18198	66245
6,18610	62734
6,19022	61774
6,19435	61740
6,19847	60017
6,20258	60678
6,20672	58759
6,21083	58404
6,21495	57709
6,21908	57383
6,22320	55225
6,22732	52891
6,23145	55537
6,23557	55026
6,23968	52576
6,24382	53843
6,24793	52868
6,25205	52464
6,25618	51010
6,26030	51322
6,26442	49882
6,26855	50597
6,27267	50462
6,27678	51561
6,28090	50146
6,28503	48944
6,28915	51237
6,29327	47926
6,29740	49713
6,30152	48610
6,30563	49316
6,30977	47700
6,31388	49443
6,31800	47801
6,32213	48027
6,32625	47663
6,33037	46962
6,33450	45583
6,33862	46066
6,34273	46520
6,34687	45799
6,35098	46766
6,35510	42597
6,35923	44419
6,36335	47462
6,36747	46142
6,37158	44729
6,37572	43580
6,37983	44057
6,38395	47725
6,38808	44891
6,39220	44653
6,39632	43320
6,40045	42617
6,40457	44339
6,40868	41928
6,41282	42893
6,41693	41924
6,42105	41843
6,42518	43942
6,42930	41951
6,43342	44118
6,43755	43768
6,44167	42825
6,44578	43151
6,44992	42621
6,45403	42304
6,45815	41206
6,46227	41985
6,46640	41567
6,47052	41520
6,47463	42978
6,47877	40885
6,48288	39825
6,48700	41847
6,49113	40758
6,49525	39188
6,49937	41420
6,50350	39123
6,50762	39586
6,51173	40247
6,51587	39144
6,51998	39152
6,52410	39445
6,52823	39253
6,53235	40116
6,53647	41064
6,54060	40904
6,54472	38202
6,54883	39062
6,55297	37843
6,55708	38589
6,56120	39400
6,56532	38895
6,56945	36955
6,57357	38515
6,57768	38141
6,58182	38708
6,58593	39834
6,59005	38527
6,59418	38159
6,59830	37903
6,60242	38641
6,60655	37880
6,61067	38958
6,61478	37454
6,61892	37339
6,62303	37296
6,62715	37860
6,63128	37892
6,63540	39444
6,63952	39752
6,64365	37085
6,64777	37212
6,65188	36836
6,65600	36985
6,66013	37089
6,66425	38315
6,66837	36619
6,67250	36035
6,67662	36996
6,68073	38985
6,68487	37489
6,68898	36589
6,69310	36603
6,69723	34309
6,70135	36012
6,70547	36613
6,70960	36088
6,71372	34893
6,71783	37196
6,72197	37268
6,72608	35050
6,73020	35998
6,73433	34782
6,73845	34329
6,74257	34084
6,74668	33562
6,75082	34187
6,75493	35516
6,75905	32411
6,76318	33121
6,76730	33038
6,77142	34201
6,77555	33897
6,77967	33522
6,78378	35563
6,78792	34038
6,79203	33408
6,79615	36951
6,80028	33821
6,80440	35973
6,80852	36432
6,81265	35838
6,81677	35564
6,82088	37883
6,82502	36281
6,82913	35386
6,83325	36278
6,83737	36119
6,84150	36083
6,84562	36565
6,84973	34674
6,85387	34399
6,85798	36605
6,86210	34900
6,86623	35235
6,87035	33727
6,87447	32515
6,87860	33572
6,88272	30818
6,88683	34066
6,89097	33206
6,89508	31507
6,89920	32202
6,90333	35271
6,90745	32298
6,91157	32845
6,91570	31529
6,91982	33526
6,92393	32021
6,92805	31233
6,93218	31593
6,93630	30674
6,94042	31547
6,94455	30294
6,94867	30531
6,95278	30896
6,95692	30700
6,96103	30391
6,96515	30933
6,96928	30270
6,97340	31817
6,97752	30039
6,98165	29890
6,98577	30969
6,98988	29504
6,99402	31865
6,99813	31295
7,00225	31091
7,00638	30397
7,01050	29213
7,01462	29805
7,01873	29866
7,02287	29378
7,02698	29695
7,03110	29824
7,03523	28922
7,03935	28904
7,04347	30631
7,04760	31282
7,05172	30564
7,05583	28729
7,05997	29753
7,06408	30560
7,06820	29054
7,07233	30086
7,07645	28994
7,08057	29479
7,08470	30304
7,08882	29414
7,09293	27598
7,09707	29353
7,10118	28837
7,10530	29085
7,10942	28832
7,11355	30067
7,11767	27287
7,12178	28129
7,12592	29426
7,13003	28053
7,13415	29058
7,13828	29986
7,14240	28079
7,14652	27788
7,15065	28817
7,15477	28302
7,15888	27795
7,16302	27633
7,16713	28414
7,17125	27971
7,17538	26406
7,17950	26648
7,18362	28280
7,18775	30041
7,19187	27371
7,19598	28304
7,20010	28771
7,20423	27120
7,20835	29615
7,21247	28783
7,21660	27311
7,22072	27424
7,22483	29013
7,22897	29241
7,23308	27020
7,23720	27352
7,24133	27939
7,24545	27629
7,24957	25910
7,25370	27274
7,25782	29094
7,26193	27185
7,26607	27111
7,27018	26481
7,27430	26589
7,27843	28546
7,28255	26824
7,28667	27049
7,29078	29063
7,29492	28685
7,29903	32320
7,30315	39279
7,30728	61159
7,31140	92830
7,31552	151026
7,31965	228842
7,32377	343788
7,32788	489092
7,33202	662231
7,33613	823013
7,34025	973864
7,34438	1091086
7,34850	1165761
7,35262	1198792
7,35675	1214664
7,36087	1181128
7,36498	1132132
7,36912	1064181
7,37323	995172
7,37735	922031
7,38147	847878
7,38560	781202
7,38972	708759
7,39383	651333
7,39797	587889
7,40208	541845
7,40620	483598
7,41033	439715
7,41445	399420
7,41857	362091
7,42270	334024
7,42682	297452
7,43093	267635
7,43507	244393
7,43918	211676
7,44330	193645
7,44743	173018
7,45155	148948
7,45567	140501
7,45980	124037
7,46392	109611
7,46803	100511
7,47215	90561
7,47628	82772
7,48040	78436
7,48452	69619
7,48865	64082
7,49277	61644
7,49688	57494
7,50102	54531
7,50513	52135
7,50925	49176
7,51338	46571
7,51750	47135
7,52162	43417
7,52575	42623
7,52987	41081
7,53398	40019
7,53812	39712
7,54223	37236
7,54635	36875
7,55048	33365
7,55460	36353
7,55872	33151
7,56283	34251
7,56697	32314
7,57108	32946
7,57520	34771
7,57933	31850
7,58345	30385
7,58757	31768
7,59170	30564
7,59582	29881
7,59993	29407
7,60407	29995
7,60818	30097
7,61230	30704
7,61643	28419
7,62055	27345
7,62467	27619
7,62880	27455
7,63292	28205
7,63703	26678
7,64117	27590
7,64528	25588
7,64940	27347
7,65352	25950
7,65765	25822
7,66177	26505
7,66588	26963
7,67002	26449
7,67413	25490
7,67825	28060
7,68238	24541
7,68650	24759
7,69062	24972
7,69475	24448
7,69887	25156
7,70298	25143
7,70712	23726
7,71123	24992
7,71535	25374
7,71948	24620
7,72360	23942
7,72772	25725
7,73185	24791
7,73597	24898
7,74008	26388
7,74420	26764
7,74833	26406
7,75245	26608
7,75657	26180
7,76070	25548
7,76482	26061
7,76893	25023
7,77307	24741
7,77718	25039
7,78130	25228
7,78543	24799
7,78955	24674
7,79367	24203
7,79780	24104
7,80192	24836
7,80603	23694
7,81017	23617
7,81428	24261
7,81840	23226
7,82253	22867
7,82665	22324
7,83077	22608
7,83488	23338
7,83902	23105
7,84313	22882
7,84725	22309
7,85138	23385
7,85550	22640
7,85962	21891
7,86375	23549
7,86787	22802
7,87198	20846
7,87612	22477
7,88023	22608
7,88435	22412
7,88848	21264
7,89260	23716
7,89672	22328
7,90085	22660
7,90497	23148
7,90908	22744
7,91322	21939
7,91733	22104
7,92145	22224
7,92557	21440
7,92970	23227
7,93382	22284
7,93793	22114
7,94207	22818
7,94618	20481
7,95030	21257
7,95443	22209
7,95855	23286
7,96267	23296
7,96680	22227
7,97092	22942
7,97503	21756
7,97917	23814
7,98328	22572
7,98740	21139
7,99153	22607
7,99565	22792
7,99977	21292
8,00390	22962
8,00802	21679
8,01213	22328
8,01625	21660
8,02038	21962
8,02450	21802
8,02862	21016
8,03275	20064
8,03687	21743
8,04098	20674
8,04512	22836
8,04923	20759
8,05335	21204
8,05748	20544
8,06160	19743
8,06572	22057
8,06985	21818
8,07397	20735
8,07808	19842
8,08222	19653
8,08633	21680
8,09045	20381
8,09458	19926
8,09870	21090
8,10282	18704
8,10693	20066
8,11107	19834
8,11518	22623
8,11930	22811
8,12343	19494
8,12755	20471
8,13167	20628
8,13580	20448
8,13992	19124
8,14403	20756
8,14817	19546
8,15228	21197
8,15640	22568
8,16053	24381
8,16465	29451
8,16877	39510
8,17290	58684
8,17702	84529
8,18113	133277
8,18527	197805
8,18938	275529
8,19350	374252
8,19762	469917
8,20175	568136
8,20587	637748
8,20998	702381
8,21412	716794
8,21823	720829
8,22235	706512
8,22648	670489
8,23060	624770
8,23472	583686
8,23885	531570
8,24297	479519
8,24708	435577
8,25122	387236
8,25533	349721
8,25945	311425
8,26358	271668
8,26770	236009
8,27182	208150
8,27595	184259
8,28007	160485
8,28418	139096
8,28832	123093
8,29243	111467
8,29655	95360
8,30067	86187
8,30480	75092
8,30892	69875
8,31303	62082
8,31717	54953
8,32128	51578
8,32540	48003
8,32953	47057
8,33365	42420
8,33777	38842
8,34190	37323
8,34602	35368
8,35013	33783
8,35427	33316
8,35838	32996
8,36250	33224
8,36663	31423
8,37075	30988
8,37487	26592
8,37900	26731
8,38312	27500
8,38723	28016
8,39135	26471
8,39548	26285
8,39960	24575
8,40372	26063
8,40785	25737
8,41197	24735
8,41608	25638
8,42022	24969
8,42433	25472
8,42845	23587
8,43258	24169
8,43670	25120
8,44082	24540
8,44495	25238
8,44907	22633
8,45318	22046
8,45732	21993
8,46143	22951
8,46555	22643
8,46968	21932
8,47380	22596
8,47792	21780
8,48203	20643
8,48617	22230
8,49028	19924
8,49440	20854
8,49853	20444
8,50265	20374
8,50677	20250
8,51090	19566
8,51502	20856
8,51913	19901
8,52327	20951
8,52738	20526
8,53150	20158
8,53563	21961
8,53975	20277
8,54387	22610
8,54800	19875
8,55212	22206
8,55623	22542
8,56037	21773
8,56448	22490
8,56860	21625
8,57272	20762
8,57685	20057
8,58097	20225
8,58508	19618
8,58922	19732
8,59333	20225
8,59745	18738
8,60158	18580
8,60570	17644
8,60982	19596
8,61395	17491
8,61807	17852
8,62218	18339
8,62632	18617
8,63043	18744
8,63455	15997
8,63868	18580
8,64280	17513
8,64692	17484
8,65105	16675
8,65517	17393
8,65928	18128
8,66340	16424
8,66753	16297
8,67165	18389
8,67577	17159
8,67990	17834
8,68402	18076
8,68813	16650
8,69227	17099
8,69638	17844
8,70050	18276
8,70463	15472
8,70875	16072
8,71287	16082
8,71700	17176
8,72112	16214
8,72523	16906
8,72937	16928
8,73348	16122
8,73760	15657
8,74173	17165
8,74585	17233
8,74997	17252
8,75408	16293
8,75822	16851
8,76233	16386
8,76645	16413
8,77058	15059
8,77470	16555
8,77882	16772
8,78295	15141
8,78707	16770
8,79118	16188
8,79532	15596
8,79943	15940
8,80355	16299
8,80768	17456
8,81180	16334
8,81592	15539
8,82005	16411
8,82417	15174
8,82828	16755
8,83242	16546
8,83653	16421
8,84065	16963
8,84477	15313
8,84890	15429
8,85302	16651
8,85713	16379
8,86127	15182
8,86538	15845
8,86950	15097
8,87363	17045
8,87775	15625
8,88187	16395
8,88600	15347
8,89012	17322
8,89423	15771
8,89837	14374
8,90248	15769
8,90660	16106
8,91073	16346
8,91485	16012
8,91897	16095
8,92310	15477
8,92722	15952
8,93133	15319
8,93545	15902
8,93958	16031
8,94370	15649
8,94782	16765
8,95195	16203
8,95607	14222
8,96018	17429
8,96432	16000
8,96843	16485
8,97255	16833
8,97668	14965
8,98080	15834
8,98492	16095
8,98905	15614
8,99317	16347
8,99728	16829
9,00142	16858
9,00553	14778
9,00965	15611
9,01378	15819
9,01790	15508
9,02202	15441
9,02613	15617
9,03027	14637
9,03438	14503
9,03850	15184
9,04263	15407
9,04675	15078
9,05087	14529
9,05500	15489
9,05912	14564
9,06323	15310
9,06737	15158
9,07148	14902
9,07560	15786
9,07973	15100
9,08385	15244
9,08797	15861
9,09210	17792
9,09622	21558
9,10033	27128
9,10447	44399
9,10858	73477
9,11270	125405
9,11682	202542
9,12095	329953
9,12507	489831
9,12918	693508
9,13332	919154
9,13743	1153750
9,14155	1375700
9,14568	1567486
9,14980	1677794
9,15392	1729928
9,15805	1713372
9,16217	1663132
9,16628	1554737
9,17042	1399606
9,17453	1247546
9,17865	1107694
9,18278	948794
9,18690	815326
9,19102	698810
9,19515	593865
9,19927	499965
9,20338	423060
9,20750	353513
9,21163	298695
9,21575	251312
9,21987	220091
9,22400	186554
9,22812	161030
9,23223	139890
9,23637	123740
9,24048	106034
9,24460	95650
9,24873	85401
9,25285	76531
9,25697	71642
9,26110	63412
9,26522	60317
9,26933	57151
9,27347	50828
9,27758	46673
9,28170	47870
9,28583	44140
9,28995	43509
9,29407	40076
9,29818	39287
9,30232	36036
9,30643	36894
9,31055	34365
9,31468	32727
9,31880	30851
9,32292	32002
9,32705	29735
9,33117	29335
9,33528	28269
9,33942	26560
9,34353	25970
9,34765	24857
9,35178	26713
9,35590	25505
9,36002	24169
9,36415	24007
9,36827	23261
9,37238	22821
9,37652	23168
9,38063	22540
9,38475	21459
9,38887	21008
9,39300	20420
9,39712	19200
9,40123	18897
9,40537	19249
9,40948	18961
9,41360	19786
9,41773	19938
9,42185	18207
9,42597	18040
9,43010	17696
9,43422	19527
9,43833	17841
9,44247	18406
9,44658	17723
9,45070	16157
9,45483	16597
9,45895	17392
9,46307	16089
9,46720	16432
9,47132	16141
9,47543	16655
9,47955	15993
9,48368	16232
9,48780	15836
9,49192	16398
9,49605	15749
9,50017	15581
9,50428	15995
9,50842	16209
9,51253	14936
9,51665	16256
9,52078	14980
9,52490	16298
9,52902	15705
9,53315	15219
9,53727	16542
9,54138	15808
9,54552	17186
9,54963	16091
9,55375	15314
9,55788	13986
9,56200	14665
9,56612	16583
9,57023	15772
9,57437	14928
9,57848	16516
9,58260	14074
9,58673	14737
9,59085	14578
9,59497	14434
9,59910	15636
9,60322	13765
9,60733	14885
9,61147	14299
9,61558	14594
9,61970	14647
9,62383	14356
9,62795	13454
9,63207	13426
9,63620	14023
9,64032	14472
9,64443	15083
9,64857	13558
9,65268	13039
9,65680	13279
9,66092	14583
9,66505	14303
9,66917	13006
9,67328	14842
9,67742	14136
9,68153	14453
9,68565	12759
9,68978	13682
9,69390	12059
9,69802	14169
9,70215	14780
9,70627	15818
9,71038	13851
9,71452	15330
9,71863	13696
9,72275	14581
9,72688	13873
9,73100	12668
9,73512	13124
9,73925	13905
9,74337	14256
9,74748	13416
9,75160	13808
9,75573	13267
9,75985	13640
9,76397	13785
9,76810	12581
9,77222	13363
9,77633	13842
9,78047	14825
9,78458	14869
9,78870	14415
9,79283	15407
9,79695	16198
9,80107	17632
9,80520	17750
9,80932	18237
9,81343	18495
9,81757	17963
9,82168	18506
9,82580	17698
9,82993	17672
9,83405	17168
9,83817	17984
9,84228	18063
9,84642	16561
9,85053	16468
9,85465	15940
9,85878	13913
9,86290	15113
9,86702	14801
9,87115	14475
9,87527	14272
9,87938	15940
9,88352	14062
9,88763	14093
9,89175	14194
9,89588	14559
9,90000	13828
9,90412	11743
9,90825	13745
9,91237	12951
9,91648	12695
9,92062	13774
9,92473	13411
9,92885	12190
9,93297	12900
9,93710	12828
9,94122	12427
9,94533	12448
9,94947	12535
9,95358	13081
9,95770	12123
9,96183	12425
9,96595	11874
9,97007	11611
9,97420	11720
9,97832	11864
9,98243	11658
9,98657	11371
9,99068	11770
9,99480	11976
9,99893	11055
10,00305	12390
10,00717	12020
10,01130	12066
10,01542	12385
10,01953	12103
10,02367	11649
10,02778	11291
10,03190	11273
10,03602	10705
10,04015	12017
10,04427	12011
10,04838	12111
10,05252	12230
10,05663	11486
10,06075	12169
10,06488	12535
10,06900	12864
10,07312	11986
10,07725	14165
10,08137	17071
10,08548	23879
10,08962	37454
10,09373	61544
10,09785	100278
10,10198	165009
10,10610	251899
10,11022	365690
10,11435	501158
10,11847	636886
10,12258	781026
10,12670	890300
10,13083	964988
10,13495	1012918
10,13907	1007240
10,14320	955799
10,14732	888735
10,15143	792312
10,15557	693432
10,15968	592481
10,16380	500970
10,16793	413188
10,17205	340969
10,17617	284551
10,18030	234507
10,18442	193919
10,18853	162782
10,19267	132527
10,19678	118599
10,20090	100187
10,20503	86417
10,20915	75752
10,21327	67371
10,21738	59368
10,22152	54569
10,22563	49509
10,22975	46414
10,23388	42775
10,23800	38883
10,24212	36947
10,24625	32728
10,25037	32249
10,25448	31309
10,25862	28572
10,26273	29102
10,26685	27615
10,27098	25534
10,27510	24100
10,27922	23251
10,28335	21796
10,28747	22444
10,29158	20812
10,29572	20582
10,29983	18519
10,30395	19022
10,30807	17680
10,31220	18436
10,31632	18221
10,32043	18238
10,32457	18548
10,32868	16724
10,33280	17006
10,33693	16505
10,34105	16899
10,34517	16291
10,34930	15120
10,35342	16558
10,35753	15402
10,36167	15558
10,36578	15516
10,36990	14933
10,37403	13961
10,37815	14817
10,38227	14415
10,38640	14656
10,39052	14181
10,39463	14206
10,39875	14181
10,40288	13236
10,40700	13756
10,41112	13594
10,41525	13206
10,41937	12905
10,42348	13914
10,42762	12551
10,43173	11957
10,43585	13396
10,43998	13177
10,44410	13097
10,44822	11725
10,45235	12973
10,45647	13397
10,46058	12169
10,46472	12225
10,46883	10692
10,47295	13308
10,47708	12810
10,48120	11959
10,48532	11401
10,48943	11384
10,49357	11467
10,49768	11908
10,50180	10909
10,50593	12797
10,51005	11193
10,51417	11852
10,51830	11534
10,52242	11835
10,52653	12731
10,53067	10927
10,53478	12138
10,53890	12504
10,54303	12055
10,54715	11654
10,55127	10877
10,55540	11082
10,55952	10736
10,56363	11968
10,56777	10350
10,57188	10507
10,57600	11065
10,58012	10270
10,58425	11517
10,58837	10955
10,59248	10138
10,59662	11398
10,60073	12611
10,60485	12250
10,60898	12345
10,61310	13098
10,61722	14419
10,62135	15189
10,62547	13367
10,62958	17094
10,63372	16100
10,63783	15574
10,64195	15922
10,64608	14644
10,65020	15900
10,65432	13967
10,65845	12353
10,66257	14244
10,66668	12551
10,67080	13511
10,67493	12033
10,67905	12548
10,68317	11732
10,68730	11173
10,69142	9910
10,69553	10197
10,69967	12240
10,70378	11295
10,70790	10870
10,71203	10489
10,71615	9751
10,72027	10017
10,72440	10908
10,72852	10470
10,73263	11078
10,73677	9936
10,74088	10755
10,74500	10258
10,74913	11638
10,75325	10235
10,75737	11241
10,76148	9569
10,76562	12185
10,76973	10731
10,77385	11896
10,77798	12792
10,78210	13704
10,78622	13798
10,79035	15718
10,79447	16532
10,79858	17274
10,80272	16379
10,80683	17058
10,81095	15164
10,81508	16799
10,81920	16265
10,82332	15783
10,82745	15683
10,83157	15859
10,83568	13295
10,83982	12548
10,84393	14378
10,84805	12916
10,85217	11646
10,85630	11976
10,86042	12210
10,86453	10172
10,86867	11837
10,87278	12582
10,87690	10526
10,88103	10494
10,88515	10013
10,88927	11739
10,89340	10811
10,89752	9909
10,90163	10871
10,90577	11000
10,90988	11003
10,91400	11265
10,91813	10710
10,92225	11259
10,92637	10640
10,93050	10783
10,93462	10613
10,93873	9314
10,94285	10397
10,94698	10448
10,95110	11598
10,95522	10519
10,95935	10824
10,96347	10351
10,96758	9492
10,97172	10555
10,97583	9135
10,97995	9253
10,98408	9612
10,98820	8594
10,99232	9451
10,99645	9897
11,00057	9674
11,00468	9866
11,00882	9258
11,01293	9447
11,01705	10324
11,02118	9882
11,02530	9722
11,02942	10412
11,03353	9226
11,03767	10654
11,04178	9773
11,04590	9258
11,05003	9998
11,05415	9453
11,05827	9345
11,06240	9240
11,06652	9749
11,07063	11011
11,07477	12856
11,07888	16359
11,08300	26090
11,08713	47038
11,09125	81137
11,09537	149132
11,09950	258212
11,10362	412956
11,10773	627648
11,11187	931106
11,11598	1236540
11,12010	1577308
11,12422	1872749
11,12835	2151054
11,13247	2308107
11,13658	2368721
11,14072	2279613
11,14483	2106745
11,14895	1878608
11,15308	1608368
11,15720	1353337
11,16132	1118158
11,16545	912308
11,16957	728163
11,17368	593847
11,17782	484464
11,18193	392801
11,18605	323065
11,19018	267983
11,19430	227266
11,19842	193736
11,20255	166192
11,20667	147246
11,21078	127219
11,21490	114864
11,21903	104724
11,22315	91413
11,22727	83642
11,23140	77287
11,23552	72062
11,23963	65179
11,24377	61050
11,24788	55094
11,25200	53746
11,25613	48394
11,26025	45990
11,26437	43740
11,26850	41390
11,27262	39848
11,27673	35963
11,28087	35078
11,28498	35104
11,28910	32538
11,29323	30908
11,29735	30373
11,30147	28338
11,30558	27615
11,30972	27869
11,31383	25664
11,31795	24048
11,32208	24736
11,32620	24164
11,33032	24723
11,33445	24458
11,33857	24288
11,34268	23721
11,34682	23317
11,35093	23725
11,35505	23138
11,35918	22535
11,36330	22377
11,36742	22423
11,37155	21983
11,37567	20672
11,37978	20120
11,38392	21034
11,38803	18951
11,39215	18167
11,39627	17915
11,40040	16908
11,40452	15582
11,40863	15804
11,41277	15392
11,41688	14924
11,42100	15000
11,42513	13221
11,42925	13500
11,43337	14587
11,43750	13821
11,44162	13345
11,44573	13407
11,44987	12754
11,45398	13700
11,45810	12921
11,46223	12241
11,46635	12914
11,47047	13171
11,47460	13125
11,47872	13794
11,48283	12954
11,48695	12503
11,49108	11945
11,49520	11680
11,49932	11210
11,50345	10615
11,50757	12336
11,51168	10670
11,51582	12103
11,51993	11625
11,52405	11647
11,52818	10081
11,53230	12418
11,53642	11457
11,54055	12730
11,54467	12306
11,54878	12207
11,55292	11921
11,55703	11667
11,56115	13142
11,56528	11987
11,56940	11662
11,57352	11203
11,57765	10174
11,58177	10546
11,58588	11544
11,59000	11158
11,59413	11704
11,59825	12325
11,60237	11751
11,60650	12187
11,61062	11823
11,61473	13095
11,61887	13113
11,62298	14380
11,62710	14212
11,63123	14960
11,63535	15412
11,63947	14092
11,64360	14606
11,64772	12707
11,65183	12151
11,65597	12692
11,66008	11559
11,66420	11977
11,66833	10380
11,67245	10979
11,67657	9365
11,68068	10300
11,68482	10254
11,68893	10921
11,69305	10738
11,69718	10289
11,70130	11001
11,70542	10664
11,70955	9582
11,71367	9931
11,71778	9748
11,72192	10448
11,72603	10008
11,73015	8894
11,73428	9818
11,73840	10050
11,74252	8755
11,74665	9681
11,75077	9062
11,75488	10209
11,75902	10086
11,76313	9153
11,76725	8994
11,77137	9171
11,77550	9951
11,77962	9241
11,78373	10335
11,78787	10942
11,79198	12850
11,79610	18748
11,80023	28261
11,80435	44160
11,80847	77516
11,81260	127941
11,81672	205577
11,82083	310972
11,82497	441399
11,82908	590000
11,83320	755796
11,83733	894749
11,84145	1006246
11,84557	1081680
11,84970	1082673
11,85382	1041500
11,85793	973749
11,86205	870721
11,86618	748448
11,87030	627595
11,87442	521910
11,87855	422203
11,88267	347996
11,88678	278824
11,89092	225830
11,89503	187530
11,89915	155867
11,90328	133886
11,90740	115330
11,91152	102789
11,91565	90044
11,91977	82699
11,92388	76733
11,92802	71662
11,93213	66520
11,93625	62948
11,94038	58006
11,94450	54826
11,94862	53824
11,95273	50131
11,95687	49078
11,96098	41880
11,96510	39484
11,96923	36229
11,97335	33708
11,97747	31026
11,98160	28359
11,98572	26706
11,98983	25845
11,99397	24179
11,99808	21899
12,00220	23054
12,00633	21157
12,01045	20254
12,01457	18427
12,01870	16632
12,02282	17763
12,02693	17903
12,03107	16188
12,03518	17530
12,03930	15531
12,04342	15301
12,04755	15894
12,05167	16628
12,05578	15053
12,05992	12601
12,06403	13396
12,06815	13688
12,07228	15786
12,07640	18730
12,08052	25403
12,08465	39799
12,08877	62650
12,09288	111317
12,09702	185963
12,10113	294267
12,10525	424761
12,10938	601635
12,11350	800625
12,11762	972914
12,12175	1137739
12,12587	1223659
12,12998	1272899
12,13410	1235675
12,13823	1149388
12,14235	1026031
12,14647	880172
12,15060	735600
12,15472	596336
12,15883	482927
12,16297	393792
12,16708	313905
12,17120	255341
12,17533	207149
12,17945	173112
12,18357	145149
12,18770	125083
12,19182	107547
12,19593	94345
12,20007	79193
12,20418	70804
12,20830	62812
12,21243	56977
12,21655	53193
12,22067	47933
12,22478	43922
12,22892	41561
12,23303	38865
12,23715	35476
12,24128	34380
12,24540	31706
12,24952	30079
12,25365	28361
12,25777	27553
12,26188	27823
12,26602	24174
12,27013	23996
12,27425	23801
12,27838	21915
12,28250	22911
12,28662	17997
12,29075	19420
12,29487	19139
12,29898	18473
12,30312	19612
12,30723	18097
12,31135	17536
12,31547	15560
12,31960	16325
12,32372	15307
12,32783	15668
12,33197	15435
12,33608	14677
12,34020	14134
12,34433	13090
12,34845	13938
12,35257	13709
12,35670	13118
12,36082	12721
12,36493	12156
12,36907	12460
12,37318	11596
12,37730	12411
12,38143	14175
12,38555	12024
12,38967	11240
12,39380	12594
12,39792	11542
12,40203	11848
12,40615	11153
12,41028	11069
12,41440	10950
12,41852	11106
12,42265	10932
12,42677	10727
12,43088	10156
12,43502	10792
12,43913	11025
12,44325	10944
12,44738	10754
12,45150	10244
12,45562	11645
12,45975	10673
12,46387	9884
12,46798	10445
12,47212	10874
12,47623	9676
12,48035	10313
12,48448	9513
12,48860	9810
12,49272	9657
12,49683	10962
12,50097	9931
12,50508	10980
12,50920	10634
12,51333	9268
12,51745	10165
12,52157	10473
12,52570	10682
12,52982	10260
12,53393	9583
12,53807	9506
12,54218	9428
12,54630	10186
12,55043	8926
12,55455	9238
12,55867	8909
12,56280	9350
12,56692	8993
12,57103	9274
12,57517	9873
12,57928	10578
12,58340	10571
12,58752	10932
12,59165	10705
12,59577	9820
12,59988	10125
12,60402	9381
12,60813	9544
12,61225	9963
12,61638	9513
12,62050	9891
12,62462	9936
12,62875	10403
12,63287	8321
12,63698	10115
12,64112	9724
12,64523	8781
12,64935	8948
12,65348	9944
12,65760	8517
12,66172	9462
12,66585	9181
12,66997	9591
12,67408	8406
12,67820	9155
12,68233	8211
12,68645	9903
12,69057	10623
12,69470	9694
12,69882	10218
12,70293	8827
12,70707	8618
12,71118	10520
12,71530	8086
12,71943	9816
12,72355	8893
12,72767	9191
12,73180	8176
12,73592	8715
12,74003	8786
12,74417	8905
12,74828	8393
12,75240	8164
12,75653	9575
12,76065	8340
12,76477	8767
12,76888	8406
12,77302	8515
12,77713	9583
12,78125	11079
12,78538	12088
12,78950	15593
12,79362	26125
12,79775	40505
12,80187	67850
12,80598	117804
12,81012	187515
12,81423	295336
12,81835	436728
12,82248	607101
12,82660	783438
12,83072	958494
12,83485	1103809
12,83897	1182884
12,84308	1199119
12,84722	1152594
12,85133	1069629
12,85545	950359
12,85957	816950
12,86370	677125
12,86782	551917
12,87193	454483
12,87607	362794
12,88018	292433
12,88430	237870
12,88843	200579
12,89255	165123
12,89667	139590
12,90080	119682
12,90492	102913
12,90903	87958
12,91317	78282
12,91728	70622
12,92140	62251
12,92553	57467
12,92965	54368
12,93377	50502
12,93790	44966
12,94202	41895
12,94613	38626
12,95025	36950
12,95438	32665
12,95850	32373
12,96262	30983
12,96675	28402
12,97087	28219
12,97498	24469
12,97912	25051
12,98323	25388
12,98735	22434
12,99148	20897
12,99560	20305
12,99972	20283
13,00385	19127
13,00797	19387
13,01208	17888
13,01622	17511
13,02033	18393
13,02445	17596
13,02858	16219
13,03270	17206
13,03682	14110
13,04093	15525
13,04507	16017
13,04918	18693
13,05330	21292
13,05743	32227
13,06155	57260
13,06567	104785
13,06980	194508
13,07392	350082
13,07803	591583
13,08217	935953
13,08628	1396825
13,09040	1927961
13,09453	2516989
13,09865	3100592
13,10277	3623382
13,10690	4025847
13,11102	4189663
13,11513	4108810
13,11927	3829191
13,12338	3351282
13,12750	2847370
13,13162	2350872
13,13575	1884633
13,13987	1510081
13,14398	1189696
13,14812	942665
13,15223	758989
13,15635	622877
13,16048	515860
13,16460	427347
13,16872	365929
13,17285	307126
13,17697	265131
13,18108	234044
13,18522	205118
13,18933	185064
13,19345	164819
13,19758	150451
13,20170	135656
13,20582	124491
13,20995	113868
13,21407	104474
13,21818	95694
13,22232	88230
13,22643	81863
13,23055	76430
13,23467	71510
13,23880	67998
13,24292	64013
13,24703	59665
13,25117	57266
13,25528	52879
13,25940	49511
13,26353	48352
13,26765	45258
13,27177	43345
13,27590	43416
13,28002	39128
13,28413	37177
13,28827	36129
13,29238	33825
13,29650	31456
13,30063	31590
13,30475	29915
13,30887	29397
13,31300	28269
13,31712	27103
13,32123	27086
13,32535	24688
13,32948	26620
13,33360	24645
13,33772	23739
13,34185	24798
13,34597	24392
13,35008	22371
13,35422	22133
13,35833	20659
13,36245	18065
13,36658	18508
13,37070	19639
13,37482	21425
13,37895	18141
13,38307	17042
13,38718	17641
13,39132	16245
13,39543	16783
13,39955	16765
13,40368	15230
13,40780	15009
13,41192	15854
13,41603	16464
13,42017	14937
13,42428	14887
13,42840	15540
13,43253	15384
13,43665	15533
13,44077	13659
13,44490	14032
13,44902	13864
13,45313	13427
13,45727	14768
13,46138	13641
13,46550	13757
13,46963	14634
13,47375	13785
13,47787	15152
13,48200	15017
13,48612	15164
13,49023	14233
13,49437	15501
13,49848	13883
13,50260	12923
13,50672	13483
13,51085	13284
13,51497	14187
13,51908	12543
13,52322	12371
13,52733	11257
13,53145	12661
13,53558	12019
13,53970	11280
13,54382	11908
13,54795	11720
13,55207	10648
13,55618	12290
13,56032	12074
13,56443	11853
13,56855	13748
13,57268	13313
13,57680	12309
13,58092	13057
13,58505	11247
13,58917	11993
13,59328	13759
13,59740	13570
13,60153	12098
13,60565	14433
13,60977	12094
13,61390	11943
13,61802	13973
13,62213	12333
13,62627	13572
13,63038	16379
13,63450	21652
13,63863	34109
13,64275	53479
13,64687	91763
13,65100	156744
13,65512	249110
13,65923	378292
13,66337	530272
13,66748	724380
13,67160	908053
13,67573	1069896
13,67985	1207883
13,68397	1274494
13,68808	1255729
13,69222	1194235
13,69633	1066917
13,70045	922957
13,70458	778791
13,70870	637469
13,71282	521741
13,71695	413562
13,72107	335562
13,72518	278811
13,72932	228580
13,73343	191067
13,73755	165219
13,74168	141043
13,74580	124696
13,74992	107579
13,75405	97677
13,75817	89272
13,76228	82777
13,76642	75421
13,77053	66844
13,77465	64344
13,77877	57947
13,78290	54021
13,78702	50928
13,79113	48879
13,79527	47041
13,79938	44689
13,80350	44351
13,80763	43217
13,81175	40587
13,81587	38544
13,82000	36056
13,82412	33799
13,82823	31760
13,83237	29769
13,83648	26569
13,84060	25015
13,84473	25081
13,84885	23158
13,85297	23018
13,85710	20906
13,86122	20293
13,86533	21599
13,86945	21658
13,87358	20825
13,87770	19292
13,88182	17127
13,88595	18748
13,89007	16972
13,89418	16724
13,89832	15633
13,90243	16462
13,90655	16601
13,91068	15596
13,91480	15309
13,91892	15691
13,92305	15767
13,92717	13760
13,93128	13718
13,93542	15735
13,93953	12813
13,94365	13402
13,94778	12325
13,95190	13390
13,95602	11847
13,96013	12064
13,96427	13688
13,96838	11326
13,97250	11486
13,97663	13078
13,98075	12872
13,98487	11370
13,98900	12063
13,99312	12018
13,99723	12226
14,00137	11954
14,00548	13801
14,00960	17357
14,01373	26879
14,01785	43236
14,02197	78786
14,02610	137108
14,03022	230673
14,03433	368814
14,03847	542169
14,04258	763864
14,04670	974426
14,05082	1195106
14,05495	1357379
14,05907	1441758
14,06318	1448166
14,06732	1390827
14,07143	1255788
14,07555	1106136
14,07968	934181
14,08380	768152
14,08792	613944
14,09205	492871
14,09617	394955
14,10028	323374
14,10442	258836
14,10853	215147
14,11265	179071
14,11678	153128
14,12090	130144
14,12502	113176
14,12915	97232
14,13327	90735
14,13738	78921
14,14150	72353
14,14563	63282
14,14975	61148
14,15387	55203
14,15800	55057
14,16212	47993
14,16623	45240
14,17037	41932
14,17448	38804
14,17860	36524
14,18273	33138
14,18685	31648
14,19097	31881
14,19510	30353
14,19922	27639
14,20333	26795
14,20747	25647
14,21158	24442
14,21570	24480
14,21983	23439
14,22395	23939
14,22807	21475
14,23218	21058
14,23632	21553
14,24043	20573
14,24455	21455
14,24868	19789
14,25280	18655
14,25692	19647
14,26105	19414
14,26517	17458
14,26928	19136
14,27342	17224
14,27753	16220
14,28165	16835
14,28578	17140
14,28990	14246
14,29402	15472
14,29815	14410
14,30227	15407
14,30638	15254
14,31052	13646
14,31463	12961
14,31875	15140
14,32287	14189
14,32700	12353
14,33112	13786
14,33523	13758
14,33937	12965
14,34348	12696
14,34760	13715
14,35173	12550
14,35585	13562
14,35997	12775
14,36410	12030
14,36822	13765
14,37233	13486
14,37647	12623
14,38058	11919
14,38470	12061
14,38883	12965
14,39295	11337
14,39707	12406
14,40120	11670
14,40532	11886
14,40943	10952
14,41355	11631
14,41768	12206
14,42180	11765
14,42592	10598
14,43005	11580
14,43417	10846
14,43828	12185
14,44242	11263
14,44653	10883
14,45065	11096
14,45478	10633
14,45890	11563
14,46302	10789
14,46715	10853
14,47127	10669
14,47538	10328
14,47952	9835
14,48363	9475
14,48775	9144
14,49188	10488
14,49600	10878
14,50012	10957
14,50423	10362
14,50837	11080
14,51248	12265
14,51660	12139
14,52073	11883
14,52485	13153
14,52897	12141
14,53310	11989
14,53722	11845
14,54133	11553
14,54547	12380
14,54958	12843
14,55370	11657
14,55783	11349
14,56195	12480
14,56607	12615
14,57020	13028
14,57432	17960
14,57843	24482
14,58257	38803
14,58668	68057
14,59080	114295
14,59492	191367
14,59905	310923
14,60317	462549
14,60728	664741
14,61142	874209
14,61553	1084670
14,61965	1256816
14,62378	1366165
14,62790	1406207
14,63202	1356319
14,63615	1232660
14,64027	1099628
14,64438	926587
14,64852	779548
14,65263	648105
14,65675	517451
14,66088	419730
14,66500	334735
14,66912	274708
14,67325	223693
14,67737	186473
14,68148	160935
14,68560	140914
14,68973	119079
14,69385	105724
14,69797	93378
14,70210	83979
14,70622	72770
14,71033	67806
14,71447	63392
14,71858	58360
14,72270	52363
14,72683	48423
14,73095	44768
14,73507	42056
14,73920	41168
14,74332	37486
14,74743	36928
14,75157	35846
14,75568	33986
14,75980	32019
14,76393	29726
14,76805	27964
14,77217	26649
14,77630	25006
14,78042	25004
14,78453	24927
14,78865	25280
14,79278	22403
14,79690	21409
14,80102	20548
14,80515	19063
14,80927	20382
14,81338	19733
14,81752	20166
14,82163	19306
14,82575	18263
14,82988	19071
14,83400	20735
14,83812	21979
14,84225	24050
14,84637	25892
14,85048	26457
14,85462	27115
14,85873	30474
14,86285	30260
14,86698	28968
14,87110	30760
14,87522	27752
14,87933	28282
14,88347	25397
14,88758	25201
14,89170	23622
14,89583	22038
14,89995	19148
14,90407	19360
14,90820	18215
14,91232	16313
14,91643	15759
14,92057	15844
14,92468	15163
14,92880	18437
14,93293	20832
14,93705	30471
14,94117	48257
14,94530	83649
14,94942	153139
14,95353	274803
14,95767	458959
14,96178	730202
14,96590	1086312
14,97002	1509124
14,97415	1965007
14,97827	2440880
14,98238	2845355
14,98652	3129955
14,99063	3242193
14,99475	3165034
14,99888	2934386
15,00300	2588858
15,00712	2170071
15,01125	1807229
15,01537	1442117
15,01948	1154492
15,02362	914723
15,02773	725900
15,03185	592764
15,03598	490095
15,04010	412637
15,04422	351908
15,04835	300391
15,05247	257678
15,05658	228383
15,06070	200043
15,06483	176025
15,06895	159065
15,07307	144820
15,07720	132488
15,08132	120796
15,08543	107396
15,08957	102699
15,09368	90915
15,09780	85542
15,10193	78930
15,10605	75031
15,11017	68076
15,11430	65181
15,11842	63924
15,12253	58789
15,12667	55938
15,13078	52317
15,13490	49580
15,13903	46658
15,14315	45232
15,14727	42853
15,15138	40243
15,15552	39024
15,15963	39009
15,16375	35524
15,16788	35871
15,17200	32084
15,17612	32169
15,18025	28349
15,18437	29407
15,18848	29589
15,19262	26530
15,19673	27629
15,20085	27117
15,20498	24269
15,20910	24948
15,21322	23190
15,21735	23337
15,22147	23973
15,22558	23854
15,22972	22679
15,23383	23211
15,23795	22964
15,24207	22373
15,24620	22566
15,25032	26397
15,25443	34319
15,25857	49093
15,26268	79442
15,26680	131096
15,27093	209873
15,27505	319843
15,27917	494180
15,28330	697079
15,28742	920861
15,29153	1148420
15,29567	1335687
15,29978	1453502
15,30390	1501602
15,30803	1481104
15,31215	1367080
15,31627	1237667
15,32040	1058806
15,32452	886310
15,32863	720767
15,33275	586649
15,33688	481617
15,34100	385634
15,34512	317615
15,34925	263718
15,35337	221654
15,35748	189189
15,36162	160926
15,36573	140661
15,36985	125223
15,37398	111464
15,37810	99353
15,38222	89839
15,38635	83020
15,39047	74660
15,39458	69628
15,39872	63092
15,40283	63213
15,40695	58717
15,41108	63352
15,41520	71776
15,41932	94594
15,42343	138767
15,42757	227169
15,43168	358652
15,43580	574602
15,43993	861946
15,44405	1225115
15,44817	1653594
15,45230	2089091
15,45642	2498035
15,46053	2837528
15,46467	3021849
15,46878	3060991
15,47290	2892429
15,47703	2620480
15,48115	2272720
15,48527	1915184
15,48940	1572393
15,49352	1279300
15,49763	1023930
15,50177	824708
15,50588	673145
15,51000	550418
15,51412	457051
15,51825	387874
15,52237	329049
15,52648	292293
15,53062	248057
15,53473	224879
15,53885	197718
15,54298	176161
15,54710	159666
15,55122	145155
15,55535	132154
15,55947	122823
15,56358	111407
15,56772	105729
15,57183	94465
15,57595	93259
15,58008	85631
15,58420	79412
15,58832	74860
15,59245	70095
15,59657	67790
15,60068	63231
15,60480	60067
15,60893	57571
15,61305	53158
15,61717	53444
15,62130	51012
15,62542	48933
15,62953	46541
15,63367	43448
15,63778	44203
15,64190	39354
15,64603	39369
15,65015	39931
15,65427	38911
15,65840	36011
15,66252	35290
15,66663	31994
15,67077	33217
15,67488	29536
15,67900	29894
15,68313	28264
15,68725	27568
15,69137	26743
15,69548	28165
15,69962	26569
15,70373	25479
15,70785	24672
15,71198	25122
15,71610	23309
15,72022	24379
15,72435	23920
15,72847	21756
15,73258	22648
15,73672	21645
15,74083	20085
15,74495	21094
15,74908	20531
15,75320	20112
15,75732	20441
15,76145	21219
15,76557	20500
15,76968	19598
15,77382	23889
15,77793	28373
15,78205	43009
15,78617	65903
15,79030	110291
15,79442	182053
15,79853	288135
15,80267	436950
15,80678	619050
15,81090	840721
15,81503	1047150
15,81915	1225900
15,82327	1348758
15,82740	1399444
15,83152	1380537
15,83563	1314652
15,83977	1234823
15,84388	1177373
15,84800	1193166
15,85213	1291958
15,85625	1495074
15,86037	1780547
15,86450	2173758
15,86862	2598729
15,87273	2994970
15,87685	3308323
15,88098	3399640
15,88510	3352036
15,88922	3100142
15,89335	2770858
15,89747	2360339
15,90158	1953563
15,90572	1595535
15,90983	1275750
15,91395	1023588
15,91808	839824
15,92220	693065
15,92632	567882
15,93045	484211
15,93457	416860
15,93868	362079
15,94282	312544
15,94693	277310
15,95105	246604
15,95518	218007
15,95930	198216
15,96342	178231
15,96753	165815
15,97167	154099
15,97578	143381
15,97990	130805
15,98403	121322
15,98815	112940
15,99227	105628
15,99640	99077
16,00052	93124
16,00463	89300
16,00877	87312
16,01288	80610
16,01700	77601
16,02113	74471
16,02525	70060
16,02937	67461
16,03350	65625
16,03762	60680
16,04173	57701
16,04587	56638
16,04998	52679
16,05410	50629
16,05822	52493
16,06235	50200
16,06647	46471
16,07058	44980
16,07472	43833
16,07883	44559
16,08295	40485
16,08708	42448
16,09120	39263
16,09532	39905
16,09945	38210
16,10357	35362
16,10768	35920
16,11182	32866
16,11593	34199
16,12005	32688
16,12418	31399
16,12830	32130
16,13242	32850
16,13655	31246
16,14067	33903
16,14478	37731
16,14890	47323
16,15303	64108
16,15715	98591
16,16127	154246
16,16540	241851
16,16952	372271
16,17363	533054
16,17777	725428
16,18188	926783
16,18600	1110999
16,19013	1249276
16,19425	1331899
16,19837	1330530
16,20250	1260581
16,20662	1149933
16,21073	1007677
16,21487	851159
16,21898	701479
16,22310	585464
16,22723	476868
16,23135	386198
16,23547	313356
16,23958	264220
16,24372	222028
16,24783	190959
16,25195	163643
16,25608	143200
16,26020	129371
16,26432	112741
16,26845	107319
16,27257	93454
16,27668	85235
16,28082	79075
16,28493	73751
16,28905	71467
16,29318	62219
16,29730	60279
16,30142	56225
16,30555	54990
16,30967	48989
16,31378	50610
16,31792	45960
16,32203	43937
16,32615	44088
16,33027	44408
16,33440	43601
16,33852	41111
16,34263	39969
16,34677	37773
16,35088	37234
16,35500	34596
16,35913	33116
16,36325	32440
16,36737	32717
16,37150	30426
16,37562	30383
16,37973	28298
16,38387	29784
16,38798	27402
16,39210	25235
16,39623	26064
16,40035	25808
16,40447	25694
16,40860	24048
16,41272	24811
16,41683	25718
16,42097	23182
16,42508	23230
16,42920	21105
16,43332	22044
16,43745	22099
16,44157	22167
16,44568	20375
16,44982	20529
16,45393	19852
16,45805	20383
16,46218	20321
16,46630	19560
16,47042	20530
16,47455	20202
16,47867	20971
16,48278	19223
16,48692	20549
16,49103	19726
16,49515	18343
16,49928	17940
16,50340	18137
16,50752	19248
16,51165	17501
16,51577	17527
16,51988	17479
16,52400	16820
16,52813	16706
16,53225	17431
16,53637	16637
16,54050	17905
16,54462	17732
16,54873	15697
16,55287	16919
16,55698	19000
16,56110	17214
16,56523	17845
16,56935	17657
16,57347	16960
16,57760	16885
16,58172	17967
16,58583	16833
16,58997	16037
16,59408	17296
16,59820	15570
16,60233	17363
16,60645	17110
16,61057	14908
16,61468	16393
16,61882	16240
16,62293	17049
16,62705	16022
16,63118	15367
16,63530	15857
16,63942	14464
16,64355	15787
16,64767	15679
16,65178	17490
16,65592	18850
16,66003	21464
16,66415	31250
16,66828	48181
16,67240	75171
16,67652	122287
16,68065	203578
16,68477	316041
16,68888	472370
16,69302	654589
16,69713	870949
16,70125	1086317
16,70537	1309783
16,70950	1533201
16,71362	1759885
16,71773	1988606
16,72187	2283749
16,72598	2637319
16,73010	3022320
16,73423	3426067
16,73835	3701494
16,74247	3892400
16,74660	3861676
16,75072	3692271
16,75483	3370191
16,75897	2921871
16,76308	2463256
16,76720	2017424
16,77133	1647710
16,77545	1321494
16,77957	1077136
16,78370	889067
16,78782	731777
16,79193	624659
16,79605	538773
16,80018	462556
16,80430	399099
16,80842	353208
16,81255	311661
16,81667	282929
16,82078	253919
16,82492	232389
16,82903	216036
16,83315	194845
16,83728	177330
16,84140	164448
16,84552	151108
16,84965	146467
16,85377	135769
16,85788	128628
16,86202	123351
16,86613	114957
16,87025	109106
16,87438	110967
16,87850	106716
16,88262	104341
16,88673	99555
16,89087	96330
16,89498	92725
16,89910	93251
16,90323	85522
16,90735	82976
16,91147	79207
16,91560	72807
16,91972	68771
16,92383	68697
16,92797	62556
16,93208	60010
16,93620	55571
16,94033	54829
16,94445	53060
16,94857	49895
16,95270	48128
16,95682	46361
16,96093	44110
16,96507	45855
16,96918	43807
16,97330	42384
16,97742	41033
16,98155	44282
16,98567	49957
16,98978	55298
16,99392	77933
16,99803	114809
17,00215	174592
17,00628	261898
17,01040	390571
17,01452	546723
17,01865	719386
17,02277	884646
17,02688	1024004
17,03102	1136293
17,03513	1172017
17,03925	1138733
17,04338	1082814
17,04750	968389
17,05162	838196
17,05575	715313
17,05987	596430
17,06398	484014
17,06810	406067
17,07223	329595
17,07635	276620
17,08047	229485
17,08460	197175
17,08872	173129
17,09283	152067
17,09697	131859
17,10108	119200
17,10520	106540
17,10933	100165
17,11345	89155
17,11757	84223
17,12170	75983
17,12582	71779
17,12993	67301
17,13407	67469
17,13818	66014
17,14230	76074
17,14643	92024
17,15055	115189
17,15467	174029
17,15878	257030
17,16292	391401
17,16703	571977
17,17115	784435
17,17528	1025815
17,17940	1260723
17,18352	1464403
17,18765	1605062
17,19177	1646852
17,19588	1611948
17,20002	1498153
17,20413	1326883
17,20825	1136838
17,21238	950611
17,21650	783928
17,22062	651551
17,22475	530762
17,22887	446759
17,23298	372260
17,23712	314080
17,24123	274575
17,24535	237096
17,24947	206950
17,25360	187147
17,25772	170458
17,26183	152028
17,26597	138309
17,27008	125523
17,27420	117909
17,27833	110548
17,28245	101128
17,28657	93816
17,29070	86662
17,29482	84314
17,29893	78614
17,30307	74709
17,30718	71166
17,31130	66307
17,31543	62962
17,31955	62089
17,32367	59096
17,32780	54834
17,33192	53516
17,33603	50126
17,34015	47484
17,34428	49263
17,34840	44977
17,35252	44261
17,35665	45568
17,36077	40364
17,36488	39505
17,36902	39452
17,37313	35986
17,37725	35549
17,38138	37243
17,38550	38695
17,38962	35690
17,39375	35179
17,39787	34654
17,40198	35249
17,40612	35036
17,41023	32444
17,41435	32521
17,41848	33855
17,42260	33820
17,42672	31432
17,43083	30636
17,43497	30149
17,43908	31903
17,44320	27270
17,44733	29457
17,45145	27932
17,45557	27403
17,45970	29371
17,46382	26214
17,46793	26671
17,47207	26203
17,47618	25491
17,48030	26865
17,48443	25125
17,48855	27091
17,49267	25873
17,49680	26197
17,50092	26667
17,50503	25048
17,50917	26529
17,51328	27819
17,51740	30287
17,52152	36832
17,52565	50762
17,52977	78879
17,53388	130970
17,53802	213575
17,54213	343798
17,54625	534569
17,55038	771228
17,55450	1056911
17,55862	1341705
17,56275	1581412
17,56687	1726535
17,57098	1790955
17,57512	1752685
17,57923	1617549
17,58335	1428308
17,58748	1216072
17,59160	1007214
17,59572	826200
17,59985	693714
17,60397	571528
17,60808	481487
17,61220	408579
17,61633	349292
17,62045	293421
17,62457	262649
17,62870	230208
17,63282	206779
17,63693	180603
17,64107	166656
17,64518	153636
17,64930	136488
17,65343	126151
17,65755	118619
17,66167	111365
17,66580	104923
17,66992	96643
17,67403	93253
17,67817	87251
17,68228	81887
17,68640	79063
17,69053	75576
17,69465	75801
17,69877	68399
17,70288	66694
17,70702	68312
17,71113	63398
17,71525	63319
17,71938	60392
17,72350	56152
17,72762	55743
17,73175	53919
17,73587	52001
17,73998	49493
17,74412	48036
17,74823	44135
17,75235	44908
17,75648	45313
17,76060	42485
17,76472	42439
17,76885	40179
17,77297	39913
17,77708	39789
17,78122	37939
17,78533	37881
17,78945	36214
17,79357	38541
17,79770	35474
17,80182	34281
17,80593	33313
17,81007	34248
17,81418	32901
17,81830	34124
17,82243	33833
17,82655	32341
17,83067	34872
17,83480	39523
17,83892	49418
17,84303	69351
17,84717	103403
17,85128	170236
17,85540	268215
17,85953	402969
17,86365	577584
17,86777	794524
17,87190	1023307
17,87602	1211060
17,88013	1343594
17,88425	1435788
17,88838	1421783
17,89250	1354583
17,89662	1225762
17,90075	1066414
17,90487	919111
17,90898	766412
17,91312	631027
17,91723	522450
17,92135	434508
17,92548	365715
17,92960	310062
17,93372	268830
17,93785	230117
17,94197	205205
17,94608	176929
17,95022	159055
17,95433	142973
17,95845	130451
17,96258	120674
17,96670	109461
17,97082	103506
17,97493	94574
17,97907	87585
17,98318	81938
17,98730	78234
17,99143	74384
17,99555	70282
17,99967	68237
18,00380	62788
18,00792	61557
18,01203	59187
18,01617	58669
18,02028	57634
18,02440	53246
18,02853	52377
18,03265	50259
18,03677	51133
18,04090	46033
18,04502	45641
18,04913	44054
18,05327	44173
18,05738	42871
18,06150	43125
18,06563	39239
18,06975	38418
18,07387	38315
18,07798	36948
18,08212	36932
18,08623	35821
18,09035	36190
18,09448	33758
18,09860	33154
18,10272	34230
18,10685	32252
18,11097	33804
18,11508	32266
18,11922	32220
18,12333	31203
18,12745	31423
18,13158	30931
18,13570	29506
18,13982	29633
18,14395	30146
18,14807	30756
18,15218	28128
18,15632	27776
18,16043	29689
18,16455	27661
18,16867	28921
18,17280	29882
18,17692	27668
18,18103	27811
18,18517	26341
18,18928	28690
18,19340	28157
18,19753	28208
18,20165	29354
18,20577	28345
18,20990	27820
18,21402	28085
18,21813	27772
18,22227	27482
18,22638	28482
18,23050	29300
18,23463	28137
18,23875	28518
18,24287	26694
18,24700	27206
18,25112	27405
18,25523	26798
18,25935	26578
18,26348	25634
18,26760	24058
18,27172	26812
18,27585	26366
18,27997	25053
18,28408	26362
18,28822	26567
18,29233	24656
18,29645	26455
18,30058	24118
18,30470	25318
18,30882	26893
18,31295	28259
18,31707	29842
18,32118	38624
18,32532	53710
18,32943	86613
18,33355	146639
18,33768	252621
18,34180	430868
18,34592	712403
18,35003	1108782
18,35417	1634157
18,35828	2236957
18,36240	2906935
18,36653	3587034
18,37065	4152253
18,37477	4574892
18,37890	4767607
18,38302	4747735
18,38713	4449136
18,39127	4011892
18,39538	3432775
18,39950	2880732
18,40363	2372072
18,40775	1940684
18,41187	1602705
18,41600	1334408
18,42012	1101821
18,42423	923400
18,42837	793903
18,43248	687216
18,43660	602400
18,44072	537252
18,44485	483606
18,44897	432050
18,45308	391892
18,45722	354563
18,46133	324137
18,46545	297386
18,46958	277426
18,47370	258728
18,47782	238141
18,48195	222586
18,48607	207177
18,49018	198198
18,49432	181822
18,49843	174605
18,50255	159319
18,50668	160783
18,51080	147246
18,51492	141682
18,51905	134450
18,52317	129509
18,52728	123984
18,53140	117272
18,53553	111715
18,53965	110532
18,54377	107628
18,54790	100117
18,55202	97478
18,55613	96443
18,56027	93217
18,56438	91265
18,56850	87193
18,57263	82521
18,57675	84450
18,58087	80132
18,58500	76328
18,58912	73638
18,59323	75828
18,59737	70955
18,60148	70892
18,60560	70472
18,60973	70350
18,61385	67980
18,61797	66183
18,62208	71263
18,62622	73564
18,63033	88302
18,63445	117323
18,63858	161025
18,64270	234254
18,64682	346080
18,65095	491666
18,65507	680776
18,65918	880564
18,66332	1069081
18,66743	1233461
18,67155	1320369
18,67568	1337507
18,67980	1306051
18,68392	1211990
18,68805	1084507
18,69217	964360
18,69628	844355
18,70042	786375
18,70453	774378
18,70865	793448
18,71277	857223
18,71690	990313
18,72102	1112552
18,72513	1240546
18,72927	1325744
18,73338	1357575
18,73750	1328735
18,74163	1264926
18,74575	1177145
18,74987	1047479
18,75400	930188
18,75812	823932
18,76223	763862
18,76637	722479
18,77048	741012
18,77460	810153
18,77873	941586
18,78285	1110695
18,78697	1317725
18,79110	1529128
18,79522	1673805
18,79933	1767231
18,80345	1786185
18,80758	1713296
18,81170	1590697
18,81582	1422462
18,81995	1230927
18,82407	1052077
18,82818	886918
18,83232	760726
18,83643	642675
18,84055	548968
18,84468	480237
18,84880	421959
18,85292	370308
18,85705	334449
18,86117	303798
18,86528	278290
18,86942	251534
18,87353	235638
18,87765	219492
18,88178	199154
18,88590	188329
18,89002	181293
18,89413	170447
18,89827	158018
18,90238	147247
18,90650	140784
18,91063	132187
18,91475	127509
18,91887	122279
18,92300	120224
18,92712	115077
18,93123	106888
18,93537	103861
18,93948	100833
18,94360	97314
18,94773	92287
18,95185	92292
18,95597	88450
18,96010	88354
18,96422	82241
18,96833	82826
18,97247	79241
18,97658	79040
18,98070	74827
18,98482	73354
18,98895	71518
18,99307	67258
18,99718	67060
19,00132	67484
19,00543	66330
19,00955	66020
19,01368	63991
19,01780	60955
19,02192	63708
19,02605	60857
19,03017	59416
19,03428	57716
19,03842	58665
19,04253	59085
19,04665	55528
19,05078	57088
19,05490	54476
19,05902	53478
19,06315	51244
19,06727	52248
19,07138	51419
19,07550	51807
19,07963	51186
19,08375	51010
19,08787	52987
19,09200	57737
19,09612	62455
19,10023	81954
19,10437	107870
19,10848	156075
19,11260	223633
19,11673	343622
19,12085	508150
19,12497	722200
19,12910	975994
19,13322	1226391
19,13733	1479819
19,14147	1657908
19,14558	1753211
19,14970	1737717
19,15383	1621099
19,15795	1441084
19,16207	1254396
19,16618	1078917
19,17032	907121
19,17443	772787
19,17855	654834
19,18268	556882
19,18680	489936
19,19092	422642
19,19505	372446
19,19917	335948
19,20328	298991
19,20742	276317
19,21153	250576
19,21565	224127
19,21978	212101
19,22390	196983
19,22802	184895
19,23215	173256
19,23627	161406
19,24038	153037
19,24452	147807
19,24863	140627
19,25275	135730
19,25687	133406
19,26100	127941
19,26512	117053
19,26923	117013
19,27337	111902
19,27748	104901
19,28160	105332
19,28573	100055
19,28985	100742
19,29397	96831
19,29810	91673
19,30222	88049
19,30633	87729
19,31047	87683
19,31458	85474
19,31870	80937
19,32283	79888
19,32695	78791
19,33107	75898
19,33520	73096
19,33932	72834
19,34343	71338
19,34755	70855
19,35168	71168
19,35580	68868
19,35992	70036
19,36405	68657
19,36817	65976
19,37228	68121
19,37642	66728
19,38053	66167
19,38465	63387
19,38878	64685
19,39290	64238
19,39702	65051
19,40115	64221
19,40527	67245
19,40938	74792
19,41352	90708
19,41763	119516
19,42175	173934
19,42588	256160
19,43000	382478
19,43412	543615
19,43823	736180
19,44237	960685
19,44648	1177078
19,45060	1344173
19,45473	1440200
19,45885	1464673
19,46297	1414656
19,46710	1299143
19,47122	1152009
19,47533	1000733
19,47947	858543
19,48358	735286
19,48770	621788
19,49183	537673
19,49595	478915
19,50007	440424
19,50420	431054
19,50832	459032
19,51243	507480
19,51657	602828
19,52068	716322
19,52480	850511
19,52892	998026
19,53305	1109421
19,53717	1191742
19,54128	1220289
19,54542	1201700
19,54953	1127137
19,55365	1030503
19,55778	909150
19,56190	793054
19,56602	674712
19,57015	577305
19,57427	484980
19,57838	417699
19,58252	367593
19,58663	317236
19,59075	282621
19,59488	251887
19,59900	226098
19,60312	210315
19,60725	190738
19,61137	176040
19,61548	163240
19,61962	150276
19,62373	141491
19,62785	137347
19,63197	130267
19,63610	121985
19,64022	118287
19,64433	111011
19,64847	105324
19,65258	103064
19,65670	99421
19,66083	98867
19,66495	90865
19,66907	87788
19,67320	86343
19,67732	84926
19,68143	83478
19,68557	79891
19,68968	79671
19,69380	75141
19,69793	76748
19,70205	72850
19,70617	71289
19,71030	70898
19,71442	69851
19,71853	70666
19,72265	67285
19,72678	66402
19,73090	68174
19,73502	65997
19,73915	66322
19,74327	67402
19,74738	60343
19,75152	63541
19,75563	62020
19,75975	60237
19,76388	58210
19,76800	60200
19,77212	59677
19,77625	56543
19,78037	57487
19,78448	54852
19,78862	57359
19,79273	54995
19,79685	56105
19,80098	54856
19,80510	54537
19,80922	53715
19,81333	52936
19,81747	51652
19,82158	51997
19,82570	51606
19,82983	51075
19,83395	53622
19,83807	55503
19,84220	57091
19,84632	62716
19,85043	78034
19,85457	102188
19,85868	144314
19,86280	213368
19,86693	329445
19,87105	498013
19,87517	723935
19,87930	1050050
19,88342	1435694
19,88753	1873209
19,89167	2352178
19,89578	2794412
19,89990	3168150
19,90402	3382482
19,90815	3408767
19,91227	3230700
19,91638	2875258
19,92052	2512074
19,92463	2135916
19,92875	1775924
19,93288	1485332
19,93700	1248021
19,94112	1053731
19,94525	910863
19,94937	799002
19,95348	704816
19,95762	613764
19,96173	553413
19,96585	503443
19,96998	462734
19,97410	420507
19,97822	386573
19,98235	357302
19,98647	331969
19,99058	313013
19,99470	286482
19,99883	276485
20,00295	262477
20,00707	246689
20,01120	234620
20,01532	222714
20,01943	211305
20,02357	206530
20,02768	195935
20,03180	185119
20,03593	181589
20,04005	175036
20,04417	163347
20,04830	161532
20,05242	157159
20,05653	152622
20,06067	143463
20,06478	144004
20,06890	140558
20,07303	135451
20,07715	129428
20,08127	126697
20,08538	123971
20,08952	121972
20,09363	119033
20,09775	114848
20,10188	110124
20,10600	108911
20,11012	107838
20,11425	105721
20,11837	100834
20,12248	100887
20,12662	100550
20,13073	100691
20,13485	93679
20,13898	92636
20,14310	93481
20,14722	89233
20,15135	90689
20,15547	87809
20,15958	85863
20,16372	86833
20,16783	86157
20,17195	84588
20,17607	85810
20,18020	80935
20,18432	81049
20,18843	85930
20,19257	78807
20,19668	80780
20,20080	79944
20,20493	82301
20,20905	77074
20,21317	77752
20,21730	75987
20,22142	73483
20,22553	73591
20,22967	76127
20,23378	73566
20,23790	74130
20,24203	71056
20,24615	74017
20,25027	75019
20,25440	84833
20,25852	91493
20,26263	107181
20,26675	138778
20,27088	184651
20,27500	265660
20,27912	381475
20,28325	523778
20,28737	705290
20,29148	919538
20,29562	1140957
20,29973	1320321
20,30385	1457334
20,30798	1539498
20,31210	1529986
20,31622	1457430
20,32035	1331750
20,32447	1189716
20,32858	1039500
20,33272	909307
20,33683	780528
20,34095	681129
20,34508	587505
20,34920	520884
20,35332	462084
20,35743	412947
20,36157	368531
20,36568	338006
20,36980	316864
20,37393	285076
20,37805	266733
20,38217	247156
20,38630	234138
20,39042	222282
20,39453	209387
20,39867	200424
20,40278	188133
20,40690	175655
20,41103	166857
20,41515	159560
20,41927	155972
20,42340	153633
20,42752	146385
20,43163	140080
20,43577	140267
20,43988	131002
20,44400	129046
20,44812	123665
20,45225	121729
20,45637	116803
20,46048	114501
20,46462	113150
20,46873	107377
20,47285	107648
20,47698	103917
20,48110	103980
20,48522	100748
20,48935	101106
20,49347	95200
20,49758	95874
20,50172	95856
20,50583	90627
20,50995	93549
20,51408	88984
20,51820	88663
20,52232	86094
20,52645	86590
20,53057	87484
20,53468	82718
20,53880	81988
20,54293	83440
20,54705	80944
20,55117	81387
20,55530	79190
20,55942	76991
20,56353	76297
20,56767	77382
20,57178	71029
20,57590	74740
20,58003	74038
20,58415	70426
20,58827	72046
20,59240	69547
20,59652	69561
20,60063	71501
20,60477	73645
20,60888	70442
20,61300	71140
20,61713	70007
20,62125	70760
20,62537	69310
20,62948	69405
20,63362	70278
20,63773	65531
20,64185	66111
20,64598	67940
20,65010	66596
20,65422	65545
20,65835	65955
20,66247	67591
20,66658	68629
20,67072	68421
20,67483	75020
20,67895	76019
20,68308	82443
20,68720	89648
20,69132	96571
20,69545	104032
20,69957	114173
20,70368	122668
20,70782	125931
20,71193	126699
20,71605	124666
20,72017	125141
20,72430	119706
20,72842	113898
20,73253	112834
20,73667	101524
20,74078	94178
20,74490	90502
20,74903	85871
20,75315	79172
20,75727	79722
20,76140	71567
20,76552	70422
20,76963	68352
20,77377	68492
20,77788	65527
20,78200	66002
20,78613	61422
20,79025	61585
20,79437	59757
20,79850	62218
20,80262	60904
20,80673	57675
20,81085	58938
20,81498	57258
20,81910	59159
20,82322	56631
20,82735	58926
20,83147	56495
20,83558	52535
20,83972	57403
20,84383	56165
20,84795	56264
20,85208	56751
20,85620	53802
20,86032	54248
20,86445	55668
20,86857	56237
20,87268	54839
20,87682	54705
20,88093	54080
20,88505	56269
20,88918	54928
20,89330	56623
20,89742	53327
20,90153	56645
20,90567	54461
20,90978	55249
20,91390	54743
20,91803	53738
20,92215	53595
20,92627	55362
20,93040	54464
20,93452	52013
20,93863	51807
20,94277	55011
20,94688	51747
20,95100	53571
20,95513	52818
20,95925	52996
20,96337	52398
20,96750	52720
20,97162	49516
20,97573	51326
20,97987	53718
20,98398	50225
20,98810	50975
20,99222	52248
20,99635	54149
21,00047	53886
21,00458	53030
21,00872	54769
21,01283	53930
21,01695	52730
21,02108	52876
21,02520	52708
21,02932	53017
21,03345	53257
21,03757	52998
21,04168	52154
21,04582	53109
21,04993	53492
21,05405	54404
21,05818	54534
21,06230	51423
21,06642	53188
21,07055	52224
21,07467	51410
21,07878	51441
21,08290	52843
21,08703	52071
21,09115	49231
21,09527	48752
21,09940	49343
21,10352	50533
21,10763	50581
21,11177	51335
21,11588	50736
21,12000	49560
21,12413	52020
21,12825	48025
21,13237	51746
21,13650	50499
21,14062	50102
21,14473	48666
21,14887	47422
21,15298	50936
21,15710	50400
21,16123	52625
21,16535	51842
21,16947	49362
21,17360	52189
21,17772	53421
21,18183	50305
21,18595	52091
21,19008	49806
21,19420	49004
21,19832	53133
21,20245	51050
21,20657	50088
21,21068	52550
21,21482	49804
21,21893	50201
21,22305	48523
21,22718	51106
21,23130	50577
21,23542	51572
21,23955	48537
21,24367	50677
21,24778	50062
21,25192	50532
21,25603	49547
21,26015	50048
21,26428	50777
21,26840	49315
21,27252	49000
21,27663	48617
21,28077	47627
21,28488	51286
21,28900	48729
21,29313	47296
21,29725	49081
21,30137	48535
21,30550	48134
21,30962	50036
21,31373	48314
21,31787	50029
21,32198	47426
21,32610	48413
21,33023	49049
21,33435	49716
21,33847	49522
21,34260	48475
21,34672	50756
21,35083	51198
21,35497	49694
21,35908	50377
21,36320	49780
21,36732	50854
21,37145	49772
21,37557	49814
21,37968	51642
21,38382	49392
21,38793	47638
21,39205	49048
21,39618	50083
21,40030	49317
21,40442	50095
21,40855	50282
21,41267	50635
21,41678	51747
21,42092	48751
21,42503	51486
21,42915	49784
21,43328	51201
21,43740	52676
21,44152	53376
21,44565	59078
21,44977	61758
21,45388	72131
21,45800	87215
21,46213	114524
21,46625	146952
21,47037	203672
21,47450	271524
21,47862	355782
21,48273	454985
21,48687	544238
21,49098	640700
21,49510	714621
21,49923	766187
21,50335	795719
21,50747	790511
21,51160	758937
21,51572	718002
21,51983	671638
21,52397	603636
21,52808	540489
21,53220	482001
21,53633	424308
21,54045	379746
21,54457	338117
21,54868	306125
21,55282	275199
21,55693	245656
21,56105	222531
21,56518	202390
21,56930	188168
21,57342	178047
21,57755	163995
21,58167	154113
21,58578	143317
21,58992	136334
21,59403	128206
21,59815	120912
21,60228	121338
21,60640	112728
21,61052	105932
21,61465	108579
21,61877	97635
21,62288	101855
21,62702	96402
21,63113	93261
21,63525	90163
21,63937	89232
21,64350	86105
21,64762	86136
21,65173	85201
21,65587	83845
21,65998	80100
21,66410	76441
21,66823	76648
21,67235	75738
21,67647	76114
21,68060	74106
21,68472	75530
21,68883	75397
21,69297	72075
21,69708	71200
21,70120	71996
21,70533	69127
21,70945	69866
21,71357	69383
21,71770	67783
21,72182	66565
21,72593	66963
21,73005	65521
21,73418	67939
21,73830	63374
21,74242	62235
21,74655	65521
21,75067	62511
21,75478	61938
21,75892	64821
21,76303	61515
21,76715	64045
21,77128	61698
21,77540	59261
21,77952	54991
21,78365	59181
21,78777	62289
21,79188	62891
21,79602	59547
21,80013	61392
21,80425	59542
21,80838	58484
21,81250	59020
21,81662	57348
21,82073	57780
21,82487	57752
21,82898	58930
21,83310	58464
21,83723	57873
21,84135	60419
21,84547	60075
21,84960	58556
21,85372	57288
21,85783	57429
21,86197	55434
21,86608	57849
21,87020	55447
21,87433	57246
21,87845	53076
21,88257	56577
21,88670	52137
21,89082	55130
21,89493	54394
21,89907	56821
21,90318	54095
21,90730	55701
21,91142	53273
21,91555	54287
21,91967	53041
21,92378	56763
21,92792	54986
21,93203	57176
21,93615	59198
21,94028	56191
21,94440	57427
21,94852	59038
21,95265	54779
21,95677	58146
21,96088	56176
21,96502	56986
21,96913	54807
21,97325	58257
21,97738	54609
21,98150	55808
21,98562	56025
21,98975	55450
21,99387	56580
21,99798	52972
22,00210	56309
22,00623	55537
22,01035	52642
22,01447	53231
22,01860	54901
22,02272	52395
22,02683	51570
22,03097	52537
22,03508	53588
22,03920	53293
22,04333	52075
22,04745	54826
22,05157	52055
22,05570	52512
22,05982	51686
22,06393	54412
22,06807	51723
22,07218	55091
22,07630	53310
22,08043	51910
22,08455	52320
22,08867	54539
22,09278	52003
22,09692	52217
22,10103	51952
22,10515	51261
22,10928	53131
22,11340	52874
22,11752	53929
22,12165	53807
22,12577	51754
22,12988	51960
22,13402	50638
22,13813	50749
22,14225	49879
22,14638	52427
22,15050	51975
22,15462	52516
22,15875	52432
22,16287	51628
22,16698	51990
22,17112	53456
22,17523	52161
22,17935	52567
22,18347	53661
22,18760	53291
22,19172	52900
22,19583	53049
22,19997	51730
22,20408	52299
22,20820	55030
22,21233	53874
22,21645	53723
22,22057	52316
22,22470	53854
22,22882	54620
22,23293	54055
22,23707	53133
22,24118	51775
22,24530	52543
22,24943	52998
22,25355	55211
22,25767	54913
22,26180	52286
22,26592	54024
22,27003	51645
22,27415	49418
22,27828	53340
22,28240	54031
22,28652	48851
22,29065	50749
22,29477	51106
22,29888	52170
22,30302	49237
22,30713	53627
22,31125	51306
22,31538	52218
22,31950	50261
22,32362	50755
22,32775	52529
22,33187	53203
22,33598	51978
22,34012	50030
22,34423	52365
22,34835	49530
22,35248	49293
22,35660	53555
22,36072	50618
22,36483	51366
22,36897	51452
22,37308	49746
22,37720	49786
22,38133	53557
22,38545	52142
22,38957	49182
22,39370	49638
22,39782	51819
22,40193	53972
22,40607	50234
22,41018	51037
22,41430	48744
22,41843	50664
22,42255	49151
22,42667	50400
22,43080	50034
22,43492	48795
22,43903	50362
22,44317	54435
22,44728	49806
22,45140	52259
22,45552	53477
22,45965	51274
22,46377	48724
22,46788	53204
22,47202	50236
22,47613	49801
22,48025	52082
22,48438	52928
22,48850	53940
22,49262	52462
22,49675	53889
22,50087	51876
22,50498	53156
22,50912	52793
22,51323	50998
22,51735	50427
