D:\MassHunter\GCMS\1\data\Amal\Constant flow\140C\140C_1ml-min_8C-min_1.D Fri Jul 26 16:02:50 2024
Start of data points
5,04130	168406
5,04575	158549
5,05018	154499
5,05463	146273
5,05907	142866
5,06352	139425
5,06795	132935
5,07240	126217
5,07683	125373
5,08128	120296
5,08572	118121
5,09017	114049
5,09460	112174
5,09905	109271
5,10348	100918
5,10793	102725
5,11237	97583
5,11682	94848
5,12125	92001
5,12570	92297
5,13015	88191
5,13458	87860
5,13903	84661
5,14347	82914
5,14792	80010
5,15235	80770
5,15680	76861
5,16123	74144
5,16568	72042
5,17012	71720
5,17457	73292
5,17900	70293
5,18345	70376
5,18788	66675
5,19233	65018
5,19677	64022
5,20122	63436
5,20565	63580
5,21010	62617
5,21453	64135
5,21898	61441
5,22342	59870
5,22787	58996
5,23230	57033
5,23675	57196
5,24118	56622
5,24563	57024
5,25008	56255
5,25452	55422
5,25897	55468
5,26340	53621
5,26785	54940
5,27228	50838
5,27673	52016
5,28117	52920
5,28562	53310
5,29005	50814
5,29450	51040
5,29893	50788
5,30338	51945
5,30782	50683
5,31227	49556
5,31670	50121
5,32115	48949
5,32558	46042
5,33003	49365
5,33447	47935
5,33892	49414
5,34335	48419
5,34780	47466
5,35223	47553
5,35668	46716
5,36112	44683
5,36557	45012
5,37002	45826
5,37445	47990
5,37890	48849
5,38333	62864
5,38778	85633
5,39222	132218
5,39667	200354
5,40110	286884
5,40555	368488
5,40998	423561
5,41443	454829
5,41887	462708
5,42332	462298
5,42775	450965
5,43220	441243
5,43663	416676
5,44108	402417
5,44552	386538
5,44997	374065
5,45440	353534
5,45885	343685
5,46328	327986
5,46773	313565
5,47217	300759
5,47662	285857
5,48105	273836
5,48550	263962
5,48995	248999
5,49438	237352
5,49883	226780
5,50327	218133
5,50772	210932
5,51215	200786
5,51660	191042
5,52103	181385
5,52548	171781
5,52992	163897
5,53437	155336
5,53880	150401
5,54325	140311
5,54768	133785
5,55213	123431
5,55657	116845
5,56102	105798
5,56545	99536
5,56990	93828
5,57433	88403
5,57878	82623
5,58322	77304
5,58767	74891
5,59210	68769
5,59655	65011
5,60098	60044
5,60543	59697
5,60988	55013
5,61432	54691
5,61877	52849
5,62320	50544
5,62765	47928
5,63208	47382
5,63653	45886
5,64097	43642
5,64542	43098
5,64985	41835
5,65430	41432
5,65873	40464
5,66318	39622
5,66762	38397
5,67207	38764
5,67650	38678
5,68095	39170
5,68538	36972
5,68983	36745
5,69427	36756
5,69872	36592
5,70315	35596
5,70760	35923
5,71203	34384
5,71648	35933
5,72092	35214
5,72537	33736
5,72982	35509
5,73425	34313
5,73870	34073
5,74313	36069
5,74758	34625
5,75202	33570
5,75647	35032
5,76090	35288
5,76535	35402
5,76978	35291
5,77423	37269
5,77867	41713
5,78312	52232
5,78755	71439
5,79200	102931
5,79643	151103
5,80088	198591
5,80532	249619
5,80977	284706
5,81420	304766
5,81865	306311
5,82308	303416
5,82753	296423
5,83197	282369
5,83642	271882
5,84085	261687
5,84530	248684
5,84973	239915
5,85418	233075
5,85863	220823
5,86307	214980
5,86752	201673
5,87195	187762
5,87640	180896
5,88083	172824
5,88528	164523
5,88972	154312
5,89417	148930
5,89860	139387
5,90305	132744
5,90748	125486
5,91193	118018
5,91637	109340
5,92082	104997
5,92525	99032
5,92970	94824
5,93413	86986
5,93858	82495
5,94302	74865
5,94747	71431
5,95190	66018
5,95635	62783
5,96078	58392
5,96523	55558
5,96967	53727
5,97412	48588
5,97857	46488
5,98300	45253
5,98745	43614
5,99188	40673
5,99633	38419
6,00077	38301
6,00522	37554
6,00965	37095
6,01410	34598
6,01853	34338
6,02298	33457
6,02742	32981
6,03187	31513
6,03630	31721
6,04075	29688
6,04518	29961
6,04963	30083
6,05407	30064
6,05852	29451
6,06295	29535
6,06740	29088
6,07183	28758
6,07628	28894
6,08072	28088
6,08517	29975
6,08960	27309
6,09405	29159
6,09850	28134
6,10293	29551
6,10738	28399
6,11182	28125
6,11627	27832
6,12070	27915
6,12515	27250
6,12958	28801
6,13403	27608
6,13847	27786
6,14292	27401
6,14735	26213
6,15180	26820
6,15623	28721
6,16068	26764
6,16512	25576
6,16957	25984
6,17400	26117
6,17845	26402
6,18288	26420
6,18733	25100
6,19177	24175
6,19622	25461
6,20065	24277
6,20510	25616
6,20953	25387
6,21398	23928
6,21843	25442
6,22287	25590
6,22732	24208
6,23175	23399
6,23620	24237
6,24063	25246
6,24508	24401
6,24952	28129
6,25397	37707
6,25840	61254
6,26285	104391
6,26728	175444
6,27173	276577
6,27617	393002
6,28062	506175
6,28505	606331
6,28950	668231
6,29393	692071
6,29838	696712
6,30282	682808
6,30727	660826
6,31170	631769
6,31615	602722
6,32058	573699
6,32503	537039
6,32947	508257
6,33392	478354
6,33837	446147
6,34280	422472
6,34725	393768
6,35168	365226
6,35613	342118
6,36057	320016
6,36502	295839
6,36945	276642
6,37390	252016
6,37833	227730
6,38278	214306
6,38722	189544
6,39167	170307
6,39610	153286
6,40055	137055
6,40498	125781
6,40943	108203
6,41387	96631
6,41832	85729
6,42275	73745
6,42720	67962
6,43163	63297
6,43608	54825
6,44052	51871
6,44497	46875
6,44940	43200
6,45385	38314
6,45830	37238
6,46273	33452
6,46718	32876
6,47162	30250
6,47607	29795
6,48050	27339
6,48495	26565
6,48938	26924
6,49383	24818
6,49827	24179
6,50272	23448
6,50715	24544
6,51160	22469
6,51603	22606
6,52048	23073
6,52492	21561
6,52937	22116
6,53380	21279
6,53825	19919
6,54268	21480
6,54713	21529
6,55157	22469
6,55602	20796
6,56045	21583
6,56490	20284
6,56933	18980
6,57378	19696
6,57822	19525
6,58267	20351
6,58712	20125
6,59155	18981
6,59600	19871
6,60043	21108
6,60488	18963
6,60932	20734
6,61377	18224
6,61820	18557
6,62265	19092
6,62708	19524
6,63153	19273
6,63597	19374
6,64042	18887
6,64485	18675
6,64930	17861
6,65373	19352
6,65818	19650
6,66262	18474
6,66707	18678
6,67150	17694
6,67595	18048
6,68038	17917
6,68483	18138
6,68927	19072
6,69372	18891
6,69815	18977
6,70260	18922
6,70705	18676
6,71148	17892
6,71593	18102
6,72037	17828
6,72482	18053
6,72925	19153
6,73370	18615
6,73813	18321
6,74258	17132
6,74702	18041
6,75147	17474
6,75590	17055
6,76035	17120
6,76478	17680
6,76923	17923
6,77367	18081
6,77812	17421
6,78255	17878
6,78700	17226
6,79143	18101
6,79588	18663
6,80032	20802
6,80477	27111
6,80920	41130
6,81365	68001
6,81808	106949
6,82253	163603
6,82698	231515
6,83142	295984
6,83587	354437
6,84030	393682
6,84475	415266
6,84918	420217
6,85363	414772
6,85807	401071
6,86252	384479
6,86695	368977
6,87140	339491
6,87583	319003
6,88028	298469
6,88472	275693
6,88917	253060
6,89360	235490
6,89805	213065
6,90248	198901
6,90693	182467
6,91137	162935
6,91582	147927
6,92025	130368
6,92470	116220
6,92913	101042
6,93358	91355
6,93802	80050
6,94247	69661
6,94692	60648
6,95135	52681
6,95580	47914
6,96023	44496
6,96468	40017
6,96912	34299
6,97357	32650
6,97800	30858
6,98245	27909
6,98688	25614
6,99133	24882
6,99577	22819
7,00022	23674
7,00465	21582
7,00910	21846
7,01353	20798
7,01798	21507
7,02242	19307
7,02687	18555
7,03130	18925
7,03575	17545
7,04018	17973
7,04463	17556
7,04907	17493
7,05352	17856
7,05795	17718
7,06240	16980
7,06685	16763
7,07128	17978
7,07573	17229
7,08017	16929
7,08462	16186
7,08905	18002
7,09350	15566
7,09793	17016
7,10238	15848
7,10682	15827
7,11127	16476
7,11570	16695
7,12015	17490
7,12458	15811
7,12903	16392
7,13347	16479
7,13792	17901
7,14235	16599
7,14680	17786
7,15123	17540
7,15568	17310
7,16012	17106
7,16457	16528
7,16900	17160
7,17345	15652
7,17788	16779
7,18233	15622
7,18678	16327
7,19122	16872
7,19567	16533
7,20010	14939
7,20455	15142
7,20898	15205
7,21343	15549
7,21787	14999
7,22232	14835
7,22675	15228
7,23120	15932
7,23563	14871
7,24008	15402
7,24452	15623
7,24897	15684
7,25340	15779
7,25785	14181
7,26228	15327
7,26673	15478
7,27117	14731
7,27562	14126
7,28005	14267
7,28450	14109
7,28893	13583
7,29338	14532
7,29782	14749
7,30227	15482
7,30670	14624
7,31115	15825
7,31560	14731
7,32003	14578
7,32448	16906
7,32892	15082
7,33337	14022
7,33780	15630
7,34225	15511
7,34668	15777
7,35113	15353
7,35557	14265
7,36002	15311
7,36445	13833
7,36890	14805
7,37333	14664
7,37778	15048
7,38222	15565
7,38667	15500
7,39110	15399
7,39555	14319
7,39998	15981
7,40443	15352
7,40887	17998
7,41332	22437
7,41775	32332
7,42220	54984
7,42663	96111
7,43108	172591
7,43553	285275
7,43997	427737
7,44442	586761
7,44885	745939
7,45330	871037
7,45773	951998
7,46218	994751
7,46662	994728
7,47107	963659
7,47550	926314
7,47995	863788
7,48438	800767
7,48883	734341
7,49327	662787
7,49772	610551
7,50215	539000
7,50660	481829
7,51103	428456
7,51548	375172
7,51992	321885
7,52437	273978
7,52880	227734
7,53325	194146
7,53768	161608
7,54213	136686
7,54657	106572
7,55102	93506
7,55547	77753
7,55990	63033
7,56435	56620
7,56878	48731
7,57323	41355
7,57767	39244
7,58212	33551
7,58655	31032
7,59100	30861
7,59543	26528
7,59988	24679
7,60432	24993
7,60877	22269
7,61320	22439
7,61765	20322
7,62208	19797
7,62653	19454
7,63097	16763
7,63542	19680
7,63985	18630
7,64430	17620
7,64873	16555
7,65318	17766
7,65762	17338
7,66207	17125
7,66650	17501
7,67095	19262
7,67540	18920
7,67983	18612
7,68428	19098
7,68872	18828
7,69317	19195
7,69760	18418
7,70205	17081
7,70648	18143
7,71093	17879
7,71537	17644
7,71982	16205
7,72425	16691
7,72870	17542
7,73313	16561
7,73758	16519
7,74202	14819
7,74647	15504
7,75090	16407
7,75535	15318
7,75978	15584
7,76423	15177
7,76867	15549
7,77312	16124
7,77755	15578
7,78200	15584
7,78643	14851
7,79088	16225
7,79533	14917
7,79977	15383
7,80422	14777
7,80865	14844
7,81310	14798
7,81753	15554
7,82198	15542
7,82642	14542
7,83087	15669
7,83530	15064
7,83975	14270
7,84418	14037
7,84863	16591
7,85307	15705
7,85752	16683
7,86195	15338
7,86640	15761
7,87083	15627
7,87528	16307
7,87972	16297
7,88417	14583
7,88860	15870
7,89305	15269
7,89748	14909
7,90193	14815
7,90637	14764
7,91082	16880
7,91525	15812
7,91970	19798
7,92415	27492
7,92858	42914
7,93303	73398
7,93747	115354
7,94192	177303
7,94635	253826
7,95080	326624
7,95523	395266
7,95968	452013
7,96412	486286
7,96857	502686
7,97300	496481
7,97745	475724
7,98188	441805
7,98633	414398
7,99077	374185
7,99522	337249
7,99965	296226
8,00410	270548
8,00853	229638
8,01298	199218
8,01742	167976
8,02187	143371
8,02630	116768
8,03075	99153
8,03518	82550
8,03963	68117
8,04408	61938
8,04852	50281
8,05297	40976
8,05740	36437
8,06185	30793
8,06628	27148
8,07073	25583
8,07517	24320
8,07962	25853
8,08405	31672
8,08850	44353
8,09293	73598
8,09738	116770
8,10182	183019
8,10627	265146
8,11070	353392
8,11515	441863
8,11958	508302
8,12403	550526
8,12847	574340
8,13292	567141
8,13735	547925
8,14180	512199
8,14623	470293
8,15068	431035
8,15512	381947
8,15957	337532
8,16402	284887
8,16845	246694
8,17290	205237
8,17733	169012
8,18178	138861
8,18622	112275
8,19067	93946
8,19510	76942
8,19955	62706
8,20398	52510
8,20843	44623
8,21287	39423
8,21732	34466
8,22175	30077
8,22620	26213
8,23063	23781
8,23508	22752
8,23952	21457
8,24397	19656
8,24840	18895
8,25285	17802
8,25728	16037
8,26173	16876
8,26617	16898
8,27062	15641
8,27505	15036
8,27950	15249
8,28395	13916
8,28838	13043
8,29283	13828
8,29727	14618
8,30172	13700
8,30615	13528
8,31060	13630
8,31503	12989
8,31948	12088
8,32392	12659
8,32837	13870
8,33280	14208
8,33725	13770
8,34168	12019
8,34613	11593
8,35057	12881
8,35502	13443
8,35945	12748
8,36390	12742
8,36833	12683
8,37278	12687
8,37722	11370
8,38167	12455
8,38610	11755
8,39055	13216
8,39498	12652
8,39943	12370
8,40388	12503
8,40832	12108
8,41277	11361
8,41720	12323
8,42165	13106
8,42608	11510
8,43053	11819
8,43497	12103
8,43942	12716
8,44385	12329
8,44830	11910
8,45273	11965
8,45718	11627
8,46162	12311
8,46607	12565
8,47050	11441
8,47495	12352
8,47938	12314
8,48383	10992
8,48827	12470
8,49272	11046
8,49715	12006
8,50160	11875
8,50603	11311
8,51048	12512
8,51492	11646
8,51937	11237
8,52382	12489
8,52825	11535
8,53270	11606
8,53713	10848
8,54158	13011
8,54602	11679
8,55047	11503
8,55490	11447
8,55935	11984
8,56378	11223
8,56823	11816
8,57267	10990
8,57712	10654
8,58155	12386
8,58600	12057
8,59043	10692
8,59488	11718
8,59932	10418
8,60377	11729
8,60820	11842
8,61265	13763
8,61708	21527
8,62153	31137
8,62597	52649
8,63042	92459
8,63485	152724
8,63930	224606
8,64373	317479
8,64818	402995
8,65263	491349
8,65707	542448
8,66152	580327
8,66595	587888
8,67040	568572
8,67483	537264
8,67928	488898
8,68372	431801
8,68817	380194
8,69260	322367
8,69705	269868
8,70148	224982
8,70593	179666
8,71037	149414
8,71482	119875
8,71925	95130
8,72370	76898
8,72813	63116
8,73258	51633
8,73702	44808
8,74147	35935
8,74590	31513
8,75035	30089
8,75478	25635
8,75923	23747
8,76367	21114
8,76812	20413
8,77257	21166
8,77700	24003
8,78145	37554
8,78588	71824
8,79033	136092
8,79477	247211
8,79922	416058
8,80365	643789
8,80810	932080
8,81253	1240926
8,81698	1551061
8,82142	1791860
8,82587	1952212
8,83030	2006933
8,83475	1955668
8,83918	1879071
8,84363	1703224
8,84807	1505599
8,85252	1278760
8,85695	1059717
8,86140	859442
8,86583	668386
8,87028	527755
8,87472	398244
8,87917	308958
8,88360	237795
8,88805	185837
8,89250	147588
8,89693	119781
8,90138	98807
8,90582	81906
8,91027	68932
8,91470	59121
8,91915	52606
8,92358	45827
8,92803	41458
8,93247	39433
8,93692	35471
8,94135	31765
8,94580	28763
8,95023	28354
8,95468	26174
8,95912	27593
8,96357	26970
8,96800	27361
8,97245	23563
8,97688	24491
8,98133	23114
8,98577	20627
8,99022	21688
8,99465	18634
8,99910	17070
9,00353	18266
9,00798	17874
9,01243	16524
9,01687	16828
9,02132	16755
9,02575	15809
9,03020	15700
9,03463	14596
9,03908	15293
9,04352	14620
9,04797	14421
9,05240	14311
9,05685	15116
9,06128	13982
9,06573	13847
9,07017	13558
9,07462	13249
9,07905	13225
9,08350	13427
9,08793	12965
9,09238	13162
9,09682	13637
9,10127	12200
9,10570	12570
9,11015	13413
9,11458	12744
9,11903	12583
9,12347	13423
9,12792	12022
9,13237	13523
9,13680	11952
9,14125	11853
9,14568	12038
9,15013	11621
9,15457	12773
9,15902	11791
9,16345	12117
9,16790	11908
9,17233	10558
9,17678	11849
9,18122	10883
9,18567	11582
9,19010	11577
9,19455	13433
9,19898	11892
9,20343	13087
9,20787	12395
9,21232	12365
9,21675	12665
9,22120	12901
9,22563	12614
9,23008	13360
9,23452	15804
9,23897	21371
9,24340	28211
9,24785	48299
9,25230	82485
9,25673	137123
9,26118	215553
9,26562	311789
9,27007	415945
9,27450	518108
9,27895	599947
9,28338	649323
9,28783	671047
9,29227	651472
9,29672	590027
9,30115	523342
9,30560	449205
9,31003	373000
9,31448	308439
9,31892	243565
9,32337	193306
9,32780	153358
9,33225	120398
9,33668	94405
9,34113	74930
9,34557	61650
9,35002	50693
9,35445	42488
9,35890	38191
9,36333	35149
9,36778	31977
9,37222	30392
9,37667	28540
9,38112	26841
9,38555	23625
9,39000	24243
9,39443	20391
9,39888	19783
9,40332	18600
9,40777	17205
9,41220	17024
9,41665	15724
9,42108	15936
9,42553	14470
9,42997	14353
9,43442	14150
9,43885	14487
9,44330	13342
9,44773	13073
9,45218	14064
9,45662	12540
9,46107	13558
9,46550	12317
9,46995	11541
9,47438	12084
9,47883	12911
9,48327	11859
9,48772	11945
9,49215	13944
9,49660	17916
9,50105	25481
9,50548	41350
9,50993	71614
9,51437	126255
9,51882	201610
9,52325	301884
9,52770	425997
9,53213	538777
9,53658	647931
9,54102	721053
9,54547	758760
9,54990	745489
9,55435	692237
9,55878	618539
9,56323	525941
9,56767	432522
9,57212	342520
9,57655	269913
9,58100	203033
9,58543	157926
9,58988	120994
9,59432	94590
9,59877	72749
9,60320	60264
9,60765	50596
9,61208	41841
9,61653	35335
9,62098	31277
9,62542	28595
9,62987	25292
9,63430	23604
9,63875	21946
9,64318	20699
9,64763	18153
9,65207	18966
9,65652	18227
9,66095	16513
9,66540	15877
9,66983	14630
9,67428	15481
9,67872	14524
9,68317	14057
9,68760	14688
9,69205	14279
9,69648	14047
9,70093	13449
9,70537	12751
9,70982	12924
9,71425	13264
9,71870	12911
9,72313	11027
9,72758	13009
9,73202	12156
9,73647	12889
9,74092	13144
9,74535	12925
9,74980	11839
9,75423	12081
9,75868	11306
9,76312	10944
9,76757	11016
9,77200	10702
9,77645	11356
9,78088	10200
9,78533	11845
9,78977	11942
9,79422	11641
9,79865	10669
9,80310	11986
9,80753	11937
9,81198	11343
9,81642	11842
9,82087	11505
9,82530	11181
9,82975	11325
9,83418	11519
9,83863	11589
9,84307	10608
9,84752	11717
9,85195	10255
9,85640	11691
9,86085	9951
9,86528	11139
9,86973	11433
9,87417	12011
9,87862	10885
9,88305	10220
9,88750	10673
9,89193	10569
9,89638	10636
9,90082	11247
9,90527	10232
9,90970	10461
9,91415	9483
9,91858	10281
9,92303	9982
9,92747	10876
9,93192	11290
9,93635	10707
9,94080	11078
9,94523	11794
9,94968	12493
9,95412	10544
9,95857	13335
9,96300	16750
9,96745	24425
9,97188	41065
9,97633	75253
9,98078	130345
9,98522	211523
9,98967	314217
9,99410	432908
9,99855	549704
10,00298	640427
10,00743	724875
10,01187	757087
10,01632	736946
10,02075	672076
10,02520	578397
10,02963	479924
10,03408	387444
10,03852	303123
10,04297	235768
10,04740	175214
10,05185	137989
10,05628	104744
10,06073	85103
10,06517	69117
10,06962	55932
10,07405	46190
10,07850	39103
10,08293	34341
10,08738	29553
10,09182	25503
10,09627	26034
10,10072	23176
10,10515	21627
10,10960	19388
10,11403	19934
10,11848	18363
10,12292	16552
10,12737	17046
10,13180	15567
10,13625	14683
10,14068	14616
10,14513	15370
10,14957	14549
10,15402	14763
10,15845	13161
10,16290	13916
10,16733	12707
10,17178	12465
10,17622	12239
10,18067	12723
10,18510	10496
10,18955	11270
10,19398	11080
10,19843	10969
10,20287	12078
10,20732	11476
10,21175	13265
10,21620	12983
10,22063	17470
10,22508	27344
10,22953	49721
10,23397	95618
10,23842	174101
10,24285	306628
10,24730	487163
10,25173	714314
10,25618	980760
10,26062	1233515
10,26507	1474856
10,26950	1638963
10,27395	1696507
10,27838	1637953
10,28283	1473314
10,28727	1262710
10,29172	1017744
10,29615	778106
10,30060	588244
10,30503	429166
10,30948	316698
10,31392	235469
10,31837	181386
10,32280	141066
10,32725	111346
10,33168	93587
10,33613	78507
10,34057	69372
10,34502	62851
10,34947	56990
10,35390	51559
10,35835	49658
10,36278	45626
10,36723	41831
10,37167	39602
10,37612	37056
10,38055	34037
10,38500	31551
10,38943	29068
10,39388	27336
10,39832	24364
10,40277	23854
10,40720	22467
10,41165	21239
10,41608	20516
10,42053	18155
10,42497	18864
10,42942	18495
10,43385	17479
10,43830	16364
10,44273	15571
10,44718	16711
10,45162	16264
10,45607	16121
10,46050	17208
10,46495	14969
10,46940	16046
10,47383	15880
10,47828	14528
10,48272	15831
10,48717	17994
10,49160	22271
10,49605	33935
10,50048	58703
10,50493	99482
10,50937	173841
10,51382	268256
10,51825	397118
10,52270	524853
10,52713	649701
10,53158	748978
10,53602	806466
10,54047	800362
10,54490	753478
10,54935	663099
10,55378	554012
10,55823	450429
10,56267	338417
10,56712	259716
10,57155	198231
10,57600	148135
10,58043	113385
10,58488	85916
10,58933	72245
10,59377	60508
10,59822	47574
10,60265	44612
10,60710	38478
10,61153	32761
10,61598	29806
10,62042	28836
10,62487	29056
10,62930	33849
10,63375	48920
10,63818	81314
10,64263	138069
10,64707	236859
10,65152	383922
10,65595	596541
10,66040	846575
10,66483	1114914
10,66928	1344117
10,67372	1543951
10,67817	1628630
10,68260	1612057
10,68705	1466745
10,69148	1249201
10,69593	998264
10,70037	770233
10,70482	577474
10,70927	427501
10,71370	319275
10,71815	238110
10,72258	183036
10,72703	146434
10,73147	119586
10,73592	96893
10,74035	83087
10,74480	70499
10,74923	60411
10,75368	51567
10,75812	48894
10,76257	43688
10,76700	38946
10,77145	34722
10,77588	34756
10,78033	31221
10,78477	29471
10,78922	26269
10,79365	26244
10,79810	24124
10,80253	24308
10,80698	21629
10,81142	22049
10,81587	21771
10,82030	20928
10,82475	19635
10,82920	19686
10,83363	19373
10,83808	18085
10,84252	17754
10,84697	17180
10,85140	16185
10,85585	16128
10,86028	16207
10,86473	15216
10,86917	15250
10,87362	15646
10,87805	15158
10,88250	16080
10,88693	15423
10,89138	14481
10,89582	14309
10,90027	13584
10,90470	14939
10,90915	13903
10,91358	15407
10,91803	16714
10,92247	22454
10,92692	36328
10,93135	64499
10,93580	112357
10,94023	188353
10,94468	285829
10,94912	415224
10,95357	556335
10,95802	677426
10,96245	763851
10,96690	789128
10,97133	752345
10,97578	655989
10,98022	550290
10,98467	439758
10,98910	343648
10,99355	262093
10,99798	199342
11,00243	148824
11,00687	115617
11,01132	89470
11,01575	73357
11,02020	60435
11,02463	49751
11,02908	44481
11,03352	37796
11,03797	31995
11,04240	33381
11,04685	28611
11,05128	26795
11,05573	23311
11,06017	24567
11,06462	22884
11,06905	20800
11,07350	19786
11,07795	19534
11,08238	19498
11,08683	17946
11,09127	18752
11,09572	17297
11,10015	17978
11,10460	16418
11,10903	15512
11,11348	16463
11,11792	16546
11,12237	16118
11,12680	15948
11,13125	15698
11,13568	15515
11,14013	16696
11,14457	16026
11,14902	16881
11,15345	16720
11,15790	16709
11,16233	15442
11,16678	15833
11,17122	15867
11,17567	15698
11,18010	15425
11,18455	14863
11,18898	15582
11,19343	15498
11,19788	16350
11,20232	14159
11,20677	14002
11,21120	15540
11,21565	13493
11,22008	14005
11,22453	13338
11,22897	13848
11,23342	13781
11,23785	17353
11,24230	24324
11,24673	36121
11,25118	65486
11,25562	112897
11,26007	193782
11,26450	292850
11,26895	412433
11,27338	546870
11,27783	656270
11,28227	723416
11,28672	745363
11,29115	710620
11,29560	629658
11,30003	528944
11,30448	416978
11,30892	316873
11,31337	244459
11,31782	185708
11,32225	139614
11,32670	106099
11,33113	85581
11,33558	69463
11,34002	59981
11,34447	47173
11,34890	41821
11,35335	37714
11,35778	34759
11,36223	31646
11,36667	28547
11,37112	27077
11,37555	23598
11,38000	24728
11,38443	22642
11,38888	22421
11,39332	19889
11,39777	19975
11,40220	19768
11,40665	18864
11,41108	17681
11,41553	19403
11,41997	17260
11,42442	16655
11,42885	16895
11,43330	15459
11,43775	15566
11,44218	14541
11,44663	14719
11,45107	15424
11,45552	14143
11,45995	16445
11,46440	14894
11,46883	14644
11,47328	13471
11,47772	15596
11,48217	13300
11,48660	14779
11,49105	14490
11,49548	14377
11,49993	13056
11,50437	13717
11,50882	12901
11,51325	13646
11,51770	12947
11,52213	12684
11,52658	13768
11,53102	11785
11,53547	13025
11,53990	12488
11,54435	11736
11,54878	13120
11,55323	11526
11,55768	13145
11,56212	12325
11,56657	12424
11,57100	13226
11,57545	13528
11,57988	13774
11,58433	13088
11,58877	14131
11,59322	13614
11,59765	12856
11,60210	13210
11,60653	13265
11,61098	11883
11,61542	14499
11,61987	12988
11,62430	13217
11,62875	11045
11,63318	10600
11,63763	12598
11,64207	11617
11,64652	13172
11,65095	14559
11,65540	18186
11,65983	26182
11,66428	50066
11,66872	90038
11,67317	169091
11,67760	287456
11,68205	479930
11,68650	747521
11,69093	1063232
11,69538	1445185
11,69982	1841475
11,70427	2194722
11,70870	2431285
11,71315	2472669
11,71758	2366065
11,72203	2069981
11,72647	1711024
11,73092	1362721
11,73535	1052837
11,73980	795696
11,74423	597208
11,74868	452771
11,75312	350550
11,75757	266352
11,76200	211489
11,76645	167945
11,77088	135168
11,77533	116776
11,77977	99962
11,78422	88384
11,78865	76183
11,79310	68276
11,79753	63219
11,80198	57501
11,80643	50749
11,81087	48269
11,81532	45132
11,81975	41239
11,82420	37587
11,82863	36078
11,83308	33541
11,83752	32716
11,84197	31028
11,84640	28741
11,85085	25805
11,85528	27168
11,85973	27608
11,86417	25004
11,86862	24394
11,87305	23615
11,87750	24958
11,88193	23127
11,88638	22277
11,89082	21543
11,89527	20310
11,89970	19847
11,90415	19869
11,90858	20207
11,91303	19353
11,91747	18143
11,92192	20718
11,92637	19722
11,93080	19757
11,93525	21009
11,93968	24190
11,94413	28178
11,94857	39407
11,95302	53034
11,95745	86330
11,96190	136852
11,96633	209606
11,97078	314385
11,97522	423979
11,97967	542044
11,98410	623551
11,98855	676387
11,99298	671397
11,99743	614162
12,00187	535997
12,00632	437579
12,01075	343931
12,01520	262938
12,01963	199630
12,02408	150828
12,02852	112621
12,03297	92698
12,03740	72607
12,04185	60970
12,04630	53224
12,05073	49906
12,05518	53324
12,05962	69840
12,06407	98774
12,06850	154520
12,07295	242026
12,07738	359069
12,08183	503792
12,08627	657781
12,09072	789332
12,09515	864471
12,09960	882322
12,10403	829160
12,10848	737873
12,11292	608750
12,11737	473670
12,12180	357814
12,12625	271767
12,13068	205639
12,13513	160721
12,13957	124646
12,14402	99930
12,14845	82785
12,15290	69817
12,15733	60164
12,16178	53229
12,16623	49671
12,17067	42309
12,17512	41843
12,17955	38741
12,18400	35706
12,18843	32865
12,19288	31169
12,19732	28825
12,20177	27991
12,20620	27545
12,21065	25914
12,21508	25619
12,21953	23834
12,22397	24209
12,22842	22610
12,23285	21057
12,23730	23829
12,24173	20969
12,24618	21344
12,25062	19714
12,25507	20154
12,25950	20439
12,26395	19791
12,26838	18681
12,27283	19609
12,27727	18417
12,28172	18345
12,28615	17955
12,29060	18965
12,29505	18410
12,29948	17218
12,30393	16732
12,30837	18357
12,31282	17343
12,31725	17324
12,32170	16969
12,32613	16851
12,33058	15793
12,33502	16317
12,33947	16472
12,34390	16149
12,34835	17115
12,35278	18113
12,35723	21570
12,36167	31247
12,36612	49529
12,37055	82880
12,37500	150095
12,37943	249404
12,38388	385974
12,38832	558416
12,39277	737753
12,39720	877506
12,40165	956506
12,40608	974597
12,41053	896414
12,41498	773141
12,41942	618770
12,42387	472105
12,42830	358997
12,43275	264893
12,43718	201448
12,44163	153732
12,44607	124822
12,45052	100998
12,45495	85744
12,45940	71440
12,46383	63376
12,46828	56127
12,47272	50570
12,47717	44186
12,48160	43206
12,48605	38231
12,49048	35796
12,49493	33119
12,49937	31980
12,50382	31900
12,50825	28344
12,51270	28229
12,51713	26890
12,52158	27406
12,52602	27659
12,53047	25669
12,53492	25190
12,53935	24630
12,54380	25567
12,54823	23440
12,55268	23291
12,55712	22758
12,56157	21341
12,56600	20532
12,57045	20686
12,57488	21112
12,57933	20241
12,58377	19640
12,58822	20221
12,59265	20523
12,59710	17533
12,60153	18294
12,60598	17053
12,61042	18768
12,61487	18041
12,61930	17172
12,62375	18626
12,62818	18513
12,63263	15729
12,63707	17332
12,64152	17770
12,64595	21668
12,65040	27148
12,65485	41913
12,65928	74176
12,66373	123602
12,66817	204318
12,67262	324020
12,67705	456270
12,68150	590358
12,68593	698491
12,69038	766289
12,69482	766170
12,69927	719447
12,70370	631836
12,70815	511153
12,71258	397092
12,71703	310403
12,72147	231777
12,72592	174759
12,73035	136354
12,73480	105474
12,73923	86661
12,74368	75538
12,74812	61276
12,75257	55325
12,75700	49782
12,76145	44530
12,76588	39595
12,77033	34371
12,77478	32898
12,77922	33578
12,78367	29283
12,78810	30020
12,79255	29112
12,79698	26638
12,80143	27456
12,80587	26007
12,81032	25574
12,81475	23742
12,81920	24018
12,82363	24021
12,82808	23995
12,83252	21177
12,83697	21796
12,84140	20762
12,84585	21633
12,85028	20301
12,85473	21586
12,85917	19870
12,86362	19984
12,86805	20904
12,87250	17951
12,87693	20788
12,88138	18816
12,88582	18272
12,89027	18335
12,89472	18664
12,89915	18686
12,90360	18355
12,90803	17525
12,91248	18424
12,91692	16705
12,92137	17680
12,92580	18255
12,93025	18978
12,93468	17042
12,93913	16667
12,94357	15889
12,94802	17085
12,95245	16868
12,95690	17245
12,96133	17840
12,96578	17639
12,97022	18609
12,97467	18122
12,97910	19484
12,98355	18003
12,98798	19985
12,99243	17966
12,99687	16193
13,00132	17678
13,00575	18301
13,01020	17817
13,01463	16194
13,01908	17104
13,02353	16580
13,02797	18574
13,03242	19563
13,03685	22156
13,04130	29184
13,04573	40538
13,05018	71899
13,05462	123755
13,05907	210612
13,06350	340059
13,06795	524727
13,07238	760075
13,07683	1041482
13,08127	1362881
13,08572	1729618
13,09015	2036181
13,09460	2262986
13,09903	2327660
13,10348	2240775
13,10792	2060231
13,11237	1792158
13,11680	1533469
13,12125	1275846
13,12568	1039813
13,13013	825891
13,13457	655081
13,13902	510711
13,14347	393759
13,14790	314535
13,15235	251059
13,15678	203062
13,16123	170009
13,16567	140591
13,17012	123532
13,17455	111062
13,17900	100556
13,18343	90220
13,18788	78922
13,19232	76408
13,19677	68655
13,20120	67157
13,20565	59956
13,21008	57848
13,21453	52925
13,21897	50225
13,22342	48385
13,22785	47849
13,23230	44895
13,23673	42658
13,24118	41293
13,24562	40463
13,25007	37316
13,25450	35974
13,25895	37820
13,26340	35325
13,26783	36782
13,27228	34730
13,27672	35726
13,28117	34078
13,28560	34200
13,29005	36808
13,29448	36075
13,29893	34423
13,30337	34012
13,30782	34521
13,31225	33701
13,31670	31652
13,32113	35611
13,32558	38376
13,33002	45744
13,33447	61569
13,33890	94202
13,34335	147063
13,34778	233150
13,35223	342624
13,35667	467378
13,36112	582148
13,36555	674998
13,37000	733183
13,37443	721497
13,37888	652223
13,38333	562496
13,38777	459076
13,39222	374019
13,39665	305168
13,40110	282813
13,40553	303383
13,40998	347640
13,41442	430178
13,41887	539257
13,42330	640086
13,42775	720963
13,43218	783502
13,43663	822121
13,44107	859438
13,44552	896397
13,44995	951149
13,45440	1022112
13,45883	1074656
13,46328	1097778
13,46772	1046007
13,47217	937141
13,47660	798911
13,48105	651221
13,48548	513126
13,48993	399621
13,49437	307727
13,49882	246240
13,50327	201099
13,50770	165085
13,51215	139655
13,51658	120661
13,52103	105901
13,52547	97390
13,52992	89970
13,53435	79649
13,53880	70322
13,54323	67511
13,54768	63870
13,55212	59752
13,55657	56416
13,56100	53007
13,56545	47553
13,56988	48580
13,57433	46276
13,57877	42367
13,58322	43769
13,58765	42777
13,59210	41177
13,59653	41672
13,60098	40556
13,60542	42170
13,60987	40646
13,61430	40581
13,61875	38781
13,62320	34404
13,62763	36538
13,63208	32792
13,63652	31540
13,64097	30551
13,64540	30424
13,64985	29663
13,65428	29407
13,65873	28567
13,66317	27845
13,66762	27346
13,67205	27975
13,67650	27948
13,68093	28324
13,68538	27668
13,68982	27648
13,69427	27542
13,69870	26936
13,70315	34016
13,70758	45385
13,71203	62640
13,71647	97964
13,72092	159577
13,72535	256375
13,72980	385627
13,73423	540238
13,73868	713768
13,74312	873593
13,74757	976392
13,75202	1002443
13,75645	949246
13,76090	816987
13,76533	667780
13,76978	515828
13,77422	399768
13,77867	303020
13,78310	240220
13,78755	188343
13,79198	159122
13,79643	129643
13,80087	114622
13,80532	98579
13,80975	90712
13,81420	76499
13,81863	71180
13,82308	66294
13,82752	59520
13,83197	58011
13,83640	54482
13,84085	49726
13,84528	48187
13,84973	47390
13,85417	45535
13,85862	44379
13,86305	43861
13,86750	43650
13,87195	42485
13,87638	39582
13,88083	40953
13,88527	38803
13,88972	36928
13,89415	36767
13,89860	35394
13,90303	34725
13,90748	34512
13,91192	32115
13,91637	31320
13,92080	32028
13,92525	30207
13,92968	31325
13,93413	29480
13,93857	31138
13,94302	30832
13,94745	31426
13,95190	30752
13,95633	28643
13,96078	29194
13,96522	28992
13,96967	28283
13,97410	26809
13,97855	28349
13,98298	28674
13,98743	30421
13,99188	36228
13,99632	45273
14,00077	66023
14,00520	106899
14,00965	170888
14,01408	262700
14,01853	390197
14,02297	525847
14,02742	656423
14,03185	766990
14,03630	802661
14,04073	769087
14,04518	704620
14,04962	593260
14,05407	483317
14,05850	382383
14,06295	290710
14,06738	233082
14,07183	182492
14,07627	147438
14,08072	124763
14,08515	105791
14,08960	100978
14,09403	101414
14,09848	115624
14,10292	141613
14,10737	190556
14,11182	256540
14,11625	343987
14,12070	433985
14,12513	523068
14,12958	582368
14,13402	607399
14,13847	584247
14,14290	530008
14,14735	456142
14,15178	381894
14,15623	305879
14,16067	244034
14,16512	196660
14,16955	151571
14,17400	126436
14,17843	104543
14,18288	91141
14,18732	76857
14,19177	70736
14,19620	64477
14,20065	57737
14,20508	56021
14,20953	51929
14,21397	46211
14,21842	43968
14,22285	42119
14,22730	41990
14,23175	38241
14,23618	38158
14,24063	37641
14,24507	37011
14,24952	36531
14,25395	35638
14,25840	32315
14,26283	33220
14,26728	33244
14,27172	33698
14,27617	31767
14,28060	31433
14,28505	31011
14,28948	30859
14,29393	29325
14,29837	28631
14,30282	30336
14,30725	28109
14,31170	28509
14,31613	28608
14,32058	29489
14,32502	27999
14,32947	29494
14,33390	28900
14,33835	27995
14,34278	26721
14,34723	27742
14,35168	27733
14,35612	26415
14,36057	26799
14,36500	30251
14,36945	34813
14,37388	44480
14,37833	65453
14,38277	97612
14,38722	154395
14,39165	240193
14,39610	359613
14,40053	505259
14,40498	701174
14,40942	917589
14,41387	1163222
14,41830	1401612
14,42275	1614973
14,42718	1779911
14,43163	1801470
14,43607	1688190
14,44052	1473064
14,44495	1194503
14,44940	929598
14,45383	703770
14,45828	539213
14,46272	421890
14,46717	340739
14,47160	278313
14,47605	234726
14,48050	203812
14,48493	174362
14,48938	155752
14,49382	143877
14,49827	126555
14,50270	114250
14,50715	108053
14,51158	96537
14,51603	92288
14,52047	84083
14,52492	83215
14,52935	75713
14,53380	72539
14,53823	69049
14,54268	64427
14,54712	63459
14,55157	62030
14,55600	59414
14,56045	55416
14,56488	53557
14,56933	54231
14,57377	52832
14,57822	51438
14,58265	49233
14,58710	47658
14,59153	46037
14,59598	44243
14,60043	44081
14,60487	44264
14,60932	42548
14,61375	41648
14,61820	39122
14,62263	39894
14,62708	38556
14,63152	39189
14,63597	38244
14,64040	35992
14,64485	36936
14,64928	35194
14,65373	34988
14,65817	37822
14,66262	37031
14,66705	36333
14,67150	36075
14,67593	34569
14,68038	34082
14,68482	35048
14,68927	35248
14,69370	33854
14,69815	33513
14,70258	33186
14,70703	31707
14,71147	34646
14,71592	32821
14,72037	31684
14,72480	31567
14,72925	30186
14,73368	31239
14,73813	30328
14,74257	32820
14,74702	31155
14,75145	33810
14,75590	37199
14,76033	48797
14,76478	65318
14,76922	91379
14,77367	137477
14,77810	207251
14,78255	297691
14,78698	413163
14,79143	537359
14,79587	660576
14,80032	761062
14,80475	830605
14,80920	833561
14,81363	785730
14,81808	705327
14,82252	602075
14,82697	493193
14,83140	394936
14,83585	318552
14,84030	258686
14,84473	211932
14,84918	178094
14,85362	152870
14,85807	131086
14,86250	113023
14,86695	105222
14,87138	94206
14,87583	88248
14,88027	80217
14,88472	76122
14,88915	68616
14,89360	65251
14,89803	63392
14,90248	56906
14,90692	55350
14,91137	54157
14,91580	50628
14,92025	48978
14,92468	48882
14,92913	45406
14,93357	43409
14,93802	44195
14,94245	42821
14,94690	41894
14,95133	41463
14,95578	38210
14,96023	37339
14,96467	39503
14,96912	36176
14,97355	36270
14,97800	34429
14,98243	35242
14,98688	35786
14,99132	34106
14,99577	34285
15,00020	31226
15,00465	33303
15,00908	33736
15,01353	32385
15,01797	31883
15,02242	30906
15,02685	31509
15,03130	33712
15,03573	31985
15,04018	31492
15,04462	30335
15,04907	31270
15,05350	28559
15,05795	28766
15,06238	28706
15,06683	29483
15,07127	29773
15,07572	29662
15,08017	29297
15,08460	29444
15,08905	30153
15,09348	33181
15,09793	30152
15,10237	30965
15,10682	31966
15,11125	32884
15,11570	33278
15,12013	34427
15,12458	34095
15,12902	33355
15,13347	32536
15,13790	33321
15,14235	32660
15,14678	31471
15,15123	29020
15,15567	30794
15,16012	28646
15,16455	28568
15,16900	29338
15,17343	28172
15,17788	27531
15,18232	27117
15,18677	25870
15,19120	27723
15,19565	26535
15,20008	26570
15,20453	27113
15,20898	24992
15,21342	26937
15,21787	24943
15,22230	26551
15,22675	26992
15,23118	25512
15,23563	27380
15,24007	27517
15,24452	26306
15,24895	28154
15,25340	26980
15,25783	26681
15,26228	28662
15,26672	27835
15,27117	27784
15,27560	27085
15,28005	25852
15,28448	27474
15,28893	25773
15,29337	26311
15,29782	24523
15,30225	27302
15,30670	26445
15,31113	26009
15,31558	26475
15,32002	26143
15,32447	26752
15,32892	27387
15,33335	25470
15,33780	26097
15,34223	25249
15,34668	26439
15,35112	26816
15,35557	25533
15,36000	25409
15,36445	27440
15,36888	24889
15,37333	25847
15,37777	25903
15,38222	27031
15,38665	25086
15,39110	25361
15,39553	26488
15,39998	25921
15,40442	26075
15,40887	25811
15,41330	25372
15,41775	26560
15,42218	25930
15,42663	24373
15,43107	25582
15,43552	26083
15,43995	25452
15,44440	25201
15,44885	24712
15,45328	24421
15,45773	27456
15,46217	24905
15,46662	27080
15,47105	25494
15,47550	25899
15,47993	26535
15,48438	25271
15,48882	24881
15,49327	25032
15,49770	27091
15,50215	25396
15,50658	27209
15,51103	26516
15,51547	24910
15,51992	25564
15,52435	27073
15,52880	25802
15,53323	26012
15,53768	24189
15,54212	23848
15,54657	25267
15,55100	24829
15,55545	26798
15,55988	24885
15,56433	24607
15,56878	24515
15,57322	26160
15,57767	24455
15,58210	25777
15,58655	25191
15,59098	25772
15,59543	26091
15,59987	24815
15,60432	27259
15,60875	24877
15,61320	25006
15,61763	24153
15,62208	26001
15,62652	24765
15,63097	24343
15,63540	26274
15,63985	25854
15,64428	26925
15,64873	25219
15,65317	25839
15,65762	25272
15,66205	26580
15,66650	26431
15,67093	24446
15,67538	25953
15,67982	27482
15,68427	25713
15,68872	25226
15,69315	27796
15,69760	24911
15,70203	24736
15,70648	28973
15,71092	26633
15,71537	26608
15,71980	25973
15,72425	26384
15,72868	28179
15,73313	25342
15,73757	27083
15,74202	25871
15,74645	26261
15,75090	24405
15,75533	25284
15,75978	25451
15,76422	25816
15,76867	26149
15,77310	25294
15,77755	25004
15,78198	24810
15,78643	25562
15,79087	25090
15,79532	25244
15,79975	25072
15,80420	24209
15,80865	25951
15,81308	26084
15,81753	26141
15,82197	26670
15,82642	26526
15,83085	25183
15,83530	24648
15,83973	26470
15,84418	26508
15,84862	26477
15,85307	26563
15,85750	24154
15,86195	25282
15,86638	25918
15,87083	26129
15,87527	24457
15,87972	26836
15,88415	26768
15,88860	25422
15,89303	27648
15,89748	32700
15,90192	36642
15,90637	46402
15,91080	65038
15,91525	88722
15,91968	121317
15,92413	166449
15,92857	225842
15,93302	285676
15,93747	341514
15,94190	395660
15,94635	430417
15,95078	438607
15,95523	435917
15,95967	414110
15,96412	379540
15,96855	336889
15,97300	291541
15,97743	245797
15,98188	209943
15,98632	172062
15,99077	146875
15,99520	126625
15,99965	110198
16,00408	98809
16,00853	81301
16,01297	74901
16,01742	68846
16,02185	62828
16,02630	60394
16,03073	55337
16,03518	52677
16,03962	49266
16,04407	48157
16,04850	44943
16,05295	44008
16,05740	42445
16,06183	39876
16,06628	39687
16,07072	40780
16,07517	39796
16,07960	39722
16,08405	34885
16,08848	36868
16,09293	36201
16,09737	35416
16,10182	36208
16,10625	33864
16,11070	34695
16,11513	32902
16,11958	32121
16,12402	32918
16,12847	32721
16,13290	33594
16,13735	31166
16,14178	30902
16,14623	31028
16,15067	31908
16,15512	31546
16,15955	29006
16,16400	30170
16,16843	30363
16,17288	30309
16,17733	31386
16,18177	27967
16,18622	28837
16,19065	30105
16,19510	29643
16,19953	28614
16,20398	28131
16,20842	28069
16,21287	29660
16,21730	28068
16,22175	28809
16,22618	29126
16,23063	29109
16,23507	28767
16,23952	28124
16,24395	28267
16,24840	29095
16,25283	27048
16,25728	28550
16,26172	28056
16,26617	29270
16,27060	27419
16,27505	27499
16,27948	28633
16,28393	29151
16,28837	25826
16,29282	25760
16,29727	27362
16,30170	27173
16,30615	27684
16,31058	26824
16,31503	27903
16,31947	28954
16,32392	27107
16,32835	27478
16,33280	27674
16,33723	26638
16,34168	26233
16,34612	25863
16,35057	26915
16,35500	28944
16,35945	26365
16,36388	27783
16,36833	27716
16,37277	28937
16,37722	26905
16,38165	27013
16,38610	25734
16,39053	27785
16,39498	27229
16,39942	27924
16,40387	26604
16,40830	28351
16,41275	28787
16,41720	25174
16,42163	28569
16,42608	25565
16,43052	26538
16,43497	27865
16,43940	27067
16,44385	26739
16,44828	26931
16,45273	28182
16,45717	27654
16,46162	27366
16,46605	28609
16,47050	28520
16,47493	27468
16,47938	27890
16,48382	26896
16,48827	27977
16,49270	26835
16,49715	25924
16,50158	26638
16,50603	27168
16,51047	28568
16,51492	27021
16,51935	27056
16,52380	26250
16,52823	27012
16,53268	25953
16,53713	24432
16,54157	26640
16,54602	25895
16,55045	27167
16,55490	28352
16,55933	26021
16,56378	27471
16,56822	28296
16,57267	28517
16,57710	26484
16,58155	27343
16,58598	28949
16,59043	27801
16,59487	27225
16,59932	26258
16,60375	25899
16,60820	27295
16,61263	28694
16,61708	28095
16,62152	27493
16,62597	27763
16,63040	27921
16,63485	25427
16,63928	27546
16,64373	28115
16,64817	25708
16,65262	27929
16,65705	28540
16,66150	27249
16,66595	26538
16,67038	28270
16,67483	26321
16,67927	27982
16,68372	28365
16,68815	25846
16,69260	28483
16,69703	25991
16,70148	27844
16,70592	26835
16,71037	26740
16,71480	25914
16,71925	28338
16,72368	27552
16,72813	28294
16,73257	26451
16,73702	25759
16,74145	24655
16,74590	26085
16,75033	27249
16,75478	25243
16,75922	26154
16,76367	24813
16,76810	25802
16,77255	27754
16,77698	26591
16,78143	28290
16,78588	26214
16,79032	27238
16,79477	28975
16,79920	27524
16,80365	28221
16,80808	27543
16,81253	26891
16,81697	25502
16,82142	26611
16,82585	25323
16,83030	28680
16,83473	26854
16,83918	26061
16,84362	27190
16,84807	26268
16,85250	24811
16,85695	27659
16,86138	27248
16,86583	27782
16,87027	27604
16,87472	28677
16,87915	27807
16,88360	30584
16,88803	28304
16,89248	28312
16,89692	26902
16,90137	28737
16,90582	27965
16,91025	28126
16,91470	28312
16,91913	28118
16,92358	29240
16,92802	27199
16,93247	27240
16,93690	27342
16,94135	27531
16,94578	26487
16,95023	27244
16,95467	27733
16,95912	27789
16,96355	26291
16,96800	28126
16,97243	26239
16,97688	28926
16,98132	27000
16,98577	28075
16,99020	28269
16,99465	27081
16,99908	27897
17,00353	27747
17,00797	27791
17,01242	26466
17,01685	28423
17,02130	27371
17,02575	27353
17,03018	28759
17,03463	29129
17,03907	28767
17,04352	28351
17,04795	27345
17,05240	28191
17,05683	28648
17,06128	27979
17,06572	27079
17,07017	28596
17,07460	27307
17,07905	28166
17,08348	28703
17,08793	26429
17,09237	28374
17,09682	27352
17,10125	26183
17,10570	26263
17,11013	26695
17,11458	28102
17,11902	27836
17,12347	28307
17,12790	27530
17,13235	27730
17,13678	27409
17,14123	25931
17,14568	24895
17,15012	27815
17,15457	25783
17,15900	26954
17,16345	26738
17,16788	25525
17,17233	27152
17,17677	24377
17,18122	27211
17,18565	26777
17,19010	24442
17,19453	25479
17,19898	26907
17,20342	27433
17,20787	27092
17,21230	24379
17,21675	26361
17,22118	26590
17,22563	25633
17,23007	26401
17,23452	27003
17,23895	26379
17,24340	26304
17,24783	26001
17,25228	26144
17,25672	27659
17,26117	26339
17,26562	27080
17,27005	27603
17,27450	26907
17,27893	25014
17,28338	28506
17,28782	27298
17,29227	26338
17,29670	26123
17,30115	26995
17,30558	26768
17,31003	24551
17,31447	26875
17,31892	26448
17,32335	25628
17,32780	26030
17,33223	26428
17,33668	26858
17,34112	25850
17,34557	25414
17,35000	25981
17,35445	26151
17,35888	26809
17,36333	26991
17,36777	24930
17,37222	26942
17,37665	25401
17,38110	25578
17,38553	27776
17,38998	27738
17,39443	27650
17,39887	26559
17,40332	26675
17,40775	27123
17,41220	27795
17,41663	29706
17,42108	28476
17,42552	27661
17,42997	26276
17,43440	28140
17,43885	27244
17,44328	27860
17,44773	26310
17,45217	28346
17,45662	26352
17,46105	28437
17,46550	27303
17,46993	29183
17,47438	28985
17,47882	27944
17,48327	27671
17,48770	27034
17,49215	27438
17,49658	28290
17,50103	28047
17,50547	27891
17,50992	26509
17,51437	26465
17,51880	29150
17,52325	27030
17,52768	26735
17,53213	27593
17,53657	27737
17,54102	25860
17,54545	26018
17,54990	28417
17,55433	26904
17,55878	27095
17,56322	28549
17,56767	29600
17,57210	28547
17,57655	25566
17,58098	25735
17,58543	26086
17,58987	26778
17,59432	24983
17,59875	26907
17,60320	26386
17,60763	25588
17,61208	26943
17,61652	27547
17,62097	25854
17,62540	26266
17,62985	26989
17,63430	26289
17,63873	27934
17,64318	26045
17,64762	26471
17,65207	27362
17,65650	26865
17,66095	26800
17,66538	26466
17,66983	26961
17,67427	25438
17,67872	26460
17,68315	25968
17,68760	26319
17,69203	25828
17,69648	27386
17,70092	27966
17,70537	28184
17,70980	27131
17,71425	26971
17,71868	26473
17,72313	25338
17,72757	26096
17,73202	25619
17,73645	24597
17,74090	25279
17,74533	25696
17,74978	26198
17,75423	27281
17,75867	26517
17,76312	25842
17,76755	26346
17,77200	26821
17,77643	26541
17,78088	25549
17,78532	25469
17,78977	25280
17,79420	25669
17,79865	25992
17,80308	25254
17,80753	25423
17,81197	26424
17,81642	26848
17,82085	26567
17,82530	24934
17,82973	28422
17,83418	26125
17,83862	25999
17,84307	26780
17,84750	26815
17,85195	24439
17,85638	26524
17,86083	26036
17,86527	25505
17,86972	27306
17,87417	26836
17,87860	26015
17,88305	27146
17,88748	24750
17,89193	27068
17,89637	27424
17,90082	26226
17,90525	26751
17,90970	26352
17,91413	27385
17,91858	27182
17,92302	28444
17,92747	27394
17,93190	25821
17,93635	29132
17,94078	25753
17,94523	25467
17,94967	28281
17,95412	25529
17,95855	27968
17,96300	25063
17,96743	24716
17,97188	25827
17,97632	27524
17,98077	25345
17,98520	27107
17,98965	27921
17,99410	25295
17,99853	23966
18,00298	24816
18,00742	24472
18,01187	26905
18,01630	25459
18,02075	25860
18,02518	26493
18,02963	28197
18,03407	28814
18,03852	27462
18,04295	27544
18,04740	29489
18,05183	27958
18,05628	29848
18,06072	28274
18,06517	28183
18,06960	28716
18,07405	30082
18,07848	27193
18,08293	29832
18,08737	27089
18,09182	26954
18,09625	29232
18,10070	28063
18,10513	27568
18,10958	25699
18,11402	27541
18,11847	26541
18,12292	25645
18,12735	27605
18,13180	25240
18,13623	26345
18,14068	27151
18,14512	27301
18,14957	25851
18,15400	26243
18,15845	27559
18,16288	25799
18,16733	27369
18,17177	26012
18,17622	26469
18,18065	27085
18,18510	27341
18,18953	24493
18,19398	25887
18,19842	26419
18,20287	26761
18,20730	26887
18,21175	26346
18,21618	27012
18,22063	25398
18,22507	26241
18,22952	26865
18,23395	24739
18,23840	23755
18,24285	25854
18,24728	25315
18,25173	25425
18,25617	25779
18,26062	27022
18,26505	26279
18,26950	26218
18,27393	26285
18,27838	25326
18,28282	25858
18,28727	25319
18,29170	26673
18,29615	28255
18,30058	27686
18,30503	26706
18,30947	27649
18,31392	25607
18,31835	27424
18,32280	26627
18,32723	26162
18,33168	26258
18,33612	26769
18,34057	24710
18,34500	27695
18,34945	26078
18,35388	26910
18,35833	26508
18,36278	26091
18,36722	26726
18,37167	26435
18,37610	28288
18,38055	28116
18,38498	25516
18,38943	27870
18,39387	27579
18,39832	24238
18,40275	27198
18,40720	27066
18,41163	26014
18,41608	27085
18,42052	25647
18,42497	27476
18,42940	25171
18,43385	24924
18,43828	24548
18,44273	25172
18,44717	24534
18,45162	26174
18,45605	26044
18,46050	26546
18,46493	26858
18,46938	26771
18,47382	25644
18,47827	26336
18,48272	26909
18,48715	26161
18,49160	27443
18,49603	28379
18,50048	28698
18,50492	27007
18,50937	26950
18,51380	27511
18,51825	28045
18,52268	25934
18,52713	26752
18,53157	25244
18,53602	27942
18,54045	28132
18,54490	28335
18,54933	27463
18,55378	25682
18,55822	25884
18,56267	26687
18,56710	27931
18,57155	24414
18,57598	26172
18,58043	27259
18,58487	26633
18,58932	25006
18,59375	26152
18,59820	27146
18,60265	27588
18,60708	26390
18,61153	25367
18,61597	26291
18,62042	24940
18,62485	24728
18,62930	24781
18,63373	25818
18,63818	25865
18,64262	26618
18,64707	25966
18,65150	26362
18,65595	26593
18,66038	27716
18,66483	27584
18,66927	25524
18,67372	27970
18,67815	27508
18,68260	26102
18,68703	26452
18,69148	26663
18,69592	25569
18,70037	24500
18,70480	27730
18,70925	25617
18,71368	25835
18,71813	24422
18,72258	28807
18,72702	26655
18,73147	27139
18,73590	26557
18,74035	24869
18,74478	24737
