D:\MassHunter\GCMS\1\data\Amal\Constant flow\90C\90C_1ml-min_6C-min_1.D Thu Aug 01 17:33:42 2024
Start of data points
6,09085,181677
6,09498,175228
6,09910,167474
6,10322,163839
6,10735,153949
6,11147,147317
6,11558,137848
6,11972,131955
6,12383,125082
6,12795,121026
6,13208,115027
6,13620,104626
6,14032,103145
6,14445,96038
6,14857,89463
6,15268,86288
6,15682,81071
6,16093,74437
6,16505,70021
6,16918,67290
6,17330,63375
6,17742,59203
6,18153,55171
6,18567,49567
6,18978,48837
6,19390,47189
6,19803,43390
6,20215,40149
6,20627,37825
6,21040,36720
6,21452,32391
6,21863,31810
6,22277,29511
6,22688,28592
6,23100,28472
6,23513,24976
6,23925,24476
6,24337,24114
6,24750,23269
6,25162,21419
6,25573,21524
6,25987,21711
6,26398,20622
6,26810,19808
6,27222,19681
6,27635,17939
6,28047,17949
6,28458,17293
6,28872,16168
6,29283,17268
6,29695,16587
6,30108,16761
6,30520,16284
6,30932,15761
6,31345,14670
6,31757,15653
6,32168,14720
6,32582,14975
6,32993,14151
6,33405,15381
6,33818,14467
6,34230,13498
6,34642,14280
6,35055,13186
6,35467,14852
6,35878,15058
6,36290,14265
6,36703,13805
6,37115,15067
6,37527,13168
6,37940,13620
6,38352,13611
6,38763,13388
6,39177,12436
6,39588,13143
6,40000,11630
6,40413,12540
6,40825,13611
6,41237,12407
6,41650,13484
6,42062,13012
6,42473,12587
6,42887,12450
6,43298,11837
6,43710,12291
6,44123,12170
6,44535,13002
6,44947,11566
6,45358,11777
6,45772,12030
6,46183,11626
6,46595,10675
6,47008,10860
6,47420,12356
6,47832,11362
6,48245,11027
6,48657,11819
6,49068,11342
6,49482,12227
6,49893,11262
6,50305,12070
6,50718,11036
6,51130,11143
6,51542,11632
6,51955,11542
6,52367,11027
6,52778,12174
6,53192,11332
6,53603,11401
6,54015,11492
6,54427,10448
6,54840,12393
6,55252,11607
6,55663,10973
6,56077,11275
6,56488,11233
6,56900,10665
6,57313,10586
6,57725,11521
6,58137,12195
6,58550,10870
6,58962,11512
6,59373,10658
6,59787,10791
6,60198,10617
6,60610,10522
6,61023,11193
6,61435,10211
6,61847,10995
6,62260,10984
6,62672,10454
6,63083,9778
6,63495,10813
6,63908,9909
6,64320,10301
6,64732,10336
6,65145,10882
6,65557,10653
6,65968,9572
6,66382,10615
6,66793,10203
6,67205,9986
6,67618,10173
6,68030,9570
6,68442,9672
6,68855,8838
6,69267,10107
6,69678,9944
6,70092,9763
6,70503,9425
6,70915,9584
6,71328,9875
6,71740,9809
6,72152,9993
6,72563,9578
6,72977,9597
6,73388,8596
6,73800,9212
6,74213,10025
6,74625,8738
6,75037,9317
6,75450,9581
6,75862,9697
6,76273,9482
6,76687,9663
6,77098,9743
6,77510,9861
6,77923,8491
6,78335,8778
6,78747,8787
6,79160,7933
6,79572,8148
6,79983,8756
6,80397,9098
6,80808,8516
6,81220,8863
6,81632,8531
6,82045,8658
6,82457,9646
6,82868,9108
6,83282,8594
6,83693,9971
6,84105,10155
6,84518,8990
6,84930,8656
6,85342,8914
6,85755,8747
6,86167,8556
6,86578,8636
6,86992,8937
6,87403,8368
6,87815,9244
6,88228,8753
6,88640,7828
6,89052,8690
6,89465,8165
6,89877,9348
6,90288,7651
6,90702,8234
6,91113,8785
6,91525,8025
6,91937,8900
6,92350,8870
6,92762,8764
6,93173,8598
6,93587,8804
6,93998,8551
6,94410,8651
6,94823,8700
6,95235,8635
6,95647,8665
6,96060,7686
6,96472,8882
6,96883,8886
6,97297,8051
6,97708,8375
6,98120,8538
6,98533,8056
6,98945,8579
6,99357,7992
6,99770,8042
7,00182,7737
7,00593,8887
7,01005,8847
7,01418,9423
7,01830,8187
7,02242,8809
7,02655,9247
7,03067,8699
7,03478,8939
7,03892,8635
7,04303,8308
7,04715,8673
7,05128,9149
7,05540,7835
7,05952,8320
7,06365,8214
7,06777,8340
7,07188,8581
7,07602,7983
7,08013,7991
7,08425,7611
7,08838,8684
7,09250,7459
7,09662,8218
7,10073,8622
7,10487,8834
7,10898,7839
7,11310,7967
7,11723,7596
7,12135,7781
7,12547,7441
7,12960,7476
7,13372,7354
7,13783,7430
7,14197,7679
7,14608,7510
7,15020,7641
7,15433,8250
7,15845,7581
7,16257,7124
7,16670,7451
7,17082,7026
7,17493,7647
7,17907,7630
7,18318,7210
7,18730,8513
7,19142,7099
7,19555,7986
7,19967,7761
7,20378,7594
7,20792,7138
7,21203,7486
7,21615,7766
7,22028,7800
7,22440,7274
7,22852,6810
7,23265,7124
7,23677,7198
7,24088,7309
7,24502,7140
7,24913,6841
7,25325,7108
7,25738,7937
7,26150,7032
7,26562,7491
7,26975,6821
7,27387,7322
7,27798,6646
7,28210,7505
7,28623,7096
7,29035,6535
7,29447,6806
7,29860,7332
7,30272,7237
7,30683,7552
7,31097,6399
7,31508,6528
7,31920,7970
7,32333,7248
7,32745,6796
7,33157,6987
7,33570,6878
7,33982,6768
7,34393,7129
7,34807,7064
7,35218,6814
7,35630,7236
7,36043,7424
7,36455,6946
7,36867,6845
7,37278,7324
7,37692,6876
7,38103,6362
7,38515,6793
7,38928,7193
7,39340,6934
7,39752,7197
7,40165,6376
7,40577,6783
7,40988,6745
7,41402,6999
7,41813,6878
7,42225,7540
7,42638,7056
7,43050,6866
7,43462,6954
7,43875,7406
7,44287,5808
7,44698,6470
7,45112,6341
7,45523,5698
7,45935,6068
7,46347,6243
7,46760,7020
7,47172,7105
7,47583,6662
7,47997,7132
7,48408,7326
7,48820,6614
7,49233,6076
7,49645,6131
7,50057,6626
7,50470,6262
7,50882,6055
7,51293,7093
7,51707,6827
7,52118,7251
7,52530,7238
7,52943,6780
7,53355,7347
7,53767,7739
7,54180,9403
7,54592,12104
7,55003,15809
7,55415,23285
7,55828,30483
7,56240,40363
7,56652,52331
7,57065,65879
7,57477,78457
7,57888,88064
7,58302,100929
7,58713,107427
7,59125,109919
7,59538,112668
7,59950,111475
7,60362,108249
7,60775,106036
7,61187,100975
7,61598,95562
7,62012,87833
7,62423,83195
7,62835,77061
7,63248,72836
7,63660,68022
7,64072,62214
7,64483,58474
7,64897,50846
7,65308,48415
7,65720,44988
7,66133,41088
7,66545,37426
7,66957,33355
7,67370,30740
7,67782,28888
7,68193,23814
7,68607,23028
7,69018,21530
7,69430,18650
7,69843,17671
7,70255,15717
7,70667,15336
7,71080,14243
7,71492,12528
7,71903,12280
7,72317,11861
7,72728,10587
7,73140,9692
7,73552,9954
7,73965,9544
7,74377,8632
7,74788,8974
7,75202,8495
7,75613,8140
7,76025,7614
7,76438,7843
7,76850,8121
7,77262,7268
7,77675,7512
7,78087,7108
7,78498,6773
7,78912,6755
7,79323,7557
7,79735,6592
7,80148,6773
7,80560,6147
7,80972,6544
7,81385,6070
7,81797,6552
7,82208,6310
7,82620,6130
7,83033,7114
7,83445,6472
7,83857,5330
7,84270,6254
7,84682,6003
7,85093,7237
7,85507,6177
7,85918,6045
7,86330,5326
7,86743,6076
7,87155,5931
7,87567,5632
7,87980,6056
7,88392,6074
7,88803,6062
7,89217,5569
7,89628,5085
7,90040,5865
7,90453,5998
7,90865,5592
7,91277,6518
7,91688,5699
7,92102,6008
7,92513,5506
7,92925,6036
7,93338,5322
7,93750,5567
7,94162,6041
7,94575,4948
7,94987,5519
7,95398,5622
7,95812,5679
7,96223,5134
7,96635,5623
7,97048,6198
7,97460,6182
7,97872,6254
7,98285,6414
7,98697,6943
7,99108,6796
7,99522,6852
7,99933,7354
8,00345,7532
8,00757,7286
8,01170,7419
8,01582,7490
8,01993,6404
8,02407,6692
8,02818,5781
8,03230,7071
8,03643,5613
8,04055,5572
8,04467,5359
8,04880,5566
8,05292,5660
8,05703,4931
8,06117,5597
8,06528,5446
8,06940,5726
8,07353,5124
8,07765,5009
8,08177,4156
8,08590,4878
8,09002,4357
8,09413,4832
8,09825,5085
8,10238,5235
8,10650,4758
8,11062,4894
8,11475,4379
8,11887,5114
8,12298,4894
8,12712,4526
8,13123,5675
8,13535,4985
8,13948,4294
8,14360,5353
8,14772,5088
8,15185,4979
8,15597,4919
8,16008,5161
8,16422,5013
8,16833,5638
8,17245,4504
8,17658,5007
8,18070,5346
8,18482,5444
8,18893,5190
8,19307,5130
8,19718,4674
8,20130,4795
8,20543,5416
8,20955,5323
8,21367,4620
8,21780,5441
8,22192,4791
8,22603,4830
8,23017,5098
8,23428,5015
8,23840,5002
8,24253,4389
8,24665,4872
8,25077,5087
8,25490,4856
8,25902,4926
8,26313,4940
8,26727,4925
8,27138,5164
8,27550,3558
8,27962,5290
8,28375,5063
8,28787,4652
8,29198,4657
8,29612,4390
8,30023,5003
8,30435,4755
8,30848,4377
8,31260,3919
8,31672,4221
8,32085,4542
8,32497,4451
8,32908,4654
8,33322,5164
8,33733,5117
8,34145,4638
8,34558,4543
8,34970,4761
8,35382,5249
8,35795,4356
8,36207,4688
8,36618,5171
8,37030,4675
8,37443,3997
8,37855,5289
8,38267,4901
8,38680,5103
8,39092,4317
8,39503,4234
8,39917,4109
8,40328,4870
8,40740,4308
8,41153,4442
8,41565,4368
8,41977,4674
8,42390,4389
8,42802,4196
8,43213,4405
8,43627,4325
8,44038,4561
8,44450,4557
8,44863,5198
8,45275,4721
8,45687,4738
8,46100,4518
8,46512,3975
8,46923,4183
8,47335,4539
8,47748,4525
8,48160,4151
8,48572,4554
8,48985,4159
8,49397,4122
8,49808,4669
8,50222,4457
8,50633,3869
8,51045,4511
8,51458,4455
8,51870,4731
8,52282,4660
8,52695,4026
8,53107,4370
8,53518,3729
8,53932,4006
8,54343,4840
8,54755,3976
8,55168,4244
8,55580,4314
8,55992,4528
8,56403,4858
8,56817,4598
8,57228,4374
8,57640,4054
8,58053,4318
8,58465,4292
8,58877,4149
8,59290,4380
8,59702,4464
8,60113,4143
8,60527,4539
8,60938,4073
8,61350,4166
8,61763,4106
8,62175,4703
8,62587,4174
8,63000,4397
8,63412,4318
8,63823,4494
8,64237,4149
8,64648,4338
8,65060,4359
8,65472,4237
8,65885,4121
8,66297,4439
8,66708,4415
8,67122,4195
8,67533,4762
8,67945,4227
8,68358,4372
8,68770,4302
8,69182,5293
8,69595,4900
8,70007,4477
8,70418,4978
8,70832,4284
8,71243,4334
8,71655,4543
8,72068,4618
8,72480,4971
8,72892,4219
8,73305,4194
8,73717,4139
8,74128,4579
8,74540,4295
8,74953,4284
8,75365,3515
8,75777,3820
8,76190,4294
8,76602,3922
8,77013,4061
8,77427,3898
8,77838,4044
8,78250,4308
8,78663,4193
8,79075,4249
8,79487,4123
8,79900,4027
8,80312,4345
8,80723,4595
8,81137,4463
8,81548,4726
8,81960,4728
8,82373,4684
8,82785,5494
8,83197,4896
8,83608,5815
8,84022,5212
8,84433,6015
8,84845,5796
8,85258,6264
8,85670,7222
8,86082,5196
8,86495,6415
8,86907,5944
8,87318,5989
8,87732,5971
8,88143,4650
8,88555,5515
8,88968,4230
8,89380,5155
8,89792,4666
8,90205,4654
8,90617,5043
8,91028,3624
8,91442,4580
8,91853,4395
8,92265,4660
8,92677,4625
8,93090,3592
8,93502,3929
8,93913,4267
8,94327,4579
8,94738,4541
8,95150,3574
8,95563,4905
8,95975,4491
8,96387,3811
8,96800,3814
8,97212,4369
8,97623,3917
8,98037,3775
8,98448,3987
8,98860,3944
8,99273,3953
8,99685,3325
9,00097,4143
9,00510,3658
9,00922,4282
9,01333,4298
9,01745,3713
9,02158,3348
9,02570,3791
9,02982,3695
9,03395,3630
9,03807,3794
9,04218,3660
9,04632,3107
9,05043,4018
9,05455,3571
9,05868,3686
9,06280,3274
9,06692,3734
9,07105,4276
9,07517,3843
9,07928,3624
9,08342,4003
9,08753,3884
9,09165,4117
9,09578,3738
9,09990,3755
9,10402,3526
9,10813,3155
9,11227,3178
9,11638,3674
9,12050,3860
9,12463,4052
9,12875,3708
9,13287,3603
9,13700,3914
9,14112,3982
9,14523,4056
9,14937,3979
9,15348,3386
9,15760,3750
9,16173,4485
9,16585,3220
9,16997,3427
9,17410,3676
9,17822,3966
9,18233,4246
9,18647,4003
9,19058,3711
9,19470,4334
9,19882,3844
9,20295,4018
9,20707,4660
9,21118,3978
9,21532,3823
9,21943,3408
9,22355,3570
9,22768,3991
9,23180,3449
9,23592,3070
9,24005,3148
9,24417,3430
9,24828,3474
9,25242,3464
9,25653,3581
9,26065,3207
9,26478,3643
9,26890,3390
9,27302,3800
9,27715,3619
9,28127,3692
9,28538,3571
9,28950,3879
9,29363,3367
9,29775,3709
9,30187,3761
9,30600,3933
9,31012,3984
9,31423,3527
9,31837,4038
9,32248,3860
9,32660,3633
9,33073,3970
9,33485,3796
9,33897,3620
9,34310,3996
9,34722,4043
9,35133,3838
9,35547,3472
9,35958,3123
9,36370,3229
9,36783,3274
9,37195,3559
9,37607,3759
9,38018,3271
9,38432,3718
9,38843,3315
9,39255,3500
9,39668,3311
9,40080,2924
9,40492,3097
9,40905,3296
9,41317,2976
9,41728,3316
9,42142,3874
9,42553,3423
9,42965,3433
9,43378,3921
9,43790,3493
9,44202,3037
9,44615,3483
9,45027,3897
9,45438,3789
9,45852,3667
9,46263,3536
9,46675,3618
9,47087,3232
9,47500,3917
9,47912,3015
9,48323,3513
9,48737,3208
9,49148,3558
9,49560,3343
9,49973,3599
9,50385,3414
9,50797,3365
9,51210,3202
9,51622,3387
9,52033,3549
9,52447,3022
9,52858,3687
9,53270,2935
9,53683,3026
9,54095,3087
9,54507,2742
9,54920,3145
9,55332,3193
9,55743,3330
9,56155,2957
9,56568,3568
9,56980,3756
9,57392,3198
9,57805,3510
9,58217,3172
9,58628,4028
9,59042,3064
9,59453,3273
9,59865,3469
9,60278,2985
9,60690,3307
9,61102,3532
9,61515,3390
9,61927,3046
9,62338,3186
9,62752,2834
9,63163,3511
9,63575,3261
9,63988,2962
9,64400,3134
9,64812,3679
9,65223,3295
9,65637,2855
9,66048,3522
9,66460,3399
9,66873,3369
9,67285,3157
9,67697,3454
9,68110,3119
9,68522,3526
9,68933,2958
9,69347,3408
9,69758,2858
9,70170,2974
9,70583,2659
9,70995,3186
9,71407,3279
9,71820,3119
9,72232,3281
9,72643,2594
9,73057,3108
9,73468,3649
9,73880,3076
9,74292,3299
9,74705,3216
9,75117,2728
9,75528,3240
9,75942,2993
9,76353,2990
9,76765,2811
9,77178,3008
9,77590,3024
9,78002,3220
9,78415,3474
9,78827,3361
9,79238,3385
9,79652,3772
9,80063,2921
9,80475,3432
9,80888,2947
9,81300,3137
9,81712,3133
9,82125,2741
9,82537,3322
9,82948,3394
9,83360,3514
9,83773,3636
9,84185,3740
9,84597,3482
9,85010,3602
9,85422,3831
9,85833,5535
9,86247,8469
9,86658,13583
9,87070,21567
9,87483,36097
9,87895,60143
9,88307,91373
9,88720,134632
9,89132,186666
9,89543,256435
9,89957,322846
9,90368,390831
9,90780,465648
9,91193,512699
9,91605,563427
9,92017,579599
9,92428,579626
9,92842,570240
9,93253,551786
9,93665,513760
9,94078,466812
9,94490,428879
9,94902,375404
9,95315,327796
9,95727,280873
9,96138,246348
9,96552,206252
9,96963,173925
9,97375,147235
9,97788,119136
9,98200,103961
9,98612,85851
9,99025,74269
9,99437,59315
9,99848,55039
10,00262,47474
10,00673,41018
10,01085,35260
10,01497,30355
10,01910,28141
10,02322,25483
10,02733,23596
10,03147,22121
10,03558,19501
10,03970,16106
10,04383,17527
10,04795,15232
10,05207,14052
10,05620,12990
10,06032,12434
10,06443,12563
10,06857,11416
10,07268,10800
10,07680,10697
10,08093,9220
10,08505,8831
10,08917,9002
10,09330,7529
10,09742,7831
10,10153,8392
10,10567,7005
10,10978,7702
10,11390,7626
10,11802,5895
10,12215,6177
10,12627,6350
10,13038,5105
10,13452,6213
10,13863,6179
10,14275,6001
10,14688,5083
10,15100,5532
10,15512,5579
10,15925,4448
10,16337,5090
10,16748,5313
10,17162,5794
10,17573,5325
10,17985,3606
10,18398,4106
10,18810,3989
10,19222,4584
10,19635,4301
10,20047,4406
10,20458,4157
10,20870,4259
10,21283,4198
10,21695,3864
10,22107,3102
10,22520,4023
10,22932,4520
10,23343,3461
10,23757,3771
10,24168,4011
10,24580,3926
10,24993,3905
10,25405,4811
10,25817,3940
10,26230,3404
10,26642,4099
10,27053,4174
10,27467,4012
10,27878,3797
10,28290,3508
10,28703,3405
10,29115,3496
10,29527,3526
10,29938,3678
10,30352,3125
10,30763,3216
10,31175,3294
10,31588,3468
10,32000,3203
10,32412,3660
10,32825,3451
10,33237,3209
10,33648,3447
10,34062,3376
10,34473,3125
10,34885,2769
10,35298,2828
10,35710,3197
10,36122,3207
10,36535,2424
10,36947,3458
10,37358,3163
10,37772,2615
10,38183,3410
10,38595,3090
10,39007,3207
10,39420,2614
10,39832,2762
10,40243,2626
10,40657,2612
10,41068,2947
10,41480,3413
10,41893,2941
10,42305,2680
10,42717,2750
10,43130,3264
10,43542,2436
10,43953,3315
10,44367,3156
10,44778,2401
10,45190,2719
10,45603,2976
10,46015,3127
10,46427,3042
10,46840,3269
10,47252,2583
10,47663,3245
10,48075,3254
10,48488,2897
10,48900,2357
10,49312,2508
10,49725,3212
10,50137,2817
10,50548,2288
10,50962,2821
10,51373,3130
10,51785,2302
10,52198,2744
10,52610,2759
10,53022,2252
10,53435,3028
10,53847,3003
10,54258,3262
10,54672,2700
10,55083,2626
10,55495,2286
10,55908,2529
10,56320,2934
10,56732,2762
10,57143,2457
10,57557,2608
10,57968,2918
10,58380,2271
10,58793,2244
10,59205,2168
10,59617,2362
10,60030,2677
10,60442,3029
10,60853,2759
10,61267,2481
10,61678,2349
10,62090,2656
10,62503,2671
10,62915,2467
10,63327,2676
10,63740,2746
10,64152,2839
10,64563,3219
10,64977,2199
10,65388,2922
10,65800,3111
10,66212,2441
10,66625,2559
10,67037,3239
10,67448,3060
10,67862,2563
10,68273,2898
10,68685,3329
10,69098,4164
10,69510,3631
10,69922,4129
10,70335,4621
10,70747,4576
10,71158,4075
10,71572,4682
10,71983,3111
10,72395,3268
10,72808,2371
10,73220,2609
10,73632,2707
10,74045,2682
10,74457,2462
10,74868,3039
10,75280,2728
10,75693,2179
10,76105,2539
10,76517,2184
10,76930,2130
10,77342,2406
10,77753,2165
10,78167,2653
10,78578,2104
10,78990,2559
10,79403,2596
10,79815,2453
10,80227,2754
10,80640,2458
10,81052,3001
10,81463,2162
10,81877,2404
10,82288,2483
10,82700,2505
10,83113,2951
10,83525,2828
10,83937,2563
10,84348,2868
10,84762,2486
10,85173,1975
10,85585,3050
10,85998,2688
10,86410,2625
10,86822,2467
10,87235,2603
10,87647,2528
10,88058,3160
10,88472,2585
10,88883,2365
10,89295,3011
10,89708,2334
10,90120,2392
10,90532,2618
10,90945,2708
10,91357,1715
10,91768,2410
10,92182,2668
10,92593,2742
10,93005,2184
10,93417,2468
10,93830,2611
10,94242,2757
10,94653,2685
10,95067,2168
10,95478,2560
10,95890,1812
10,96303,2210
10,96715,2265
10,97127,2241
10,97540,2242
10,97952,2929
10,98363,2438
10,98777,2475
10,99188,2307
10,99600,2227
11,00013,2711
11,00425,2640
11,00837,2152
11,01250,2810
11,01662,2179
11,02073,2513
11,02485,2172
11,02898,2309
11,03310,2665
11,03722,2516
11,04135,2741
11,04547,2498
11,04958,2686
11,05372,2566
11,05783,2156
11,06195,2132
11,06608,2565
11,07020,2285
11,07432,2349
11,07845,2390
11,08257,2245
11,08668,2527
11,09082,2460
11,09493,2401
11,09905,2701
11,10318,3017
11,10730,2484
11,11142,2226
11,11553,2513
11,11967,2147
11,12378,2077
11,12790,2139
11,13203,2256
11,13615,2138
11,14027,2839
11,14440,2043
11,14852,2070
11,15263,3209
11,15677,3886
11,16088,5024
11,16500,8362
11,16913,16209
11,17325,25215
11,17737,40860
11,18150,61406
11,18562,92113
11,18973,132846
11,19387,175428
11,19798,223716
11,20210,270254
11,20622,310570
11,21035,348805
11,21447,373694
11,21858,388336
11,22272,384416
11,22683,372897
11,23095,342769
11,23508,308517
11,23920,276586
11,24332,241730
11,24745,202155
11,25157,173811
11,25568,142871
11,25982,117370
11,26393,98464
11,26805,79417
11,27218,67265
11,27630,55469
11,28042,44944
11,28455,38459
11,28867,33719
11,29278,30996
11,29690,25655
11,30103,21989
11,30515,19939
11,30927,17461
11,31340,16902
11,31752,15731
11,32163,13686
11,32577,12663
11,32988,11335
11,33400,11057
11,33813,10482
11,34225,10151
11,34637,7999
11,35050,8654
11,35462,7842
11,35873,7640
11,36287,6660
11,36698,6089
11,37110,6645
11,37523,6230
11,37935,5947
11,38347,5484
11,38758,4796
11,39172,5242
11,39583,4495
11,39995,5408
11,40408,4249
11,40820,4724
11,41232,4436
11,41645,4472
11,42057,4102
11,42468,4377
11,42882,3267
11,43293,3460
11,43705,3786
11,44118,3474
11,44530,3158
11,44942,3471
11,45355,2856
11,45767,3998
11,46178,3954
11,46592,3139
11,47003,3488
11,47415,2828
11,47827,3174
11,48240,3134
11,48652,3329
11,49063,2446
11,49477,2698
11,49888,3080
11,50300,2935
11,50713,3089
11,51125,2757
11,51537,2972
11,51950,3299
11,52362,2978
11,52773,2975
11,53187,3040
11,53598,2858
11,54010,2711
11,54423,2380
11,54835,2813
11,55247,2342
11,55660,2551
11,56072,2444
11,56483,2767
11,56897,2786
11,57308,2857
11,57720,2146
11,58132,2403
11,58545,2728
11,58957,2215
11,59368,2250
11,59782,2749
11,60193,1817
11,60605,2431
11,61018,2224
11,61430,2459
11,61842,2333
11,62255,2329
11,62667,2204
11,63078,2017
11,63492,2745
11,63903,2697
11,64315,1686
11,64728,2563
11,65140,2214
11,65552,2247
11,65965,2609
11,66377,2232
11,66788,2335
11,67200,2201
11,67613,2209
11,68025,2498
11,68437,2090
11,68850,2091
11,69262,2809
11,69673,2225
11,70087,2619
11,70498,2592
11,70910,3327
11,71323,2462
11,71735,2995
11,72147,3296
11,72560,2653
11,72972,3995
11,73383,3931
11,73797,3497
11,74208,3551
11,74620,3252
11,75033,3615
11,75445,2754
11,75857,2846
11,76268,3234
11,76682,2851
11,77093,2809
11,77505,2785
11,77918,1879
11,78330,2135
11,78742,2350
11,79155,2286
11,79567,2336
11,79978,2309
11,80392,2905
11,80803,2110
11,81215,1949
11,81628,2104
11,82040,2017
11,82452,1661
11,82865,1681
11,83277,2513
11,83688,2348
11,84102,1984
11,84513,2386
11,84925,2280
11,85337,1865
11,85750,2347
11,86162,2074
11,86573,2114
11,86987,2035
11,87398,1839
11,87810,2325
11,88223,2031
11,88635,2094
11,89047,2617
11,89460,1814
11,89872,2132
11,90283,1714
11,90697,1949
11,91108,1835
11,91520,2395
11,91933,1709
11,92345,1683
11,92757,2662
11,93170,2650
11,93582,2186
11,93993,2284
11,94405,1963
11,94818,1986
11,95230,2038
11,95642,1990
11,96055,2377
11,96467,1805
11,96878,2302
11,97292,2385
11,97703,1904
11,98115,2154
11,98528,2315
11,98940,2223
11,99352,1846
11,99765,1622
12,00177,1625
12,00588,1689
12,01002,1950
12,01413,2005
12,01825,2227
12,02238,1831
12,02650,1955
12,03062,1823
12,03473,2029
12,03887,2390
12,04298,1663
12,04710,1672
12,05123,2198
12,05535,1772
12,05947,2084
12,06360,1873
12,06772,1851
12,07183,1679
12,07597,1449
12,08008,1926
12,08420,1813
12,08833,2208
12,09245,1802
12,09657,1630
12,10070,2112
12,10482,1505
12,10893,1886
12,11307,1716
12,11718,2301
12,12130,1684
12,12542,1864
12,12955,1948
12,13367,1957
12,13778,2428
12,14192,1955
12,14603,1687
12,15015,1995
12,15428,2086
12,15840,1892
12,16252,1658
12,16665,1724
12,17077,2266
12,17488,2011
12,17902,1507
12,18313,2571
12,18725,1932
12,19138,2218
12,19550,2076
12,19962,1881
12,20375,2137
12,20787,2237
12,21198,1775
12,21610,2361
12,22023,1912
12,22435,2302
12,22847,2117
12,23260,1762
12,23672,1907
12,24083,1961
12,24497,2164
12,24908,2127
12,25320,2196
12,25733,1800
12,26145,2476
12,26557,2165
12,26970,2407
12,27382,2195
12,27793,2354
12,28207,2047
12,28618,2146
12,29030,2049
12,29443,2176
12,29855,2511
12,30267,1723
12,30678,2053
12,31092,1633
12,31503,1880
12,31915,2010
12,32328,2236
12,32740,2354
12,33152,2922
12,33565,1712
12,33977,1919
12,34388,2052
12,34802,1998
12,35213,2228
12,35625,2313
12,36038,1754
12,36450,1924
12,36862,1734
12,37275,2097
12,37687,1395
12,38098,1580
12,38512,2272
12,38923,1791
12,39335,1778
12,39747,1947
12,40160,1393
12,40572,1537
12,40983,1741
12,41397,1725
12,41808,2239
12,42220,2130
12,42633,1766
12,43045,2199
12,43457,1805
12,43870,1929
12,44282,1789
12,44693,2233
12,45107,2034
12,45518,2032
12,45930,1768
12,46343,1783
12,46755,2025
12,47167,2798
12,47580,3419
12,47992,5900
12,48403,12122
12,48815,22328
12,49228,37478
12,49640,64620
12,50052,106338
12,50465,165011
12,50877,248454
12,51288,341976
12,51702,459839
12,52113,580207
12,52525,694043
12,52938,799530
12,53350,877916
12,53762,926388
12,54175,928379
12,54587,895827
12,54998,829938
12,55412,748629
12,55823,655190
12,56235,562402
12,56648,459785
12,57060,375002
12,57472,304396
12,57883,247980
12,58297,198456
12,58708,160643
12,59120,132454
12,59533,112299
12,59945,92153
12,60357,77323
12,60770,66533
12,61182,57928
12,61593,48715
12,62007,44131
12,62418,37747
12,62830,33988
12,63243,30558
12,63655,27045
12,64067,26804
12,64480,22237
12,64892,19677
12,65303,19425
12,65717,18306
12,66128,16402
12,66540,16404
12,66952,14750
12,67365,12739
12,67777,14131
12,68188,11629
12,68602,11714
12,69013,10724
12,69425,10486
12,69838,9144
12,70250,9180
12,70662,8909
12,71075,7122
12,71487,8146
12,71898,7349
12,72312,7762
12,72723,6672
12,73135,7175
12,73548,5390
12,73960,6434
12,74372,5699
12,74785,5095
12,75197,5732
12,75608,4807
12,76020,3916
12,76433,4432
12,76845,3990
12,77257,4884
12,77670,4512
12,78082,4317
12,78493,4781
12,78907,4240
12,79318,3525
12,79730,3799
12,80143,3654
12,80555,3898
12,80967,3751
12,81380,3395
12,81792,4394
12,82203,3276
12,82617,3558
12,83028,3113
12,83440,2566
12,83853,2871
12,84265,3254
12,84677,2890
12,85088,2486
12,85502,3274
12,85913,3073
12,86325,2991
12,86738,2874
12,87150,3334
12,87562,2620
12,87975,2779
12,88387,2958
12,88798,3035
12,89212,2756
12,89623,3111
12,90035,2522
12,90448,2320
12,90860,2345
12,91272,2514
12,91685,2902
12,92097,2005
12,92508,2804
12,92922,2707
12,93333,2079
12,93745,2429
12,94157,2379
12,94570,2415
12,94982,1999
12,95393,2468
12,95807,2593
12,96218,2543
12,96630,2406
12,97043,1991
12,97455,2199
12,97867,1932
12,98280,1789
12,98692,2299
12,99103,1764
12,99517,2044
12,99928,2115
13,00340,2028
13,00753,1998
13,01165,1919
13,01577,2262
13,01990,2392
13,02402,1766
13,02813,1684
13,03225,1917
13,03638,2480
13,04050,1972
13,04462,2200
13,04875,2224
13,05287,2082
13,05698,1811
13,06112,2057
13,06523,1762
13,06935,2064
13,07348,2010
13,07760,2107
13,08172,2300
13,08585,2503
13,08997,2460
13,09408,2449
13,09822,3412
13,10233,3251
13,10645,3708
13,11058,4974
13,11470,4699
13,11882,5924
13,12293,6080
13,12707,6117
13,13118,6964
13,13530,6864
13,13943,7979
13,14355,7243
13,14767,6456
13,15180,6235
13,15592,5782
13,16003,5159
13,16417,5171
13,16828,4968
13,17240,4620
13,17653,3773
13,18065,3614
13,18477,3285
13,18890,2997
13,19302,2253
13,19713,2612
13,20127,2160
13,20538,1979
13,20950,2167
13,21362,1709
13,21775,1740
13,22187,2040
13,22598,1995
13,23012,1536
13,23423,2150
13,23835,2054
13,24248,2317
13,24660,1646
13,25072,1814
13,25485,1681
13,25897,1798
13,26308,1719
13,26722,1699
13,27133,1394
13,27545,1830
13,27958,1554
13,28370,1554
13,28782,1781
13,29195,1543
13,29607,1601
13,30018,1625
13,30432,1823
13,30843,1112
13,31255,1341
13,31667,1966
13,32080,1713
13,32492,1439
13,32903,1464
13,33317,1252
13,33728,1469
13,34140,1821
13,34553,1597
13,34965,1498
13,35377,1305
13,35790,1498
13,36202,1643
13,36613,1812
13,37027,1941
13,37438,1726
13,37850,1505
13,38263,1181
13,38675,1227
13,39087,1873
13,39500,1386
13,39912,1200
13,40323,1853
13,40735,1144
13,41148,1334
13,41560,1668
13,41972,1291
13,42385,1471
13,42797,1899
13,43208,2490
13,43622,3324
13,44033,3630
13,44445,3831
13,44858,3150
13,45270,3005
13,45682,2519
13,46095,1415
13,46507,1630
13,46918,1861
13,47332,1801
13,47743,1756
13,48155,1183
13,48568,1550
13,48980,949
13,49392,1266
13,49803,1326
13,50217,1574
13,50628,1366
13,51040,1572
13,51453,1290
13,51865,1145
13,52277,1145
13,52690,1310
13,53102,961
13,53513,1445
13,53927,1464
13,54338,1508
13,54750,1207
13,55163,1517
13,55575,1164
13,55987,869
13,56400,1598
13,56812,1240
13,57223,1280
13,57637,1306
13,58048,850
13,58460,1239
13,58872,1765
13,59285,1016
13,59697,1864
13,60108,1221
13,60522,1606
13,60933,1495
13,61345,1424
13,61758,1660
13,62170,1364
13,62582,1432
13,62995,1807
13,63407,1810
13,63818,1616
13,64232,1428
13,64643,1674
13,65055,1375
13,65468,1533
13,65880,1392
13,66292,1080
13,66705,1439
13,67117,1775
13,67528,1580
13,67940,1160
13,68353,1526
13,68765,1463
13,69177,1554
13,69590,1365
13,70002,1494
13,70413,1701
13,70827,2029
13,71238,1696
13,71650,1274
13,72063,1515
13,72475,1240
13,72887,1025
13,73300,1526
13,73712,1337
13,74123,1519
13,74537,1443
13,74948,1190
13,75360,1229
13,75773,1330
13,76185,1052
13,76597,1344
13,77008,1609
13,77422,1282
13,77833,1327
13,78245,1746
13,78658,2499
13,79070,4005
13,79482,6107
13,79895,11495
13,80307,21328
13,80718,38192
13,81132,60022
13,81543,93677
13,81955,144391
13,82368,204395
13,82780,267220
13,83192,334512
13,83605,393314
13,84017,454663
13,84428,488883
13,84842,503876
13,85253,498588
13,85665,468407
13,86077,433703
13,86490,374624
13,86902,318750
13,87313,264797
13,87727,213406
13,88138,176757
13,88550,144382
13,88963,113475
13,89375,90335
13,89787,74960
13,90200,61930
13,90612,51198
13,91023,43711
13,91437,35914
13,91848,32046
13,92260,27559
13,92673,23834
13,93085,21381
13,93497,17980
13,93910,17227
13,94322,14449
13,94733,13615
13,95145,11931
13,95558,11272
13,95970,10381
13,96382,8980
13,96795,9003
13,97207,8659
13,97618,7521
13,98032,6533
13,98443,6436
13,98855,5557
13,99268,5830
13,99680,6684
14,00092,5046
14,00505,5153
14,00917,4845
14,01328,4231
14,01742,3402
14,02153,4230
14,02565,4055
14,02978,3664
14,03390,3421
14,03802,3267
14,04213,2882
14,04627,3862
14,05038,2464
14,05450,3147
14,05863,2913
14,06275,2762
14,06687,2813
14,07100,2852
14,07512,3033
14,07923,2066
14,08337,2276
14,08748,2780
14,09160,2428
14,09573,2273
14,09985,2770
14,10397,2401
14,10810,2305
14,11222,2106
14,11633,2455
14,12047,1443
14,12458,2607
14,12870,1560
14,13282,1753
14,13695,1900
14,14107,2354
14,14518,2056
14,14932,2423
14,15343,1584
14,15755,1979
14,16168,1557
14,16580,2074
14,16992,2090
14,17405,1397
14,17817,1067
14,18228,1578
14,18642,1914
14,19053,1522
14,19465,1540
14,19878,1421
14,20290,1418
14,20702,1162
14,21115,1242
14,21527,1539
14,21938,978
14,22350,1493
14,22763,1476
14,23175,1520
14,23587,1007
14,24000,805
14,24412,1399
14,24823,1989
14,25237,1128
14,25648,1508
14,26060,1345
14,26473,1570
14,26885,1377
14,27297,1170
14,27710,1536
14,28122,1489
14,28533,1457
14,28947,1602
14,29358,955
14,29770,1771
14,30183,1375
14,30595,906
14,31007,1064
14,31418,1289
14,31832,1653
14,32243,1370
14,32655,801
14,33068,1199
14,33480,1166
14,33892,1466
14,34305,1002
14,34717,1247
14,35128,1630
14,35542,1210
14,35953,1385
14,36365,1234
14,36778,1544
14,37190,1115
14,37602,741
14,38015,1316
14,38427,1148
14,38838,792
14,39252,1483
14,39663,1135
14,40075,1421
14,40487,1313
14,40900,882
14,41312,1212
14,41723,1277
14,42137,1470
14,42548,1139
14,42960,1202
14,43373,1405
14,43785,988
14,44197,1369
14,44610,1514
14,45022,1087
14,45433,1278
14,45847,1228
14,46258,1873
14,46670,1632
14,47083,1636
14,47495,2107
14,47907,2597
14,48320,2141
14,48732,2565
14,49143,2278
14,49555,2805
14,49968,2860
14,50380,3379
14,50792,4368
14,51205,3312
14,51617,4253
14,52028,3583
14,52442,3664
14,52853,3221
14,53265,3035
14,53678,3349
14,54090,2610
14,54502,1907
14,54915,2024
14,55327,2066
14,55738,1575
14,56152,1632
14,56563,2134
14,56975,1915
14,57388,1164
14,57800,1247
14,58212,752
14,58623,1128
14,59037,1810
14,59448,1254
14,59860,1199
14,60273,1079
14,60685,924
14,61097,2029
14,61510,1077
14,61922,1304
14,62333,1385
14,62747,1096
14,63158,548
14,63570,853
14,63983,1034
14,64395,1502
14,64807,1100
14,65220,1201
14,65632,1023
14,66043,1142
14,66457,1434
14,66868,1025
14,67280,1288
14,67692,1130
14,68105,1444
14,68517,1054
14,68928,807
14,69342,767
14,69753,730
14,70165,900
14,70578,948
14,70990,1118
14,71402,1090
14,71815,1336
14,72227,772
14,72638,970
14,73052,696
14,73463,1324
14,73875,822
14,74288,1050
14,74700,1080
14,75112,1407
14,75525,741
14,75937,840
14,76348,716
14,76760,275
14,77173,1009
14,77585,862
14,77997,991
14,78410,811
14,78822,855
14,79233,1504
14,79647,1185
14,80058,1458
14,80470,1093
14,80883,1168
14,81295,1270
14,81707,1482
14,82120,789
14,82532,1891
14,82943,650
14,83357,1312
14,83768,984
14,84180,1279
14,84593,1483
14,85005,1282
14,85417,1324
14,85828,926
14,86242,852
14,86653,959
14,87065,924
14,87478,926
14,87890,1154
14,88302,1192
14,88715,1034
14,89127,1350
14,89538,999
14,89952,884
14,90363,1280
14,90775,1167
14,91188,1194
14,91600,1336
14,92012,878
14,92425,1067
14,92837,786
14,93248,998
14,93662,1408
14,94073,1159
14,94485,1506
14,94898,1951
14,95310,1656
14,95722,2689
14,96133,2638
14,96547,3744
14,96958,3575
14,97370,4296
14,97783,4588
14,98195,4796
14,98607,4333
14,99020,5516
14,99432,4090
14,99843,3849
15,00257,2544
15,00668,3207
15,01080,2739
15,01493,1981
15,01905,1864
15,02317,1575
15,02730,1581
15,03142,961
15,03553,1413
15,03967,1609
15,04378,1429
15,04790,1200
15,05202,1252
15,05615,1417
15,06027,1668
15,06438,1861
15,06852,2957
15,07263,5128
15,07675,11608
15,08088,21828
15,08500,38680
15,08912,70795
15,09325,119386
15,09737,186279
15,10148,283321
15,10562,399479
15,10973,530468
15,11385,680631
15,11798,820112
15,12210,962477
15,12622,1043389
15,13035,1092196
15,13447,1097702
15,13858,1044965
15,14270,948150
15,14683,842623
15,15095,706153
15,15507,590445
15,15920,472215
15,16332,380236
15,16743,304787
15,17157,239957
15,17568,191784
15,17980,154942
15,18393,123633
15,18805,105337
15,19217,86043
15,19630,74575
15,20042,64152
15,20453,52441
15,20867,47384
15,21278,41919
15,21690,37516
15,22103,33016
15,22515,29821
15,22927,25850
15,23338,23771
15,23752,21350
15,24163,21293
15,24575,19220
15,24988,17428
15,25400,14461
15,25812,12909
15,26225,12770
15,26637,13102
15,27048,10773
15,27462,11388
15,27873,9879
15,28285,9904
15,28698,7651
15,29110,8166
15,29522,7730
15,29935,8024
15,30347,6300
15,30758,6242
15,31172,6753
15,31583,5456
15,31995,5021
15,32407,5691
15,32820,4380
15,33232,5509
15,33643,4328
15,34057,4373
15,34468,3882
15,34880,4383
15,35293,3746
15,35705,4201
15,36117,3324
15,36530,3729
15,36942,3381
15,37353,3486
15,37767,2729
15,38178,2740
15,38590,3193
15,39003,3165
15,39415,2412
15,39827,2982
15,40240,2554
15,40652,2609
15,41063,2241
15,41475,2448
15,41888,2597
15,42300,2009
15,42712,2589
15,43125,1756
15,43537,1420
15,43948,2603
15,44362,2009
15,44773,1831
15,45185,1561
15,45598,2169
15,46010,2173
15,46422,2058
15,46835,1716
15,47247,1724
15,47658,1893
15,48072,1390
15,48483,1757
15,48895,1458
15,49308,1777
15,49720,1795
15,50132,1727
15,50543,1628
15,50957,1661
15,51368,1582
15,51780,1810
15,52193,1205
15,52605,1147
15,53017,1371
15,53430,670
15,53842,1248
15,54253,1285
15,54667,896
15,55078,1093
15,55490,1340
15,55903,1310
15,56315,1435
15,56727,1278
15,57140,1240
15,57552,1185
15,57963,1161
15,58377,905
15,58788,1801
15,59200,1374
15,59612,735
15,60025,793
15,60437,1018
15,60848,1001
15,61262,1005
15,61673,1188
15,62085,1275
15,62498,889
15,62910,1411
15,63322,1166
15,63735,758
15,64147,819
15,64558,760
15,64972,1142
15,65383,1495
15,65795,994
15,66208,1051
15,66620,479
15,67032,1554
15,67445,866
15,67857,740
15,68268,784
15,68680,628
15,69093,1085
15,69505,559
15,69917,1125
15,70330,737
15,70742,792
15,71153,517
15,71567,903
15,71978,1016
15,72390,1153
15,72803,1402
15,73215,1295
15,73627,1637
15,74040,2165
15,74452,2078
15,74863,2263
15,75277,1985
15,75688,2010
15,76100,1764
15,76513,1266
15,76925,1899
15,77337,1759
15,77748,1783
15,78162,1926
15,78573,1316
15,78985,1258
15,79398,1101
15,79810,944
15,80222,1145
15,80635,1050
15,81047,874
15,81458,780
15,81872,1462
15,82283,820
15,82695,1021
15,83108,376
15,83520,799
15,83932,781
15,84345,753
15,84757,664
15,85168,475
15,85582,665
15,85993,902
15,86405,836
15,86817,710
15,87230,1309
15,87642,539
15,88053,674
15,88467,832
15,88878,820
15,89290,869
15,89703,980
15,90115,881
15,90527,1119
15,90940,765
15,91352,632
15,91763,536
15,92177,943
15,92588,1448
15,93000,900
15,93413,2052
15,93825,3960
15,94237,7582
15,94650,16756
15,95062,29881
15,95473,49186
15,95885,82793
15,96298,121463
15,96710,177016
15,97122,244127
15,97535,319634
15,97947,389704
15,98358,447370
15,98772,491144
15,99183,518009
15,99595,508787
16,00008,489389
16,00420,449721
16,00832,391525
16,01245,335873
16,01657,283247
16,02068,232110
16,02482,185312
16,02893,148247
16,03305,118957
16,03718,98450
16,04130,79272
16,04542,64982
16,04953,53615
16,05367,44443
16,05778,38032
16,06190,32041
16,06603,27046
16,07015,23672
16,07427,21593
16,07840,18548
16,08252,17646
16,08663,14329
16,09077,12587
16,09488,12459
16,09900,10700
16,10313,9583
16,10725,9187
16,11137,7908
16,11550,6917
16,11962,6450
16,12373,6618
16,12787,6796
16,13198,5398
16,13610,5589
16,14022,4719
16,14435,3848
16,14847,3960
16,15258,3801
16,15672,3288
16,16083,3107
16,16495,3289
16,16908,2255
16,17320,2601
16,17732,2396
16,18145,2904
16,18557,2673
16,18968,1955
16,19382,2253
16,19793,2404
16,20205,1553
16,20618,1431
16,21030,1366
16,21442,1584
16,21855,1547
16,22267,1020
16,22678,1322
16,23090,1343
16,23503,1360
16,23915,1385
16,24327,1844
16,24740,1675
16,25152,830
16,25563,1659
16,25977,947
16,26388,1571
16,26800,1360
16,27213,1173
16,27625,1311
16,28037,1072
16,28450,1514
16,28862,920
16,29273,866
16,29687,1862
16,30098,2028
16,30510,1776
16,30923,2208
16,31335,3361
16,31747,8312
16,32158,14951
16,32572,26619
16,32983,44940
16,33395,76542
16,33808,120356
16,34220,179048
16,34632,251385
16,35045,328004
16,35457,404860
16,35868,470007
16,36282,531135
16,36693,552488
16,37105,559842
16,37518,534423
16,37930,485639
16,38342,432669
16,38755,365357
16,39167,304769
16,39578,245707
16,39992,194991
16,40403,156340
16,40815,125106
16,41228,99760
16,41640,79445
16,42052,62427
16,42463,52224
16,42877,43483
16,43288,37651
16,43700,32661
16,44113,27598
16,44525,23410
16,44937,19339
16,45350,18614
16,45762,16420
16,46173,13949
16,46587,12842
16,46998,12100
16,47410,11063
16,47823,10560
16,48235,8844
16,48647,7403
16,49060,8112
16,49472,8033
16,49883,7112
16,50297,5720
16,50708,5700
16,51120,5147
16,51532,5308
16,51945,4320
16,52357,4823
16,52768,4756
16,53182,3712
16,53593,3244
16,54005,3629
16,54418,2951
16,54830,3548
16,55242,3103
16,55655,2671
16,56067,2579
16,56478,2536
16,56892,2314
16,57303,1663
16,57715,1813
16,58128,2280
16,58540,2517
16,58952,1441
16,59365,2156
16,59777,2213
16,60188,1657
16,60600,1711
16,61013,1434
16,61425,1496
16,61837,1745
16,62250,1550
16,62662,1467
16,63073,1927
16,63487,2189
16,63898,1376
16,64310,1632
16,64723,1883
16,65135,1096
16,65547,1754
16,65960,1803
16,66372,1924
16,66783,1124
16,67197,1775
16,67608,1330
16,68020,1131
16,68433,1104
16,68845,1745
16,69257,1315
16,69668,1100
16,70082,1545
16,70493,1519
16,70905,1594
16,71318,1612
16,71730,1588
16,72142,1199
16,72555,1181
16,72967,1527
16,73378,1760
16,73792,845
16,74203,1571
16,74615,775
16,75028,1282
16,75440,1032
16,75852,837
16,76265,1189
16,76677,926
16,77088,924
16,77502,1016
16,77913,1250
16,78325,1102
16,78737,1113
16,79150,811
16,79562,928
16,79973,1647
16,80387,1243
16,80798,1381
16,81210,1248
16,81623,1139
16,82035,1463
16,82447,1278
16,82860,1410
16,83272,885
16,83683,1017
16,84097,1041
16,84508,1648
16,84920,758
16,85333,989
16,85745,738
16,86157,568
16,86570,1269
16,86982,701
16,87393,936
16,87805,875
16,88218,926
16,88630,784
16,89042,1219
16,89455,1011
16,89867,990
16,90278,459
16,90692,1303
16,91103,1168
16,91515,1074
16,91928,1008
16,92340,879
16,92752,837
16,93165,1168
16,93577,277
16,93988,1005
16,94402,1061
16,94813,551
16,95225,384
16,95638,1230
16,96050,604
16,96462,849
16,96873,810
16,97287,600
16,97698,908
16,98110,745
16,98523,1093
16,98935,725
16,99347,1136
16,99760,408
17,00172,827
17,00583,669
17,00997,921
17,01408,965
17,01820,303
17,02233,868
17,02645,819
17,03057,1086
17,03470,489
17,03882,502
17,04293,764
17,04707,665
17,05118,1024
17,05530,1206
17,05942,719
17,06355,743
17,06767,509
17,07178,1024
17,07592,961
17,08003,528
17,08415,688
17,08828,663
17,09240,1003
17,09652,802
17,10065,1018
17,10477,506
17,10888,1184
17,11302,664
17,11713,1048
17,12125,578
17,12538,741
17,12950,1114
17,13362,786
17,13775,878
17,14187,1168
17,14598,1110
17,15010,1596
17,15423,2403
17,15835,3139
17,16247,5412
17,16660,9911
17,17072,19736
17,17483,37160
17,17897,62261
17,18308,98932
17,18720,149409
17,19133,211762
17,19545,283080
17,19957,352930
17,20370,417228
17,20782,471720
17,21193,517550
17,21607,530710
17,22018,523537
17,22430,491210
17,22843,447164
17,23255,387922
17,23667,332364
17,24078,273482
17,24492,220078
17,24903,177420
17,25315,143861
17,25728,112408
17,26140,91520
17,26552,74001
17,26965,60607
17,27377,50743
17,27788,41223
17,28202,34177
17,28613,27909
17,29025,25772
17,29438,21921
17,29850,19595
17,30262,16042
17,30675,14387
17,31087,14497
17,31498,12000
17,31912,10891
17,32323,9623
17,32735,9678
17,33147,9037
17,33560,8682
17,33972,6182
17,34383,6187
17,34797,5820
17,35208,5688
17,35620,3995
17,36033,4902
17,36445,4702
17,36857,4687
17,37270,3549
17,37682,4500
17,38093,2457
17,38507,3838
17,38918,2250
17,39330,2515
17,39743,3051
17,40155,2701
17,40567,2577
17,40980,2553
17,41392,2280
17,41803,1893
17,42215,1917
17,42628,1738
17,43040,1362
17,43452,1563
17,43865,1232
17,44277,1533
17,44688,1636
17,45102,1387
17,45513,1876
17,45925,1303
17,46338,1585
17,46750,967
17,47162,1434
17,47575,1431
17,47987,1101
17,48398,1439
17,48812,789
17,49223,1382
17,49635,1490
17,50048,2312
17,50460,3837
17,50872,7751
17,51283,15789
17,51697,31697
17,52108,56753
17,52520,100671
17,52933,167994
17,53345,264070
17,53757,394583
17,54170,552391
17,54582,724189
17,54993,955271
17,55407,1189105
17,55818,1385208
17,56230,1592904
17,56643,1724102
17,57055,1778063
17,57467,1754699
17,57880,1626482
17,58292,1447217
17,58703,1254079
17,59117,1033089
17,59528,839573
17,59940,650636
17,60352,510641
17,60765,394815
17,61177,308660
17,61588,246394
17,62002,198477
17,62413,163645
17,62825,134495
17,63238,113562
17,63650,95314
17,64062,84253
17,64475,72078
17,64887,66156
17,65298,59444
17,65712,51565
17,66123,46737
17,66535,42615
17,66948,38636
17,67360,34196
17,67772,30501
17,68185,28488
17,68597,27667
17,69008,26206
17,69420,22773
17,69833,21943
17,70245,20336
17,70657,19373
17,71070,16263
17,71482,15512
17,71893,14955
17,72307,13836
17,72718,13615
17,73130,11924
17,73543,11937
17,73955,11344
17,74367,10224
17,74780,9219
17,75192,9165
17,75603,8362
17,76017,8793
17,76428,7731
17,76840,6945
17,77253,6857
17,77665,6673
17,78077,5621
17,78488,5965
17,78902,6040
17,79313,6370
17,79725,5083
17,80138,4891
17,80550,4539
17,80962,4677
17,81375,4648
17,81787,4122
17,82198,4241
17,82612,3884
17,83023,3427
17,83435,2944
17,83848,3388
17,84260,3584
17,84672,2842
17,85085,3671
17,85497,2808
17,85908,2721
17,86322,2695
17,86733,2388
17,87145,2716
17,87557,2967
17,87970,1954
17,88382,2278
17,88793,1888
17,89207,2277
17,89618,2293
17,90030,1685
17,90443,1749
17,90855,2077
17,91267,1972
17,91680,1734
17,92092,2026
17,92503,1652
17,92917,2061
17,93328,1713
17,93740,1496
17,94153,1323
17,94565,1622
17,94977,1987
17,95390,1794
17,95802,1428
17,96213,1893
17,96625,2149
17,97038,1480
17,97450,1188
17,97862,1389
17,98275,1940
17,98687,1436
17,99098,1898
17,99512,1226
17,99923,1921
18,00335,1710
18,00748,1755
18,01160,2149
18,01572,1728
18,01985,1825
18,02397,1356
18,02808,1586
18,03222,1659
18,03633,2135
18,04045,1446
18,04458,1372
18,04870,1352
18,05282,1770
18,05695,1545
18,06107,1559
18,06518,1669
18,06930,1215
18,07343,1107
18,07755,1034
18,08167,1538
18,08580,909
18,08992,1565
18,09403,1238
18,09817,1551
18,10228,1870
18,10640,2120
18,11053,1893
18,11465,2311
18,11877,1639
18,12290,1821
18,12702,3107
18,13113,2109
18,13527,3463
18,13938,3499
18,14350,4156
18,14763,6241
18,15175,6341
18,15587,6411
18,15998,7200
18,16412,7788
18,16823,7130
18,17235,7016
18,17648,7955
18,18060,8598
18,18472,11580
18,18885,15600
18,19297,27007
18,19708,46447
18,20122,73954
18,20533,115551
18,20945,167282
18,21358,235017
18,21770,305911
18,22182,384548
18,22595,450104
18,23007,509497
18,23418,530847
18,23832,548401
18,24243,524520
18,24655,482439
18,25067,431377
18,25480,372139
18,25892,314944
18,26303,257110
18,26717,207854
18,27128,164281
18,27540,132059
18,27953,106059
18,28365,87188
18,28777,69878
18,29190,55700
18,29602,46279
18,30013,40057
18,30427,32920
18,30838,29302
18,31250,24659
18,31663,21168
18,32075,19379
18,32487,15945
18,32900,16490
18,33312,15196
18,33723,11814
18,34135,12273
18,34548,10143
18,34960,10134
18,35372,9025
18,35785,7243
18,36197,9584
18,36608,8807
18,37022,7572
18,37433,8905
18,37845,8752
18,38258,10428
18,38670,11290
18,39082,10883
18,39495,9950
18,39907,8173
18,40318,7639
18,40732,7294
18,41143,5212
18,41555,5137
18,41968,5471
18,42380,3723
18,42792,3978
18,43203,3797
18,43617,3624
18,44028,3645
18,44440,3202
18,44853,3553
18,45265,2866
18,45677,3161
18,46090,3494
18,46502,2186
18,46913,2896
18,47327,2170
18,47738,2147
18,48150,2389
18,48563,2066
18,48975,2159
18,49387,2095
18,49800,1943
18,50212,2657
18,50623,2360
18,51037,1405
18,51448,1843
18,51860,1561
18,52272,1264
18,52685,2286
18,53097,1437
18,53508,1946
18,53922,877
18,54333,954
18,54745,1228
18,55158,929
18,55570,1044
18,55982,847
18,56395,1309
18,56807,1192
18,57218,1347
18,57632,930
18,58043,1198
18,58455,846
18,58868,1618
18,59280,1604
18,59692,1257
18,60105,941
18,60517,962
18,60928,1223
18,61340,864
18,61753,921
18,62165,1138
18,62577,1323
18,62990,1079
18,63402,1189
18,63813,991
18,64227,1599
18,64638,1690
18,65050,2240
18,65463,4055
18,65875,7067
18,66287,13270
18,66700,24826
18,67112,47098
18,67523,77155
18,67937,123648
18,68348,179839
18,68760,251970
18,69173,333593
18,69585,427798
18,69997,511360
18,70408,566634
18,70822,605390
18,71233,612613
18,71645,590650
18,72058,544385
18,72470,477976
18,72882,406182
18,73295,334206
18,73707,267791
18,74118,211291
18,74532,171590
18,74943,131322
18,75355,106635
18,75768,85721
18,76180,70217
18,76592,55649
18,77005,48064
18,77417,40109
18,77828,35951
18,78242,29926
18,78653,26565
18,79065,22936
18,79477,19556
18,79890,17269
18,80302,16267
18,80713,14709
18,81127,13840
18,81538,12095
18,81950,11683
18,82363,10120
18,82775,10272
18,83187,10235
18,83600,9961
18,84012,7673
18,84423,7750
18,84837,6555
18,85248,7566
18,85660,6264
18,86073,6816
18,86485,6353
18,86897,5512
18,87310,5624
18,87722,6458
18,88133,5031
18,88545,4773
18,88958,4087
18,89370,4423
18,89782,3088
18,90195,3737
18,90607,4024
18,91018,3005
18,91432,3145
18,91843,2657
18,92255,2992
18,92668,2843
18,93080,2658
18,93492,1931
18,93905,1868
18,94317,2888
18,94728,1962
18,95142,2100
18,95553,1644
18,95965,1904
18,96378,2139
18,96790,1947
18,97202,1723
18,97613,2395
18,98027,1805
18,98438,1619
18,98850,2003
18,99263,1706
18,99675,1958
19,00087,1513
19,00500,1377
19,00912,1576
19,01323,2138
19,01737,1439
19,02148,1439
19,02560,1931
19,02973,2125
19,03385,1313
19,03797,1868
19,04210,1624
19,04622,1399
19,05033,2055
19,05447,1570
19,05858,1724
19,06270,1451
19,06682,1829
19,07095,2197
19,07507,2031
19,07918,742
19,08332,1301
19,08743,1372
19,09155,1295
19,09568,1039
19,09980,1533
19,10392,1148
19,10805,1822
19,11217,1067
19,11628,803
19,12042,1147
19,12453,1655
19,12865,821
19,13278,1626
19,13690,1341
19,14102,1075
19,14515,1405
19,14927,1709
19,15338,1114
19,15750,1043
19,16163,1215
19,16575,1366
19,16987,2050
19,17400,910
19,17812,879
19,18223,894
19,18637,1803
19,19048,980
19,19460,670
19,19873,1323
19,20285,1083
19,20697,865
19,21110,1164
19,21522,1438
19,21933,815
19,22347,1442
19,22758,812
19,23170,750
19,23583,1094
19,23995,514
19,24407,536
19,24818,1174
19,25232,678
19,25643,371
19,26055,1165
19,26468,879
19,26880,615
19,27292,1143
19,27705,1256
19,28117,979
19,28528,1184
19,28942,1023
19,29353,824
19,29765,765
19,30178,1196
19,30590,2108
19,31002,3486
19,31415,6555
19,31827,14301
19,32238,24244
19,32652,45979
19,33063,75149
19,33475,120451
19,33887,177112
19,34300,247583
19,34712,327524
19,35123,407469
19,35537,482789
19,35948,546283
19,36360,572858
19,36773,580110
19,37185,563216
19,37597,523781
19,38010,460240
19,38422,404279
19,38833,332432
19,39247,268165
19,39658,214295
19,40070,172511
19,40483,138817
19,40895,109954
19,41307,89719
19,41720,70914
19,42132,58496
19,42543,49131
19,42955,43855
19,43368,35880
19,43780,30375
19,44192,24773
19,44605,24195
19,45017,21835
19,45428,18470
19,45842,17509
19,46253,15178
19,46665,13746
19,47078,12324
19,47490,9960
19,47902,12342
19,48315,13038
19,48727,12854
19,49138,14290
19,49552,15655
19,49963,16244
19,50375,17411
19,50788,19834
19,51200,17138
19,51612,18764
19,52023,16547
19,52437,17819
19,52848,14058
19,53260,14675
19,53673,14025
19,54085,11822
19,54497,11050
19,54910,9577
19,55322,7783
19,55733,6418
19,56147,7227
19,56558,5934
19,56970,4393
19,57383,4198
19,57795,4055
19,58207,3728
19,58620,2982
19,59032,2937
19,59443,2752
19,59857,2606
19,60268,2877
19,60680,2251
19,61092,2774
19,61505,2158
19,61917,2215
19,62328,2110
19,62742,2147
19,63153,1877
19,63565,2049
19,63978,2119
19,64390,2440
19,64802,2046
19,65215,1424
19,65627,1666
19,66038,1957
19,66452,1337
19,66863,1608
19,67275,1471
19,67688,1041
19,68100,1789
19,68512,1652
19,68925,808
19,69337,1481
19,69748,1497
19,70160,1936
19,70573,2020
19,70985,1817
19,71397,1576
19,71810,1440
19,72222,1444
19,72633,1090
19,73047,1108
19,73458,1434
19,73870,1147
19,74283,1108
19,74695,2232
19,75107,2514
19,75520,2354
19,75932,4451
19,76343,9640
19,76757,16953
19,77168,36155
19,77580,61421
19,77993,104488
19,78405,163806
19,78817,250675
19,79230,359634
19,79642,497869
19,80053,646071
19,80465,812349
19,80878,974779
19,81290,1147195
19,81702,1250247
19,82115,1312012
19,82527,1326453
19,82938,1263936
19,83352,1152551
19,83763,998650
19,84175,832538
19,84588,673891
19,85000,541752
19,85412,419881
19,85825,329112
19,86237,260104
19,86648,202034
19,87062,165773
19,87473,137509
19,87885,113329
19,88298,95969
19,88710,80599
19,89122,71224
19,89533,61332
19,89947,54651
19,90358,50752
19,90770,45362
19,91183,37967
19,91595,36630
19,92007,33812
19,92420,31462
19,92832,27383
19,93243,24754
19,93657,22676
19,94068,20488
19,94480,18499
19,94893,19242
19,95305,18015
19,95717,16748
19,96130,14554
19,96542,13974
19,96953,12401
19,97367,11711
19,97778,11240
19,98190,10972
19,98602,10874
19,99015,9649
19,99427,10996
19,99838,9048
20,00252,8852
20,00663,8090
20,01075,7876
20,01488,7595
20,01900,8222
20,02312,7202
20,02725,6190
20,03137,5506
20,03548,5330
20,03962,5380
20,04373,5608
20,04785,5557
20,05198,5492
20,05610,5352
20,06022,3668
20,06435,4314
20,06847,3335
20,07258,3817
20,07670,3827
20,08083,2547
20,08495,4548
20,08907,3214
20,09320,3040
20,09732,3976
20,10143,3408
20,10557,3193
20,10968,2807
20,11380,3765
20,11793,4199
20,12205,5105
20,12617,8134
20,13030,13939
20,13442,24215
20,13853,42890
20,14267,69333
20,14678,108220
20,15090,164976
20,15503,230476
20,15915,307834
20,16327,395743
20,16738,471327
20,17152,539719
20,17563,594873
20,17975,625324
20,18388,614887
20,18800,580285
20,19212,526651
20,19625,459067
20,20037,387002
20,20448,328717
20,20862,265565
20,21273,216534
20,21685,168402
20,22098,134352
20,22510,110077
20,22922,90393
20,23335,73568
20,23747,63140
20,24158,52281
20,24572,44670
20,24983,38025
20,25395,33406
20,25807,31574
20,26220,25902
20,26632,22846
20,27043,20409
20,27457,19843
20,27868,17869
20,28280,16130
20,28693,15367
20,29105,12657
20,29517,12360
20,29930,13047
20,30342,13652
20,30753,17127
20,31167,25065
20,31578,38199
20,31990,59985
20,32403,98955
20,32815,147397
20,33227,221161
20,33640,325644
20,34052,452062
20,34463,595950
20,34875,744856
20,35288,899255
20,35700,1060212
20,36112,1168798
20,36525,1221255
20,36937,1240120
20,37348,1191273
20,37762,1077874
20,38173,938425
20,38585,792690
20,38998,650286
20,39410,523596
20,39822,417539
20,40235,330428
20,40647,258623
20,41058,211737
20,41472,173636
20,41883,142475
20,42295,118629
20,42708,97487
20,43120,85430
20,43532,75119
20,43943,66773
20,44357,58058
20,44768,52871
20,45180,45310
20,45593,41484
20,46005,38833
20,46417,34768
20,46830,32122
20,47242,28647
20,47653,24806
20,48067,25238
20,48478,22755
20,48890,20793
20,49303,19785
20,49715,17034
20,50127,17269
20,50540,15824
20,50952,15503
20,51363,13824
20,51777,12748
20,52188,12833
20,52600,11042
20,53012,11151
20,53425,9796
20,53837,9815
20,54248,8434
20,54662,8873
20,55073,8439
20,55485,8068
20,55898,7252
20,56310,7355
20,56722,6629
20,57135,7077
20,57547,6770
20,57958,6168
20,58372,5413
20,58783,5032
20,59195,5025
20,59608,3693
20,60020,5680
20,60432,5060
20,60845,4821
20,61257,5509
20,61668,4710
20,62080,4521
20,62493,4878
20,62905,3350
20,63317,3868
20,63730,4011
20,64142,4455
20,64553,5788
20,64967,6963
20,65378,5898
20,65790,5973
20,66203,6180
20,66615,4389
20,67027,4618
20,67440,4105
20,67852,4257
20,68263,2051
20,68677,3187
20,69088,2182
20,69500,3220
20,69913,1655
20,70325,1785
20,70737,2551
20,71148,2863
20,71562,2878
20,71973,2947
20,72385,2376
20,72798,2469
20,73210,3086
20,73622,3211
20,74035,6373
20,74447,9287
20,74858,14998
20,75272,28679
20,75683,45409
20,76095,75644
20,76508,113024
20,76920,173905
20,77332,245632
20,77745,326874
20,78157,410947
20,78568,487766
20,78982,541537
20,79393,573198
20,79805,578415
20,80217,554037
20,80630,511301
20,81042,442168
20,81453,383328
20,81867,314651
20,82278,258182
20,82690,208952
20,83103,166986
20,83515,134443
20,83927,111529
20,84340,91120
20,84752,75633
20,85163,61553
20,85577,54998
20,85988,45381
20,86400,42000
20,86813,36409
20,87225,31906
20,87637,28830
20,88050,26225
20,88462,23301
20,88873,21053
20,89285,17970
20,89698,16022
20,90110,15677
20,90522,13724
20,90935,13896
20,91347,11534
20,91758,9952
20,92172,11477
20,92583,9909
20,92995,9726
20,93408,8946
20,93820,8089
20,94232,8098
20,94645,6894
20,95057,5901
20,95468,6623
20,95882,5928
20,96293,5372
20,96705,5685
20,97118,4694
20,97530,6044
20,97942,6136
20,98353,4533
20,98767,5782
20,99178,5264
20,99590,5242
21,00003,4735
21,00415,5718
21,00827,4603
21,01240,4568
21,01652,4926
21,02063,4613
21,02477,4498
21,02888,4732
21,03300,3999
21,03713,3140
21,04125,4200
21,04537,3243
21,04950,2404
21,05362,3522
21,05773,3403
21,06187,2938
21,06598,4016
21,07010,3647
21,07422,3735
21,07835,4578
21,08247,4554
21,08658,4612
21,09072,5702
21,09483,3991
21,09895,5701
21,10308,3603
21,10720,3342
21,11132,2872
21,11545,3053
21,11957,2618
21,12368,2994
21,12782,2928
21,13193,2976
21,13605,3610
21,14018,3116
21,14430,2865
21,14842,2976
21,15255,4359
21,15667,4759
21,16078,7214
21,16490,12213
21,16903,19981
21,17315,32056
21,17727,53886
21,18140,86758
21,18552,131969
21,18963,191049
21,19377,254287
21,19788,328709
21,20200,406578
21,20613,473171
21,21025,520788
21,21437,541614
21,21850,540534
21,22262,516707
21,22673,461240
21,23087,419002
21,23498,348541
21,23910,295004
21,24323,236051
21,24735,188564
21,25147,149519
21,25558,120262
21,25972,97259
21,26383,79833
21,26795,64662
21,27208,54856
21,27620,47974
21,28032,40383
21,28445,36047
21,28857,30330
21,29268,27925
21,29682,24637
21,30093,22626
21,30505,20154
21,30918,17764
21,31330,14843
21,31742,13222
21,32155,13665
21,32567,12842
21,32978,11963
21,33392,9977
21,33803,10872
21,34215,9408
21,34628,9268
21,35040,7512
21,35452,8157
21,35863,7255
21,36277,7848
21,36688,6131
21,37100,6841
21,37513,7541
21,37925,6080
21,38337,5662
21,38750,5476
21,39162,5141
21,39573,5115
21,39987,5890
21,40398,5317
21,40810,5616
21,41223,4408
21,41635,3895
21,42047,4049
21,42460,4221
21,42872,4258
21,43283,4005
21,43697,3783
21,44108,2936
21,44520,3120
21,44932,3378
21,45345,3559
21,45757,3242
21,46168,2452
21,46582,3326
21,46993,3052
21,47405,2500
21,47818,2389
21,48230,2665
21,48642,2243
21,49055,2632
21,49467,2755
21,49878,2722
21,50292,1991
21,50703,1488
21,51115,2323
21,51528,2102
21,51940,2152
21,52352,2164
21,52765,1527
21,53177,1842
21,53588,1877
21,54000,2070
21,54413,1462
21,54825,1978
21,55237,2001
21,55650,1565
21,56062,2131
21,56473,2604
21,56887,1929
21,57298,1909
21,57710,2040
21,58123,2888
21,58535,1731
21,58947,2110
21,59360,2001
21,59772,2730
21,60183,2282
21,60597,1824
21,61008,1441
21,61420,2164
21,61833,2210
21,62245,2091
21,62657,1828
21,63068,2064
21,63482,2077
21,63893,1445
21,64305,1748
21,64718,2143
21,65130,2080
21,65542,1982
21,65955,1609
21,66367,1648
21,66778,838
21,67192,2023
21,67603,1507
21,68015,1918
21,68428,1500
21,68840,1413
21,69252,1968
21,69665,2071
21,70077,1964
21,70488,1759
21,70902,1736
21,71313,1367
21,71725,1631
21,72137,1526
21,72550,1848
21,72962,1525
21,73373,1294
21,73787,2288
21,74198,2035
21,74610,1919
21,75023,1953
21,75435,2876
21,75847,4835
21,76260,9664
21,76672,15856
21,77083,28512
21,77497,48451
21,77908,78600
21,78320,124813
21,78733,169281
21,79145,231947
21,79557,293528
21,79970,361209
21,80382,414989
21,80793,460381
21,81205,478334
21,81618,472445
21,82030,455175
21,82442,425545
21,82855,373074
21,83267,319842
21,83678,278210
21,84092,243936
21,84503,218977
21,84915,216234
21,85328,233486
21,85740,275167
21,86152,346151
21,86565,449447
21,86977,583002
21,87388,740351
21,87802,912409
21,88213,1089701
21,88625,1248032
21,89038,1388246
21,89450,1479082
21,89862,1505937
21,90273,1439415
21,90687,1326347
21,91098,1159696
21,91510,967472
21,91923,799553
21,92335,637526
21,92747,512651
21,93160,406273
21,93572,332611
21,93983,271067
21,94397,225716
21,94808,188752
21,95220,157724
21,95633,134742
21,96045,119379
21,96457,102036
21,96870,91498
21,97282,80788
21,97693,75890
21,98107,65372
21,98518,59498
21,98930,55242
21,99342,49960
21,99755,45187
22,00167,42424
22,00578,37182
22,00992,34635
22,01403,33965
22,01815,31048
22,02228,28445
22,02640,28971
22,03052,26511
22,03465,24690
22,03877,22410
22,04288,21481
22,04702,19660
22,05113,18901
22,05525,18709
22,05938,17343
22,06350,15819
22,06762,13954
22,07175,14625
22,07587,13973
22,07998,13771
22,08410,12642
22,08823,12215
22,09235,10400
22,09647,11225
22,10060,9446
22,10472,10158
22,10883,9585
22,11297,9295
22,11708,9056
22,12120,9822
22,12533,8563
22,12945,8935
22,13357,9822
22,13770,10175
22,14182,12968
22,14593,18272
22,15007,26427
22,15418,39868
22,15830,62960
22,16243,94104
22,16655,136470
22,17067,195920
22,17478,257267
22,17892,325811
22,18303,382315
22,18715,429662
22,19128,464736
22,19540,466989
22,19952,458257
22,20365,431610
22,20777,395688
22,21188,347856
22,21602,291407
22,22013,243439
22,22425,193258
22,22838,158271
22,23250,127695
22,23662,104207
22,24075,83451
22,24487,73390
22,24898,60948
22,25312,52601
22,25723,42876
22,26135,37765
22,26547,32955
22,26960,30534
22,27372,28574
22,27783,24153
22,28197,23035
22,28608,19417
22,29020,18479
22,29433,17106
22,29845,16229
22,30257,15408
22,30670,13123
22,31082,14189
22,31493,12071
22,31907,11494
22,32318,11708
22,32730,10977
22,33143,12125
22,33555,11216
22,33967,10903
22,34380,11554
22,34792,14603
22,35203,23275
22,35615,32651
22,36028,51292
22,36440,80057
22,36852,123239
22,37265,179950
22,37677,256093
22,38088,335355
22,38502,424152
22,38913,518718
22,39325,589008
22,39738,638677
22,40150,674502
22,40562,659362
22,40975,616722
22,41387,573656
22,41798,488507
22,42212,420613
22,42623,344469
22,43035,284231
22,43448,229057
22,43860,182818
22,44272,154782
22,44683,121788
22,45097,104120
22,45508,83857
22,45920,74040
22,46333,63624
22,46745,54893
22,47157,49272
22,47570,44235
22,47982,36947
22,48393,32997
22,48807,32393
22,49218,29008
22,49630,24993
22,50043,25504
22,50455,23797
22,50867,20498
22,51280,19972
22,51692,20345
22,52103,18073
22,52517,19257
22,52928,16121
22,53340,16085
22,53752,14966
22,54165,12965
22,54577,12256
22,54988,12318
22,55402,10250
22,55813,10118
22,56225,9782
22,56638,8927
22,57050,10186
22,57462,10332
22,57875,8077
22,58287,9375
22,58698,8473
22,59112,6416
22,59523,7182
22,59935,6222
22,60348,7632
22,60760,6256
22,61172,5229
22,61585,5925
22,61997,6392
22,62408,5467
22,62820,5548
22,63233,5265
22,63645,6460
22,64057,5251
22,64470,5541
22,64882,4878
22,65293,5628
22,65707,5096
22,66118,4752
22,66530,5137
22,66943,4486
22,67355,4753
22,67767,5303
22,68180,5048
22,68592,4548
22,69003,5229
22,69417,3808
22,69828,4241
22,70240,4319
22,70653,4135
22,71065,3805
22,71477,3076
22,71888,3523
22,72302,2942
22,72713,3764
22,73125,3537
22,73538,4614
22,73950,3465
22,74362,3752
22,74775,3610
22,75187,4339
22,75598,3338
22,76012,3745
22,76423,3582
22,76835,3906
22,77248,4533
22,77660,4855
22,78072,5792
22,78485,5944
22,78897,6895
22,79308,7519
22,79722,7504
22,80133,6840
22,80545,9742
22,80957,10772
22,81370,15819
22,81782,27192
22,82193,47856
22,82607,74752
22,83018,123582
22,83430,184003
22,83843,261969
22,84255,352435
22,84667,458595
22,85080,562558
22,85492,654825
22,85903,726295
22,86317,770626
22,86728,771536
22,87140,730226
22,87553,657501
22,87965,570950
22,88377,479913
22,88790,393363
22,89202,321825
22,89613,261244
22,90025,208830
22,90438,165934
22,90850,139544
22,91262,114466
22,91675,96901
22,92087,85116
22,92498,71806
22,92912,62970
22,93323,56420
22,93735,50287
22,94148,45298
22,94560,42566
22,94972,37970
22,95385,34362
22,95797,30217
22,96208,29359
22,96622,27434
22,97033,25885
22,97445,24209
22,97858,20926
22,98270,20625
22,98682,20486
22,99095,19801
22,99507,18899
22,99918,18669
23,00330,17665
23,00743,15860
23,01155,13925
23,01567,14388
23,01980,14056
23,02392,13419
23,02803,13445
23,03217,12416
23,03628,13008
23,04040,11094
23,04453,10551
23,04865,11000
23,05277,10416
23,05690,9467
23,06102,9105
23,06513,8961
23,06927,8164
23,07338,9418
23,07750,9408
23,08163,8683
23,08575,9055
23,08987,7413
23,09398,7719
23,09812,7621
23,10223,7713
23,10635,6844
23,11048,6858
23,11460,6621
23,11872,5808
23,12285,6934
23,12697,7140
23,13108,6568
23,13522,6603
23,13933,6924
23,14345,5482
23,14758,7306
23,15170,8482
23,15582,11935
23,15995,16834
23,16407,27274
23,16818,41575
23,17232,65539
23,17643,102412
23,18055,151413
23,18467,218967
23,18880,286617
23,19292,374249
23,19703,451860
23,20117,520325
23,20528,570808
23,20940,585961
23,21353,582266
23,21765,549810
23,22177,497119
23,22590,437266
23,23002,371593
23,23413,306997
23,23827,248564
23,24238,205286
23,24650,166501
23,25063,137387
23,25475,113354
23,25887,90689
23,26300,78388
23,26712,67975
23,27123,57802
23,27535,51362
23,27948,46277
23,28360,38653
23,28772,36204
23,29185,32874
23,29597,29930
23,30008,27612
23,30422,25993
23,30833,24698
23,31245,24458
23,31658,19858
23,32070,17665
23,32482,16236
23,32895,15125
23,33307,16223
23,33718,14300
23,34132,14176
23,34543,12846
23,34955,12981
23,35368,11316
23,35780,11759
23,36192,11559
23,36603,9934
23,37017,10768
23,37428,9551
23,37840,9440
23,38253,9338
23,38665,8759
23,39077,8376
23,39490,7611
23,39902,7931
23,40313,7772
23,40727,7568
23,41138,7624
23,41550,7485
23,41963,6512
23,42375,6483
23,42787,7677
23,43200,7111
23,43612,6697
23,44023,5579
23,44437,5558
23,44848,6423
23,45260,6628
23,45672,5062
23,46085,5063
23,46497,6465
23,46908,5252
23,47322,5610
23,47733,5214
23,48145,4407
23,48558,5242
23,48970,5103
23,49382,4635
23,49795,3549
23,50207,4567
23,50618,4999
23,51032,4983
23,51443,4479
23,51855,4300
23,52268,3998
23,52680,5074
23,53092,3873
23,53505,4646
23,53917,3939
23,54328,4464
23,54740,4762
23,55153,4878
23,55565,4690
23,55977,4423
23,56390,4988
23,56802,5333
23,57213,5167
23,57627,5980
23,58038,5893
23,58450,6445
23,58863,4785
23,59275,5033
23,59687,5769
23,60100,5264
23,60512,4799
23,60923,4780
23,61337,4041
23,61748,4260
23,62160,5057
23,62573,5117
23,62985,4382
23,63397,4506
23,63808,4367
23,64222,4462
23,64633,4110
23,65045,4588
23,65458,3787
23,65870,4978
23,66282,3579
23,66695,4499
23,67107,4612
23,67518,4575
23,67932,4049
23,68343,3659
23,68755,4058
23,69168,3726
23,69580,4232
23,69992,3713
23,70405,4124
23,70817,5037
23,71228,5736
23,71642,8376
23,72053,11919
23,72465,16241
23,72877,28024
23,73290,45673
23,73702,71176
23,74113,112512
23,74527,165061
23,74938,232927
23,75350,305543
23,75763,385498
23,76175,470041
23,76587,539960
23,77000,606533
23,77412,653416
23,77823,710477
23,78237,745496
23,78648,821611
23,79060,870912
23,79473,952902
23,79885,1059319
23,80297,1184051
23,80710,1325899
23,81122,1486044
23,81533,1589715
23,81945,1651571
23,82358,1681248
23,82770,1605972
23,83182,1464527
23,83595,1253773
23,84007,1057294
23,84418,862668
23,84832,696784
23,85243,557241
23,85655,443671
23,86068,362682
23,86480,299216
23,86892,255947
23,87305,216723
23,87717,186920
23,88128,163748
23,88542,144388
23,88953,129306
23,89365,118583
23,89778,106080
23,90190,96757
23,90602,87799
23,91013,81815
23,91427,74733
23,91838,70100
23,92250,66140
23,92663,58693
23,93075,59162
23,93487,54421
23,93900,51545
23,94312,48746
23,94723,43790
23,95137,41260
23,95548,38404
23,95960,37788
23,96373,37022
23,96785,34526
23,97197,34576
23,97610,32978
23,98022,29917
23,98433,29207
23,98847,26213
23,99258,25624
23,99670,26147
24,00082,23800
24,00495,25242
24,00907,21556
24,01318,22933
24,01732,20795
24,02143,22871
24,02555,19092
24,02968,20275
24,03380,17494
24,03792,16028
24,04205,16595
24,04617,16952
24,05028,16077
24,05442,16601
24,05853,16153
24,06265,17093
24,06678,17310
24,07090,18169
24,07502,22091
24,07915,28637
24,08327,42875
24,08738,61152
24,09150,88965
24,09563,130478
24,09975,184728
24,10387,247329
24,10800,319078
24,11212,395712
24,11623,460826
24,12037,515532
24,12448,537194
24,12860,544366
24,13273,523178
24,13685,491876
24,14097,451176
24,14510,403194
24,14922,366247
24,15333,341192
24,15747,329067
24,16158,343170
24,16570,368407
24,16983,408841
24,17395,448429
24,17807,485517
24,18218,518433
24,18632,529386
24,19043,514572
24,19455,501840
24,19868,456025
24,20280,410283
24,20692,362558
24,21105,307327
24,21517,256905
24,21928,218884
24,22342,181310
24,22753,150709
24,23165,127302
24,23578,107567
24,23990,96876
24,24402,90358
24,24815,89684
24,25227,98890
24,25638,117966
24,26052,147867
24,26463,191718
24,26875,255803
24,27287,337951
24,27700,423818
24,28112,523633
24,28523,606739
24,28937,677237
24,29348,736279
24,29760,746976
24,30173,724892
24,30585,674077
24,30997,611861
24,31410,530968
24,31822,445356
24,32233,370868
24,32647,309262
24,33058,258917
24,33470,213538
24,33883,182295
24,34295,153094
24,34707,130313
24,35120,111809
24,35532,98624
24,35943,88719
24,36355,78797
24,36768,71926
24,37180,66509
24,37592,59332
24,38005,54942
24,38417,50190
24,38828,48073
24,39242,44299
24,39653,44863
24,40065,39715
24,40478,37672
24,40890,35865
24,41302,34116
24,41715,31406
24,42127,28624
24,42538,28314
24,42952,28644
24,43363,24432
24,43775,24969
24,44188,24588
24,44600,23596
24,45012,21707
24,45423,21616
24,45837,19342
24,46248,18802
24,46660,18225
24,47073,17631
24,47485,17691
24,47897,16103
24,48310,14283
24,48722,16342
24,49133,15544
24,49547,15100
24,49958,17039
24,50370,15357
24,50783,14212
24,51195,15405
24,51607,13443
24,52020,16047
24,52432,13913
24,52843,14900
24,53257,14138
24,53668,13078
24,54080,12154
24,54493,12862
24,54905,11543
24,55317,11029
24,55728,11513
24,56142,13208
24,56553,10518
24,56965,12455
24,57378,11151
24,57790,10483
24,58202,9528
24,58615,9412
24,59027,8720
24,59438,8424
24,59852,8877
24,60263,7898
24,60675,9079
24,61088,9733
24,61500,8520
24,61912,9611
24,62325,8505
24,62737,9155
24,63148,7689
24,63562,8395
24,63973,8683
24,64385,9330
24,64797,8392
24,65210,10566
24,65622,13590
24,66033,16512
24,66447,25831
24,66858,41150
24,67270,62364
24,67683,95191
24,68095,144957
24,68507,210284
24,68920,290953
24,69332,388012
24,69743,491165
24,70157,600119
24,70568,690090
24,70980,770036
24,71393,803932
24,71805,796623
24,72217,764767
24,72630,701955
24,73042,603372
24,73453,509616
24,73865,425464
24,74278,353287
24,74690,292033
24,75102,242723
24,75515,203965
24,75927,169501
24,76338,146473
24,76752,123837
24,77163,107460
24,77575,100341
24,77988,91539
24,78400,77235
24,78812,72385
24,79225,69125
24,79637,60620
24,80048,59850
24,80462,55637
24,80873,52555
24,81285,50538
24,81698,45387
24,82110,43502
24,82522,45217
24,82933,39777
24,83347,38090
24,83758,39061
24,84170,34299
24,84583,34188
24,84995,33177
24,85407,32635
24,85820,30625
24,86232,28273
24,86643,27221
24,87057,24731
24,87468,24928
24,87880,24525
24,88293,22348
24,88705,22450
24,89117,20869
24,89530,19686
24,89942,18168
24,90353,20079
24,90767,17205
24,91178,19300
24,91590,17805
24,92002,18176
24,92415,16708
24,92827,16462
24,93238,15692
24,93652,14226
24,94063,14135
24,94475,15017
24,94888,15405
24,95300,13749
24,95712,14839
24,96125,13835
24,96537,14884
24,96948,13677
24,97362,13140
24,97773,12042
24,98185,12849
24,98598,13268
24,99010,12460
24,99422,14960
24,99835,16397
25,00247,18718
25,00658,22541
25,01070,33880
25,01483,49066
25,01895,74917
25,02307,115159
25,02720,164440
25,03132,226349
25,03543,308530
25,03957,395924
25,04368,480120
25,04780,554221
25,05193,608025
25,05605,630711
25,06017,619492
25,06430,598071
25,06842,550270
25,07253,487681
25,07667,433780
25,08078,372182
25,08490,329630
25,08903,304440
25,09315,294555
25,09727,299906
25,10138,328540
25,10552,362134
25,10963,397920
25,11375,437313
25,11788,472683
25,12200,489580
25,12612,495252
25,13025,478063
25,13437,442316
25,13848,402739
25,14262,354893
25,14673,305591
25,15085,260937
25,15498,217996
25,15910,180548
25,16322,152710
25,16735,131653
25,17147,113426
25,17558,97329
25,17972,83774
25,18383,74142
25,18795,68155
25,19207,59576
25,19620,52680
25,20032,50039
25,20443,44255
25,20857,41446
25,21268,39821
25,21680,38860
25,22093,35041
25,22505,31225
25,22917,31990
25,23330,30258
25,23742,28827
25,24153,27176
25,24567,26149
25,24978,24647
25,25390,23947
25,25803,22100
25,26215,22067
25,26627,21692
25,27040,20988
25,27452,20299
25,27863,20891
25,28275,19867
25,28688,18445
25,29100,16398
25,29512,17175
25,29925,16708
25,30337,15938
25,30748,14312
25,31162,15913
25,31573,14075
25,31985,15311
25,32398,14627
25,32810,14162
25,33222,14492
25,33635,14310
25,34047,13819
25,34458,13395
25,34872,14262
25,35283,13473
25,35695,13560
25,36108,13700
25,36520,14190
25,36932,13422
25,37343,12185
25,37757,11496
25,38168,13571
25,38580,13205
25,38993,12149
25,39405,11817
25,39817,12085
25,40230,11492
25,40642,11856
25,41053,12606
25,41467,11452
25,41878,12074
25,42290,11574
25,42703,12152
25,43115,12655
25,43527,10765
25,43940,11270
25,44352,10378
25,44763,11538
25,45177,11468
25,45588,10444
25,46000,10559
25,46412,12123
25,46825,11843
25,47237,11756
25,47648,11115
25,48062,10389
25,48473,11222
25,48885,12558
25,49298,12390
25,49710,11385
25,50122,10470
25,50535,11414
25,50947,10713
25,51358,10880
25,51772,10092
25,52183,9310
25,52595,10105
25,53008,11880
25,53420,13913
25,53832,17256
25,54245,21529
25,54657,31649
25,55068,49212
25,55480,74198
25,55893,109981
25,56305,162303
25,56717,234466
25,57130,318286
25,57542,421103
25,57953,553364
25,58367,695626
25,58778,854552
25,59190,1029533
25,59603,1194510
25,60015,1350886
25,60427,1483778
25,60840,1575712
25,61252,1587790
25,61663,1539417
25,62077,1405231
25,62488,1227786
25,62900,1043040
25,63313,849740
25,63725,682661
25,64137,563609
25,64548,464656
25,64962,382347
25,65373,317740
25,65785,273139
25,66198,241473
25,66610,209087
25,67022,182335
25,67435,162467
25,67847,150602
25,68258,134930
25,68672,124148
25,69083,117227
25,69495,109605
25,69908,94632
25,70320,91635
25,70732,83637
25,71145,82519
25,71557,74357
25,71968,70158
25,72382,69327
25,72793,64472
25,73205,62343
25,73617,58896
25,74030,54708
25,74442,52240
25,74853,49710
25,75267,49141
25,75678,46985
25,76090,47618
25,76503,42463
25,76915,41943
25,77327,40796
25,77740,37101
25,78152,36866
25,78563,35867
25,78977,37787
25,79388,35050
25,79800,34818
25,80213,33455
25,80625,29872
25,81037,30863
25,81450,31178
25,81862,29741
25,82273,28973
25,82685,27852
25,83098,27333
25,83510,26235
25,83922,25168
25,84335,25715
25,84747,25367
25,85158,23995
25,85572,23212
25,85983,24054
25,86395,24206
25,86808,22237
25,87220,22681
25,87632,23397
25,88045,23405
25,88457,22945
25,88868,21885
25,89282,21921
25,89693,23207
25,90105,23315
25,90518,22219
25,90930,20534
25,91342,20559
25,91753,19211
25,92167,20432
25,92578,18647
25,92990,19382
25,93403,17703
25,93815,17033
25,94227,17884
25,94640,18369
25,95052,16662
25,95463,16473
25,95877,16225
25,96288,17417
25,96700,15507
25,97113,15807
25,97525,15420
25,97937,14060
25,98350,15404
25,98762,15295
25,99173,16107
25,99587,17661
25,99998,19824
26,00410,24613
26,00822,29036
26,01235,41319
26,01647,57533
26,02058,86860
26,02472,126084
26,02883,176548
26,03295,246946
26,03708,328636
26,04120,414276
26,04532,516047
26,04945,616307
26,05357,701468
26,05768,756000
26,06182,782074
26,06593,763996
26,07005,712932
26,07418,636586
26,07830,553321
26,08242,468899
26,08655,394409
26,09067,327442
26,09478,276263
26,09890,231194
26,10303,201371
26,10715,170216
26,11127,147522
26,11540,130839
26,11952,115879
26,12363,104982
26,12777,95697
26,13188,88809
26,13600,81185
26,14013,74320
26,14425,70496
26,14837,63327
26,15250,60436
26,15662,56184
26,16073,53718
26,16487,50107
26,16898,47972
26,17310,45529
26,17723,43358
26,18135,42906
26,18547,39724
26,18960,37448
26,19372,37729
26,19783,36686
26,20195,34326
26,20608,33252
26,21020,32069
26,21432,31796
26,21845,30589
26,22257,29599
26,22668,28571
26,23082,28119
26,23493,27558
26,23905,27741
26,24318,25004
26,24730,25199
26,25142,24593
26,25555,23112
26,25967,22677
26,26378,22314
26,26792,23432
26,27203,21437
26,27615,22338
26,28028,20523
26,28440,20172
26,28852,20261
26,29263,19585
26,29677,18765
26,30088,19246
26,30500,19482
26,30913,18330
26,31325,17266
26,31737,18535
26,32150,19436
26,32562,17382
26,32973,16967
26,33387,17684
26,33798,18581
26,34210,19202
26,34623,19065
26,35035,18889
26,35447,20382
26,35860,19605
26,36272,21325
26,36683,19728
26,37097,18515
26,37508,20454
26,37920,19421
26,38332,19138
26,38745,20144
26,39157,18670
26,39568,19155
26,39982,18625
26,40393,18456
26,40805,16865
26,41218,19006
26,41630,17992
26,42042,17181
26,42455,16180
26,42867,15709
26,43278,15534
26,43692,15202
26,44103,15900
26,44515,15636
26,44928,14727
26,45340,13145
26,45752,15182
26,46165,14374
26,46577,13354
26,46988,14131
26,47400,13696
26,47813,14332
26,48225,12561
26,48637,13494
26,49050,12632
26,49462,13845
26,49873,13377
26,50287,12777
26,50698,13112
26,51110,11869
26,51523,13788
26,51935,13388
26,52347,15592
26,52760,14002
26,53172,12785
26,53583,12867
26,53997,12894
26,54408,13502
26,54820,13265
26,55233,12724
26,55645,14194
26,56057,13382
26,56468,11788
26,56882,13011
26,57293,12856
26,57705,13465
26,58118,13114
26,58530,12506
26,58942,14048
26,59355,13235
26,59767,12275
26,60178,13645
26,60592,12723
26,61003,14992
26,61415,14224
26,61828,15083
26,62240,12965
26,62652,14956
26,63065,13596
26,63477,15060
26,63888,15749
26,64302,14238
26,64713,15586
26,65125,14783
26,65537,13044
26,65950,15486
26,66362,13603
26,66773,12395
26,67187,13601
26,67598,12218
26,68010,12619
26,68423,12138
26,68835,11998
26,69247,13378
26,69660,12843
26,70072,12209
26,70483,13215
26,70897,13909
26,71308,14407
26,71720,15619
26,72133,15809
26,72545,14910
26,72957,15539
26,73370,15038
26,73782,13386
26,74193,13342
26,74605,13106
26,75018,14929
26,75430,13777
26,75842,15051
26,76255,13212
26,76667,12169
26,77078,12729
26,77492,12592
26,77903,12739
26,78315,15014
26,78728,13059
26,79140,13254
26,79552,13282
26,79965,12841
26,80377,12441
26,80788,14381
26,81202,14323
26,81613,15121
26,82025,12533
26,82438,14594
26,82850,13538
26,83262,13875
26,83673,12952
26,84087,11916
26,84498,13238
26,84910,12683
26,85323,13349
26,85735,13995
26,86147,14550
26,86560,14520
26,86972,14271
26,87383,15364
26,87797,15095
26,88208,12687
26,88620,14664
26,89033,13934
26,89445,15819
26,89857,14022
26,90270,12916
26,90682,13536
26,91093,13670
26,91507,13024
26,91918,13981
26,92330,11962
26,92742,13770
26,93155,13233
26,93567,11867
26,93978,13249
26,94392,13684
26,94803,11952
26,95215,10807
26,95628,12135
26,96040,12142
26,96452,13313
26,96865,12509
26,97277,13070
26,97688,13537
26,98102,11253
26,98513,11996
26,98925,12966
26,99338,10899
26,99750,12228
27,00162,11085
27,00575,10236
27,00987,12136
27,01398,11783
27,01810,11585
27,02223,11187
27,02635,11977
27,03047,12074
27,03460,13067
27,03872,11899
27,04283,11743
27,04697,12517
27,05108,11548
27,05520,12135
27,05933,10719
27,06345,10830
27,06757,11207
27,07170,13468
27,07582,12163
27,07993,11231
27,08407,12129
27,08818,11875
27,09230,12940
27,09643,12828
27,10055,12187
27,10467,11194
27,10878,13225
27,11292,11065
27,11703,11561
27,12115,11715
27,12528,13471
27,12940,12389
27,13352,12597
27,13765,12618
27,14177,13760
27,14588,13054
27,15002,11518
27,15413,13187
27,15825,11785
27,16238,11590
27,16650,11995
27,17062,12712
27,17475,12589
27,17887,11545
27,18298,12303
27,18712,10910
27,19123,12835
27,19535,12373
27,19947,12234
27,20360,12884
27,20772,13465
27,21183,12374
27,21597,12658
27,22008,12948
27,22420,12838
27,22833,12491
27,23245,11298
27,23657,12028
27,24070,13672
27,24482,12528
27,24893,14046
27,25307,13379
27,25718,13703
27,26130,15712
27,26543,14471
27,26955,17189
27,27367,22103
27,27780,28743
27,28192,36405
27,28603,51001
27,29015,74876
27,29428,101238
27,29840,139876
27,30252,188020
27,30665,233607
27,31077,283581
27,31488,329032
27,31902,360264
27,32313,386721
27,32725,399191
27,33138,389136
27,33550,372244
27,33962,343635
27,34375,304040
27,34787,270418
27,35198,235266
27,35612,199106
27,36023,169792
27,36435,142686
27,36848,126807
27,37260,108019
27,37672,92330
27,38083,82371
27,38497,73767
27,38908,69209
27,39320,58554
27,39733,56380
27,40145,50573
27,40557,45476
27,40970,43200
27,41382,41279
27,41793,36855
27,42207,34671
27,42618,35818
27,43030,33956
27,43443,29818
27,43855,29508
27,44267,28551
27,44680,28545
27,45092,25489
27,45503,23685
27,45917,26020
27,46328,24292
27,46740,24431
27,47152,24178
27,47565,21861
27,47977,21469
27,48388,21923
27,48802,20626
27,49213,19908
27,49625,20690
27,50038,19470
27,50450,20707
27,50862,19752
27,51275,18664
27,51687,19398
27,52098,19461
27,52512,18095
27,52923,18235
27,53335,17416
27,53748,18249
27,54160,18408
27,54572,16900
27,54985,17013
27,55397,16513
27,55808,16171
27,56220,16906
27,56633,16344
27,57045,17151
27,57457,15991
27,57870,16188
27,58282,16087
27,58693,15719
27,59107,15094
27,59518,14501
27,59930,16433
27,60343,16205
27,60755,15538
27,61167,15275
27,61580,14756
27,61992,13591
27,62403,15502
27,62817,14479
27,63228,15265
27,63640,14898
27,64053,13894
27,64465,15340
27,64877,15138
27,65288,13640
27,65702,13543
27,66113,14072
27,66525,15753
27,66938,14207
27,67350,15251
27,67762,14124
27,68175,14866
27,68587,13352
27,68998,15224
27,69412,14002
27,69823,12658
27,70235,14072
27,70648,14426
27,71060,14515
27,71472,15388
27,71885,14826
27,72297,14533
27,72708,15595
27,73122,14179
27,73533,15512
27,73945,14806
27,74358,12923
27,74770,15608
27,75182,15511
27,75593,14676
27,76007,14448
27,76418,14909
27,76830,14379
27,77243,13180
27,77655,14554
27,78067,13683
27,78480,14284
27,78892,14844
27,79303,14644
27,79717,15335
27,80128,15641
27,80540,13324
27,80953,13321
27,81365,14168
27,81777,15029
27,82190,13310
27,82602,13070
27,83013,12843
27,83427,13246
27,83838,13755
27,84250,13685
27,84662,13671
27,85075,15130
27,85487,14637
27,85898,13173
27,86312,12713
27,86723,14542
27,87135,14179
27,87548,14396
27,87960,14659
27,88372,14090
27,88785,15386
27,89197,13727
27,89608,14284
27,90022,15339
27,90433,14003
27,90845,14468
27,91258,13461
27,91670,14127
27,92082,13330
27,92495,11823
27,92907,13341
27,93318,13179
27,93730,13117
27,94143,13957
27,94555,12645
27,94967,13176
27,95380,13143
27,95792,10903
27,96203,12129
27,96617,12308
27,97028,13378
27,97440,13619
27,97853,13238
27,98265,12943
27,98677,11580
27,99090,11940
27,99502,13459
27,99913,12455
28,00327,13338
28,00738,12698
28,01150,14427
28,01563,13347
28,01975,14037
28,02387,13581
28,02798,12851
28,03212,13114
28,03623,15886
28,04035,12711
28,04448,14646
28,04860,13793
28,05272,12818
28,05685,13370
28,06097,14278
28,06508,13364
28,06922,12055
28,07333,13864
28,07745,12616
28,08158,13414
28,08570,15485
28,08982,13572
28,09395,12318
28,09807,12306
28,10218,13264
28,10632,13927
28,11043,12199
28,11455,14479
28,11867,13445
28,12280,13457
28,12692,13376
28,13103,13057
28,13517,13146
28,13928,12472
28,14340,12946
28,14753,14258
28,15165,13687
28,15577,14505
28,15990,13497
28,16402,15493
28,16813,13345
28,17227,14537
28,17638,13291
28,18050,14886
28,18463,15188
28,18875,14992
28,19287,14849
28,19700,14139
28,20112,14823
28,20523,14772
28,20935,14123
28,21348,14797
28,21760,14385
28,22172,12689
28,22585,13525
28,22997,14135
28,23408,14600
28,23822,13430
28,24233,13195
28,24645,13864
28,25058,13305
28,25470,13355
28,25882,12892
28,26295,15847
28,26707,12943
28,27118,14832
28,27532,15153
28,27943,15413
28,28355,14050
28,28768,15139
28,29180,14862
28,29592,14230
28,30003,13584
28,30417,14008
28,30828,14905
28,31240,13261
28,31653,13748
28,32065,13570
28,32477,13742
28,32890,13723
28,33302,13833
28,33713,14577
28,34127,12420
28,34538,14205
28,34950,12321
28,35363,14471
28,35775,15913
28,36187,14834
28,36600,13927
28,37012,14564
28,37423,13655
28,37837,14318
28,38248,13316
28,38660,13731
28,39072,13269
28,39485,13802
28,39897,13605
28,40308,14595
28,40722,13621
28,41133,12406
28,41545,13104
28,41958,13101
28,42370,12269
28,42782,14353
28,43195,13268
28,43607,13535
28,44018,13735
28,44432,13039
28,44843,14012
28,45255,13713
28,45668,14264
28,46080,14710
28,46492,13336
28,46905,13480
28,47317,13317
28,47728,14486
28,48140,14740
28,48553,14964
28,48965,14234
28,49377,14432
28,49790,14357
28,50202,13990
28,50613,16375
28,51027,14618
28,51438,15098
28,51850,13558
28,52263,12590
28,52675,13452
28,53087,13498
28,53500,14843
28,53912,15057
28,54323,12757
28,54737,14324
28,55148,13666
28,55560,13649
28,55973,14256
28,56385,14565
28,56797,14227
28,57208,15110
28,57622,15471
28,58033,15269
28,58445,15637
28,58858,14578
28,59270,15553
28,59682,14771
28,60095,14834
28,60507,15084
28,60918,13735
28,61332,14166
28,61743,13759
28,62155,14443
28,62568,14172
28,62980,13400
28,63392,13070
28,63805,13311
28,64217,13153
28,64628,15095
28,65042,14146
28,65453,14023
28,65865,13329
28,66277,13184
28,66690,12647
28,67102,13503
28,67513,13491
28,67927,13117
28,68338,13253
28,68750,13823
28,69163,11589
28,69575,12928
28,69987,13144
28,70400,13077
28,70812,14880
28,71223,15198
28,71637,14550
28,72048,14451
28,72460,16925
28,72873,16618
28,73285,15936
28,73697,15252
28,74110,14875
28,74522,14944
28,74933,14974
28,75345,15767
28,75758,15054
28,76170,15755
28,76582,15184
28,76995,16808
28,77407,15309
28,77818,14787
28,78232,14253
28,78643,14745
28,79055,16890
28,79468,15824
28,79880,15249
28,80292,14672
28,80705,15153
28,81117,14010
28,81528,14721
28,81942,15118
28,82353,14080
28,82765,13281
28,83178,14100
28,83590,14152
28,84002,12732
28,84413,13446
28,84827,13995
28,85238,13368
28,85650,13127
28,86063,13809
28,86475,13373
28,86887,14063
28,87300,13648
28,87712,12850
28,88123,13829
28,88537,13662
28,88948,13241
28,89360,12944
28,89773,13417
28,90185,12983
28,90597,15920
28,91010,14657
28,91422,14183
28,91833,14690
28,92247,13420
28,92658,14046
