D:\MassHunter\GCMS\1\data\Amal\Constant flow\150C_1ml-min_10C-min_Air.D Thu Jul 25 19:43:47 2024
Start of data points
0,10407	5492
0,10478	5017
0,10548	5895
0,10620	5119
0,10690	5243
0,10762	5040
0,10832	5485
0,10903	5113
0,10973	4843
0,11045	4743
0,11115	5143
0,11187	5013
0,11257	4881
0,11328	5169
0,11398	5588
0,11470	5201
0,11540	4704
0,11612	4582
0,11682	5806
0,11753	5352
0,11823	4629
0,11895	5155
0,11965	5119
0,12037	4968
0,12107	5222
0,12178	5772
0,12248	5366
0,12320	6094
0,12390	4695
0,12462	5145
0,12532	5259
0,12603	4827
0,12673	5908
0,12745	5111
0,12815	4555
0,12887	4547
0,12957	5509
0,13028	5954
0,13098	4997
0,13170	4875
0,13240	4897
0,13312	4983
0,13382	5392
0,13453	5344
0,13523	5106
0,13595	5680
0,13665	4976
0,13737	5483
0,13807	4894
0,13878	5652
0,13948	5441
0,14020	5420
0,14090	5132
0,14162	5196
0,14232	5262
0,14303	5050
0,14373	5262
0,14445	5352
0,14515	4969
0,14587	5661
0,14657	5983
0,14728	5489
0,14798	5179
0,14870	5524
0,14942	5547
0,15012	5129
0,15083	5440
0,15153	5141
0,15225	5662
0,15295	5462
0,15367	5616
0,15437	5445
0,15508	5519
0,15578	4952
0,15650	6031
0,15720	5716
0,15792	5371
0,15862	4825
0,15933	5783
0,16003	5365
0,16075	5274
0,16145	5379
0,16217	5450
0,16287	5743
0,16358	5291
0,16428	5428
0,16500	6188
0,16570	5958
0,16642	5807
0,16712	5582
0,16783	6113
0,16853	5655
0,16925	5436
0,16995	5364
0,17067	5587
0,17137	5523
0,17208	5286
0,17278	5362
0,17350	6269
0,17420	5441
0,17492	4867
0,17562	5678
0,17633	5660
0,17703	5232
0,17775	5399
0,17845	5631
0,17917	5321
0,17987	5315
0,18058	5285
0,18128	6184
0,18200	5776
0,18270	5358
0,18342	5323
0,18412	5714
0,18483	5405
0,18553	5210
0,18625	5616
0,18695	5358
0,18767	5792
0,18837	5208
0,18908	5463
0,18978	5073
0,19050	6021
0,19120	5522
0,19192	5833
0,19262	5835
0,19333	5073
0,19403	5169
0,19475	5620
0,19545	5955
0,19617	4876
0,19687	5495
0,19758	5476
0,19828	5752
0,19900	5851
0,19970	5860
0,20042	5488
0,20112	5578
0,20183	5715
0,20253	5326
0,20325	5900
0,20395	5727
0,20467	6046
0,20537	5391
0,20608	5281
0,20678	5626
0,20750	5533
0,20820	5872
0,20892	6420
0,20962	4943
0,21033	5519
0,21103	4940
0,21175	5314
0,21245	5198
0,21317	5564
0,21387	5594
0,21458	5934
0,21528	5578
0,21600	5556
0,21670	5664
0,21742	5600
0,21812	5910
0,21883	5822
0,21953	5452
0,22025	5490
0,22095	6439
0,22167	5626
0,22237	5095
0,22308	5889
0,22378	5636
0,22450	5370
0,22520	5529
0,22592	5747
0,22662	5853
0,22733	5738
0,22803	5099
0,22875	5733
0,22945	5751
0,23017	5209
0,23087	5702
0,23158	5445
0,23228	5915
0,23300	5153
0,23370	6007
0,23442	5366
0,23512	5455
0,23583	5662
0,23653	4647
0,23725	5366
0,23795	5465
0,23867	5102
0,23937	5124
0,24008	5626
0,24078	4951
0,24150	5764
0,24220	5665
0,24292	5913
0,24362	5899
0,24433	5654
0,24503	5331
0,24575	6031
0,24645	5747
0,24717	5495
0,24787	5917
0,24858	5881
0,24928	5991
0,25000	5575
0,25070	5092
0,25142	5537
0,25212	5398
0,25283	5812
0,25353	5090
0,25425	5850
0,25495	5280
0,25567	5358
0,25637	5137
0,25708	5172
0,25778	5547
0,25850	5858
0,25920	5213
0,25992	5771
0,26062	5975
0,26133	5325
0,26203	5621
0,26275	5258
0,26345	5865
0,26417	5975
0,26487	5756
0,26558	5709
0,26628	5469
0,26700	5407
0,26770	5435
0,26842	5841
0,26912	5860
0,26983	5036
0,27053	5519
0,27125	5393
0,27195	5884
0,27267	5089
0,27337	5565
0,27408	5462
0,27478	5409
0,27550	5367
0,27620	5707
0,27692	5711
0,27762	5565
0,27833	6181
0,27903	5313
0,27975	5650
0,28045	5521
0,28117	5774
0,28187	5666
0,28258	5199
0,28328	5638
0,28400	5905
0,28470	5265
0,28542	5787
0,28612	5622
0,28683	5406
0,28753	5375
0,28825	5597
0,28895	5671
0,28967	5225
0,29037	5802
0,29108	5133
0,29178	5575
0,29250	5566
0,29320	6152
0,29392	5440
0,29462	5164
0,29533	5810
0,29603	5585
0,29675	4759
0,29745	5071
0,29817	5484
0,29887	5128
0,29958	5336
0,30028	5509
0,30100	5814
0,30170	5921
0,30242	5146
0,30312	5222
0,30383	5480
0,30453	5763
0,30525	5356
0,30595	5550
0,30667	5558
0,30737	5556
0,30808	5596
0,30878	5723
0,30950	5407
0,31022	5304
0,31092	5489
0,31163	5254
0,31233	5402
0,31305	5323
0,31375	5511
0,31447	5571
0,31517	5220
0,31588	5655
0,31658	5286
0,31730	5821
0,31800	5660
0,31872	5273
0,31942	5871
0,32013	5450
0,32083	5676
0,32155	5440
0,32225	5533
0,32297	5497
0,32367	5270
0,32438	5123
0,32508	5127
0,32580	5361
0,32650	6273
0,32722	5305
0,32792	5350
0,32863	5173
0,32933	5514
0,33005	5471
0,33075	5418
0,33147	5598
0,33217	5659
0,33288	5845
0,33358	5327
0,33430	5637
0,33500	5360
0,33572	5999
0,33642	5151
0,33713	4974
0,33783	5705
0,33855	5807
0,33925	5723
0,33997	5616
0,34067	5709
0,34138	6117
0,34208	5417
0,34280	5496
0,34350	6338
0,34422	5663
0,34492	5589
0,34563	5863
0,34633	5914
0,34705	5532
0,34775	5998
0,34847	5492
0,34917	5790
0,34988	5752
0,35058	5756
0,35130	5551
0,35200	5597
0,35272	5677
0,35342	5484
0,35413	4888
0,35483	5642
0,35555	6037
0,35625	5917
0,35697	5575
0,35767	5100
0,35838	4827
0,35908	5801
0,35980	5299
0,36050	5509
0,36122	5691
0,36192	5451
0,36263	5293
0,36333	5137
0,36405	5157
0,36475	4721
0,36547	5378
0,36617	6003
0,36688	6125
0,36758	6041
0,36830	5056
0,36900	5383
0,36972	5769
0,37042	5676
0,37113	5489
0,37183	4911
0,37255	5978
0,37325	5646
0,37397	6210
0,37467	5807
0,37538	5560
0,37608	5853
0,37680	5434
0,37750	5119
0,37822	5210
0,37892	5696
0,37963	5700
0,38033	5561
0,38105	5034
0,38175	5179
0,38247	5371
0,38317	5685
0,38388	5562
0,38458	5573
0,38530	5341
0,38600	5714
0,38672	5689
0,38742	5059
0,38813	5242
0,38883	5834
0,38955	5858
0,39025	5457
0,39097	5405
0,39167	5401
0,39238	5818
0,39308	5381
0,39380	5608
0,39450	5812
0,39522	5387
0,39592	5558
0,39663	5677
0,39733	5040
0,39805	5219
0,39875	5633
0,39947	5525
0,40017	5746
0,40088	5508
0,40158	5017
0,40230	5572
0,40300	4871
0,40372	5895
0,40442	5370
0,40513	5481
0,40583	5257
0,40655	4992
0,40725	5302
0,40797	5524
0,40867	5121
0,40938	5720
0,41008	4988
0,41080	5530
0,41150	5632
0,41222	5075
0,41292	5596
0,41363	5324
0,41433	5147
0,41505	5913
0,41575	5455
0,41647	4953
0,41717	4828
0,41788	5157
0,41858	6088
0,41930	5209
0,42000	5519
0,42072	5200
0,42142	5561
0,42213	5295
0,42283	5778
0,42355	5515
0,42425	5167
0,42497	4961
0,42567	5294
0,42638	6037
0,42708	5516
0,42780	5899
0,42850	5339
0,42922	6187
0,42992	5615
0,43063	5767
0,43133	5996
0,43205	5221
0,43275	5693
0,43347	5752
0,43417	5829
0,43488	5591
0,43558	5716
0,43630	5766
0,43700	5473
0,43772	5848
0,43842	5413
0,43913	5180
0,43983	5674
0,44055	5911
0,44125	5636
0,44197	5258
0,44267	5641
0,44338	5391
0,44408	4798
0,44480	5305
0,44550	5902
0,44622	5090
0,44692	5168
0,44763	4869
0,44833	5756
0,44905	5753
0,44975	5013
0,45047	5216
0,45117	5507
0,45188	5418
0,45258	5538
0,45330	5248
0,45400	5133
0,45472	6268
0,45542	6065
0,45613	4819
0,45683	5499
0,45755	5695
0,45825	5575
0,45897	5207
0,45967	5320
0,46038	5186
0,46108	5284
0,46180	5115
0,46250	5327
0,46322	5640
0,46392	5096
0,46463	5355
0,46533	5276
0,46605	5896
0,46675	5436
0,46747	5558
0,46817	5487
0,46888	5541
0,46958	5345
0,47030	5369
0,47100	5412
0,47172	4825
0,47243	5556
0,47313	5580
0,47385	5105
0,47455	5513
0,47527	5453
0,47597	5551
0,47668	5881
0,47738	5677
0,47810	5528
0,47880	5463
0,47952	4899
0,48022	5706
0,48093	5252
0,48163	5495
0,48235	5701
0,48305	5245
0,48377	5582
0,48447	5278
0,48518	5063
0,48588	5102
0,48660	5570
0,48730	5238
0,48802	5465
0,48872	5268
0,48943	5840
0,49013	5404
0,49085	5108
0,49155	5177
0,49227	5334
0,49297	5504
0,49368	5706
0,49438	5641
0,49510	5555
0,49580	5263
0,49652	5561
0,49722	5392
0,49793	5600
0,49863	5304
0,49935	5354
0,50005	5796
0,50077	5456
0,50147	5564
0,50218	5421
0,50288	5449
0,50360	5394
0,50430	5699
0,50502	5609
0,50572	4938
0,50643	6004
0,50713	5015
0,50785	5266
0,50855	5078
0,50927	5578
0,50997	5847
0,51068	5322
0,51138	5623
0,51210	5742
0,51280	5371
0,51352	5271
0,51422	5575
0,51493	5578
0,51563	5309
0,51635	5436
0,51705	5755
0,51777	4906
0,51847	5130
0,51918	5910
0,51988	5690
0,52060	5141
0,52130	5406
0,52202	5271
0,52272	5462
0,52343	5160
0,52413	5244
0,52485	5673
0,52555	5030
0,52627	5509
0,52697	4998
0,52768	5330
0,52838	5655
0,52910	5419
0,52980	5402
0,53052	5826
0,53122	5449
0,53193	4972
0,53263	5949
0,53335	5116
0,53405	5957
0,53477	5426
0,53547	5490
0,53618	5570
0,53688	5359
0,53760	5619
0,53830	5496
0,53902	5448
0,53972	6055
0,54043	5402
0,54113	6077
0,54185	5635
0,54255	5398
0,54327	5588
0,54397	5756
0,54468	5118
0,54538	4614
0,54610	5104
0,54680	5574
0,54752	5235
0,54822	5367
0,54893	4701
0,54963	5364
0,55035	5841
0,55105	5875
0,55177	5646
0,55247	5300
0,55318	5574
0,55388	5987
0,55460	5404
0,55530	5926
0,55602	5565
0,55672	5181
0,55743	5535
0,55813	5445
0,55885	5515
0,55955	5636
0,56027	5469
0,56097	5258
0,56168	4834
0,56238	5712
0,56310	5600
0,56380	5439
0,56452	5559
0,56522	5285
0,56593	5713
0,56663	4999
0,56735	5618
0,56805	5447
0,56877	5289
0,56947	5657
0,57018	5582
0,57088	4966
0,57160	5088
0,57230	5653
0,57302	5728
0,57372	5230
0,57443	4592
0,57513	5674
0,57585	5236
0,57655	5015
0,57727	5310
0,57797	5512
0,57868	5467
0,57938	5334
0,58010	4703
0,58080	5158
0,58152	5103
0,58222	5253
0,58293	4686
0,58363	4981
0,58435	5281
0,58505	5815
0,58577	5688
0,58647	4593
0,58718	4658
0,58788	5229
0,58860	5350
0,58930	5533
0,59002	5201
0,59072	5035
0,59143	5540
0,59213	5352
0,59285	5490
0,59355	5680
0,59427	5767
0,59497	5408
0,59568	5464
0,59638	5869
0,59710	5234
0,59780	5445
0,59852	5378
0,59922	5848
0,59993	5607
0,60063	5526
0,60135	5669
0,60205	5205
0,60277	5397
0,60347	4977
0,60418	5791
0,60488	5602
0,60560	5076
0,60630	5950
0,60702	4461
0,60772	4449
0,60843	5405
0,60913	5555
0,60985	5208
0,61055	5282
0,61127	5429
0,61197	5820
0,61268	5618
0,61338	4987
0,61410	5867
0,61480	5737
0,61552	5245
0,61622	5486
0,61693	5512
0,61763	5544
0,61835	5404
0,61905	5317
0,61977	5905
0,62047	5846
0,62118	5604
0,62188	6109
0,62260	5518
0,62330	5557
0,62402	5067
0,62472	5169
0,62543	4864
0,62613	5450
0,62685	5497
0,62755	5590
0,62827	5423
0,62897	5602
0,62968	5463
0,63038	5311
0,63110	5761
0,63180	5122
0,63252	5400
0,63322	5747
0,63393	5466
0,63465	5342
0,63535	5415
0,63607	5960
0,63677	4568
0,63748	5071
0,63818	5919
0,63890	5287
0,63960	5044
0,64032	5267
0,64102	5629
0,64173	5491
0,64243	5679
0,64315	5305
0,64385	5262
0,64457	5580
0,64527	5415
0,64598	5593
0,64668	5315
0,64740	4867
0,64810	5060
0,64882	6032
0,64952	4999
0,65023	5609
0,65093	5497
0,65165	5229
0,65235	5822
0,65307	4925
0,65377	5594
0,65448	5326
0,65518	5554
0,65590	5654
0,65660	5469
0,65732	5038
0,65802	6354
0,65873	5303
0,65943	5028
0,66015	5933
0,66085	5106
0,66157	5497
0,66227	5411
0,66298	5203
0,66368	5422
0,66440	5087
0,66510	5545
0,66582	5762
0,66652	4973
0,66723	5362
0,66793	5412
0,66865	5386
0,66935	5686
0,67007	5391
0,67077	5018
0,67148	5655
0,67218	4875
0,67290	5536
0,67360	5658
0,67432	5476
0,67502	5432
0,67573	4741
0,67643	5345
0,67715	5757
0,67785	5518
0,67857	5384
0,67927	5582
0,67998	5441
0,68068	4647
0,68140	5008
0,68210	5338
0,68282	5391
0,68352	5039
0,68423	5782
0,68493	5281
0,68565	5575
0,68635	5061
0,68707	5730
0,68777	5710
0,68848	5379
0,68918	5263
0,68990	5557
0,69060	5825
0,69132	5637
0,69202	4947
0,69273	5152
0,69343	6136
0,69415	5668
0,69485	5392
0,69557	5213
0,69627	5415
0,69698	5178
0,69768	5269
0,69840	5510
0,69910	5507
0,69982	5179
0,70052	5485
0,70123	5463
0,70193	5169
0,70265	4755
0,70335	5136
0,70407	5254
0,70477	5546
0,70548	5285
0,70618	5347
0,70690	5533
0,70760	5637
0,70832	4971
0,70902	5582
0,70973	5339
0,71043	5127
0,71115	4950
0,71185	5586
0,71257	5021
0,71327	5291
0,71398	5528
0,71468	5686
0,71540	5570
0,71610	4787
0,71682	5389
0,71752	5385
0,71823	5149
0,71893	5730
0,71965	5288
0,72035	4907
0,72107	5354
0,72177	5513
0,72248	5731
0,72318	6191
0,72390	4717
0,72460	4863
0,72532	5177
0,72602	5659
0,72673	5793
0,72743	5394
0,72815	5288
0,72885	5415
0,72957	5669
0,73027	5346
0,73098	4973
0,73168	5258
0,73240	5515
0,73310	5289
0,73382	5528
0,73452	4924
0,73523	5595
0,73593	5397
0,73665	5297
0,73735	5722
0,73807	5659
0,73877	5471
0,73948	5598
0,74018	5771
0,74090	5399
0,74160	5807
0,74232	5105
0,74302	5708
0,74373	5735
0,74443	5242
0,74515	5113
0,74585	6059
0,74657	5647
0,74727	5736
0,74798	5442
0,74868	5556
0,74940	5132
0,75010	5045
0,75082	5392
0,75152	4976
0,75223	5723
0,75293	5160
0,75365	4780
0,75435	5291
0,75507	5634
0,75577	5208
0,75648	5611
0,75718	5157
0,75790	5178
0,75860	4704
0,75932	5645
0,76002	4948
0,76073	5795
0,76143	5574
0,76215	5498
0,76285	5322
0,76357	5359
0,76427	5694
0,76498	5084
0,76568	5578
0,76640	5605
0,76710	5184
0,76782	4821
0,76852	5412
0,76923	4920
0,76993	5802
0,77065	4891
0,77135	5579
0,77207	5368
0,77277	5657
0,77348	5526
0,77418	4848
0,77490	5334
0,77560	5308
0,77632	4967
0,77702	5336
0,77773	5116
0,77843	5453
0,77915	5103
0,77985	5454
0,78057	5827
0,78127	5638
0,78198	5558
0,78268	5834
0,78340	5405
0,78410	5931
0,78482	5228
0,78552	5537
0,78623	5149
0,78693	5102
0,78765	5533
0,78835	5098
0,78907	5486
0,78977	5827
0,79048	5797
0,79118	5044
0,79190	5502
0,79260	5522
0,79332	5796
0,79402	5114
0,79473	6125
0,79543	5224
0,79615	5307
0,79687	5492
0,79757	5161
0,79828	5921
0,79898	5164
0,79970	5596
0,80040	4968
0,80112	5335
0,80182	5424
0,80253	5985
0,80323	5422
0,80395	5101
0,80465	4764
0,80537	5497
0,80607	5553
0,80678	4996
0,80748	5919
0,80820	5296
0,80890	5770
0,80962	5457
0,81032	5265
0,81103	4705
0,81173	5607
0,81245	5520
0,81315	5541
0,81387	5873
0,81457	5422
0,81528	5943
0,81598	4913
0,81670	5934
0,81740	6085
0,81812	5169
0,81882	5938
0,81953	5704
0,82023	5171
0,82095	5231
0,82165	5590
0,82237	5741
0,82307	5123
0,82378	5572
0,82448	6210
0,82520	5277
0,82590	5410
0,82662	5658
0,82732	5544
0,82803	5619
0,82873	5474
0,82945	5357
0,83015	4960
0,83087	5190
0,83157	5814
0,83228	5606
0,83298	5413
0,83370	5369
0,83440	5279
0,83512	4981
0,83582	5204
0,83653	5628
0,83723	4827
0,83795	5560
0,83865	5589
0,83937	5528
0,84007	5381
0,84078	5128
0,84148	5298
0,84220	5399
0,84290	5066
0,84362	5523
0,84432	5770
0,84503	5182
0,84573	5347
0,84645	4520
0,84715	4945
0,84787	5234
0,84857	5144
0,84928	5278
0,84998	5303
0,85070	5429
0,85140	5152
0,85212	5420
0,85282	4908
0,85353	5172
0,85423	5400
0,85495	5022
0,85565	5326
0,85637	5213
0,85707	5195
0,85778	5291
0,85848	5665
0,85920	4876
0,85990	5100
0,86062	5386
0,86132	5748
0,86203	5216
0,86273	5276
0,86345	4686
0,86415	5277
0,86487	5493
0,86557	5656
0,86628	5308
0,86698	5386
0,86770	5838
0,86840	6004
0,86912	5146
0,86982	5129
0,87053	5260
0,87123	5372
0,87195	5281
0,87265	5450
0,87337	5172
0,87407	5596
0,87478	5566
0,87548	5871
0,87620	4952
0,87690	5467
0,87762	5042
0,87832	5650
0,87903	5369
0,87973	5873
0,88045	6003
0,88115	5233
0,88187	5786
0,88257	5576
0,88328	4829
0,88398	5449
0,88470	5584
0,88540	5253
0,88612	5019
0,88682	5325
0,88753	5631
0,88823	5618
0,88895	5455
0,88965	5705
0,89037	5882
0,89107	5063
0,89178	5720
0,89248	5438
0,89320	5841
0,89390	4788
0,89462	5354
0,89532	5578
0,89603	5335
0,89673	5077
0,89745	4771
0,89815	4890
0,89887	5126
0,89957	5158
0,90028	5658
0,90098	5847
0,90170	5662
0,90240	5356
0,90312	5607
0,90382	5188
0,90453	5204
0,90523	4806
0,90595	5831
0,90665	5528
0,90737	5317
0,90807	4893
0,90878	5527
0,90948	5123
0,91020	5617
0,91090	5531
0,91162	4910
0,91232	5481
0,91303	5136
0,91373	5308
0,91445	6095
0,91515	5386
0,91587	5429
0,91657	6085
0,91728	5420
0,91798	5754
0,91870	5825
0,91940	5616
0,92012	5337
0,92082	5639
0,92153	5439
0,92223	5424
0,92295	5319
0,92365	4597
0,92437	5141
0,92507	4531
0,92578	5805
0,92648	5070
0,92720	5652
0,92790	5436
0,92862	5326
0,92932	5802
0,93003	5432
0,93073	5307
0,93145	5003
0,93215	5654
0,93287	5402
0,93357	5316
0,93428	5461
0,93498	5496
0,93570	5729
0,93640	5400
0,93712	5155
0,93782	5631
0,93853	5792
0,93923	5672
0,93995	5396
0,94065	5427
0,94137	5418
0,94207	5148
0,94278	6162
0,94348	5541
0,94420	5466
0,94490	5406
0,94562	5731
0,94632	5369
0,94703	5515
0,94773	5832
0,94845	5301
0,94915	4963
0,94987	5195
0,95057	5357
0,95128	4532
0,95198	4729
0,95270	5528
0,95340	5390
0,95412	5314
0,95482	5705
0,95553	5525
0,95623	5615
0,95695	5179
0,95767	5576
0,95837	5110
0,95908	5089
0,95978	5249
0,96050	5849
0,96120	5488
0,96192	5218
0,96262	5351
0,96333	5591
0,96403	5605
0,96475	5429
0,96545	5767
0,96617	5723
0,96687	5229
0,96758	5400
0,96828	5009
0,96900	5712
0,96970	6033
0,97042	5923
0,97112	6211
0,97183	4914
0,97253	4890
0,97325	5302
0,97395	5414
0,97467	5551
0,97537	4708
0,97608	5325
0,97678	5096
0,97750	5654
0,97820	5033
0,97892	5488
0,97962	5491
0,98033	5587
0,98103	5403
0,98175	5280
0,98245	5562
0,98317	5427
0,98387	5120
0,98458	5898
0,98528	6158
0,98600	5508
0,98670	5268
0,98742	6042
0,98812	5070
0,98883	5038
0,98953	5241
0,99025	5281
0,99095	5547
0,99167	5247
0,99237	5415
0,99308	5841
0,99378	5490
0,99450	5672
0,99520	5716
0,99592	5041
0,99662	5548
0,99733	5420
0,99803	5447
0,99875	5363
0,99945	6012
1,00017	5488
1,00087	5289
1,00158	5386
1,00228	5160
1,00300	5227
1,00370	4953
1,00442	5618
1,00512	4786
1,00583	5618
1,00653	4988
1,00725	5535
1,00795	5227
1,00867	5258
1,00937	4841
1,01008	6183
1,01078	5206
1,01150	5221
1,01220	5954
1,01292	4633
1,01362	5121
1,01433	5048
1,01503	5466
1,01575	5402
1,01645	5892
1,01717	5373
1,01787	5644
1,01858	5305
1,01928	5357
1,02000	5506
1,02070	5607
1,02142	5354
1,02212	4927
1,02283	5073
1,02353	6060
1,02425	5886
1,02495	5823
1,02567	5342
1,02637	4879
1,02708	5188
1,02778	5548
1,02850	5559
1,02920	5631
1,02992	5020
1,03062	5550
1,03133	5767
1,03203	4650
1,03275	5466
1,03345	5811
1,03417	5130
1,03487	5301
1,03558	5595
1,03628	5533
1,03700	5441
1,03770	6209
1,03842	5201
1,03912	5260
1,03983	5446
1,04053	5649
1,04125	5568
1,04195	5561
1,04267	5801
1,04337	5385
1,04408	5837
1,04478	5307
1,04550	5369
1,04620	4758
1,04692	5227
1,04762	5906
1,04833	5907
1,04903	5419
1,04975	5161
1,05045	5690
1,05117	5168
1,05187	5673
1,05258	4921
1,05328	5978
1,05400	5568
1,05470	5475
1,05542	6013
1,05612	5284
1,05683	5120
1,05753	5696
1,05825	5025
1,05895	5857
1,05967	5100
1,06037	5187
1,06108	4978
1,06178	5471
1,06250	5151
1,06320	5341
1,06392	5901
1,06462	5632
1,06533	5601
1,06603	5421
1,06675	5551
1,06745	5403
1,06817	5531
1,06887	5159
1,06958	5389
1,07028	5911
1,07100	5446
1,07170	5553
1,07242	4978
1,07312	4959
1,07383	5355
1,07453	5506
1,07525	5118
1,07595	5560
1,07667	5277
1,07737	5397
1,07808	5479
1,07878	5420
1,07950	5534
1,08020	5707
1,08092	5494
1,08162	5246
1,08233	4919
1,08303	5210
1,08375	5875
1,08445	5284
1,08517	5508
1,08587	5453
1,08658	5316
1,08728	5822
1,08800	5399
1,08870	5857
1,08942	5613
1,09012	5792
1,09083	5068
1,09153	5322
1,09225	5445
1,09295	5637
1,09367	5021
1,09437	5629
1,09508	5154
1,09578	5659
1,09650	5935
1,09720	5755
1,09792	5246
1,09862	5392
1,09933	5590
1,10003	5176
1,10075	5153
1,10145	5689
1,10217	5451
1,10287	5004
1,10358	5622
1,10428	5001
1,10500	5435
1,10570	5168
1,10642	5371
1,10712	5007
1,10783	5467
1,10853	5356
1,10925	6193
1,10995	6279
1,11067	5348
1,11137	5278
1,11208	5447
1,11278	4961
1,11350	5099
1,11420	5725
1,11492	5206
1,11562	5430
1,11633	5159
1,11703	5885
1,11775	4772
1,11845	5312
1,11917	5385
1,11988	5272
1,12058	5062
1,12130	5123
1,12200	5301
1,12272	5709
1,12342	5429
1,12413	5147
1,12483	5634
1,12555	5193
1,12625	5306
1,12697	5340
1,12767	5021
1,12838	5228
1,12908	5513
1,12980	5724
1,13050	5684
1,13122	5164
1,13192	5342
1,13263	5250
1,13333	5385
1,13405	5209
1,13475	5551
1,13547	5701
1,13617	5392
1,13688	5563
1,13758	5570
1,13830	5588
1,13900	5023
1,13972	5724
1,14042	5408
1,14113	5689
1,14183	4980
1,14255	4909
1,14325	5580
1,14397	5457
1,14467	5070
1,14538	5268
1,14608	5363
1,14680	5280
1,14750	5463
1,14822	5124
1,14892	5514
1,14963	5373
1,15033	5255
1,15105	5394
1,15175	5465
1,15247	5094
1,15317	5154
1,15388	5370
1,15458	5332
1,15530	5073
1,15600	5221
1,15672	5134
1,15742	5599
1,15813	5520
1,15883	5692
1,15955	5341
1,16025	5417
1,16097	5727
1,16167	5252
1,16238	5463
1,16308	5277
1,16380	4910
1,16450	4850
1,16522	5192
1,16592	5243
1,16663	5315
1,16733	5407
1,16805	5560
1,16875	5786
1,16947	5402
1,17017	5256
1,17088	5463
1,17158	5409
1,17230	5646
1,17300	5327
1,17372	5515
1,17442	5317
1,17513	4978
1,17583	5825
1,17655	5499
1,17725	6023
1,17797	5509
1,17867	5801
1,17938	5328
1,18008	5261
1,18080	6295
1,18150	5500
1,18222	5171
1,18292	5002
1,18363	5096
1,18433	5419
1,18505	5442
1,18575	5601
1,18647	5237
1,18717	5726
1,18788	5546
1,18858	5406
1,18930	5499
1,19000	5268
1,19072	5747
1,19142	5608
1,19213	5090
1,19283	5342
1,19355	5306
1,19425	5226
1,19497	5485
1,19567	5038
1,19638	5647
1,19708	5204
1,19780	5213
1,19850	4827
1,19922	5453
1,19992	5900
1,20063	5355
1,20133	5133
1,20205	5848
1,20275	4818
1,20347	5505
1,20417	5476
1,20488	5388
1,20558	5323
1,20630	5381
1,20700	5570
1,20772	4954
1,20842	5201
1,20913	5606
1,20983	5607
1,21055	5178
1,21125	5042
1,21197	5328
1,21267	5450
1,21338	5837
1,21408	5029
1,21480	5467
1,21550	5338
1,21622	5135
1,21692	5851
1,21763	5607
1,21833	5245
1,21905	5336
1,21975	5315
1,22047	5619
1,22117	5673
1,22188	5560
1,22258	5444
1,22330	6041
1,22400	4911
1,22472	5284
1,22542	4779
1,22613	5312
1,22683	5666
1,22755	5389
1,22825	5167
1,22897	5527
1,22967	5444
1,23038	5450
1,23108	6540
1,23180	5393
1,23250	5738
1,23322	4909
1,23392	4826
1,23463	5494
1,23533	5207
1,23605	5191
1,23675	5360
1,23747	5493
1,23817	5676
1,23888	5798
1,23958	5418
1,24030	5286
1,24100	5562
1,24172	5733
1,24242	5459
1,24313	5022
1,24383	5315
1,24455	5382
1,24525	5787
1,24597	6071
1,24667	5464
1,24738	5674
1,24808	5400
1,24880	5469
1,24950	5677
1,25022	5531
1,25092	5899
1,25163	5625
1,25233	5552
1,25305	5580
1,25375	5370
1,25447	4922
1,25517	5128
1,25588	5235
1,25658	5748
1,25730	5456
1,25800	5341
1,25872	6136
1,25942	5525
1,26013	5657
1,26083	5105
1,26155	4993
1,26225	5618
1,26297	5082
1,26367	5781
1,26438	5342
1,26508	5492
1,26580	5506
1,26650	5572
1,26722	5341
1,26792	5147
1,26863	5309
1,26933	5406
1,27005	5402
1,27075	5640
1,27147	5334
1,27217	5250
1,27288	5274
1,27358	5084
1,27430	5881
1,27500	5432
1,27572	5647
1,27642	5586
1,27713	4849
1,27783	5671
1,27855	5935
1,27925	5241
1,27997	5338
1,28067	5526
1,28138	4990
1,28210	5257
1,28280	4856
1,28352	5096
1,28422	5189
1,28493	4845
1,28563	5458
1,28635	5331
1,28705	5614
1,28777	5341
1,28847	5350
1,28918	5494
1,28988	5199
1,29060	5473
1,29130	5332
1,29202	5622
1,29272	5057
1,29343	5720
1,29413	5722
1,29485	6088
1,29555	5025
1,29627	5354
1,29697	5089
1,29768	5970
1,29838	5580
1,29910	5383
1,29980	5660
1,30052	4994
1,30122	5195
1,30193	5793
1,30263	5747
1,30335	5437
1,30405	4989
1,30477	5676
1,30547	5550
1,30618	5355
1,30688	5733
1,30760	5208
1,30830	5730
1,30902	5277
1,30972	5510
1,31043	5329
1,31113	5268
1,31185	5454
1,31255	5522
1,31327	4883
1,31397	5557
1,31468	5478
1,31538	5381
1,31610	5530
1,31680	5678
1,31752	5209
1,31822	5601
1,31893	5740
1,31963	4654
1,32035	4977
1,32105	4936
1,32177	4989
1,32247	5439
1,32318	5492
1,32388	4963
1,32460	5725
1,32530	5689
1,32602	6180
1,32672	5460
1,32743	5266
1,32813	5324
1,32885	5003
1,32955	4838
1,33027	5001
1,33097	5013
1,33168	6130
1,33238	4821
1,33310	5119
1,33380	5551
1,33452	5623
1,33522	5310
1,33593	5328
1,33663	4844
1,33735	4956
1,33805	5194
1,33877	5428
1,33947	5634
1,34018	5146
1,34088	5440
1,34160	4759
1,34230	5418
1,34302	5568
1,34372	5622
1,34443	5490
1,34513	5104
1,34585	5305
1,34655	5430
1,34727	5016
1,34797	5763
1,34868	5585
1,34938	5262
1,35010	5253
1,35080	5540
1,35152	5309
1,35222	5417
1,35293	5422
1,35363	5496
1,35435	5356
1,35505	5712
1,35577	6166
1,35647	5797
1,35718	5813
1,35788	5269
1,35860	5327
1,35930	5470
1,36002	5224
1,36072	5070
1,36143	5886
1,36213	5625
1,36285	5447
1,36355	5528
1,36427	5617
1,36497	5560
1,36568	5719
1,36638	5629
1,36710	5878
1,36780	6095
1,36852	5661
1,36922	5906
1,36993	4842
1,37063	5495
1,37135	4735
1,37205	5462
1,37277	5114
1,37347	5645
1,37418	4922
1,37488	4757
1,37560	6077
1,37630	5551
1,37702	5259
1,37772	5580
1,37843	5142
1,37913	4950
1,37985	5686
1,38055	5159
1,38127	5274
1,38197	5441
1,38268	5365
1,38338	5254
1,38410	5145
1,38480	5493
1,38552	4971
1,38622	6083
1,38693	5200
1,38763	5568
1,38835	5151
1,38905	5387
1,38977	5952
1,39047	5915
1,39118	4715
1,39188	5381
1,39260	5175
1,39330	5484
1,39402	4946
1,39472	5646
1,39543	5464
1,39613	6040
1,39685	5662
1,39755	5176
1,39827	5405
1,39897	5687
1,39968	5276
1,40038	5652
1,40110	5849
1,40180	5132
1,40252	5824
1,40322	5478
1,40393	4942
1,40463	5232
1,40535	5863
1,40605	5635
1,40677	5525
1,40747	5282
1,40818	5649
1,40888	5439
1,40960	5345
1,41030	4922
1,41102	5551
1,41172	5243
1,41243	5481
1,41313	5344
1,41385	5498
1,41455	5646
1,41527	5158
1,41597	6132
1,41668	5552
1,41738	5430
1,41810	5731
1,41880	4883
1,41952	5478
1,42022	6197
1,42093	5612
1,42163	5014
1,42235	5689
1,42305	6119
1,42377	5658
1,42447	5943
1,42518	5515
1,42588	5393
1,42660	5445
1,42730	5475
1,42802	5378
1,42872	5442
1,42943	5274
1,43013	4894
1,43085	4689
1,43155	5683
1,43227	5521
1,43297	4984
1,43368	5402
1,43438	4674
1,43510	5273
1,43580	5481
1,43652	5542
1,43722	5636
1,43793	5054
1,43863	5510
1,43935	5442
1,44005	5643
1,44077	5624
1,44147	5284
1,44218	5700
1,44290	5846
1,44360	5440
1,44432	5831
1,44502	5076
1,44573	5440
1,44643	5342
1,44715	5570
1,44785	5634
1,44857	5636
1,44927	5938
1,44998	5186
1,45068	5126
1,45140	6036
1,45210	5220
1,45282	5218
1,45352	6080
1,45423	5388
1,45493	5475
1,45565	5705
1,45635	5631
1,45707	5218
1,45777	5649
1,45848	5227
1,45918	5265
1,45990	5601
1,46060	5830
1,46132	5213
1,46202	5227
1,46273	5050
1,46343	5897
1,46415	6059
1,46485	5951
1,46557	5092
1,46627	5697
1,46698	5358
1,46768	5591
1,46840	4989
1,46910	5354
1,46982	5687
1,47052	5197
1,47123	5931
1,47193	5407
1,47265	5508
1,47335	5865
1,47407	5649
1,47477	5411
1,47548	5361
1,47618	5301
1,47690	5874
1,47760	5141
1,47832	5644
1,47902	4954
1,47973	5319
1,48043	5534
1,48115	4551
1,48185	5586
1,48257	5820
1,48327	4888
1,48398	5491
1,48468	5459
1,48540	5566
1,48610	5267
1,48682	5723
1,48752	5624
1,48823	5463
1,48893	5651
1,48965	5513
1,49035	5361
1,49107	5439
1,49177	5591
1,49248	5640
1,49318	5216
1,49390	5268
1,49460	5181
1,49532	5700
1,49602	5487
1,49673	5542
1,49743	5522
1,49815	5590
1,49885	5553
1,49957	5295
1,50027	5517
1,50098	5197
1,50168	4907
1,50240	5440
1,50310	5138
1,50382	5575
1,50452	5334
1,50523	5539
1,50593	5470
1,50665	5425
1,50735	6182
1,50807	4933
1,50877	5548
1,50948	5202
1,51018	5650
1,51090	5559
1,51160	5215
1,51232	5681
1,51302	4938
1,51373	5597
1,51443	5077
1,51515	5140
1,51585	4976
1,51657	5716
1,51727	5899
1,51798	5248
1,51868	5309
1,51940	5192
1,52010	5438
1,52082	5463
1,52152	5524
1,52223	5337
1,52293	5106
1,52365	5638
1,52435	5336
1,52507	5591
1,52577	5163
1,52648	5149
1,52718	4800
1,52790	5240
1,52860	5565
1,52932	4627
1,53002	5477
1,53073	5308
1,53143	5654
1,53215	5194
1,53285	5205
1,53357	5246
1,53427	5539
1,53498	5121
1,53568	5887
1,53640	5360
1,53710	5193
1,53782	5607
1,53852	5906
1,53923	5954
1,53993	5374
1,54065	5468
1,54135	5504
1,54207	5754
1,54277	5571
1,54348	5475
1,54418	5316
1,54490	5482
1,54560	5758
1,54632	5447
1,54702	5097
1,54773	5651
1,54843	5640
1,54915	5048
1,54985	5609
1,55057	5081
1,55127	5916
1,55198	5950
1,55268	5051
1,55340	5448
1,55410	5293
1,55482	5700
1,55552	5711
1,55623	5269
1,55693	5352
1,55765	5610
1,55835	5336
1,55907	5268
1,55977	4826
1,56048	6060
1,56118	5055
1,56190	5615
1,56260	5268
1,56332	4953
1,56402	5953
1,56473	5367
1,56543	5678
1,56615	5491
1,56685	4982
1,56757	5662
1,56827	5374
1,56898	5345
1,56968	5632
1,57040	5455
1,57110	5696
1,57182	5904
1,57252	5100
1,57323	5548
1,57393	5727
1,57465	5721
1,57535	5418
1,57607	5144
1,57677	5363
1,57748	5047
1,57818	5093
1,57890	5098
1,57960	5392
1,58032	5269
1,58102	5531
1,58173	5250
1,58243	5796
1,58315	5206
1,58385	5723
1,58457	5779
1,58527	5996
1,58598	5715
1,58668	5281
1,58740	5628
1,58810	5259
1,58882	5373
1,58952	5369
1,59023	5467
1,59093	5807
1,59165	5623
1,59235	5936
1,59307	5551
1,59377	4761
1,59448	5884
1,59518	5145
1,59590	4693
1,59660	5247
1,59732	5668
1,59802	5283
1,59873	5657
1,59943	5814
1,60015	5581
1,60085	5217
1,60157	5511
1,60227	5704
1,60298	5935
1,60368	5338
1,60440	5398
1,60512	5638
1,60582	5237
1,60653	5321
1,60723	5530
1,60795	5187
1,60865	4907
1,60937	5762
1,61007	5578
1,61078	5556
1,61148	5468
1,61220	5787
1,61290	5012
1,61362	5815
1,61432	5074
1,61503	5013
1,61573	5599
1,61645	6300
1,61715	5494
1,61787	5176
1,61857	5521
1,61928	5598
1,61998	5235
1,62070	5217
1,62140	5580
1,62212	5609
1,62282	5685
1,62353	4885
1,62423	5569
1,62495	5365
1,62565	6197
1,62637	5024
1,62707	5308
1,62778	6147
1,62848	5059
1,62920	5779
1,62990	5402
1,63062	4667
1,63132	6093
1,63203	5653
1,63273	5730
1,63345	5608
1,63415	5404
1,63487	5866
1,63557	5552
1,63628	5385
1,63698	5032
1,63770	5556
1,63840	5431
1,63912	5317
1,63982	5106
1,64053	5058
1,64123	5451
1,64195	5914
1,64265	5843
1,64337	5361
1,64407	5916
1,64478	5032
1,64548	5409
1,64620	5691
1,64690	5477
1,64762	5801
1,64832	4844
1,64903	5521
1,64973	4951
1,65045	5429
1,65115	4529
1,65187	5365
1,65257	5432
1,65328	4896
1,65398	5175
1,65470	5605
1,65540	5470
1,65612	5292
1,65682	5237
1,65753	5878
1,65823	5336
1,65895	4683
1,65965	5996
1,66037	4886
1,66107	6022
1,66178	5142
1,66248	5527
1,66320	5097
1,66390	5256
1,66462	5356
1,66532	5626
1,66603	5459
1,66673	5551
1,66745	5240
1,66815	5906
1,66887	5690
1,66957	5434
1,67028	5255
1,67098	5729
1,67170	5145
1,67240	5891
1,67312	5712
1,67382	5606
1,67453	5364
1,67523	5432
1,67595	5389
1,67665	5442
1,67737	5328
1,67807	5628
1,67878	5457
1,67948	5433
1,68020	5151
1,68090	5468
1,68162	6011
1,68232	5488
1,68303	5591
1,68373	5322
1,68445	5104
1,68515	5379
1,68587	5363
1,68657	5618
1,68728	5463
1,68798	5172
1,68870	5018
1,68940	5259
1,69012	6161
1,69082	5375
1,69153	5266
1,69223	5300
1,69295	6012
1,69365	5739
1,69437	5134
1,69507	6098
1,69578	5380
1,69648	5250
1,69720	6244
1,69790	5890
1,69862	5480
1,69932	5634
1,70003	4983
1,70073	5254
1,70145	5680
1,70215	5550
1,70287	5391
1,70357	5313
1,70428	5729
1,70498	5149
1,70570	5907
1,70640	5273
1,70712	5219
1,70782	5946
1,70853	5530
1,70923	5219
1,70995	5520
1,71065	5343
1,71137	5244
1,71207	6019
1,71278	5337
1,71348	5645
1,71420	5677
1,71490	5757
1,71562	6147
1,71632	5143
1,71703	5089
1,71773	4819
1,71845	5571
1,71915	5791
1,71987	5545
1,72057	5698
1,72128	5663
1,72198	5348
1,72270	5279
1,72340	5390
1,72412	5512
1,72482	4910
1,72553	5515
1,72623	6085
1,72695	5561
1,72765	5028
1,72837	5283
1,72907	5477
1,72978	5434
1,73048	5697
1,73120	5895
1,73190	4988
1,73262	5671
1,73332	5380
1,73403	4868
1,73473	5336
1,73545	5670
1,73615	5395
1,73687	5510
1,73757	4940
1,73828	4714
1,73898	5127
1,73970	5232
1,74040	5543
1,74112	5344
1,74182	5627
1,74253	5720
1,74323	6101
1,74395	5165
1,74465	5274
1,74537	5485
1,74607	5776
1,74678	5703
1,74748	5663
1,74820	5649
1,74890	5586
1,74962	5561
1,75032	5618
1,75103	5856
1,75173	5162
1,75245	5613
1,75315	6122
1,75387	5288
1,75457	5223
1,75528	5297
1,75598	5712
1,75670	5623
1,75740	5473
1,75812	5950
1,75882	5979
1,75953	5193
1,76023	5336
1,76095	5725
1,76165	5378
1,76237	5409
1,76307	5529
1,76378	5181
1,76448	5678
1,76520	5055
1,76590	5479
1,76662	5438
1,76733	4941
1,76803	5831
1,76875	5604
1,76945	5212
1,77017	5238
1,77087	5808
1,77158	5310
1,77228	5881
1,77300	4898
1,77370	5364
1,77442	5444
1,77512	5520
1,77583	5629
1,77653	5606
1,77725	5517
1,77795	5208
1,77867	5754
1,77937	5709
1,78008	5747
1,78078	5357
1,78150	5715
1,78220	5447
1,78292	6070
1,78362	5153
1,78433	5598
1,78503	5596
1,78575	5295
1,78645	4998
1,78717	5124
1,78787	5427
1,78858	5370
1,78928	5532
1,79000	5333
1,79070	5009
1,79142	5812
1,79212	5105
1,79283	5105
1,79353	5610
1,79425	4841
1,79495	5591
1,79567	5491
1,79637	5948
1,79708	5446
1,79778	5508
1,79850	5331
1,79920	5569
1,79992	5247
1,80062	5441
1,80133	5063
1,80203	5707
1,80275	5424
1,80345	5387
1,80417	6005
1,80487	5719
1,80558	5175
1,80628	5384
1,80700	5898
1,80770	5298
1,80842	5956
1,80912	5568
1,80983	5070
1,81053	5309
1,81125	5633
1,81195	5559
1,81267	5152
1,81337	5852
1,81408	5118
1,81478	5364
1,81550	5771
1,81620	5546
1,81692	5198
1,81762	6018
1,81833	5409
1,81903	5731
1,81975	4860
1,82045	5737
1,82117	5668
1,82187	5414
1,82258	5444
1,82328	5121
1,82400	5901
1,82470	5925
1,82542	5459
1,82612	5014
1,82683	5605
1,82753	5350
1,82825	5122
1,82895	5931
1,82967	5474
1,83037	5517
1,83108	5788
1,83178	5225
1,83250	5678
1,83320	4920
1,83392	5661
1,83462	6100
1,83533	5437
1,83603	5231
1,83675	5499
1,83745	5537
1,83817	5500
1,83887	5636
1,83958	5140
1,84028	5826
1,84100	5486
1,84170	5443
1,84242	5092
1,84312	6096
1,84383	5376
1,84453	5428
1,84525	5816
1,84595	4967
1,84667	5178
1,84737	4996
1,84808	5784
1,84878	4911
1,84950	5281
1,85020	5640
1,85092	5293
1,85162	5782
1,85233	5622
1,85303	5710
1,85375	5918
1,85445	6262
1,85517	5751
1,85587	5976
1,85658	5611
1,85728	4867
1,85800	5863
1,85870	4904
1,85942	5844
1,86012	6008
1,86083	5865
1,86153	5738
1,86225	4982
1,86295	6145
1,86367	5136
1,86437	4973
1,86508	5849
1,86578	5394
1,86650	5902
1,86720	5969
1,86792	5842
1,86862	5593
1,86933	5477
1,87003	5921
1,87075	5325
1,87145	5713
1,87217	5185
1,87287	5530
1,87358	5765
1,87428	5545
1,87500	5291
1,87570	5441
1,87642	5527
1,87712	5625
1,87783	5642
1,87853	5352
1,87925	5272
1,87995	5575
1,88067	5085
1,88137	4798
1,88208	5669
1,88278	5545
1,88350	5165
1,88420	5528
1,88492	6025
1,88562	5766
1,88633	5503
1,88703	5492
1,88775	5526
1,88845	5436
1,88917	5707
1,88987	5877
1,89058	5976
1,89128	5801
1,89200	6047
1,89270	5270
1,89342	5903
1,89412	5626
1,89483	5978
1,89553	5336
1,89625	5584
1,89695	6116
1,89767	5483
1,89837	6089
1,89908	5637
1,89978	5733
1,90050	4937
1,90120	5659
1,90192	5417
1,90262	5813
1,90333	5663
1,90403	5628
1,90475	5885
1,90545	4933
1,90617	5346
1,90687	5944
1,90758	5542
1,90828	5515
1,90900	4761
1,90970	5768
1,91042	5351
1,91112	6286
1,91183	5355
1,91253	5927
1,91325	5712
1,91395	5359
1,91467	5832
1,91537	5642
1,91608	4993
1,91678	5322
1,91750	5495
1,91820	5680
1,91892	6016
1,91962	5152
1,92033	5779
1,92103	5637
1,92175	5753
1,92245	5136
1,92317	5186
1,92387	5607
1,92458	5578
1,92528	5785
1,92600	5995
1,92670	5786
1,92742	5039
1,92813	5438
1,92883	6237
1,92955	5644
1,93025	5155
1,93097	5617
1,93167	5171
1,93238	5286
1,93308	5160
1,93380	5584
1,93450	5691
1,93522	5372
1,93592	5351
1,93663	5714
1,93733	5694
1,93805	5271
1,93875	5368
1,93947	5622
1,94017	5644
1,94088	5634
1,94158	5585
1,94230	5231
1,94300	6117
1,94372	5451
1,94442	5274
1,94513	5792
1,94583	6259
1,94655	5211
1,94725	6133
1,94797	5908
1,94867	5694
1,94938	5453
1,95008	5751
1,95080	5609
1,95150	5846
1,95222	5509
1,95292	5117
1,95363	5480
1,95433	5122
1,95505	5388
1,95575	5164
1,95647	5193
1,95717	5475
1,95788	5632
1,95858	5895
1,95930	6234
1,96000	6091
1,96072	5286
1,96142	5667
1,96213	4874
1,96283	5589
1,96355	5313
1,96425	5094
1,96497	5410
1,96567	5425
1,96638	5403
1,96708	5352
1,96780	5601
1,96850	5206
1,96922	5686
1,96992	5495
1,97063	5505
1,97133	5374
1,97205	5420
1,97275	5974
1,97347	5505
1,97417	5394
1,97488	5313
1,97558	5421
1,97630	4808
1,97700	5372
1,97772	5484
1,97842	5583
1,97913	5397
1,97983	5885
1,98055	5506
1,98125	5715
1,98197	5679
1,98267	5191
1,98338	5564
1,98408	5533
1,98480	5188
1,98550	5556
1,98622	5691
1,98692	5564
1,98763	5182
1,98833	5500
1,98905	5638
1,98975	5413
1,99047	5437
1,99117	5948
1,99188	5641
1,99258	5270
1,99330	5081
1,99400	5110
1,99472	5178
1,99542	5202
1,99613	5758
1,99683	6235
1,99755	5448
1,99825	5336
1,99897	5334
1,99967	5401
2,00038	5310
2,00108	5267
2,00180	5565
2,00250	5409
2,00322	5663
2,00392	5904
2,00463	6013
2,00533	5493
2,00605	5148
2,00675	5710
2,00747	6254
2,00817	5225
2,00888	5705
2,00958	5236
2,01030	5145
2,01100	5495
2,01172	5717
2,01242	5376
2,01313	5402
2,01383	4735
2,01455	5668
2,01525	5540
2,01597	5589
2,01667	5527
2,01738	6201
2,01808	5655
2,01880	5638
2,01950	4953
2,02022	5428
2,02092	5571
2,02163	5621
2,02233	5737
2,02305	5913
2,02375	5757
2,02447	5492
2,02517	5177
2,02588	6206
2,02658	5972
2,02730	5009
2,02800	5371
2,02872	5371
2,02942	5608
2,03013	5483
2,03083	5877
2,03155	5282
2,03225	5887
2,03297	5518
2,03367	5588
2,03438	5857
2,03508	5562
2,03580	5475
2,03650	5100
2,03722	5542
2,03792	5383
2,03863	5515
2,03933	5402
2,04005	5783
2,04075	5405
2,04147	5163
2,04217	5482
2,04288	5688
2,04358	5213
2,04430	5291
2,04500	5242
2,04572	5542
2,04642	5271
2,04713	5303
2,04783	5133
2,04855	5586
2,04925	5635
2,04997	6302
2,05067	5913
2,05138	4961
2,05208	5269
2,05280	6213
2,05350	5832
2,05422	5978
2,05492	5498
2,05563	5294
2,05633	5479
2,05705	5485
2,05775	4962
2,05847	5512
2,05917	5660
2,05988	5710
2,06058	5094
2,06130	5932
2,06200	5389
2,06272	4660
2,06342	5282
2,06413	5623
2,06483	5519
2,06555	5268
2,06625	5580
2,06697	5510
2,06767	5782
2,06838	5846
2,06908	4983
2,06980	5307
2,07050	5621
2,07122	5535
2,07192	4939
2,07263	5486
2,07333	4961
2,07405	5721
2,07475	5485
2,07547	5279
2,07617	6005
2,07688	5572
2,07758	4606
2,07830	5152
2,07900	5755
2,07972	5088
2,08042	5795
2,08113	6070
2,08183	5644
2,08255	5756
2,08325	5828
2,08397	5610
2,08467	5527
2,08538	5687
2,08608	5784
2,08680	5469
2,08750	5805
2,08822	5568
2,08892	5823
2,08963	5633
2,09035	5734
2,09105	5815
2,09177	6209
2,09247	5638
2,09318	6096
2,09388	5428
2,09460	5822
2,09530	5431
2,09602	5720
2,09672	5597
2,09743	5982
2,09813	5638
2,09885	5538
2,09955	6024
2,10027	5041
2,10097	4986
2,10168	5462
2,10238	5510
2,10310	5652
2,10380	5072
2,10452	5554
2,10522	5259
2,10593	5779
2,10663	5309
2,10735	5985
2,10805	5761
2,10877	5723
2,10947	5502
2,11018	5128
2,11088	5418
2,11160	5568
2,11230	5774
2,11302	5308
2,11372	5713
2,11443	5449
2,11513	5398
2,11585	5529
2,11655	5428
2,11727	5644
2,11797	5915
2,11868	5657
2,11938	6057
2,12010	5614
2,12080	5818
2,12152	5494
2,12222	5357
2,12293	5719
2,12363	5488
2,12435	6076
2,12505	5454
2,12577	5408
2,12647	5703
2,12718	5708
2,12788	5364
2,12860	5654
2,12930	5375
2,13002	5171
2,13072	5733
2,13143	5301
2,13213	5087
2,13285	5187
2,13355	5604
2,13427	5392
2,13497	5809
2,13568	5642
2,13638	5561
2,13710	5453
2,13780	5376
2,13852	5476
2,13922	5621
2,13993	5379
2,14063	5322
2,14135	5542
2,14205	5727
2,14277	5475
2,14347	5188
2,14418	5211
2,14488	5042
2,14560	5122
2,14630	5785
2,14702	5724
2,14772	6376
2,14843	5017
2,14913	4816
2,14985	5028
2,15055	5395
2,15127	5668
2,15197	5917
2,15268	6114
2,15338	5240
2,15410	5605
2,15480	5613
2,15552	5610
2,15622	5365
2,15693	5423
2,15763	5549
2,15835	5844
2,15905	5688
2,15977	5871
2,16047	5495
2,16118	5218
2,16188	5156
2,16260	5377
2,16330	5554
2,16402	5531
2,16472	5400
2,16543	5261
2,16613	5623
2,16685	5996
2,16755	5811
2,16827	5734
2,16897	5246
2,16968	5602
2,17038	5480
2,17110	5561
2,17180	5387
2,17252	6270
2,17322	5245
2,17393	4876
2,17463	5385
2,17535	5520
2,17605	5397
2,17677	5321
2,17747	5706
2,17818	5043
2,17888	5724
2,17960	5345
2,18030	5805
2,18102	5183
2,18172	5764
2,18243	5111
2,18313	5075
2,18385	4944
2,18455	5175
2,18527	5641
2,18597	5668
2,18668	5547
2,18738	5698
2,18810	5595
2,18880	5744
2,18952	4841
2,19022	5038
2,19093	5780
2,19163	5151
2,19235	5262
2,19305	5365
2,19377	4959
2,19447	5365
2,19518	5315
2,19588	5381
2,19660	5512
2,19730	6163
2,19802	5484
2,19872	5945
2,19943	5140
2,20013	5033
2,20085	5348
2,20155	5079
2,20227	4859
2,20297	5637
2,20368	5581
2,20438	5564
2,20510	5609
2,20580	5654
2,20652	5252
2,20722	5532
2,20793	4870
2,20863	5477
2,20935	5237
2,21005	5104
2,21077	4842
2,21147	5521
2,21218	5144
2,21288	5749
2,21360	5514
2,21430	5474
2,21502	5449
2,21572	5317
2,21643	5470
2,21713	5981
2,21785	5748
2,21855	5176
2,21927	5420
2,21997	5797
2,22068	6108
2,22138	5836
2,22210	5419
2,22280	5792
2,22352	4986
2,22422	5973
2,22493	5722
2,22563	5396
2,22635	5898
2,22705	5623
2,22777	5372
2,22847	5355
2,22918	5017
2,22988	5323
2,23060	5463
2,23130	5284
2,23202	5718
2,23272	4676
2,23343	5973
2,23413	5334
2,23485	5317
2,23555	5612
2,23627	5486
2,23697	6024
2,23768	4483
2,23838	5201
2,23910	5170
2,23980	5758
2,24052	5951
2,24122	5107
2,24193	5351
2,24263	5411
2,24335	5397
2,24405	5761
2,24477	5251
2,24547	5179
2,24618	5564
2,24688	5719
2,24760	5441
2,24830	5169
2,24902	5269
2,24972	5338
2,25043	5553
2,25115	5402
2,25185	6284
2,25257	5605
2,25327	5406
2,25398	5588
2,25468	5569
2,25540	5596
2,25610	5243
2,25682	5841
2,25752	5702
2,25823	5548
2,25893	5265
2,25965	5342
2,26035	5693
2,26107	5386
2,26177	5699
2,26248	5358
2,26318	5429
2,26390	6088
2,26460	5472
2,26532	5297
2,26602	5751
2,26673	5210
2,26743	5661
2,26815	5118
2,26885	5129
2,26957	5740
2,27027	5323
2,27098	5738
2,27168	5531
2,27240	5755
2,27310	5030
2,27382	5290
2,27452	5319
2,27523	5398
2,27593	5718
2,27665	5096
2,27735	5516
2,27807	4800
2,27877	5429
2,27948	5482
2,28018	5772
2,28090	5592
2,28160	5797
2,28232	5473
2,28302	5869
2,28373	5333
2,28443	5708
2,28515	5381
2,28585	5383
2,28657	5959
2,28727	6174
2,28798	6284
2,28868	5270
2,28940	5078
2,29010	5410
2,29082	4903
2,29152	5708
2,29223	5756
2,29293	5114
2,29365	5665
2,29435	5476
2,29507	5389
2,29577	5618
2,29648	5910
2,29718	5744
2,29790	5113
2,29860	5087
2,29932	5889
2,30002	6150
2,30073	5486
2,30143	5486
2,30215	5082
2,30285	5379
2,30357	5684
2,30427	6061
2,30498	5717
2,30568	5438
2,30640	6032
2,30710	5440
2,30782	5430
2,30852	6138
2,30923	5716
2,30993	5629
2,31065	5495
2,31135	5625
2,31207	5374
2,31277	5223
2,31348	6097
2,31418	5184
2,31490	4997
2,31560	5359
2,31632	5097
2,31702	6090
2,31773	5501
2,31843	5138
2,31915	5438
2,31985	5251
2,32057	6158
2,32127	5771
2,32198	5794
2,32268	5713
2,32340	4876
2,32410	5194
2,32482	5047
2,32552	5229
2,32623	5701
2,32693	5266
2,32765	5490
2,32835	5534
2,32907	5024
2,32977	5825
2,33048	5786
2,33118	5409
2,33190	5433
2,33260	5455
2,33332	5766
2,33402	5870
2,33473	4660
2,33543	5632
2,33615	5127
2,33685	5936
2,33757	5797
2,33827	6022
2,33898	5221
2,33968	5509
2,34040	5236
2,34110	5944
2,34182	6074
2,34252	5268
2,34323	6117
2,34393	5585
2,34465	5606
2,34535	5677
2,34607	5327
2,34677	5197
2,34748	5710
2,34818	6338
2,34890	5117
2,34960	5461
2,35032	5891
2,35102	5840
2,35173	5853
2,35243	5656
2,35315	5248
2,35385	5474
2,35457	5600
2,35527	5457
2,35598	5520
2,35668	5814
2,35740	5287
2,35810	5011
2,35882	5904
2,35952	5460
2,36023	5305
2,36093	5301
2,36165	5451
2,36235	5182
2,36307	5508
2,36377	5659
2,36448	5309
2,36518	5522
2,36590	5688
2,36660	5099
2,36732	5648
2,36802	5229
2,36873	5421
2,36943	5635
2,37015	5907
2,37085	5556
2,37157	5483
2,37227	4861
2,37298	5716
2,37368	5161
2,37440	5707
2,37510	5250
2,37582	5201
2,37652	5126
2,37723	5563
2,37793	5355
2,37865	5196
2,37935	5673
2,38007	5662
2,38077	5379
2,38148	5608
2,38218	5812
2,38290	5073
2,38360	5046
2,38432	5770
2,38502	5339
2,38573	5605
2,38643	5368
2,38715	5623
2,38785	5538
2,38857	5253
2,38927	4948
2,38998	5479
2,39068	5595
2,39140	5403
2,39210	5992
2,39282	5808
2,39352	5518
2,39423	5129
2,39493	5854
2,39565	5721
2,39635	5279
2,39707	5118
2,39777	5257
2,39848	5667
2,39918	5339
2,39990	5380
2,40060	5239
2,40132	5739
2,40202	5636
2,40273	5349
2,40343	5547
2,40415	5733
2,40485	5171
2,40557	5317
2,40627	5474
2,40698	5356
2,40768	5659
2,40840	6077
2,40910	5512
2,40982	5990
2,41052	5320
2,41123	5275
2,41193	5878
2,41265	5659
2,41337	5538
2,41407	5378
2,41478	5579
2,41548	5426
2,41620	5968
2,41690	5940
2,41762	5203
2,41832	5418
2,41903	5727
2,41973	5676
2,42045	5416
2,42115	5967
2,42187	5627
2,42257	5275
2,42328	4615
2,42398	5614
2,42470	5522
2,42540	5039
2,42612	5422
2,42682	5071
2,42753	5170
2,42823	5031
2,42895	5343
2,42965	6073
2,43037	5440
2,43107	5318
2,43178	5383
2,43248	5446
2,43320	5319
2,43390	6485
2,43462	4956
2,43532	6063
2,43603	5436
2,43673	5873
2,43745	5692
2,43815	5260
2,43887	5408
2,43957	5209
2,44028	6059
2,44098	5658
2,44170	5752
2,44240	5853
2,44312	5576
2,44382	5417
2,44453	5329
2,44523	5450
2,44595	5309
2,44665	5904
2,44737	5824
2,44807	5669
2,44878	5241
2,44948	5617
2,45020	5031
2,45090	6321
2,45162	5429
2,45232	5981
2,45303	5512
2,45373	5423
2,45445	5226
2,45515	5868
2,45587	5903
2,45657	5620
2,45728	5492
2,45798	5992
2,45870	6017
2,45940	5422
2,46012	4815
2,46082	5313
2,46153	5532
2,46223	5727
2,46295	4970
2,46365	5583
2,46437	5685
2,46507	5444
2,46578	4950
2,46648	5242
2,46720	5504
2,46790	5576
2,46862	5566
2,46932	5795
2,47003	5577
2,47073	5495
2,47145	5225
2,47215	5270
2,47287	5696
2,47357	5282
2,47428	5121
2,47498	5479
2,47570	5984
2,47640	4950
2,47712	4855
2,47782	5599
2,47853	5536
2,47923	5639
2,47995	6000
2,48065	5547
2,48137	5092
2,48207	5322
2,48278	5644
2,48348	6100
2,48420	5790
2,48490	5549
2,48562	5629
2,48632	5887
2,48703	5598
2,48773	5729
2,48845	5401
2,48915	5784
2,48987	5420
2,49057	5684
2,49128	5688
2,49198	5347
2,49270	5724
2,49340	4966
2,49412	5566
2,49482	4933
2,49553	5766
2,49623	5463
2,49695	4972
2,49765	6492
2,49837	4938
2,49907	5259
2,49978	5132
2,50048	6009
2,50120	5403
2,50190	5931
2,50262	5906
2,50332	5897
2,50403	5722
2,50473	5005
2,50545	5212
2,50615	5449
2,50687	5403
2,50757	4621
2,50828	5366
2,50898	5363
2,50970	5056
2,51040	5608
2,51112	5733
2,51182	5504
2,51253	4823
2,51323	5146
2,51395	5442
2,51465	5242
2,51537	6026
2,51607	5502
2,51678	6166
2,51748	5185
2,51820	5816
2,51890	5689
2,51962	5325
2,52032	5500
2,52103	5679
2,52173	5396
2,52245	5320
2,52315	5357
2,52387	5324
2,52457	5157
2,52528	5493
2,52598	5267
2,52670	5246
2,52740	5662
2,52812	6284
2,52882	5671
2,52953	5607
2,53023	5280
2,53095	6163
2,53165	5436
2,53237	5132
2,53307	5353
2,53378	5213
2,53448	5369
2,53520	6079
2,53590	6294
2,53662	5310
2,53732	5645
2,53803	5694
2,53873	5320
2,53945	5492
2,54015	5375
2,54087	5323
2,54157	5363
2,54228	5132
2,54298	5954
2,54370	5867
2,54440	6441
2,54512	4787
2,54582	5517
2,54653	5342
2,54723	5824
2,54795	5789
2,54865	5405
2,54937	5036
2,55007	5371
2,55078	6673
2,55148	5123
2,55220	5910
2,55290	5786
2,55362	5663
2,55432	6222
2,55503	5850
2,55573	5414
2,55645	5262
2,55715	5189
2,55787	5849
2,55857	5350
2,55928	5131
2,55998	5178
2,56070	4939
2,56140	5336
2,56212	5693
2,56282	5354
2,56353	5240
2,56423	5222
2,56495	5323
2,56565	5031
2,56637	4751
2,56707	5306
2,56778	5604
2,56848	5461
2,56920	5590
2,56990	5491
2,57062	5174
2,57132	5315
2,57203	5401
2,57273	6239
2,57345	5050
2,57415	4942
2,57487	5299
2,57558	5173
2,57628	6207
2,57700	5060
2,57770	5862
2,57842	5649
2,57912	5657
2,57983	5343
2,58053	6098
2,58125	5139
2,58195	5610
2,58267	5611
2,58337	5021
2,58408	6016
2,58478	5394
2,58550	5267
2,58620	5394
2,58692	5209
2,58762	5605
2,58833	5685
2,58903	4854
2,58975	5284
2,59045	5035
2,59117	5797
2,59187	6125
2,59258	5865
2,59328	5215
2,59400	5980
2,59470	5258
2,59542	5529
2,59612	6094
2,59683	5101
2,59753	6006
2,59825	5668
2,59895	5809
2,59967	5465
2,60037	5546
2,60108	5366
2,60178	5392
2,60250	4824
2,60320	6115
2,60392	5744
2,60462	5302
2,60533	6028
2,60603	5348
2,60675	5839
2,60745	5533
2,60817	5132
2,60887	5763
2,60958	5372
2,61028	6145
2,61100	5622
2,61170	5336
2,61242	5129
2,61312	5791
2,61383	5511
2,61453	5387
2,61525	5721
2,61595	5774
2,61667	5670
2,61737	5225
2,61808	5262
2,61878	5489
2,61950	6074
2,62020	5248
2,62092	4941
2,62162	5849
2,62233	5753
2,62303	5573
2,62375	5372
2,62445	5971
2,62517	5255
2,62587	5578
2,62658	5534
2,62728	5976
2,62800	5226
2,62870	5659
2,62942	5490
2,63012	5545
2,63083	5859
2,63153	5408
2,63225	5131
2,63295	5293
2,63367	5782
2,63437	5541
2,63508	5138
2,63578	5618
2,63650	5585
2,63720	5205
2,63792	5914
2,63862	5313
2,63933	5104
2,64003	6140
2,64075	5041
2,64145	5749
2,64217	5629
2,64287	5297
2,64358	5229
2,64428	4905
2,64500	5621
2,64570	5874
2,64642	5588
2,64712	5984
2,64783	5875
2,64853	5716
2,64925	5347
2,64995	4924
2,65067	5328
2,65137	5523
2,65208	5987
2,65278	5156
2,65350	5703
2,65420	5377
2,65492	5165
2,65562	5386
2,65633	5340
2,65703	5735
2,65775	5541
2,65845	6026
2,65917	5407
2,65987	5062
2,66058	5594
2,66128	5330
2,66200	5814
2,66270	5038
2,66342	5942
2,66412	5551
2,66483	5714
2,66553	5552
2,66625	5651
2,66695	5537
2,66767	5830
2,66837	5797
2,66908	5938
2,66978	5113
2,67050	5669
2,67120	5524
2,67192	5651
2,67262	5738
2,67333	5199
2,67403	5835
2,67475	5023
2,67545	5497
2,67617	4991
2,67687	5873
2,67758	5178
2,67828	5404
2,67900	5683
2,67970	5334
2,68042	5756
2,68112	5059
2,68183	5778
2,68253	5813
2,68325	5366
2,68395	5325
2,68467	4843
2,68537	6131
2,68608	5488
2,68678	5260
2,68750	5951
2,68820	5397
2,68892	6093
2,68962	5293
2,69033	5229
2,69103	5093
2,69175	5566
2,69245	5485
2,69317	5353
2,69387	5541
2,69458	5591
2,69528	5668
2,69600	5780
2,69670	5441
2,69742	5541
2,69812	5724
2,69883	5680
2,69953	5840
2,70025	5993
2,70095	5515
2,70167	5783
2,70237	5389
2,70308	5990
2,70378	5470
2,70450	4813
2,70520	5454
2,70592	5529
2,70662	5540
2,70733	5787
2,70803	5554
2,70875	5370
2,70945	5678
2,71017	5525
2,71087	5792
2,71158	5245
2,71228	5452
2,71300	6035
2,71370	4643
2,71442	5629
2,71512	5822
2,71583	5082
2,71653	5460
2,71725	5629
2,71795	5321
2,71867	5175
2,71937	5380
2,72008	5096
2,72078	5345
2,72150	5513
2,72220	5433
2,72292	4851
2,72362	4969
2,72433	5098
2,72503	5675
2,72575	6329
2,72645	5263
2,72717	5101
2,72787	5334
2,72858	5071
2,72928	5641
2,73000	5728
2,73070	5304
2,73142	6022
2,73212	5424
2,73283	5496
2,73353	5550
2,73425	5275
2,73495	5345
2,73567	5997
2,73638	5627
2,73708	5682
2,73780	5485
2,73850	5459
2,73922	5713
2,73992	5336
2,74063	5817
2,74133	5429
2,74205	4903
2,74275	6027
2,74347	5268
2,74417	6084
2,74488	5833
2,74558	5617
2,74630	5847
2,74700	6020
2,74772	5878
2,74842	5685
2,74913	5753
2,74983	5662
2,75055	5556
2,75125	5914
2,75197	5694
2,75267	5081
2,75338	6014
2,75408	5602
2,75480	5581
2,75550	5076
2,75622	5968
2,75692	5230
2,75763	5679
2,75833	6179
2,75905	5775
2,75975	4901
2,76047	5721
2,76117	5900
2,76188	5626
2,76258	5693
2,76330	5446
2,76400	5297
2,76472	5809
2,76542	5039
2,76613	5330
2,76683	5235
2,76755	5388
2,76825	5575
2,76897	5916
2,76967	5406
2,77038	5366
2,77108	5268
2,77180	5624
2,77250	5597
2,77322	5902
2,77392	5343
2,77463	5568
2,77533	5921
2,77605	6273
2,77675	5461
2,77747	5742
2,77817	5585
2,77888	5840
2,77958	5643
2,78030	5288
2,78100	5871
2,78172	5693
2,78242	5628
2,78313	5694
2,78383	6062
2,78455	5479
2,78525	5422
2,78597	5879
2,78667	5560
2,78738	5262
2,78808	5397
2,78880	5784
2,78950	5237
2,79022	5712
2,79092	5394
2,79163	5377
2,79233	5304
2,79305	5419
2,79375	5728
2,79447	5790
2,79517	5326
2,79588	5611
2,79658	5358
2,79730	5889
2,79800	5875
2,79872	5963
2,79942	5569
2,80013	5376
2,80083	5880
2,80155	5507
2,80225	5679
2,80297	5231
2,80367	5698
2,80438	5626
2,80508	5485
2,80580	5771
2,80650	6634
2,80722	5587
2,80792	5032
2,80863	5490
2,80933	6219
2,81005	5483
2,81075	5527
2,81147	5617
2,81217	5282
2,81288	5354
2,81358	5476
2,81430	4881
2,81500	5935
2,81572	5830
2,81642	5520
2,81713	6504
2,81783	5095
2,81855	6121
2,81925	5173
2,81997	5390
2,82067	5209
2,82138	5441
2,82208	5275
2,82280	5317
2,82350	5922
2,82422	5567
2,82492	5155
2,82563	5722
2,82633	5301
2,82705	5570
2,82775	5499
2,82847	5712
2,82917	5263
2,82988	5453
2,83058	5199
2,83130	5380
2,83200	5109
2,83272	6292
2,83342	5704
2,83413	5711
2,83483	4974
2,83555	5073
2,83625	5445
2,83697	5881
2,83767	5372
2,83838	5737
2,83908	4754
2,83980	5724
2,84050	5272
2,84122	5809
2,84192	5467
2,84263	5638
2,84333	5552
2,84405	5193
2,84475	5187
2,84547	5101
2,84617	5690
2,84688	6088
2,84758	5944
2,84830	5222
2,84900	5448
2,84972	6067
2,85042	5137
2,85113	5270
2,85183	6013
2,85255	5577
2,85325	5522
2,85397	5223
2,85467	5672
2,85538	5465
2,85608	5865
2,85680	5839
2,85750	5372
2,85822	5315
2,85892	5295
2,85963	5240
2,86033	5253
2,86105	6162
2,86175	5290
2,86247	6009
2,86317	5835
2,86388	5659
2,86458	5417
2,86530	5338
2,86600	5453
2,86672	5640
2,86742	5238
2,86813	5573
2,86883	5175
2,86955	5422
2,87025	4648
2,87097	6038
2,87167	5615
2,87238	5810
2,87308	5639
2,87380	6261
2,87450	5677
2,87522	5366
2,87592	5884
2,87663	5671
2,87733	5649
2,87805	5558
2,87875	5113
2,87947	5528
2,88017	5286
2,88088	5592
2,88158	6154
2,88230	6001
2,88300	5308
2,88372	5795
2,88442	5864
2,88513	5336
2,88583	5497
2,88655	5360
2,88725	4933
2,88797	5857
2,88867	5450
2,88938	6610
2,89008	4907
2,89080	5310
2,89150	5557
2,89222	5034
2,89292	5097
2,89363	5291
2,89433	5588
2,89505	5129
2,89575	4772
2,89647	5387
2,89717	4860
2,89788	5518
2,89860	5736
2,89930	5468
2,90002	5733
2,90072	5485
2,90143	5452
2,90213	6149
2,90285	5588
2,90355	5541
2,90427	5951
2,90497	6242
2,90568	5389
2,90638	5268
2,90710	5579
2,90780	5549
2,90852	5709
2,90922	5135
2,90993	5175
2,91063	5772
2,91135	5341
2,91205	5124
2,91277	4872
2,91347	5380
2,91418	5371
2,91488	5744
2,91560	5766
2,91630	5438
2,91702	5644
2,91772	5640
2,91843	5489
2,91913	5640
2,91985	5537
2,92055	5067
2,92127	5966
2,92197	5317
2,92268	5496
2,92338	5232
2,92410	5197
2,92480	5389
2,92552	6243
2,92622	5987
2,92693	5966
2,92763	6070
2,92835	5553
2,92905	5673
2,92977	5219
2,93047	5932
2,93118	5233
2,93188	5513
2,93260	5730
2,93330	6018
2,93402	5150
2,93472	5543
2,93543	5310
2,93613	5196
2,93685	5702
2,93755	5228
2,93827	5729
2,93897	5390
2,93968	5566
2,94038	5552
2,94110	5293
2,94180	5920
2,94252	4826
2,94322	5639
2,94393	5739
2,94463	5546
2,94535	5558
2,94605	5650
2,94677	5184
2,94747	5388
2,94818	5361
2,94888	5308
2,94960	5684
2,95030	5636
2,95102	5046
2,95172	5621
2,95243	5330
2,95313	5779
2,95385	5582
2,95455	5612
2,95527	5897
2,95597	5633
2,95668	5484
2,95738	5760
2,95810	5008
2,95880	5276
2,95952	5709
2,96022	5270
2,96093	5477
2,96163	5529
2,96235	5584
2,96305	5394
2,96377	5523
2,96447	5183
2,96518	5723
2,96588	5651
2,96660	4943
2,96730	5129
2,96802	5393
2,96872	6132
2,96943	4949
2,97013	5538
2,97085	6046
2,97155	5213
2,97227	5301
2,97297	6140
2,97368	6190
2,97438	5845
2,97510	5566
2,97580	6052
2,97652	5917
2,97722	5479
2,97793	6181
2,97863	5432
2,97935	5190
2,98005	5162
2,98077	5222
2,98147	5415
2,98218	6128
2,98288	5494
2,98360	5731
2,98430	5794
2,98502	5411
2,98572	5291
2,98643	5061
2,98713	5468
2,98785	4882
2,98855	5410
2,98927	5198
2,98997	5620
2,99068	6006
2,99138	5620
2,99210	6292
2,99280	5266
2,99352	5064
2,99422	5978
2,99493	5694
2,99563	5702
2,99635	5584
2,99705	5762
2,99777	5380
2,99847	5408
2,99918	5803
2,99988	6419
3,00060	5035
3,00130	5425
3,00202	5152
3,00272	5629
3,00343	5543
3,00413	5714
3,00485	5878
3,00555	5445
3,00627	5226
3,00697	6270
3,00768	5335
3,00838	5978
3,00910	5570
3,00980	5817
3,01052	5731
3,01122	5548
3,01193	5873
3,01263	5602
3,01335	4934
3,01405	5003
3,01477	5759
3,01547	5437
3,01618	5868
3,01688	5592
3,01760	5637
3,01830	5504
3,01902	4972
3,01972	5431
3,02043	4983
3,02113	5204
3,02185	5309
3,02255	5278
3,02327	5599
3,02397	5484
3,02468	5162
3,02538	5643
3,02610	6028
3,02680	5619
3,02752	5156
3,02822	5668
3,02893	5637
3,02963	4969
3,03035	5904
3,03105	6265
3,03177	5790
3,03247	5722
3,03318	5340
3,03388	5775
3,03460	5399
3,03530	5538
3,03602	5526
3,03672	5044
3,03743	5645
3,03813	4932
3,03885	6370
3,03955	5164
3,04027	4959
3,04097	5388
3,04168	5709
3,04238	4964
3,04310	5567
3,04380	5155
3,04452	5461
3,04522	5530
3,04593	5904
3,04663	5207
3,04735	4513
3,04805	6183
3,04877	5202
3,04947	5914
3,05018	5529
3,05088	5239
3,05160	5372
3,05230	5525
3,05302	5014
3,05372	5923
3,05443	5286
3,05513	5995
3,05585	5733
3,05655	5228
3,05727	6243
3,05797	5165
3,05868	4895
3,05940	5896
3,06010	5404
3,06082	5300
3,06152	4909
3,06223	5849
3,06293	5330
3,06365	5921
3,06435	5481
3,06507	5441
3,06577	5921
3,06648	5827
3,06718	5334
3,06790	6024
3,06860	5859
3,06932	5964
3,07002	4778
3,07073	5457
3,07143	5345
3,07215	5391
3,07285	5830
3,07357	5887
3,07427	6053
3,07498	5581
3,07568	5422
3,07640	5620
3,07710	5473
3,07782	5542
3,07852	6139
3,07923	5595
3,07993	5653
3,08065	5406
3,08135	5397
3,08207	5677
3,08277	5724
3,08348	5784
3,08418	5041
3,08490	5382
3,08560	4775
3,08632	5955
3,08702	5467
3,08773	5389
3,08843	5906
3,08915	5694
3,08985	4975
3,09057	5597
3,09127	6306
3,09198	5460
3,09268	5500
3,09340	5764
3,09410	5583
3,09482	5743
3,09552	5295
3,09623	5413
3,09693	5440
3,09765	5463
3,09835	5356
3,09907	5514
3,09977	6010
3,10048	5645
3,10118	5617
3,10190	5695
3,10260	5464
3,10332	5871
3,10402	5002
3,10473	5534
3,10543	5669
3,10615	5671
3,10685	5389
3,10757	5504
3,10827	5825
3,10898	5618
3,10968	5669
3,11040	5648
3,11110	5601
3,11182	5382
3,11252	5640
3,11323	5730
3,11393	5055
3,11465	4947
3,11535	5981
3,11607	5494
3,11677	6081
3,11748	5898
3,11818	5172
3,11890	5427
3,11960	5540
3,12032	5107
3,12102	5361
3,12173	5350
3,12243	5602
3,12315	5091
3,12385	5101
3,12457	5506
3,12527	6130
3,12598	5156
3,12668	5105
3,12740	5330
3,12810	5584
3,12882	5416
3,12952	5566
3,13023	5308
3,13093	5460
3,13165	5969
3,13235	5832
3,13307	5786
3,13377	5748
3,13448	5265
3,13518	5425
3,13590	6150
3,13660	5790
3,13732	5248
3,13802	5888
3,13873	5660
3,13943	5797
3,14015	5610
3,14085	4713
3,14157	5728
3,14227	6017
3,14298	5278
3,14368	5321
3,14440	5871
3,14510	5797
3,14582	5072
3,14652	5751
3,14723	5491
3,14793	5560
3,14865	5898
3,14935	6084
3,15007	5814
3,15077	5618
3,15148	6168
3,15218	5591
3,15290	5660
3,15360	5741
3,15432	6014
3,15502	6145
3,15573	5737
3,15643	5689
3,15715	5462
3,15785	5936
3,15857	5010
3,15927	5680
3,15998	5336
3,16068	5203
3,16140	5493
3,16210	5325
3,16282	5389
3,16352	5783
3,16423	5953
3,16493	5618
3,16565	5563
3,16635	5341
3,16707	5363
3,16777	5828
3,16848	5598
3,16918	5254
3,16990	5242
3,17060	6024
3,17132	5332
3,17202	6374
3,17273	5783
3,17343	5184
3,17415	5256
3,17485	5839
3,17557	5347
3,17627	5636
3,17698	5187
3,17768	6540
3,17840	5522
3,17910	5652
3,17982	5574
3,18052	4818
3,18123	5274
3,18193	5609
3,18265	6138
3,18335	5448
3,18407	5801
3,18477	5564
3,18548	5516
3,18618	5734
3,18690	5094
3,18760	5850
3,18832	5648
3,18902	5446
3,18973	5934
3,19043	5264
3,19115	5160
3,19185	5245
3,19257	5669
3,19327	5229
3,19398	5805
3,19468	5354
3,19540	5750
3,19610	5448
3,19682	5922
3,19752	5566
3,19823	4845
3,19893	5445
3,19965	5744
3,20035	6140
3,20107	6192
3,20177	5340
3,20248	5915
3,20318	5030
3,20390	5478
3,20460	5417
3,20532	6461
3,20602	5647
3,20673	5100
3,20743	5885
3,20815	5464
3,20885	6109
3,20957	5600
3,21027	5407
3,21098	5870
3,21168	4197
3,21240	5364
3,21310	5485
3,21382	5937
3,21452	6025
3,21523	5065
3,21593	6198
3,21665	5531
3,21735	5096
3,21807	5814
3,21877	4850
3,21948	5838
3,22018	5437
3,22090	5442
3,22162	6259
3,22232	6196
3,22303	6198
3,22373	6053
3,22445	5127
3,22515	5357
3,22587	5379
3,22657	5494
3,22728	5420
3,22798	5812
3,22870	5665
3,22940	5564
3,23012	5864
3,23082	5194
3,23153	6166
3,23223	5109
3,23295	5737
3,23365	5726
3,23437	5779
3,23507	5352
3,23578	5437
3,23648	5945
3,23720	5015
3,23790	5484
3,23862	5425
3,23932	5710
3,24003	5395
3,24073	5948
3,24145	6064
3,24215	5315
3,24287	5800
3,24357	5760
3,24428	5730
3,24498	5512
3,24570	5886
3,24640	5768
3,24712	5721
3,24782	5251
3,24853	5130
3,24923	5740
3,24995	5340
3,25065	5802
3,25137	6119
3,25207	5549
3,25278	5865
3,25348	5634
3,25420	5717
3,25490	6198
3,25562	5951
3,25632	6054
3,25703	5813
3,25773	4987
3,25845	5670
3,25915	5692
3,25987	5660
3,26057	5510
3,26128	5702
3,26198	5328
3,26270	5657
3,26340	5499
3,26412	6260
3,26482	5473
3,26553	5876
3,26623	5858
3,26695	5149
3,26765	5897
3,26837	5770
3,26907	5774
3,26978	5848
3,27048	5777
3,27120	5425
3,27190	5869
3,27262	5127
3,27332	6130
3,27403	6287
3,27473	5357
3,27545	5695
3,27615	5209
3,27687	5205
3,27757	5626
3,27828	5394
3,27898	5337
3,27970	5105
3,28040	5856
3,28112	5283
3,28182	5265
3,28253	5761
3,28323	6024
3,28395	5227
3,28465	5366
3,28537	5487
3,28607	6061
3,28678	5622
3,28748	5528
3,28820	5881
3,28890	5701
3,28962	5505
3,29032	5736
3,29103	6095
3,29173	5585
3,29245	5755
3,29315	5328
3,29387	5892
3,29457	5403
3,29528	5055
3,29598	5607
3,29670	6061
3,29740	5397
3,29812	6116
3,29882	6431
3,29953	5778
3,30023	5178
3,30095	5812
3,30165	5484
3,30237	5356
3,30307	5617
3,30378	5800
3,30448	5519
3,30520	5813
3,30590	6023
3,30662	5820
3,30732	6091
3,30803	5036
3,30873	5279
3,30945	5306
3,31015	5608
3,31087	5275
3,31157	5335
3,31228	5220
3,31298	4781
3,31370	5643
3,31440	4911
3,31512	5660
3,31582	5491
3,31653	5505
3,31723	5152
3,31795	5919
3,31865	5364
3,31937	5626
3,32007	5826
3,32078	5998
3,32148	5677
3,32220	5758
3,32290	6215
3,32362	5866
3,32432	5912
3,32503	5349
3,32573	5522
3,32645	5403
3,32715	5090
3,32787	5221
3,32857	5541
3,32928	5923
3,32998	5149
3,33070	5204
3,33140	5296
3,33212	5384
3,33282	5935
3,33353	5180
3,33423	5959
3,33495	4869
3,33565	5585
3,33637	5601
3,33707	5720
3,33778	4819
3,33848	5174
3,33920	5457
3,33990	5332
3,34062	5095
3,34132	6063
3,34203	5633
3,34273	5857
3,34345	5253
3,34415	5757
3,34487	5300
3,34557	5444
3,34628	5534
3,34698	5788
3,34770	5485
3,34840	5550
3,34912	6359
3,34982	5274
3,35053	5502
3,35123	5304
3,35195	5600
3,35265	5770
3,35337	5356
3,35407	5587
3,35478	5891
3,35548	5833
3,35620	5473
3,35690	6085
3,35762	6248
3,35832	5720
3,35903	5883
3,35973	5280
3,36045	5167
3,36115	5574
3,36187	6072
3,36257	5859
3,36328	6147
3,36398	5314
3,36470	5852
3,36540	5691
3,36612	5614
3,36682	6035
3,36753	5659
3,36823	5471
3,36895	5862
3,36965	6034
3,37037	5726
3,37107	5622
3,37178	5462
3,37248	5397
3,37320	5621
3,37390	5794
3,37462	5018
3,37532	5312
3,37603	5279
3,37673	5775
3,37745	5036
3,37815	5416
3,37887	5485
3,37957	5735
3,38028	5672
3,38098	5192
3,38170	5599
3,38240	5719
3,38312	6004
3,38383	5814
3,38453	5545
3,38525	5456
3,38595	5754
3,38667	5259
3,38737	5730
3,38808	6277
3,38878	5470
3,38950	5750
3,39020	5034
3,39092	5535
3,39162	5610
3,39233	5582
3,39303	6010
3,39375	5825
3,39445	5513
3,39517	5517
3,39587	5044
3,39658	5318
3,39728	5673
3,39800	5135
3,39870	5119
3,39942	5885
3,40012	5625
3,40083	5373
3,40153	5778
3,40225	5212
3,40295	6003
3,40367	5218
3,40437	5553
3,40508	6390
3,40578	5686
3,40650	5550
3,40720	5095
3,40792	5479
3,40862	4832
3,40933	5887
3,41003	5277
3,41075	5526
3,41145	5237
3,41217	5114
3,41287	5093
3,41358	4894
3,41428	5824
3,41500	5697
3,41570	5428
3,41642	6000
3,41712	5757
3,41783	5079
3,41853	5183
3,41925	5368
3,41995	5871
3,42067	5619
3,42137	5614
3,42208	5912
3,42278	5251
3,42350	4823
3,42420	5913
3,42492	6050
3,42562	5787
3,42633	5445
3,42703	5883
3,42775	5423
3,42845	5730
3,42917	6035
3,42987	5448
3,43058	5624
3,43128	5216
3,43200	5765
3,43270	5706
3,43342	5011
3,43412	5525
3,43483	5383
3,43553	5132
3,43625	5766
3,43695	6037
3,43767	5185
3,43837	5859
3,43908	5552
3,43978	5406
3,44050	5178
3,44120	5644
3,44192	5497
3,44262	5647
3,44333	5789
3,44403	6068
3,44475	5165
3,44545	5324
3,44617	5941
3,44687	5785
3,44758	5723
3,44828	5851
3,44900	5723
3,44970	5290
3,45042	5554
3,45112	5690
3,45183	5318
3,45253	5319
3,45325	5484
3,45395	5844
3,45467	4541
3,45537	5256
3,45608	5933
3,45678	5654
3,45750	4793
3,45820	5668
3,45892	5619
3,45962	4963
3,46033	5667
3,46103	5373
3,46175	5733
3,46245	5423
3,46317	5483
3,46387	4748
3,46458	5629
3,46528	5156
3,46600	5455
3,46670	5430
3,46742	5941
3,46812	5301
3,46883	5453
3,46953	6085
3,47025	5187
3,47095	5421
3,47167	5441
3,47237	5551
3,47308	5490
3,47378	5790
3,47450	5930
3,47520	5140
3,47592	5476
3,47662	5058
3,47733	6007
3,47803	5577
3,47875	5441
3,47945	5621
3,48017	5302
3,48087	6185
3,48158	5857
3,48228	5636
3,48300	5785
3,48370	5449
3,48442	5501
3,48512	4879
3,48583	5185
3,48653	5809
3,48725	5563
3,48795	5129
3,48867	6050
3,48937	5202
3,49008	6034
3,49078	5530
3,49150	5776
3,49220	5745
3,49292	5730
3,49362	6192
3,49433	5460
3,49503	5730
3,49575	5612
3,49645	5425
3,49717	5694
3,49787	5196
3,49858	5449
3,49928	5762
3,50000	5505
3,50070	5213
3,50142	6157
3,50212	5561
3,50283	5488
3,50353	5595
3,50425	6398
3,50495	5720
3,50567	5789
3,50637	5555
3,50708	6397
3,50778	5238
3,50850	5060
3,50920	5988
3,50992	5786
3,51062	5609
3,51133	5432
3,51203	5443
3,51275	5249
3,51345	5412
3,51417	5976
3,51487	4833
3,51558	6412
3,51628	5216
3,51700	4795
3,51770	6178
3,51842	5635
3,51912	5365
3,51983	5586
3,52053	5719
3,52125	5592
3,52195	5338
3,52267	5726
3,52337	5439
3,52408	5594
3,52478	5400
3,52550	5699
3,52620	5539
3,52692	5241
3,52762	5270
3,52833	5547
3,52903	5393
3,52975	5716
3,53045	5459
3,53117	5051
3,53187	5007
3,53258	5317
3,53328	5580
3,53400	6201
3,53470	5387
3,53542	6253
3,53612	5579
3,53683	5974
3,53753	5625
3,53825	5805
3,53895	6248
3,53967	5779
3,54037	5169
3,54108	5530
3,54178	5793
3,54250	5679
3,54320	5387
3,54392	5551
3,54463	5826
3,54533	5373
3,54605	5543
3,54675	5807
3,54747	6212
3,54817	5266
3,54888	6028
3,54958	5312
3,55030	6096
3,55100	5384
3,55172	5050
3,55242	5645
3,55313	5917
3,55383	5710
3,55455	5855
3,55525	5249
3,55597	5899
3,55667	5699
3,55738	5263
3,55808	6001
3,55880	5165
3,55950	6358
3,56022	5361
3,56092	5100
3,56163	5464
3,56233	6266
3,56305	5886
3,56375	5900
3,56447	6084
3,56517	5601
3,56588	5092
3,56658	6375
3,56730	5619
3,56800	5934
3,56872	5558
3,56942	5683
3,57013	6153
3,57083	5456
3,57155	5460
3,57225	5807
3,57297	5627
3,57367	5104
3,57438	5487
3,57508	5898
3,57580	5396
3,57650	5717
3,57722	5656
3,57792	5582
3,57863	5563
3,57933	5557
3,58005	5201
3,58075	5877
3,58147	5812
3,58217	5887
3,58288	5953
3,58358	6005
3,58430	6165
3,58500	5317
3,58572	5511
3,58642	5534
3,58713	5895
3,58783	5852
3,58855	5434
3,58925	6622
3,58997	5448
3,59067	5852
3,59138	5337
3,59208	5540
3,59280	5366
3,59350	6485
3,59422	5471
3,59492	5607
3,59563	5210
3,59633	5789
3,59705	5689
3,59775	4956
3,59847	5611
3,59917	5795
3,59988	5507
3,60058	5628
3,60130	5286
3,60200	5830
3,60272	5901
3,60342	5367
3,60413	5668
3,60483	5422
3,60555	5269
3,60625	5448
3,60697	5657
3,60767	5473
3,60838	5618
3,60908	5863
3,60980	5356
3,61050	5606
3,61122	5887
3,61192	5596
3,61263	5388
3,61333	5169
3,61405	5955
3,61475	5369
3,61547	5862
3,61617	5739
3,61688	5733
3,61758	5516
3,61830	6058
3,61900	5374
3,61972	5625
3,62042	5818
3,62113	5641
3,62183	5278
3,62255	4859
3,62325	6177
3,62397	5682
3,62467	5955
3,62538	6184
3,62608	5431
3,62680	5242
3,62750	5558
3,62822	5611
3,62892	5305
3,62963	5075
3,63033	5491
3,63105	5393
3,63175	5645
3,63247	5406
3,63317	5900
3,63388	4962
3,63458	5404
3,63530	5233
3,63600	5933
3,63672	4985
3,63742	5733
3,63813	6082
3,63883	5233
3,63955	5776
3,64025	5330
3,64097	5953
3,64167	5918
3,64238	5185
3,64308	5803
3,64380	5523
3,64450	5246
3,64522	5988
3,64592	5622
3,64663	4831
3,64733	5217
3,64805	5918
3,64875	5859
3,64947	5850
3,65017	5653
3,65088	5590
3,65158	6146
3,65230	5762
3,65300	4727
3,65372	5215
3,65442	4818
3,65513	5877
3,65583	5958
3,65655	5083
3,65725	5579
3,65797	6043
3,65867	4911
3,65938	5985
3,66008	5865
3,66080	5580
3,66150	5468
3,66222	5839
3,66292	5508
3,66363	5618
3,66433	5832
3,66505	5955
3,66575	5857
3,66647	5852
3,66717	5741
3,66788	5798
3,66858	5308
3,66930	5306
3,67000	5906
3,67072	5910
3,67142	5604
3,67213	5297
3,67283	5157
3,67355	5770
3,67425	5781
3,67497	6174
3,67567	5519
3,67638	5450
3,67708	5360
3,67780	5555
3,67850	5649
3,67922	4897
3,67992	5263
3,68063	5211
3,68133	5540
3,68205	5450
3,68275	5783
3,68347	5781
3,68417	5019
3,68488	5973
3,68558	5667
3,68630	5871
3,68700	5891
3,68772	5929
3,68842	5967
3,68913	5387
3,68983	5508
3,69055	5387
3,69125	5457
3,69197	5531
3,69267	6093
3,69338	5261
3,69408	5615
3,69480	5403
3,69550	5808
3,69622	6119
3,69692	5786
3,69763	6409
3,69833	5637
3,69905	5225
3,69975	5849
3,70047	5397
3,70117	5083
3,70188	5599
3,70258	5467
3,70330	5615
3,70400	5017
3,70472	5790
3,70542	5732
3,70613	5669
3,70685	5515
3,70755	5900
3,70827	5231
3,70897	5122
3,70968	5734
3,71038	5490
3,71110	5264
3,71180	5250
3,71252	5806
3,71322	5288
3,71393	5754
3,71463	5057
3,71535	5574
3,71605	5812
3,71677	5771
3,71747	5852
3,71818	5406
3,71888	5073
3,71960	5081
3,72030	5657
3,72102	5528
3,72172	5906
3,72243	5480
3,72313	5204
3,72385	5929
3,72455	5582
3,72527	5741
3,72597	5431
3,72668	5785
3,72738	5515
3,72810	5612
3,72880	5304
3,72952	5422
3,73022	5240
3,73093	5321
3,73163	5913
3,73235	6058
3,73305	4934
3,73377	5708
3,73447	5596
3,73518	5491
3,73588	5425
3,73660	5431
3,73730	5082
3,73802	5255
3,73872	5180
3,73943	5844
3,74013	5469
3,74085	5293
3,74155	5297
3,74227	5277
3,74297	5534
3,74368	5775
3,74438	6132
3,74510	5494
3,74580	5976
3,74652	4987
3,74722	5583
3,74793	5936
3,74863	5775
3,74935	5536
3,75005	5473
3,75077	5983
3,75147	5585
3,75218	5735
3,75288	5514
3,75360	5098
3,75430	5848
3,75502	5887
3,75572	6014
3,75643	6102
3,75713	6533
3,75785	5903
3,75855	5356
3,75927	5539
3,75997	5619
3,76068	5976
3,76138	5440
3,76210	5205
3,76280	5514
3,76352	5809
3,76422	6040
3,76493	5777
3,76563	5567
3,76635	5551
3,76705	5434
3,76777	5898
3,76847	5992
3,76918	5024
3,76988	5757
3,77060	5493
3,77130	5213
3,77202	6758
3,77272	5628
3,77343	5642
3,77413	5586
3,77485	5232
3,77555	5722
3,77627	5465
3,77697	5763
3,77768	5522
3,77838	6180
3,77910	5130
3,77980	5807
3,78052	5703
3,78122	5769
3,78193	5006
3,78263	5391
3,78335	5261
3,78405	4900
3,78477	5409
3,78547	5828
3,78618	5481
3,78688	5505
3,78760	5618
3,78830	5469
3,78902	5782
3,78972	5224
3,79043	5812
3,79113	5513
3,79185	5395
3,79255	5577
3,79327	5616
3,79397	5834
3,79468	5207
3,79538	5160
3,79610	5509
3,79680	6280
3,79752	5682
3,79822	5892
3,79893	5931
3,79963	5247
3,80035	5511
3,80105	5931
3,80177	5695
3,80247	5940
3,80318	5674
3,80388	6271
3,80460	5734
3,80530	5568
3,80602	5751
3,80672	5771
3,80743	5462
3,80813	5181
3,80885	5589
3,80955	5214
3,81027	4836
3,81097	6050
3,81168	5719
3,81238	5896
3,81310	5792
3,81380	5723
3,81452	5117
3,81522	5758
3,81593	5867
3,81663	5593
3,81735	5473
3,81805	4765
3,81877	5573
3,81947	5927
3,82018	5776
3,82088	6046
3,82160	5625
3,82230	6139
3,82302	5502
3,82372	5054
3,82443	5661
3,82513	5222
3,82585	5355
3,82655	5603
3,82727	5707
3,82797	5413
3,82868	5260
3,82938	5858
3,83010	5599
3,83080	5510
3,83152	5859
3,83222	5794
3,83293	6032
3,83363	4948
3,83435	5540
3,83505	5757
3,83577	5676
3,83647	5711
3,83718	5801
3,83788	5219
3,83860	6045
3,83930	5727
3,84002	6070
3,84072	5185
3,84143	6126
3,84213	5654
3,84285	5763
3,84355	5026
3,84427	5073
3,84497	6061
3,84568	6231
3,84638	5220
3,84710	5572
3,84780	6121
3,84852	6061
3,84922	5122
3,84993	5739
3,85063	6067
3,85135	5944
3,85205	6460
3,85277	5909
3,85347	5498
3,85418	6018
3,85488	5461
3,85560	5970
3,85630	5948
3,85702	5838
3,85772	5698
3,85843	5432
3,85913	5460
3,85985	6245
3,86055	5639
3,86127	5756
3,86197	5289
3,86268	5604
3,86338	5667
3,86410	5508
3,86480	6014
3,86552	5166
3,86622	5274
3,86693	5408
3,86763	5410
3,86835	6556
3,86907	5767
3,86977	5448
3,87048	5771
3,87118	5441
3,87190	5453
3,87260	5555
3,87332	5498
3,87402	5691
3,87473	5474
3,87543	6342
3,87615	5344
3,87685	5741
3,87757	6024
3,87827	5893
3,87898	5949
3,87968	5888
3,88040	5291
3,88110	5436
3,88182	5930
3,88252	5236
3,88323	6000
3,88393	5511
3,88465	5743
3,88535	5418
3,88607	5331
3,88677	5737
3,88748	5963
3,88818	4892
3,88890	5664
3,88960	5736
3,89032	5557
3,89102	5603
3,89173	6134
3,89243	4824
3,89315	5414
3,89385	5376
3,89457	5783
3,89527	5803
3,89598	5747
3,89668	5691
3,89740	5557
3,89810	5223
3,89882	5773
3,89952	5789
3,90023	5597
3,90093	6100
3,90165	5454
3,90235	6001
3,90307	5627
3,90377	6061
3,90448	6583
3,90518	5547
3,90590	5556
3,90660	5733
3,90732	5853
3,90802	5800
3,90873	5690
3,90943	5670
3,91015	5763
3,91085	5730
3,91157	5656
3,91227	5522
3,91298	5670
3,91368	5956
3,91440	5486
3,91510	5859
3,91582	5150
3,91652	5775
3,91723	5647
3,91793	5149
3,91865	5723
3,91935	5626
3,92007	5609
3,92077	5797
3,92148	6026
3,92218	5284
3,92290	6123
3,92360	5987
3,92432	5598
3,92502	5489
3,92573	6090
3,92643	5238
3,92715	5849
3,92785	5599
3,92857	6193
3,92927	5734
3,92998	5395
3,93068	6245
3,93140	5827
3,93210	5707
3,93282	6012
3,93352	5204
3,93423	5484
3,93493	6353
3,93565	6115
3,93635	6012
3,93707	5773
3,93777	4777
3,93848	5472
3,93918	5401
3,93990	4750
3,94060	5743
3,94132	5648
3,94202	5271
3,94273	5502
3,94343	5666
3,94415	6084
3,94485	5914
3,94557	6166
3,94627	5272
3,94698	5634
3,94768	5305
3,94840	5908
3,94910	5858
3,94982	5679
3,95052	5695
3,95123	5337
3,95193	5514
3,95265	5713
3,95335	5269
3,95407	6117
3,95477	5732
3,95548	5825
3,95618	5795
3,95690	5445
3,95760	5643
3,95832	5363
3,95902	4912
3,95973	5688
3,96043	5642
3,96115	5414
3,96185	5656
3,96257	5502
3,96327	5462
3,96398	5360
3,96468	5497
3,96540	5870
3,96610	6054
3,96682	5853
3,96752	5241
3,96823	5884
3,96893	6004
3,96965	5848
3,97035	5648
3,97107	5678
3,97177	5628
3,97248	5653
3,97318	6428
3,97390	5787
3,97460	6203
3,97532	5267
3,97602	5227
3,97673	5987
3,97743	5823
3,97815	5588
3,97885	5748
3,97957	5427
3,98027	6188
3,98098	5746
3,98168	6008
3,98240	5994
3,98310	5543
3,98382	5344
3,98452	6014
3,98523	6518
3,98593	5616
3,98665	5159
3,98735	6097
3,98807	5814
3,98877	5102
3,98948	5801
3,99018	5538
3,99090	5488
3,99160	5668
3,99232	5532
3,99302	5813
3,99373	5422
3,99443	5663
3,99515	5337
3,99585	5553
3,99657	6048
3,99727	5284
3,99798	5912
3,99868	5442
3,99940	5297
4,00010	5571
4,00082	5633
4,00152	5366
4,00223	6213
4,00293	5337
4,00365	5689
4,00435	5721
4,00507	5663
4,00577	5349
4,00648	4877
4,00718	5903
4,00790	5702
4,00860	5187
4,00932	5761
4,01002	5348
4,01073	5361
4,01143	5997
4,01215	5327
4,01285	5527
4,01357	5742
4,01427	5683
4,01498	5796
4,01568	6014
4,01640	5620
4,01710	6422
4,01782	5480
4,01852	5346
4,01923	5957
4,01993	5939
4,02065	5762
4,02135	5525
4,02207	5691
4,02277	5685
4,02348	5165
4,02418	6164
4,02490	5883
4,02560	5419
4,02632	5719
4,02702	4724
4,02773	5545
4,02843	5727
4,02915	5524
4,02987	5556
4,03057	5505
4,03128	5054
4,03198	5209
4,03270	5879
4,03340	5541
4,03412	5322
4,03482	5579
4,03553	6236
4,03623	5726
4,03695	5128
4,03765	5327
4,03837	6195
4,03907	5422
4,03978	5323
4,04048	5776
4,04120	5591
4,04190	5144
4,04262	5280
4,04332	6050
4,04403	5498
4,04473	5451
4,04545	6089
4,04615	5764
4,04687	5973
4,04757	5588
4,04828	6303
4,04898	5142
4,04970	5512
4,05040	5394
4,05112	5653
4,05182	5273
4,05253	6268
4,05323	5285
4,05395	5397
4,05465	5044
4,05537	6009
4,05607	5266
4,05678	5638
4,05748	6012
4,05820	5387
4,05890	5356
4,05962	5725
4,06032	6099
4,06103	5999
4,06173	5827
4,06245	6200
4,06315	5915
4,06387	6016
4,06457	6791
4,06528	6741
4,06598	7447
4,06670	7101
4,06740	7420
4,06812	7545
4,06882	8366
4,06953	8176
4,07023	8978
4,07095	9518
4,07165	9332
4,07237	10335
4,07307	11930
4,07378	12252
4,07448	13294
4,07520	15288
4,07590	15973
4,07662	16948
4,07732	19124
4,07803	21039
4,07873	23356
4,07945	25694
4,08015	27458
4,08087	31325
4,08157	32697
4,08228	37599
4,08298	41154
4,08370	42558
4,08440	47843
4,08512	53307
4,08582	59800
4,08653	62866
4,08723	70198
4,08795	75452
4,08865	82457
4,08937	89030
4,09007	95439
4,09078	101800
4,09148	111787
4,09220	119716
4,09290	128733
4,09362	141151
4,09432	146391
4,09503	158575
4,09573	170391
4,09645	181877
4,09715	191822
4,09787	204781
4,09857	213976
4,09928	227733
4,09998	237980
4,10070	251462
4,10140	262671
4,10212	277158
4,10282	291475
4,10353	304508
4,10423	317362
4,10495	330764
4,10565	341372
4,10637	357179
4,10707	370625
4,10778	379149
4,10848	396883
4,10920	412214
4,10990	419966
4,11062	431458
4,11132	442776
4,11203	459424
4,11273	466352
4,11345	484817
4,11415	489937
4,11487	501799
4,11557	513481
4,11628	517967
4,11698	529120
4,11770	538476
4,11840	543232
4,11912	549527
4,11982	557127
4,12053	570279
4,12123	572674
4,12195	573547
4,12265	590698
4,12337	585911
4,12407	601124
4,12478	604629
4,12548	607973
4,12620	609102
4,12690	610778
4,12762	614291
4,12832	622251
4,12903	613486
4,12973	627367
4,13045	614949
4,13115	616832
4,13187	621210
4,13257	627245
4,13328	625479
4,13398	616228
4,13470	617727
4,13540	621771
4,13612	617179
4,13682	618237
4,13753	610194
4,13823	616079
4,13895	609347
4,13965	611974
4,14037	605357
4,14107	598047
4,14178	599880
4,14248	598779
4,14320	589661
4,14390	591452
4,14462	584445
4,14532	587514
4,14603	587677
4,14673	580133
4,14745	574780
4,14815	569911
4,14887	571488
4,14957	569411
4,15028	566318
4,15098	554328
4,15170	557162
4,15240	555745
4,15312	542843
4,15382	538235
4,15453	534452
4,15523	535988
4,15595	525617
4,15665	519772
4,15737	522089
4,15807	518609
4,15878	516096
4,15948	508740
4,16020	507413
4,16090	498865
4,16162	491809
4,16232	494076
4,16303	486047
4,16373	481826
4,16445	480350
4,16515	484492
4,16587	468553
4,16657	465649
4,16728	468230
4,16798	460361
4,16870	455052
4,16940	449885
4,17012	445808
4,17082	445703
4,17153	439705
4,17223	433084
4,17295	439615
4,17365	424223
4,17437	422997
4,17507	421726
4,17578	422669
4,17648	415043
4,17720	410166
4,17790	411946
4,17862	405437
4,17932	397985
4,18003	398945
4,18073	392405
4,18145	398025
4,18215	392379
4,18287	388166
4,18357	382809
4,18428	389016
4,18498	386971
4,18570	384377
4,18640	387299
4,18712	387512
4,18782	384350
4,18853	396024
4,18923	396488
4,18995	407717
4,19065	416389
4,19137	423683
4,19208	436362
4,19278	454027
4,19350	471814
4,19420	489641
4,19492	515573
4,19562	544927
4,19633	576944
4,19703	609158
4,19775	645769
4,19845	704557
4,19917	763951
4,19987	817763
4,20058	880530
4,20128	954975
4,20200	1045169
4,20270	1123258
4,20342	1216832
4,20412	1328395
4,20483	1433071
4,20553	1548462
4,20625	1671045
4,20695	1797186
4,20767	1948389
4,20837	2088662
4,20908	2261165
4,20978	2435242
4,21050	2592075
4,21120	2778618
4,21192	2973323
4,21262	3152641
4,21333	3341632
4,21403	3556435
4,21475	3749089
4,21545	3946867
4,21617	4153586
4,21687	4362444
4,21758	4575111
4,21828	4782006
4,21900	4989608
4,21970	5193038
4,22042	5388278
4,22112	5601055
4,22183	5779616
4,22253	6000786
4,22325	6188799
4,22395	6353663
4,22467	6544668
4,22537	6707855
4,22608	6871848
4,22678	7005757
4,22750	7208495
4,22820	7332954
4,22892	7475654
4,22962	7619184
4,23033	7731681
4,23103	7878738
4,23175	7968766
4,23245	8086165
4,23317	8183456
4,23387	8245758
4,23458	8342863
4,23528	8422719
4,23600	8514165
4,23670	8567120
4,23742	8578369
4,23812	8681807
4,23883	8770577
4,23953	8745351
4,24025	8820106
4,24095	8842142
4,24167	8876353
4,24237	8896552
4,24308	8907543
4,24378	8941389
4,24450	8927457
4,24520	8910947
4,24592	8946302
4,24662	8973913
4,24733	8939328
4,24803	8890445
4,24875	8981706
4,24945	8941257
4,25017	8878953
4,25087	8896696
4,25158	8874867
4,25228	8838917
4,25300	8831817
4,25370	8803340
4,25442	8791266
4,25512	8751773
4,25583	8680085
4,25653	8679527
4,25725	8649340
4,25795	8601337
4,25867	8544137
4,25937	8547789
4,26008	8495635
4,26078	8443207
4,26150	8431076
4,26220	8374187
4,26292	8329708
4,26362	8271801
4,26433	8217595
4,26503	8194239
4,26575	8120635
4,26645	8058200
4,26717	8041106
4,26787	7978444
4,26858	7933074
4,26928	7845019
4,27000	7837500
4,27070	7767453
4,27142	7712239
4,27212	7701989
4,27283	7607948
4,27353	7531982
4,27425	7483923
4,27495	7447148
4,27567	7391784
4,27637	7331796
4,27708	7270392
4,27778	7227683
4,27850	7199460
4,27920	7109645
4,27992	7043840
4,28062	6994390
4,28133	6930715
4,28203	6886187
4,28275	6834172
4,28345	6787758
4,28417	6710452
4,28487	6640305
4,28558	6603180
4,28628	6556216
4,28700	6495888
4,28770	6429107
4,28842	6401330
4,28912	6346349
4,28983	6270253
4,29053	6250924
4,29125	6187816
4,29195	6139966
4,29267	6049000
4,29337	6015110
4,29408	5949026
4,29478	5897967
4,29550	5860230
4,29620	5806690
4,29692	5749759
4,29762	5692350
4,29833	5619141
4,29903	5609143
4,29975	5541415
4,30045	5496703
4,30117	5427463
4,30187	5390122
4,30258	5355178
4,30328	5276480
4,30400	5237485
4,30470	5194198
4,30542	5125300
4,30612	5070053
4,30683	5051398
4,30753	5006587
4,30825	4939453
4,30895	4909572
4,30967	4828684
4,31037	4796895
4,31108	4744059
4,31178	4706488
4,31250	4662356
4,31320	4606089
4,31392	4557843
4,31462	4517180
4,31533	4474815
4,31603	4429464
4,31675	4378129
4,31745	4367132
4,31817	4315368
4,31887	4267923
4,31958	4226593
4,32028	4171280
4,32100	4131460
4,32170	4091479
4,32242	4046459
4,32312	4026228
4,32383	3977434
4,32453	3923213
4,32525	3892766
4,32595	3846631
4,32667	3813810
4,32737	3776386
4,32808	3744540
4,32878	3709393
4,32950	3669046
4,33020	3614149
4,33092	3576413
4,33162	3551198
4,33233	3499392
4,33303	3475037
4,33375	3452615
4,33445	3420812
4,33517	3359112
4,33587	3334131
4,33658	3310368
4,33728	3272121
4,33800	3232902
4,33870	3186898
4,33942	3173325
4,34012	3142320
4,34083	3087005
4,34153	3072226
4,34225	3023452
4,34295	2997221
4,34367	2973416
4,34437	2942845
4,34508	2923470
4,34578	2882295
4,34650	2853037
4,34720	2814537
4,34792	2794748
4,34862	2758997
4,34933	2734548
4,35003	2716202
4,35075	2678864
4,35145	2644295
4,35217	2620505
4,35287	2604219
4,35358	2561131
4,35430	2537696
4,35500	2516007
4,35572	2473762
4,35642	2456443
4,35713	2428061
4,35783	2401062
4,35855	2390482
4,35925	2345526
4,35997	2334293
4,36067	2315363
4,36138	2277940
4,36208	2248618
4,36280	2226093
4,36350	2214862
4,36422	2191542
4,36492	2156780
4,36563	2143998
4,36633	2117302
4,36705	2101148
4,36775	2078697
4,36847	2055992
4,36917	2018196
4,36988	2005016
4,37058	1973384
4,37130	1963237
4,37200	1946678
4,37272	1911827
4,37342	1902893
4,37413	1894650
4,37483	1853493
4,37555	1835384
4,37625	1826646
4,37697	1799820
4,37767	1775921
4,37838	1756318
4,37908	1744727
4,37980	1716306
4,38050	1703920
4,38122	1688495
4,38192	1668641
4,38263	1651171
4,38333	1639283
4,38405	1611173
4,38475	1604328
4,38547	1587387
4,38617	1577975
4,38688	1551828
4,38758	1535809
4,38830	1516673
4,38900	1498966
4,38972	1493181
4,39042	1477279
4,39113	1451765
4,39183	1433137
4,39255	1433487
4,39325	1417111
4,39397	1397402
4,39467	1378448
4,39538	1362591
4,39608	1348499
4,39680	1331029
4,39750	1321933
4,39822	1309229
4,39892	1292646
4,39963	1268171
4,40033	1259999
4,40105	1257071
4,40175	1237067
4,40247	1222774
4,40317	1215875
4,40388	1199040
4,40458	1181574
4,40530	1163735
4,40600	1161752
4,40672	1145403
4,40742	1131660
4,40813	1123125
4,40883	1112168
4,40955	1092210
4,41025	1075031
4,41097	1067169
4,41167	1060494
4,41238	1046228
4,41308	1033460
4,41380	1030679
4,41450	1017999
4,41522	1005847
4,41592	1001630
4,41663	984739
4,41733	975829
4,41805	965906
4,41875	947492
4,41947	945244
4,42017	940034
4,42088	921994
4,42158	912275
4,42230	912060
4,42300	893414
4,42372	880437
4,42442	875955
4,42513	866196
4,42583	858194
4,42655	850206
4,42725	840770
4,42797	832944
4,42867	820541
4,42938	811984
4,43008	802405
4,43080	797039
4,43150	787363
4,43222	778569
4,43292	771419
4,43363	762930
4,43433	748689
4,43505	748934
4,43575	740699
4,43647	732363
4,43717	721698
4,43788	714591
4,43858	710651
4,43930	697035
4,44000	689797
4,44072	683503
4,44142	678040
4,44213	667637
4,44283	664130
4,44355	659233
4,44425	647647
4,44497	640154
4,44567	636228
4,44638	631531
4,44708	618924
4,44780	619810
4,44850	613442
4,44922	602479
4,44992	592864
4,45063	597438
4,45133	581602
4,45205	581471
4,45275	575609
4,45347	564986
4,45417	559677
4,45488	559482
4,45558	549016
4,45630	541248
4,45700	540819
4,45772	525663
4,45842	525245
4,45913	520412
4,45983	521247
4,46055	508367
4,46125	501881
4,46197	494716
4,46267	491891
4,46338	491542
4,46408	488574
4,46480	478407
4,46550	473087
4,46622	470045
4,46692	463555
4,46763	459319
4,46833	453616
4,46905	449814
4,46975	447116
4,47047	437402
4,47117	432742
4,47188	435250
4,47258	422718
4,47330	419055
4,47400	416349
4,47472	412623
4,47542	409220
4,47613	404617
4,47683	402231
4,47755	396098
4,47825	390278
4,47897	382625
4,47967	385255
4,48038	385904
4,48108	376960
4,48180	372471
4,48250	371146
4,48322	364168
4,48392	363332
4,48463	358495
4,48533	350884
4,48605	347018
4,48675	346267
4,48747	339838
4,48817	338127
4,48888	332530
4,48958	333086
4,49030	331956
4,49100	323492
4,49172	321736
4,49242	317462
4,49313	317495
4,49383	313033
4,49455	307326
4,49525	305486
4,49597	303748
4,49667	297128
4,49738	294406
4,49808	294449
4,49880	287860
4,49950	285618
4,50022	284802
4,50092	282423
4,50163	280101
4,50233	273101
4,50305	269429
4,50375	269457
4,50447	266559
4,50517	264991
4,50588	259295
4,50658	258052
4,50730	256833
4,50800	253312
4,50872	253620
4,50942	251052
4,51013	246740
4,51083	243581
4,51155	242454
4,51225	240112
4,51297	236119
4,51367	233633
4,51438	228852
4,51508	232645
4,51580	228201
4,51652	226950
4,51722	221705
4,51793	220832
4,51863	220048
4,51935	213892
4,52005	216964
4,52077	210413
4,52147	209157
4,52218	206627
4,52288	204197
4,52360	206057
4,52430	199023
4,52502	199507
4,52572	197693
4,52643	195593
4,52713	196190
4,52785	193494
4,52855	190746
4,52927	190192
4,52997	188408
4,53068	185479
4,53138	182707
4,53210	180434
4,53280	177367
4,53352	176941
4,53422	173090
4,53493	173443
4,53563	171513
4,53635	169611
4,53705	168625
4,53777	168533
4,53847	163316
4,53918	164291
4,53988	163105
4,54060	159624
4,54130	156915
4,54202	156404
4,54272	155818
4,54343	151352
4,54413	153106
4,54485	149692
4,54555	148883
4,54627	146896
4,54697	147230
4,54768	145209
4,54838	143567
4,54910	143251
4,54980	138841
4,55052	139234
4,55122	137519
4,55193	138520
4,55263	135359
4,55335	135101
4,55405	133727
4,55477	130620
4,55547	131583
4,55618	130655
4,55688	128477
4,55760	128623
4,55830	124925
4,55902	124918
4,55972	123413
4,56043	120387
4,56113	120657
4,56185	119399
4,56255	118462
4,56327	116537
4,56397	114537
4,56468	114899
4,56538	114810
4,56610	114956
4,56680	112893
4,56752	110944
4,56822	110311
4,56893	109467
4,56963	108530
4,57035	107423
4,57105	105139
4,57177	103690
4,57247	101711
4,57318	101030
4,57388	103098
4,57460	99514
4,57530	99592
4,57602	99299
4,57672	98634
4,57743	97620
4,57813	95143
4,57885	97057
4,57955	94082
4,58027	92585
4,58097	91467
4,58168	91295
4,58238	92293
4,58310	90414
4,58380	88785
4,58452	87633
4,58522	87700
4,58593	85437
4,58663	85199
4,58735	86461
4,58805	86361
4,58877	84504
4,58947	83917
4,59018	81900
4,59088	81077
4,59160	82728
4,59230	80005
4,59302	80454
4,59372	77558
4,59443	77917
4,59513	76917
4,59585	75607
4,59655	77677
4,59727	74831
4,59797	73384
4,59868	74760
4,59938	72575
4,60010	72301
4,60080	72578
4,60152	71386
4,60222	71416
4,60293	69933
4,60363	67649
4,60435	67453
4,60505	69640
4,60577	67151
4,60647	67507
4,60718	66531
4,60788	66127
4,60860	66421
4,60930	65615
4,61002	63725
4,61072	64362
4,61143	63006
4,61213	61804
4,61285	60165
4,61355	62464
4,61427	60757
4,61497	61235
4,61568	58390
4,61638	57601
4,61710	60413
4,61780	58909
4,61852	57623
4,61922	56345
4,61993	56669
4,62063	55265
4,62135	56684
4,62205	55775
4,62277	55329
4,62347	54496
4,62418	54899
4,62488	54028
4,62560	52730
4,62630	52282
4,62702	51655
4,62772	51852
4,62843	51899
4,62913	52961
4,62985	52692
4,63055	49662
4,63127	49969
4,63197	48666
4,63268	49159
4,63338	48587
4,63410	46677
4,63480	47166
4,63552	47686
4,63622	46571
4,63693	45378
4,63763	45005
4,63835	46226
4,63905	44971
4,63977	44615
4,64047	45380
4,64118	45523
4,64188	43794
4,64260	43833
4,64330	43444
4,64402	42764
4,64472	43792
4,64543	41943
4,64613	43750
4,64685	42673
4,64755	40230
4,64827	41521
4,64897	41088
4,64968	40036
4,65038	38256
4,65110	39384
4,65180	39541
4,65252	40231
4,65322	38106
4,65393	38462
4,65463	37296
4,65535	37807
4,65605	37537
4,65677	39083
4,65747	38347
4,65818	38270
4,65888	38680
4,65960	35779
4,66030	36757
4,66102	36493
4,66172	35801
4,66243	36632
4,66313	35282
4,66385	35173
4,66455	34660
4,66527	35201
4,66597	33486
4,66668	33669
4,66738	34351
4,66810	32617
4,66880	32893
4,66952	32572
4,67022	33074
4,67093	32393
4,67163	32428
4,67235	32082
4,67305	32234
4,67377	31870
4,67447	31724
4,67518	32054
4,67588	31492
4,67660	30138
4,67732	31187
4,67802	30815
4,67873	30502
4,67943	29870
4,68015	29287
4,68085	30929
4,68157	29837
4,68227	29120
4,68298	29305
4,68368	29613
4,68440	27995
4,68510	29693
4,68582	28336
4,68652	28207
4,68723	27733
4,68793	27142
4,68865	27875
4,68935	27857
4,69007	26339
4,69077	27949
4,69148	27383
4,69218	27327
4,69290	26569
4,69360	25485
4,69432	25439
4,69502	25658
4,69573	25266
4,69643	25246
4,69715	24821
4,69785	26153
4,69857	26656
4,69927	24997
4,69998	24787
4,70068	24267
4,70140	24442
4,70210	25799
4,70282	25021
4,70352	23216
4,70423	23387
4,70493	23602
4,70565	24637
4,70635	23150
4,70707	23419
4,70777	24079
4,70848	23241
4,70918	23535
4,70990	21640
4,71060	21822
4,71132	21573
4,71202	21740
4,71273	22959
4,71343	22542
4,71415	21627
4,71485	21551
4,71557	23051
4,71627	21632
4,71698	21880
4,71768	22609
4,71840	21075
4,71910	21179
4,71982	20576
4,72052	21205
4,72123	21743
4,72193	20895
4,72265	20741
4,72335	20434
4,72407	20060
4,72477	20139
4,72548	20359
4,72618	19899
4,72690	20299
4,72760	20205
4,72832	19994
4,72902	20246
4,72973	19435
4,73043	20204
4,73115	19575
4,73185	19983
4,73257	19215
4,73327	19029
4,73398	18661
4,73468	18343
4,73540	18749
4,73610	18344
4,73682	19791
4,73752	18247
4,73823	18969
4,73893	18229
4,73965	18657
4,74035	18588
4,74107	18719
4,74177	18717
4,74248	17824
4,74318	18403
4,74390	18396
4,74460	17484
4,74532	17590
4,74602	18766
4,74673	17960
4,74743	17791
4,74815	17015
4,74885	17764
4,74957	17377
4,75027	17719
4,75098	17680
4,75168	16368
4,75240	16640
4,75310	16621
4,75382	16868
4,75452	16430
4,75523	16416
4,75593	16851
4,75665	16700
4,75735	16722
4,75807	16563
4,75877	17310
4,75948	16310
4,76018	16111
4,76090	16581
4,76160	15306
4,76232	15954
4,76302	15857
4,76373	16027
4,76443	15578
4,76515	16023
4,76585	15559
4,76657	15161
4,76727	15965
4,76798	15067
4,76868	14993
4,76940	16378
4,77010	15721
4,77082	15574
4,77152	15011
4,77223	15437
4,77293	15152
4,77365	15239
4,77435	14284
4,77507	15267
4,77577	14574
4,77648	15186
4,77718	13846
4,77790	14193
4,77860	14313
4,77932	14195
4,78002	13837
4,78073	14107
4,78143	14112
4,78215	14999
4,78285	13946
4,78357	14052
4,78427	13239
4,78498	14117
4,78568	13747
4,78640	13203
4,78710	14015
4,78782	14600
4,78852	14293
4,78923	13711
4,78993	14049
4,79065	13806
4,79135	13328
4,79207	14022
4,79277	12968
4,79348	13995
4,79418	13009
4,79490	13376
4,79560	12731
4,79632	13148
4,79702	12988
4,79773	13137
4,79843	13148
4,79915	13386
4,79985	13633
4,80057	14068
4,80127	12824
4,80198	13005
4,80268	13125
4,80340	12922
4,80410	12516
4,80482	13645
4,80552	12939
4,80623	12894
4,80693	13267
4,80765	12582
4,80835	12440
4,80907	12241
4,80977	13657
4,81048	12914
4,81118	13396
4,81190	12611
4,81260	13667
4,81332	13067
4,81402	12718
4,81473	12944
4,81543	12411
4,81615	12214
4,81685	12811
4,81757	11963
4,81827	12420
4,81898	12170
4,81968	12053
4,82040	10803
4,82110	12207
4,82182	12222
4,82252	11539
4,82323	11198
4,82393	12067
4,82465	12038
4,82535	11939
4,82607	11633
4,82677	11565
4,82748	11616
4,82818	11406
4,82890	11707
4,82960	11783
4,83032	10822
4,83102	10645
4,83173	11601
4,83243	12327
4,83315	11639
4,83385	11372
4,83457	11832
4,83527	11421
4,83598	12204
4,83668	10452
4,83740	12169
4,83810	11231
4,83882	11501
4,83953	11526
4,84023	11342
4,84095	12065
4,84165	11602
4,84237	11930
4,84307	11744
4,84378	11285
4,84448	10915
4,84520	11070
4,84590	11173
4,84662	11967
4,84732	11148
4,84803	11521
4,84873	11175
4,84945	10220
4,85015	11343
4,85087	11112
4,85157	9904
4,85228	11446
4,85298	11009
4,85370	10024
4,85440	10410
4,85512	10125
4,85582	10515
4,85653	10412
4,85723	10856
4,85795	11171
4,85865	11126
4,85937	11246
4,86007	11076
4,86078	11149
4,86148	11671
4,86220	10899
4,86290	10130
4,86362	10760
4,86432	10488
4,86503	10672
4,86573	11282
4,86645	10603
4,86715	10278
4,86787	11432
4,86857	10153
4,86928	10438
4,86998	10581
4,87070	10646
4,87140	10210
4,87212	10157
4,87282	10537
4,87353	10737
4,87423	11305
4,87495	9836
4,87565	10858
4,87637	10441
4,87707	9671
4,87778	10051
4,87848	9430
4,87920	9707
4,87990	9794
4,88062	10246
4,88132	10202
4,88203	9735
4,88273	10948
4,88345	10672
4,88415	11205
4,88487	9529
4,88557	10284
4,88628	10173
4,88698	10251
4,88770	9875
4,88840	9597
4,88912	10523
4,88982	9270
4,89053	10170
4,89123	9612
4,89195	10367
4,89265	10251
4,89337	9831
4,89407	9704
4,89478	9838
4,89548	10578
4,89620	9903
4,89690	9777
4,89762	10129
4,89832	9982
4,89903	10293
4,89973	9848
4,90045	10325
4,90115	9998
4,90187	10160
4,90257	9572
4,90328	10172
4,90398	9354
4,90470	9518
4,90540	9918
4,90612	9611
4,90682	9728
4,90753	10336
4,90823	10906
4,90895	9575
4,90965	10537
4,91037	10113
4,91107	9669
4,91178	9350
4,91248	9494
4,91320	10016
4,91390	9899
4,91462	9718
4,91532	10508
4,91603	9881
4,91673	9957
4,91745	8773
4,91815	9695
4,91887	10280
4,91957	9659
4,92028	9115
4,92098	9875
4,92170	10143
4,92240	10027
4,92312	9525
4,92382	9361
4,92453	9307
4,92523	9600
4,92595	9932
4,92665	9634
4,92737	9930
4,92807	9712
4,92878	9509
4,92948	9820
4,93020	9892
4,93090	8730
4,93162	9415
4,93232	9611
4,93303	9057
4,93373	9360
4,93445	9057
4,93515	9259
4,93587	9294
4,93657	9067
4,93728	9100
4,93798	9536
4,93870	9140
4,93940	9091
4,94012	9662
4,94082	9096
4,94153	9262
4,94223	8544
4,94295	10327
4,94365	9922
4,94437	9896
4,94507	9475
4,94578	9463
4,94648	8789
4,94720	9116
4,94790	9007
4,94862	10263
4,94932	9848
4,95003	9037
4,95073	10029
4,95145	8970
4,95215	9211
4,95287	9141
4,95357	8583
4,95428	9007
4,95498	9598
4,95570	9857
4,95640	8936
4,95712	9396
4,95782	8940
4,95853	9137
4,95923	9316
4,95995	9996
4,96065	9091
4,96137	9054
4,96207	8828
4,96278	8671
4,96348	8514
4,96420	8848
4,96490	8326
4,96562	8722
4,96632	9875
4,96703	8878
4,96773	9100
4,96845	9251
4,96915	9580
4,96987	9232
4,97057	8591
4,97128	8596
4,97198	9258
4,97270	9664
4,97340	9406
4,97412	9403
4,97482	8634
4,97553	8875
4,97623	9530
4,97695	9796
4,97765	9098
4,97837	9497
4,97907	9036
4,97978	9327
4,98048	9051
4,98120	9242
4,98190	8307
4,98262	8858
4,98332	9363
4,98403	9312
4,98473	9445
4,98545	10092
4,98615	8667
4,98687	8539
4,98757	9321
4,98828	10316
4,98898	8374
4,98970	9397
4,99040	9726
4,99112	9719
4,99182	9411
4,99253	8551
4,99323	9535
4,99395	8108
4,99465	8404
4,99537	8987
4,99607	8717
