D:\MassHunter\GCMS\1\data\Amal\Constant flow\100C\100C_1ml-min_7C-min_1.D Wed Jul 31 13:44:35 2024
Start of data points
5,84092,19695
5,84503,19091
5,84917,19900
5,85328,19502
5,85740,20221
5,86153,18671
5,86565,19492
5,86977,17073
5,87390,17878
5,87802,18582
5,88213,18887
5,88627,18746
5,89038,18232
5,89450,17988
5,89863,17402
5,90275,19053
5,90687,17533
5,91098,17683
5,91512,17075
5,91923,16274
5,92335,17916
5,92748,18767
5,93160,17531
5,93572,17287
5,93985,17830
5,94397,17587
5,94808,18085
5,95222,18058
5,95633,18486
5,96045,17721
5,96458,17310
5,96870,18282
5,97282,18089
5,97695,18125
5,98107,17534
5,98518,16643
5,98932,17028
5,99343,18023
5,99755,17424
6,00167,16946
6,00580,18311
6,00992,17130
6,01403,16955
6,01817,16994
6,02228,17525
6,02640,17069
6,03053,16428
6,03465,15966
6,03877,16977
6,04290,16056
6,04702,16065
6,05113,17906
6,05527,16634
6,05938,17210
6,06350,15767
6,06763,16871
6,07175,16639
6,07587,16884
6,08000,16162
6,08412,16662
6,08823,16629
6,09235,18202
6,09648,18026
6,10060,17396
6,10472,17747
6,10885,16513
6,11297,17162
6,11708,16271
6,12122,15978
6,12533,15727
6,12945,17311
6,13358,15631
6,13770,15971
6,14182,16013
6,14595,14584
6,15007,15487
6,15418,15556
6,15832,15971
6,16243,15595
6,16655,14453
6,17068,15409
6,17480,16641
6,17892,15801
6,18303,14976
6,18717,15683
6,19128,14925
6,19540,15093
6,19953,15023
6,20365,16074
6,20777,14505
6,21190,15200
6,21602,14462
6,22013,15100
6,22427,15397
6,22838,15057
6,23250,16653
6,23663,16000
6,24075,14943
6,24487,16424
6,24900,15259
6,25312,16198
6,25723,15061
6,26137,15153
6,26548,14861
6,26960,13956
6,27372,15543
6,27785,14154
6,28197,15509
6,28608,15526
6,29022,15384
6,29433,16438
6,29845,15554
6,30258,15468
6,30670,14166
6,31082,13790
6,31495,15444
6,31907,14697
6,32318,15070
6,32732,14440
6,33143,14607
6,33555,13449
6,33968,14073
6,34380,13108
6,34792,13821
6,35205,15137
6,35617,13777
6,36028,14530
6,36442,14165
6,36853,14271
6,37265,14397
6,37677,15413
6,38090,13922
6,38502,13939
6,38913,13547
6,39327,13769
6,39738,14153
6,40150,13106
6,40563,14147
6,40975,12792
6,41387,12996
6,41800,13127
6,42212,14249
6,42623,14538
6,43037,13167
6,43448,12701
6,43860,13479
6,44273,12879
6,44685,12574
6,45097,12499
6,45510,12512
6,45922,12870
6,46333,12328
6,46745,13172
6,47158,13658
6,47570,11459
6,47982,12215
6,48395,12365
6,48807,13253
6,49218,12745
6,49632,12029
6,50043,12408
6,50455,13062
6,50868,12757
6,51280,13018
6,51692,14378
6,52105,15851
6,52517,17973
6,52928,23326
6,53342,30688
6,53753,42244
6,54165,55521
6,54578,70750
6,54990,81196
6,55402,93482
6,55813,102493
6,56227,107421
6,56638,109006
6,57050,109364
6,57463,104597
6,57875,99885
6,58287,93730
6,58700,89489
6,59112,83462
6,59523,80304
6,59937,77567
6,60348,71335
6,60760,65749
6,61173,64166
6,61585,59865
6,61997,57977
6,62410,55624
6,62822,53081
6,63233,46400
6,63647,44872
6,64058,40646
6,64470,41436
6,64882,38077
6,65295,36624
6,65707,31948
6,66118,30654
6,66532,30445
6,66943,27393
6,67355,28563
6,67768,25017
6,68180,23501
6,68592,20986
6,69005,19626
6,69417,18771
6,69828,18067
6,70242,16802
6,70653,16682
6,71065,16370
6,71478,14909
6,71890,14764
6,72302,14473
6,72715,12802
6,73127,12405
6,73538,12746
6,73950,12296
6,74363,11312
6,74775,12071
6,75187,12081
6,75600,11763
6,76012,11478
6,76423,11348
6,76837,11535
6,77248,10666
6,77660,10946
6,78073,11004
6,78485,10270
6,78897,10716
6,79310,10162
6,79722,9235
6,80133,10045
6,80547,11011
6,80958,10276
6,81370,10759
6,81783,10159
6,82195,10246
6,82607,9819
6,83018,10236
6,83432,9555
6,83843,9470
6,84255,9848
6,84668,9971
6,85080,9618
6,85492,10104
6,85905,9739
6,86317,9905
6,86728,8761
6,87142,10078
6,87553,9098
6,87965,9230
6,88378,9833
6,88790,9616
6,89202,9083
6,89615,8877
6,90027,9040
6,90438,9147
6,90852,9577
6,91263,9891
6,91675,9829
6,92087,9163
6,92500,10223
6,92912,9690
6,93323,8605
6,93737,9239
6,94148,9331
6,94560,8947
6,94973,9316
6,95385,9589
6,95797,8849
6,96210,9573
6,96622,8543
6,97033,9401
6,97447,8906
6,97858,9138
6,98270,9278
6,98683,8960
6,99095,9823
6,99507,9589
6,99920,9390
7,00332,9505
7,00743,7766
7,01155,9014
7,01568,8883
7,01980,9927
7,02392,9856
7,02805,8600
7,03217,8720
7,03628,8876
7,04042,8823
7,04453,8255
7,04865,9145
7,05278,9168
7,05690,9436
7,06102,9173
7,06515,8526
7,06927,9470
7,07338,7733
7,07752,9435
7,08163,9666
7,08575,9245
7,08988,9066
7,09400,9411
7,09812,8695
7,10223,8460
7,10637,9110
7,11048,9724
7,11460,8861
7,11873,10303
7,12285,9340
7,12697,9303
7,13110,9108
7,13522,8510
7,13933,8842
7,14347,9468
7,14758,8477
7,15170,9581
7,15583,9175
7,15995,7939
7,16407,8439
7,16820,8510
7,17232,8332
7,17643,8669
7,18057,7891
7,18468,8906
7,18880,8510
7,19292,8916
7,19705,8934
7,20117,9356
7,20528,8161
7,20942,8200
7,21353,8357
7,21765,7586
7,22178,7861
7,22590,7686
7,23002,7465
7,23415,7773
7,23827,8456
7,24238,8373
7,24652,7851
7,25063,7570
7,25475,7810
7,25888,7952
7,26300,7695
7,26712,7830
7,27125,7833
7,27537,7148
7,27948,8794
7,28360,7883
7,28773,8233
7,29185,8086
7,29597,8104
7,30010,7361
7,30422,8216
7,30833,7281
7,31247,7704
7,31658,8233
7,32070,7687
7,32483,7876
7,32895,8299
7,33307,8151
7,33720,8158
7,34132,8616
7,34543,9014
7,34957,8086
7,35368,7790
7,35780,7653
7,36193,9028
7,36605,8477
7,37017,8806
7,37428,8094
7,37842,8454
7,38253,8241
7,38665,7724
7,39078,8662
7,39490,7158
7,39902,7416
7,40315,7724
7,40727,7736
7,41138,7180
7,41552,7927
7,41963,6881
7,42375,8511
7,42788,7112
7,43200,8242
7,43612,7318
7,44025,8535
7,44437,6948
7,44848,7777
7,45262,7275
7,45673,8145
7,46085,7735
7,46497,7353
7,46910,7636
7,47322,7351
7,47733,6876
7,48147,7518
7,48558,7040
7,48970,7546
7,49383,7231
7,49795,7471
7,50207,7624
7,50620,8141
7,51032,7738
7,51443,7117
7,51857,7957
7,52268,7727
7,52680,8082
7,53093,7858
7,53505,7285
7,53917,8709
7,54330,7357
7,54742,7852
7,55153,8980
7,55565,9578
7,55978,8416
7,56390,8945
7,56802,9131
7,57215,8462
7,57627,8511
7,58038,8868
7,58452,8782
7,58863,8537
7,59275,8873
7,59688,8002
7,60100,7810
7,60512,8807
7,60925,7281
7,61337,7994
7,61748,8018
7,62162,6488
7,62573,7087
7,62985,7499
7,63398,7868
7,63810,7637
7,64222,6393
7,64633,7439
7,65047,7471
7,65458,6787
7,65870,6850
7,66283,6570
7,66695,6781
7,67107,6793
7,67520,8430
7,67932,7282
7,68343,6976
7,68757,6002
7,69168,6674
7,69580,7242
7,69993,6369
7,70405,7276
7,70817,6190
7,71230,7029
7,71642,7123
7,72053,6401
7,72467,7182
7,72878,6154
7,73290,6912
7,73702,6355
7,74115,6291
7,74527,5681
7,74938,5996
7,75352,6161
7,75763,6224
7,76175,5799
7,76588,6200
7,77000,5607
7,77412,5842
7,77825,6616
7,78237,6496
7,78648,6360
7,79062,6229
7,79473,5892
7,79885,5944
7,80298,5700
7,80710,6552
7,81122,6026
7,81535,6276
7,81947,6223
7,82358,6619
7,82770,6364
7,83183,5536
7,83595,5862
7,84007,5234
7,84420,5799
7,84832,5970
7,85243,5676
7,85657,6241
7,86068,6202
7,86480,5946
7,86893,5618
7,87305,5935
7,87717,5375
7,88130,6063
7,88542,5460
7,88953,6397
7,89367,5992
7,89778,6557
7,90190,5342
7,90603,5649
7,91015,5298
7,91427,6510
7,91838,6015
7,92252,6174
7,92663,5353
7,93075,6313
7,93488,5579
7,93900,5268
7,94312,5761
7,94725,6091
7,95137,5869
7,95548,5385
7,95962,5579
7,96373,6176
7,96785,5933
7,97198,5421
7,97610,6142
7,98022,5313
7,98435,5724
7,98847,5875
7,99258,4970
7,99672,5411
8,00083,5634
8,00495,6034
8,00908,5722
8,01320,6027
8,01732,6647
8,02143,6946
8,02557,5882
8,02968,5984
8,03380,5489
8,03793,5837
8,04205,5981
8,04617,6126
8,05030,5909
8,05442,6178
8,05853,5765
8,06267,6087
8,06678,6093
8,07090,6671
8,07503,6072
8,07915,5382
8,08327,6133
8,08740,5420
8,09152,5960
8,09563,6154
8,09977,5941
8,10388,5770
8,10800,5681
8,11212,5402
8,11625,5755
8,12037,5941
8,12448,4912
8,12862,5422
8,13273,5171
8,13685,5320
8,14098,6139
8,14510,5283
8,14922,5001
8,15335,4760
8,15747,5315
8,16158,4600
8,16572,5224
8,16983,4708
8,17395,6274
8,17808,6015
8,18220,5669
8,18632,5634
8,19045,5273
8,19457,5730
8,19868,5434
8,20280,5524
8,20693,5255
8,21105,5527
8,21517,5271
8,21930,6054
8,22342,6010
8,22753,8974
8,23167,12446
8,23578,21153
8,23990,35245
8,24403,58556
8,24815,96305
8,25227,141613
8,25640,201793
8,26052,270705
8,26463,341692
8,26877,405641
8,27288,466287
8,27700,507277
8,28113,533760
8,28525,539308
8,28937,524017
8,29348,492854
8,29762,463098
8,30173,427919
8,30585,388637
8,30998,353027
8,31410,320616
8,31822,283695
8,32235,243787
8,32647,217812
8,33058,192371
8,33472,168939
8,33883,147848
8,34295,128507
8,34708,110498
8,35120,94979
8,35532,80418
8,35945,68865
8,36357,58320
8,36768,51009
8,37182,44086
8,37593,38934
8,38005,33401
8,38417,30480
8,38830,27752
8,39242,24703
8,39653,21919
8,40067,20532
8,40478,17803
8,40890,16437
8,41303,15979
8,41715,14599
8,42127,13168
8,42540,12637
8,42952,13075
8,43363,12013
8,43777,10637
8,44188,11394
8,44600,9917
8,45013,9875
8,45425,9900
8,45837,9173
8,46250,8396
8,46662,9092
8,47073,7957
8,47485,8099
8,47898,8319
8,48310,7702
8,48722,7484
8,49135,7300
8,49547,7452
8,49958,7018
8,50372,7442
8,50783,6422
8,51195,6090
8,51608,5653
8,52020,5639
8,52432,6517
8,52845,6278
8,53257,6170
8,53668,5421
8,54082,5150
8,54493,6338
8,54905,6269
8,55318,6142
8,55730,5828
8,56142,6037
8,56553,6020
8,56967,4666
8,57378,5866
8,57790,6124
8,58203,5984
8,58615,6285
8,59027,5856
8,59440,5124
8,59852,5277
8,60263,5278
8,60677,5170
8,61088,5136
8,61500,5651
8,61913,5721
8,62325,5324
8,62737,4840
8,63150,5982
8,63562,6206
8,63973,6153
8,64387,7501
8,64798,7773
8,65210,8144
8,65622,7436
8,66035,7434
8,66447,8151
8,66858,7015
8,67272,6562
8,67683,5292
8,68095,5850
8,68508,5676
8,68920,4663
8,69332,5480
8,69745,5225
8,70157,5457
8,70568,5409
8,70982,5703
8,71393,3986
8,71805,4971
8,72218,5741
8,72630,5263
8,73042,4772
8,73455,5384
8,73867,4599
8,74278,5104
8,74690,4893
8,75103,4277
8,75515,5757
8,75927,4565
8,76340,4833
8,76752,4913
8,77163,5152
8,77577,4741
8,77988,3630
8,78400,4571
8,78813,4424
8,79225,4853
8,79637,4837
8,80050,4101
8,80462,3693
8,80873,5122
8,81287,4478
8,81698,4458
8,82110,4034
8,82523,4634
8,82935,4143
8,83347,4327
8,83758,4179
8,84172,4725
8,84583,3880
8,84995,4124
8,85408,3908
8,85820,4874
8,86232,4634
8,86645,3858
8,87057,4665
8,87468,4649
8,87882,4362
8,88293,4296
8,88705,4539
8,89118,4097
8,89530,5033
8,89942,4300
8,90355,4488
8,90767,4332
8,91178,4559
8,91592,5232
8,92003,4538
8,92415,3928
8,92827,4531
8,93240,3844
8,93652,4335
8,94063,4264
8,94477,4541
8,94888,3930
8,95300,3463
8,95713,4263
8,96125,3999
8,96537,3626
8,96950,4547
8,97362,3913
8,97773,4846
8,98187,4274
8,98598,4362
8,99010,4156
8,99423,3248
8,99835,4381
9,00247,3880
9,00660,4389
9,01072,3930
9,01483,3671
9,01895,4092
9,02308,3538
9,02720,4141
9,03132,4832
9,03545,3921
9,03957,5030
9,04368,4520
9,04782,3699
9,05193,4319
9,05605,4188
9,06018,4375
9,06430,4159
9,06842,4483
9,07255,4679
9,07667,4351
9,08078,4628
9,08492,4039
9,08903,3712
9,09315,4181
9,09728,3966
9,10140,4062
9,10552,3755
9,10963,3923
9,11377,3419
9,11788,3378
9,12200,3481
9,12613,4032
9,13025,3763
9,13437,4139
9,13850,4192
9,14262,3888
9,14673,3946
9,15087,4222
9,15498,4245
9,15910,3709
9,16323,3640
9,16735,3455
9,17147,3038
9,17560,4095
9,17972,3662
9,18383,3625
9,18797,3314
9,19208,3373
9,19620,3474
9,20032,4180
9,20445,3771
9,20857,4254
9,21268,3783
9,21682,4354
9,22093,3588
9,22505,4288
9,22918,4633
9,23330,5590
9,23742,7339
9,24155,11683
9,24567,21786
9,24978,35894
9,25392,55520
9,25803,86867
9,26215,122882
9,26628,173082
9,27040,221315
9,27452,274330
9,27865,318392
9,28277,348153
9,28688,369118
9,29100,371078
9,29513,363168
9,29925,342922
9,30337,310632
9,30750,282756
9,31162,250475
9,31573,218550
9,31987,188754
9,32398,159574
9,32810,135740
9,33223,111129
9,33635,91983
9,34047,76406
9,34460,65077
9,34872,54087
9,35283,44118
9,35697,36605
9,36108,33179
9,36520,26451
9,36933,24363
9,37345,21858
9,37757,18434
9,38168,16833
9,38582,15054
9,38993,14871
9,39405,13394
9,39818,12214
9,40230,11701
9,40642,11831
9,41055,11215
9,41467,11719
9,41878,10902
9,42292,10168
9,42703,10879
9,43115,9051
9,43528,8358
9,43940,8342
9,44352,10031
9,44765,7851
9,45177,7616
9,45588,7272
9,46002,6613
9,46413,7403
9,46825,5958
9,47237,5653
9,47650,5679
9,48062,4975
9,48473,6391
9,48887,5977
9,49298,5564
9,49710,6557
9,50123,5069
9,50535,4709
9,50947,5259
9,51360,5076
9,51772,5134
9,52183,4980
9,52597,5010
9,53008,3987
9,53420,4775
9,53833,4185
9,54245,4310
9,54657,4262
9,55070,4401
9,55482,4542
9,55893,4162
9,56305,3704
9,56718,4397
9,57130,4461
9,57542,4123
9,57955,3733
9,58367,3630
9,58778,4509
9,59192,4122
9,59603,4027
9,60015,4021
9,60428,3725
9,60840,4449
9,61252,3690
9,61665,3597
9,62077,3608
9,62488,3705
9,62902,4275
9,63313,4157
9,63725,3601
9,64138,3436
9,64550,3790
9,64962,4161
9,65375,4149
9,65787,4440
9,66198,3584
9,66610,3808
9,67023,4391
9,67435,5102
9,67847,4329
9,68260,5219
9,68672,4794
9,69083,4195
9,69497,5497
9,69908,4422
9,70320,4521
9,70733,4270
9,71145,4055
9,71557,3831
9,71970,3612
9,72382,3778
9,72793,3679
9,73207,4051
9,73618,3590
9,74030,3608
9,74443,3617
9,74855,4456
9,75267,4131
9,75678,3674
9,76092,3324
9,76503,3477
9,76915,2993
9,77328,3489
9,77740,3694
9,78152,3491
9,78565,2989
9,78977,2837
9,79388,3114
9,79802,3370
9,80213,2956
9,80625,3222
9,81038,3069
9,81450,3393
9,81862,2862
9,82275,3043
9,82687,3527
9,83098,2858
9,83512,3474
9,83923,3380
9,84335,3375
9,84747,3727
9,85160,2720
9,85572,3228
9,85983,3903
9,86397,3438
9,86808,3494
9,87220,3203
9,87633,3561
9,88045,2786
9,88457,2907
9,88870,2958
9,89282,2942
9,89693,3244
9,90107,3147
9,90518,3047
9,90930,3220
9,91343,3368
9,91755,3052
9,92167,2759
9,92580,3419
9,92992,3726
9,93403,3482
9,93815,3635
9,94228,3014
9,94640,2884
9,95052,3107
9,95465,2927
9,95877,2910
9,96288,2961
9,96702,2775
9,97113,3033
9,97525,3208
9,97938,2918
9,98350,3075
9,98762,2778
9,99175,3117
9,99587,2971
9,99998,3014
10,00412,2969
10,00823,3349
10,01235,3454
10,01648,3360
10,02060,2624
10,02472,2968
10,02883,3186
10,03297,3223
10,03708,3086
10,04120,2468
10,04533,3198
10,04945,3000
10,05357,2407
10,05770,3058
10,06182,3270
10,06593,2468
10,07007,3073
10,07418,2791
10,07830,3159
10,08243,3165
10,08655,3523
10,09067,2775
10,09480,3174
10,09892,3007
10,10303,2733
10,10717,2703
10,11128,2776
10,11540,3301
10,11952,3383
10,12365,3165
10,12777,2775
10,13188,3353
10,13602,3321
10,14013,2749
10,14425,3517
10,14838,3224
10,15250,3030
10,15662,3195
10,16075,2707
10,16487,2688
10,16898,2987
10,17312,2703
10,17723,3119
10,18135,2985
10,18548,3183
10,18960,2742
10,19372,2640
10,19785,3314
10,20197,3822
10,20608,2877
10,21020,3543
10,21433,3187
10,21845,3792
10,22257,3116
10,22670,3311
10,23082,3107
10,23493,2680
10,23907,3556
10,24318,2717
10,24730,2848
10,25143,3514
10,25555,2810
10,25967,2640
10,26380,2924
10,26792,2739
10,27203,2525
10,27617,3350
10,28028,2949
10,28440,5269
10,28853,7474
10,29265,14543
10,29677,28987
10,30088,51944
10,30502,85373
10,30913,143106
10,31325,225517
10,31738,328040
10,32150,460317
10,32562,587186
10,32975,711941
10,33387,823704
10,33798,890578
10,34212,943024
10,34623,937088
10,35035,898508
10,35448,824686
10,35860,730094
10,36272,634022
10,36685,527033
10,37097,436657
10,37508,347335
10,37922,280815
10,38333,220501
10,38745,180074
10,39157,140764
10,39570,115067
10,39982,90652
10,40393,75925
10,40807,62473
10,41218,54085
10,41630,46679
10,42043,40337
10,42455,36257
10,42867,30891
10,43280,27092
10,43692,25736
10,44103,23011
10,44517,21408
10,44928,19365
10,45340,17454
10,45753,16475
10,46165,15488
10,46577,13843
10,46990,13144
10,47402,12191
10,47813,10981
10,48225,10238
10,48638,10200
10,49050,9523
10,49462,9390
10,49875,8762
10,50287,8368
10,50698,7073
10,51112,7402
10,51523,7090
10,51935,6516
10,52348,6975
10,52760,7782
10,53172,5847
10,53585,6121
10,53997,6645
10,54408,6443
10,54822,6283
10,55233,6015
10,55645,5480
10,56058,5524
10,56470,4389
10,56882,4534
10,57293,4806
10,57707,4992
10,58118,4797
10,58530,4648
10,58943,5034
10,59355,4379
10,59767,3807
10,60180,4608
10,60592,3718
10,61003,3780
10,61417,4027
10,61828,4245
10,62240,4320
10,62653,3689
10,63065,3490
10,63477,3762
10,63890,3252
10,64302,3969
10,64713,3838
10,65127,4157
10,65538,3673
10,65950,3287
10,66362,3558
10,66775,2919
10,67187,3583
10,67598,3104
10,68012,2702
10,68423,3717
10,68835,3168
10,69248,3251
10,69660,3431
10,70072,3960
10,70485,2865
10,70897,3492
10,71308,3132
10,71722,3340
10,72133,2769
10,72545,2550
10,72958,3183
10,73370,2908
10,73782,2658
10,74195,2554
10,74607,2689
10,75018,3208
10,75430,3035
10,75843,2912
10,76255,2838
10,76667,3089
10,77080,2511
10,77492,2170
10,77903,2614
10,78317,3334
10,78728,2882
10,79140,2647
10,79553,2517
10,79965,3092
10,80377,2720
10,80790,2768
10,81202,2882
10,81613,2289
10,82027,2738
10,82438,2941
10,82850,2515
10,83263,2800
10,83675,2543
10,84087,3152
10,84498,2971
10,84912,3381
10,85323,3297
10,85735,3334
10,86148,2778
10,86560,3036
10,86972,3295
10,87385,2985
10,87797,4012
10,88208,5577
10,88622,4887
10,89033,5757
10,89445,6047
10,89858,4647
10,90270,4812
10,90682,3624
10,91095,2841
10,91507,3277
10,91918,3425
10,92332,2492
10,92743,3498
10,93155,3074
10,93567,3715
10,93980,3614
10,94392,4691
10,94803,4793
10,95217,6214
10,95628,7245
10,96040,6310
10,96453,7322
10,96865,6613
10,97277,7047
10,97690,7552
10,98102,7105
10,98513,5618
10,98927,6170
10,99338,5775
10,99750,5144
11,00163,5140
11,00575,4479
11,00987,3556
11,01400,4572
11,01812,4435
11,02223,3485
11,02635,3017
11,03048,2886
11,03460,2357
11,03872,2807
11,04285,2618
11,04697,2956
11,05108,2607
11,05522,2637
11,05933,2486
11,06345,2522
11,06758,2331
11,07170,2613
11,07582,2485
11,07995,2088
11,08407,2244
11,08818,2321
11,09232,2431
11,09643,2355
11,10055,2385
11,10468,2761
11,10880,2084
11,11292,2445
11,11703,2747
11,12117,2257
11,12528,2880
11,12940,2828
11,13353,2218
11,13765,2122
11,14177,2100
11,14590,2391
11,15002,2274
11,15413,2149
11,15827,2347
11,16238,2730
11,16650,1963
11,17063,2150
11,17475,2117
11,17887,2120
11,18300,2220
11,18712,2552
11,19123,2037
11,19537,2270
11,19948,2088
11,20360,2216
11,20773,2078
11,21185,1989
11,21597,2401
11,22008,2731
11,22422,2282
11,22833,2044
11,23245,2284
11,23658,2354
11,24070,2428
11,24482,2372
11,24895,2500
11,25307,2174
11,25718,1958
11,26132,2285
11,26543,1937
11,26955,2244
11,27368,2092
11,27780,2468
11,28192,2305
11,28605,1884
11,29017,2333
11,29428,2257
11,29842,2015
11,30253,1923
11,30665,1750
11,31077,1788
11,31490,2388
11,31902,2167
11,32313,1648
11,32727,2163
11,33138,2062
11,33550,2376
11,33963,2563
11,34375,2107
11,34787,2713
11,35200,2988
11,35612,4000
11,36023,7629
11,36437,14740
11,36848,24958
11,37260,46585
11,37673,76192
11,38085,121700
11,38497,182769
11,38910,258099
11,39322,342481
11,39733,425461
11,40145,497674
11,40558,544792
11,40970,563243
11,41382,552752
11,41795,524476
11,42207,467805
11,42618,399085
11,43032,329654
11,43443,272140
11,43855,216732
11,44268,171007
11,44680,131678
11,45092,104361
11,45505,79550
11,45917,64766
11,46328,55298
11,46742,41465
11,47153,37412
11,47565,30621
11,47978,26240
11,48390,22172
11,48802,19493
11,49213,17567
11,49627,16066
11,50038,13945
11,50450,12605
11,50863,11920
11,51275,11484
11,51687,10290
11,52100,10198
11,52512,8116
11,52923,8895
11,53337,7851
11,53748,6293
11,54160,7426
11,54573,6205
11,54985,5985
11,55397,5659
11,55810,4574
11,56222,4992
11,56633,4045
11,57047,4559
11,57458,4079
11,57870,4349
11,58282,3663
11,58695,3917
11,59107,3968
11,59518,3252
11,59932,3822
11,60343,3759
11,60755,4366
11,61168,2971
11,61580,3544
11,61992,3492
11,62405,2985
11,62817,3212
11,63228,3463
11,63642,3486
11,64053,2954
11,64465,2520
11,64878,2371
11,65290,2563
11,65702,2617
11,66115,2606
11,66527,3139
11,66938,2190
11,67350,2298
11,67763,3121
11,68175,2650
11,68587,2729
11,69000,2465
11,69412,2738
11,69823,2536
11,70237,2169
11,70648,2572
11,71060,2697
11,71473,2375
11,71885,2498
11,72297,2134
11,72710,2355
11,73122,2071
11,73533,2694
11,73947,2287
11,74358,2093
11,74770,1969
11,75183,2123
11,75595,2472
11,76007,2008
11,76418,2722
11,76832,2456
11,77243,2201
11,77655,2183
11,78068,1858
11,78480,2070
11,78892,1864
11,79305,2019
11,79717,2158
11,80128,2082
11,80542,1815
11,80953,2386
11,81365,2358
11,81778,1856
11,82190,2137
11,82602,2315
11,83015,2024
11,83427,1791
11,83838,1960
11,84252,2156
11,84663,1773
11,85075,2006
11,85487,1968
11,85900,1935
11,86312,1955
11,86723,2195
11,87137,1963
11,87548,1363
11,87960,2116
11,88373,2387
11,88785,2190
11,89197,1734
11,89610,1634
11,90022,1927
11,90433,2021
11,90847,1858
11,91258,2688
11,91670,2910
11,92083,2818
11,92495,2597
11,92907,2636
11,93320,3606
11,93732,3566
11,94143,4119
11,94555,4608
11,94968,4021
11,95380,3310
11,95792,3446
11,96205,3737
11,96617,2893
11,97028,2769
11,97442,1996
11,97853,2478
11,98265,2363
11,98678,2295
11,99090,1959
11,99502,2148
11,99915,1492
12,00327,2075
12,00738,2049
12,01152,2153
12,01563,1600
12,01975,2055
12,02388,2083
12,02800,2962
12,03212,2658
12,03623,3282
12,04037,2766
12,04448,3209
12,04860,3106
12,05273,3692
12,05685,3980
12,06097,3722
12,06510,3121
12,06922,3800
12,07333,3345
12,07747,2871
12,08158,3336
12,08570,2557
12,08983,2608
12,09395,2149
12,09807,2098
12,10220,2190
12,10632,2133
12,11043,1694
12,11457,1645
12,11868,1961
12,12280,1416
12,12692,1913
12,13105,1623
12,13517,1209
12,13928,1608
12,14342,1189
12,14753,1772
12,15165,1702
12,15578,1750
12,15990,1640
12,16402,1471
12,16815,1124
12,17227,1543
12,17638,1639
12,18052,2183
12,18463,1244
12,18875,1740
12,19288,1645
12,19700,1479
12,20112,1481
12,20525,1610
12,20937,2351
12,21348,1669
12,21760,1744
12,22173,1603
12,22585,1710
12,22997,1970
12,23410,1719
12,23822,1850
12,24233,1944
12,24647,1557
12,25058,1667
12,25470,1428
12,25883,2084
12,26295,1177
12,26707,1295
12,27120,1306
12,27532,1855
12,27943,1489
12,28357,1805
12,28768,1735
12,29180,2115
12,29593,2023
12,30005,1392
12,30417,1950
12,30828,1469
12,31242,1227
12,31653,1667
12,32065,1447
12,32478,1763
12,32890,1633
12,33302,1623
12,33715,1707
12,34127,1271
12,34538,1397
12,34952,1181
12,35363,1462
12,35775,1879
12,36188,1772
12,36600,1706
12,37012,1456
12,37425,1419
12,37837,1702
12,38248,1398
12,38662,1598
12,39073,1794
12,39485,1706
12,39897,1622
12,40310,2017
12,40722,2141
12,41133,3269
12,41547,5318
12,41958,9161
12,42370,18669
12,42783,36687
12,43195,65608
12,43607,120999
12,44020,197461
12,44432,311466
12,44843,451878
12,45257,627963
12,45668,822414
12,46080,1015185
12,46493,1174528
12,46905,1285322
12,47317,1330452
12,47730,1275920
12,48142,1161552
12,48553,1019539
12,48965,849928
12,49378,681010
12,49790,522426
12,50202,406143
12,50615,311366
12,51027,236006
12,51438,186390
12,51852,146054
12,52263,118542
12,52675,95153
12,53088,77207
12,53500,66897
12,53912,55733
12,54325,49365
12,54737,42189
12,55148,37093
12,55562,33806
12,55973,29442
12,56385,26885
12,56798,24314
12,57210,21276
12,57622,19319
12,58033,18615
12,58447,17326
12,58858,16023
12,59270,14637
12,59683,13948
12,60095,14025
12,60507,13081
12,60920,12984
12,61332,12453
12,61743,12541
12,62157,12893
12,62568,13516
12,62980,11511
12,63393,11846
12,63805,10626
12,64217,9952
12,64630,9757
12,65042,8331
12,65453,8017
12,65867,7692
12,66278,6047
12,66690,6558
12,67102,5896
12,67515,5490
12,67927,4907
12,68338,4379
12,68752,4150
12,69163,4911
12,69575,3657
12,69988,4422
12,70400,3989
12,70812,3056
12,71225,3311
12,71637,3333
12,72048,3583
12,72462,3332
12,72873,3229
12,73285,2726
12,73698,3340
12,74110,2714
12,74522,3093
12,74935,3163
12,75347,3067
12,75758,3144
12,76172,2608
12,76583,2043
12,76995,2040
12,77407,2314
12,77820,2616
12,78232,2182
12,78643,1997
12,79057,2459
12,79468,2456
12,79880,2051
12,80293,2074
12,80705,2247
12,81117,2027
12,81530,2325
12,81942,2199
12,82353,2027
12,82767,2628
12,83178,1844
12,83590,2311
12,84003,2153
12,84415,2132
12,84827,2603
12,85240,2672
12,85652,2119
12,86063,1798
12,86475,2149
12,86888,2506
12,87300,2452
12,87712,1870
12,88125,1940
12,88537,1812
12,88948,1747
12,89362,1959
12,89773,1637
12,90185,2035
12,90598,2054
12,91010,1528
12,91422,2082
12,91835,1370
12,92247,1637
12,92658,1899
12,93072,2285
12,93483,2065
12,93895,1804
12,94308,2143
12,94720,1478
12,95132,1793
12,95543,1854
12,95957,2365
12,96368,1766
12,96780,2629
12,97193,3112
12,97605,2267
12,98017,2361
12,98430,2960
12,98842,3071
12,99253,2835
12,99667,3258
13,00078,2800
13,00490,2742
13,00903,2454
13,01315,2554
13,01727,2490
13,02140,2955
13,02552,3702
13,02963,3689
13,03377,4076
13,03788,4615
13,04200,4409
13,04612,3376
13,05025,2551
13,05437,2137
13,05848,1754
13,06262,1559
13,06673,1993
13,07085,1799
13,07498,1586
13,07910,1404
13,08322,1462
13,08735,1249
13,09147,1816
13,09558,1739
13,09972,1568
13,10383,1349
13,10795,1275
13,11208,1214
13,11620,1441
13,12032,1157
13,12445,1200
13,12857,1144
13,13268,1609
13,13680,2240
13,14093,2044
13,14505,1708
13,14917,2288
13,15330,3027
13,15742,5455
13,16153,11641
13,16567,22727
13,16978,44744
13,17390,78329
13,17803,124502
13,18215,188712
13,18627,273272
13,19040,368688
13,19452,460669
13,19863,533886
13,20277,592050
13,20688,605724
13,21100,584979
13,21513,554654
13,21925,483825
13,22337,412616
13,22748,339851
13,23162,277797
13,23573,213751
13,23985,167337
13,24398,130791
13,24810,102688
13,25222,78979
13,25635,63495
13,26047,50278
13,26458,43626
13,26872,39161
13,27283,30557
13,27695,24911
13,28108,25403
13,28520,21084
13,28932,19691
13,29345,16612
13,29757,14062
13,30168,12547
13,30582,11931
13,30993,11149
13,31405,9618
13,31817,7668
13,32230,8824
13,32642,6325
13,33053,7342
13,33467,6280
13,33878,6124
13,34290,5762
13,34703,4647
13,35115,3993
13,35527,4593
13,35940,4472
13,36352,3323
13,36763,4158
13,37177,4238
13,37588,3581
13,38000,2418
13,38413,2733
13,38825,2428
13,39237,3591
13,39650,2511
13,40062,2352
13,40473,2322
13,40885,2761
13,41298,1868
13,41710,2405
13,42122,1904
13,42535,2473
13,42947,2306
13,43358,1859
13,43772,2122
13,44183,1727
13,44595,2562
13,45008,2030
13,45420,3714
13,45832,6036
13,46245,12716
13,46657,23256
13,47068,42586
13,47482,76561
13,47893,125426
13,48305,197759
13,48718,293762
13,49130,395158
13,49542,504699
13,49953,601642
13,50367,661279
13,50778,697496
13,51190,683866
13,51603,646554
13,52015,565015
13,52427,478514
13,52840,389211
13,53252,301930
13,53663,231661
13,54077,177959
13,54488,136997
13,54900,108050
13,55313,82189
13,55725,66734
13,56137,53770
13,56550,44312
13,56962,36604
13,57373,32446
13,57787,25863
13,58198,22866
13,58610,20347
13,59022,18495
13,59435,15953
13,59847,15055
13,60258,14025
13,60672,12379
13,61083,12839
13,61495,10122
13,61908,9853
13,62320,8937
13,62732,8754
13,63145,8803
13,63557,6475
13,63968,6216
13,64382,5984
13,64793,5609
13,65205,5160
13,65618,4630
13,66030,4508
13,66442,4919
13,66855,4074
13,67267,4268
13,67678,4855
13,68090,3716
13,68503,3988
13,68915,3517
13,69327,2654
13,69740,3687
13,70152,3615
13,70563,3477
13,70977,2634
13,71388,3368
13,71800,3147
13,72213,2968
13,72625,2930
13,73037,3178
13,73450,2209
13,73862,2934
13,74273,2491
13,74687,2718
13,75098,1801
13,75510,2685
13,75923,2208
13,76335,2658
13,76747,2115
13,77158,2749
13,77572,2099
13,77983,2349
13,78395,2225
13,78808,2257
13,79220,2147
13,79632,1781
13,80045,1755
13,80457,2189
13,80868,2399
13,81282,1995
13,81693,1563
13,82105,2377
13,82518,1828
13,82930,1930
13,83342,2203
13,83755,1657
13,84167,1396
13,84578,1794
13,84992,2388
13,85403,1634
13,85815,1964
13,86227,2128
13,86640,2215
13,87052,2079
13,87463,1774
13,87877,2316
13,88288,1922
13,88700,2483
13,89113,1820
13,89525,1494
13,89937,1951
13,90350,1846
13,90762,2298
13,91173,1911
13,91587,2002
13,91998,1869
13,92410,1830
13,92823,2534
13,93235,2000
13,93647,1595
13,94060,1543
13,94472,1335
13,94883,1723
13,95295,2171
13,95708,1856
13,96120,2077
13,96532,1669
13,96945,1880
13,97357,1960
13,97768,2188
13,98182,1573
13,98593,1673
13,99005,1411
13,99418,1741
13,99830,2220
14,00242,1971
14,00655,1749
14,01067,1642
14,01478,1182
14,01892,1712
14,02303,1079
14,02715,1492
14,03128,1908
14,03540,1443
14,03952,1232
14,04363,2087
14,04777,1477
14,05188,1655
14,05600,1855
14,06013,1377
14,06425,1603
14,06837,992
14,07250,1653
14,07662,1470
14,08073,1209
14,08487,1568
14,08898,1834
14,09310,1988
14,09723,1469
14,10135,1479
14,10547,2087
14,10960,1467
14,11372,1826
14,11783,2427
14,12197,1431
14,12608,1340
14,13020,1598
14,13432,1422
14,13845,1625
14,14257,1517
14,14668,1478
14,15082,1156
14,15493,1345
14,15905,1055
14,16318,1741
14,16730,1594
14,17142,1727
14,17555,1975
14,17967,2733
14,18378,5669
14,18792,8035
14,19203,18782
14,19615,38073
14,20028,68100
14,20440,111717
14,20852,177089
14,21265,262577
14,21677,352721
14,22088,457970
14,22500,545407
14,22913,618659
14,23325,659681
14,23737,656157
14,24150,627838
14,24562,573026
14,24973,486965
14,25387,405219
14,25798,322014
14,26210,251303
14,26623,194145
14,27035,152877
14,27447,115519
14,27860,90867
14,28272,72732
14,28683,58180
14,29097,48641
14,29508,38779
14,29920,34310
14,30333,28660
14,30745,25270
14,31157,20944
14,31570,17830
14,31982,17156
14,32393,15108
14,32805,13837
14,33218,11448
14,33630,11211
14,34042,8973
14,34455,9696
14,34867,9259
14,35278,7140
14,35692,6538
14,36103,5711
14,36515,6058
14,36928,5080
14,37340,5427
14,37752,5261
14,38165,5045
14,38577,4719
14,38988,4491
14,39402,5013
14,39813,4013
14,40225,3164
14,40638,3536
14,41050,3052
14,41462,3624
14,41873,3092
14,42287,3919
14,42698,2816
14,43110,3179
14,43523,1964
14,43935,1937
14,44347,2210
14,44760,2815
14,45172,2368
14,45583,3154
14,45997,4525
14,46408,7874
14,46820,16748
14,47233,33070
14,47645,61847
14,48057,116824
14,48470,205580
14,48882,341088
14,49293,514174
14,49707,741471
14,50118,1010984
14,50530,1332570
14,50942,1632844
14,51355,1918016
14,51767,2155354
14,52178,2268853
14,52592,2254553
14,53003,2107858
14,53415,1836981
14,53828,1504197
14,54240,1185822
14,54652,903510
14,55065,677479
14,55477,498879
14,55888,379106
14,56302,286067
14,56713,226811
14,57125,179668
14,57538,149700
14,57950,118966
14,58362,103703
14,58775,91204
14,59187,75860
14,59598,68992
14,60010,61674
14,60423,54557
14,60835,47968
14,61247,43051
14,61660,37981
14,62072,34853
14,62483,34136
14,62897,31214
14,63308,27793
14,63720,26170
14,64133,23515
14,64545,21374
14,64957,20097
14,65370,17163
14,65782,16584
14,66193,16616
14,66607,15429
14,67018,14778
14,67430,13076
14,67843,12035
14,68255,12184
14,68667,11728
14,69078,11077
14,69492,9565
14,69903,9043
14,70315,9546
14,70728,8239
14,71140,9699
14,71552,8013
14,71965,7654
14,72377,6422
14,72788,6927
14,73202,6909
14,73613,6489
14,74025,5469
14,74438,6291
14,74850,5705
14,75262,5079
14,75675,5598
14,76087,4042
14,76498,4964
14,76912,4719
14,77323,4731
14,77735,4411
14,78147,3886
14,78560,3948
14,78972,3824
14,79383,3000
14,79797,3564
14,80208,3044
14,80620,3641
14,81033,3506
14,81445,2899
14,81857,3551
14,82270,3300
14,82682,3017
14,83093,3131
14,83507,2847
14,83918,2950
14,84330,2192
14,84743,2958
14,85155,2899
14,85567,2400
14,85980,2525
14,86392,2250
14,86803,2276
14,87215,2817
14,87628,3009
14,88040,2412
14,88452,2654
14,88865,2511
14,89277,3173
14,89688,2852
14,90102,3508
14,90513,2708
14,90925,3222
14,91338,2613
14,91750,3299
14,92162,2769
14,92575,2001
14,92987,2480
14,93398,2419
14,93812,2787
14,94223,2186
14,94635,1447
14,95048,2224
14,95460,2087
14,95872,2092
14,96283,2335
14,96697,1659
14,97108,2287
14,97520,2327
14,97933,2001
14,98345,2390
14,98757,3350
14,99170,2483
14,99582,2793
14,99993,2791
15,00407,2975
15,00818,2763
15,01230,2655
15,01643,2759
15,02055,2445
15,02467,2821
15,02880,1514
15,03292,1946
15,03703,2430
15,04117,2749
15,04528,3948
15,04940,5347
15,05352,12715
15,05765,26785
15,06177,47307
15,06588,84639
15,07002,142816
15,07413,218716
15,07825,316074
15,08238,421923
15,08650,537163
15,09062,621392
15,09475,684327
15,09887,698060
15,10298,676434
15,10712,625002
15,11123,553311
15,11535,461705
15,11948,373412
15,12360,294715
15,12772,231802
15,13185,176673
15,13597,140580
15,14008,109617
15,14420,87925
15,14833,71230
15,15245,59566
15,15657,46762
15,16070,40782
15,16482,34106
15,16893,29117
15,17307,25832
15,17718,22019
15,18130,19735
15,18543,17907
15,18955,15096
15,19367,13855
15,19780,14595
15,20192,13521
15,20603,12301
15,21017,12635
15,21428,12624
15,21840,12964
15,22253,12258
15,22665,11758
15,23077,11252
15,23488,9934
15,23902,11640
15,24313,10701
15,24725,9576
15,25138,7453
15,25550,7669
15,25962,5917
15,26375,6885
15,26787,5088
15,27198,4826
15,27612,4615
15,28023,4157
15,28435,3948
15,28848,3697
15,29260,4575
15,29672,3912
15,30085,2909
15,30497,3835
15,30908,2734
15,31322,2873
15,31733,3227
15,32145,2893
15,32557,2661
15,32970,2982
15,33382,2805
15,33793,2159
15,34207,3523
15,34618,2373
15,35030,3311
15,35443,1427
15,35855,1929
15,36267,2105
15,36680,2897
15,37092,2630
15,37503,1722
15,37917,2720
15,38328,2477
15,38740,2402
15,39153,1841
15,39565,1954
15,39977,1372
15,40390,2357
15,40802,2070
15,41213,2068
15,41625,2190
15,42038,2448
15,42450,2342
15,42862,2551
15,43275,2453
15,43687,5214
15,44098,10427
15,44512,20609
15,44923,36387
15,45335,68986
15,45748,112336
15,46160,184207
15,46572,281460
15,46985,399203
15,47397,522997
15,47808,633038
15,48222,722599
15,48633,788300
15,49045,791098
15,49458,754533
15,49870,658821
15,50282,564035
15,50693,460344
15,51107,357870
15,51518,276592
15,51930,211044
15,52343,161436
15,52755,122905
15,53167,93295
15,53580,76064
15,53992,61105
15,54403,51556
15,54817,42392
15,55228,34981
15,55640,32068
15,56053,27385
15,56465,24053
15,56877,20695
15,57290,18524
15,57702,17896
15,58113,16417
15,58527,14886
15,58938,12437
15,59350,11358
15,59762,12027
15,60175,10708
15,60587,9432
15,60998,9566
15,61412,8300
15,61823,7072
15,62235,7816
15,62648,5623
15,63060,6435
15,63472,6778
15,63885,7602
15,64297,6506
15,64708,5957
15,65122,5918
15,65533,5977
15,65945,5194
15,66358,5732
15,66770,5771
15,67182,4823
15,67595,4456
15,68007,5154
15,68418,4385
15,68830,4333
15,69243,3671
15,69655,3578
15,70067,4271
15,70480,3081
15,70892,3576
15,71303,3418
15,71717,3220
15,72128,3211
15,72540,3237
15,72953,2873
15,73365,3492
15,73777,2691
15,74190,2732
15,74602,3348
15,75013,3433
15,75427,3300
15,75838,2854
15,76250,3542
15,76663,3225
15,77075,3337
15,77487,3282
15,77898,2788
15,78312,2917
15,78723,3007
15,79135,2360
15,79548,2643
15,79960,1988
15,80372,1875
15,80785,2784
15,81197,2978
15,81608,1697
15,82022,2428
15,82433,2433
15,82845,2748
15,83258,1866
15,83670,1572
15,84082,2294
15,84495,2562
15,84907,1579
15,85318,2164
15,85732,2415
15,86143,2637
15,86555,1997
15,86967,2535
15,87380,1847
15,87792,1737
15,88203,1463
15,88617,2210
15,89028,1747
15,89440,1512
15,89853,1995
15,90265,1887
15,90677,2202
15,91090,1883
15,91502,1664
15,91913,1491
15,92327,2329
15,92738,1613
15,93150,2141
15,93563,2015
15,93975,1817
15,94387,2477
15,94800,2021
15,95212,2523
15,95623,1875
15,96037,1480
15,96448,2686
15,96860,2265
15,97272,1724
15,97685,2045
15,98097,2047
15,98508,1834
15,98922,2133
15,99333,1934
15,99745,2009
16,00158,3424
16,00570,4531
16,00982,9525
16,01395,19503
16,01807,37120
16,02218,68313
16,02632,118927
16,03043,190668
16,03455,287470
16,03868,399449
16,04280,520362
16,04692,627904
16,05105,709826
16,05517,759003
16,05928,753876
16,06340,711506
16,06753,643118
16,07165,539101
16,07577,437656
16,07990,351517
16,08402,274751
16,08813,208741
16,09227,161312
16,09638,123702
16,10050,95542
16,10463,78046
16,10875,61387
16,11287,51922
16,11700,42641
16,12112,39054
16,12523,32582
16,12937,28142
16,13348,24177
16,13760,21507
16,14173,19116
16,14585,16856
16,14997,15725
16,15408,16630
16,15822,13318
16,16233,12501
16,16645,11543
16,17058,11142
16,17470,11069
16,17882,9617
16,18295,9465
16,18707,8769
16,19118,8031
16,19532,6956
16,19943,6407
16,20355,7237
16,20768,6402
16,21180,6497
16,21592,5721
16,22005,5831
16,22417,6138
16,22828,4272
16,23242,5805
16,23653,6534
16,24065,7223
16,24477,7866
16,24890,9699
16,25302,11461
16,25713,14034
16,26127,15604
16,26538,17079
16,26950,15132
16,27363,15928
16,27775,15495
16,28187,13880
16,28600,12562
16,29012,11566
16,29423,9327
16,29837,8371
16,30248,7189
16,30660,5633
16,31073,6177
16,31485,5485
16,31897,5296
16,32310,4622
16,32722,5394
16,33133,3571
16,33545,4180
16,33958,2729
16,34370,3696
16,34782,2741
16,35195,3502
16,35607,3139
16,36018,3627
16,36432,3522
16,36843,3147
16,37255,4758
16,37668,7126
16,38080,13895
16,38492,27712
16,38905,52150
16,39317,94871
16,39728,162474
16,40142,262143
16,40553,397966
16,40965,566486
16,41378,772220
16,41790,1002068
16,42202,1243477
16,42613,1448620
16,43027,1605776
16,43438,1680186
16,43850,1652719
16,44263,1533567
16,44675,1326013
16,45087,1101231
16,45500,864480
16,45912,662657
16,46323,500128
16,46737,374314
16,47148,284584
16,47560,225328
16,47973,177385
16,48385,140105
16,48797,115426
16,49210,96209
16,49622,84140
16,50033,69905
16,50447,64862
16,50858,56044
16,51270,47997
16,51682,43169
16,52095,39723
16,52507,35875
16,52918,32313
16,53332,30758
16,53743,27426
16,54155,24869
16,54568,22913
16,54980,20348
16,55392,20389
16,55805,18492
16,56217,17909
16,56628,15967
16,57042,14528
16,57453,14329
16,57865,13237
16,58278,12199
16,58690,12294
16,59102,10880
16,59515,10438
16,59927,9520
16,60338,8935
16,60750,9723
16,61163,8292
16,61575,7828
16,61987,8660
16,62400,7928
16,62812,6600
16,63223,6011
16,63637,6987
16,64048,5950
16,64460,7417
16,64873,5522
16,65285,6491
16,65697,5280
16,66110,5733
16,66522,5537
16,66933,4888
16,67347,4401
16,67758,4592
16,68170,5068
16,68583,5261
16,68995,5891
16,69407,9058
16,69818,14055
16,70232,24357
16,70643,47312
16,71055,84448
16,71468,136371
16,71880,208060
16,72292,298283
16,72705,422397
16,73117,539859
16,73528,647046
16,73942,726432
16,74353,793294
16,74765,801396
16,75178,749457
16,75590,671196
16,76002,576838
16,76415,481593
16,76827,381761
16,77238,295619
16,77652,231253
16,78063,179731
16,78475,139319
16,78887,108537
16,79300,89343
16,79712,69868
16,80123,59433
16,80537,50814
16,80948,42223
16,81360,37542
16,81773,31515
16,82185,29690
16,82597,25929
16,83010,24144
16,83422,20755
16,83833,18960
16,84247,17142
16,84658,17517
16,85070,17096
16,85483,22026
16,85895,28264
16,86307,45161
16,86720,79550
16,87132,131770
16,87543,209584
16,87955,331555
16,88368,480244
16,88780,666943
16,89192,888754
16,89605,1115539
16,90017,1329362
16,90428,1504228
16,90842,1580001
16,91253,1573167
16,91665,1466112
16,92078,1292402
16,92490,1081454
16,92902,872365
16,93315,678025
16,93727,520688
16,94138,397818
16,94552,300802
16,94963,231460
16,95375,185285
16,95788,150923
16,96200,125561
16,96612,103821
16,97023,89225
16,97437,77607
16,97848,70707
16,98260,60871
16,98673,54086
16,99085,48045
16,99497,43266
16,99910,40133
17,00322,37338
17,00733,36601
17,01147,33363
17,01558,32405
17,01970,32688
17,02383,26317
17,02795,26230
17,03207,22516
17,03620,20677
17,04032,18464
17,04443,17632
17,04857,15053
17,05268,14136
17,05680,13602
17,06092,13748
17,06505,12690
17,06917,12820
17,07328,11858
17,07742,11665
17,08153,11479
17,08565,11037
17,08978,11000
17,09390,8691
17,09802,8266
17,10215,10410
17,10627,7125
17,11038,8493
17,11452,7518
17,11863,6963
17,12275,8638
17,12688,7107
17,13100,5854
17,13512,5776
17,13925,5511
17,14337,6254
17,14748,6034
17,15160,5573
17,15573,5861
17,15985,5267
17,16397,5755
17,16810,4700
17,17222,4616
17,17633,4457
17,18047,4655
17,18458,4550
17,18870,4055
17,19283,3951
17,19695,3862
17,20107,4310
17,20520,4462
17,20932,4253
17,21343,4854
17,21757,5337
17,22168,8298
17,22580,13407
17,22993,26632
17,23405,49552
17,23817,82707
17,24228,140236
17,24642,219244
17,25053,322256
17,25465,435139
17,25878,553024
17,26290,655618
17,26702,731298
17,27115,752959
17,27527,732160
17,27938,667875
17,28352,578320
17,28763,487695
17,29175,395261
17,29588,307630
17,30000,236803
17,30412,186900
17,30825,145638
17,31237,116614
17,31648,95336
17,32062,76742
17,32473,63860
17,32885,56392
17,33297,49912
17,33710,41870
17,34122,35265
17,34533,31379
17,34947,28846
17,35358,25410
17,35770,22466
17,36183,21488
17,36595,19782
17,37007,17998
17,37420,16001
17,37832,14422
17,38243,12988
17,38657,12239
17,39068,11222
17,39480,11624
17,39893,11717
17,40305,9971
17,40717,9281
17,41130,8300
17,41542,7808
17,41953,7683
17,42365,8640
17,42778,6934
17,43190,7472
17,43602,6212
17,44015,7205
17,44427,6456
17,44838,6708
17,45252,7434
17,45663,6976
17,46075,6746
17,46488,8433
17,46900,6640
17,47312,6984
17,47725,6417
17,48137,4770
17,48548,4726
17,48962,5189
17,49373,4814
17,49785,5819
17,50198,6237
17,50610,4641
17,51022,6532
17,51435,5042
17,51847,4526
17,52258,6936
17,52670,5457
17,53083,4458
17,53495,4766
17,53907,5475
17,54320,3957
17,54732,4726
17,55143,4900
17,55557,5696
17,55968,4819
17,56380,4680
17,56793,4576
17,57205,4372
17,57617,3801
17,58030,4201
17,58442,6049
17,58853,8009
17,59267,11855
17,59678,20372
17,60090,37144
17,60503,71392
17,60915,115004
17,61327,183898
17,61738,280718
17,62152,377642
17,62563,495975
17,62975,589579
17,63388,675306
17,63800,720578
17,64212,704051
17,64625,661066
17,65037,594234
17,65448,496452
17,65862,410468
17,66273,324840
17,66685,250881
17,67098,198565
17,67510,153816
17,67922,120392
17,68335,96664
17,68747,76648
17,69158,62113
17,69572,51907
17,69983,44072
17,70395,39478
17,70807,34826
17,71220,29467
17,71632,28027
17,72043,24871
17,72457,20471
17,72868,20904
17,73280,18076
17,73693,16520
17,74105,15352
17,74517,14458
17,74930,15669
17,75342,13538
17,75753,12346
17,76167,12173
17,76578,12591
17,76990,11111
17,77403,11943
17,77815,11057
17,78227,9071
17,78640,10441
17,79052,9722
17,79463,9510
17,79875,8305
17,80288,6317
17,80700,7081
17,81112,6699
17,81525,7773
17,81937,6915
17,82348,6644
17,82762,6587
17,83173,4959
17,83585,6169
17,83998,5046
17,84410,5742
17,84822,4932
17,85235,4831
17,85647,4500
17,86058,4965
17,86472,4807
17,86883,4915
17,87295,4062
17,87708,4733
17,88120,3291
17,88532,4046
17,88943,2754
17,89357,3075
17,89768,5119
17,90180,4505
17,90593,3632
17,91005,3049
17,91417,4275
17,91830,4693
17,92242,3736
17,92653,4098
17,93067,4392
17,93478,3416
17,93890,2894
17,94303,3083
17,94715,3906
17,95127,3934
17,95540,3988
17,95952,3456
17,96363,3108
17,96777,4186
17,97188,3438
17,97600,3443
17,98012,3169
17,98425,3551
17,98837,3128
17,99248,2976
17,99662,3230
18,00073,2911
18,00485,3396
18,00898,3442
18,01310,2605
18,01722,4013
18,02135,3507
18,02547,3281
18,02958,3222
18,03372,3630
18,03783,3193
18,04195,3657
18,04608,2467
18,05020,2763
18,05432,2707
18,05845,3168
18,06257,2986
18,06668,3445
18,07080,3038
18,07493,3353
18,07905,3245
18,08317,2960
18,08730,2553
18,09142,3495
18,09553,3126
18,09967,3434
18,10378,6123
18,10790,8961
18,11203,17238
18,11615,29486
18,12027,51212
18,12440,91280
18,12852,144363
18,13263,218577
18,13677,310446
18,14088,415350
18,14500,512063
18,14913,597805
18,15325,659400
18,15737,697522
18,16148,722718
18,16562,738829
18,16973,764696
18,17385,825308
18,17798,911061
18,18210,1050372
18,18622,1201916
18,19035,1411551
18,19447,1620864
18,19858,1796999
18,20272,1907195
18,20683,1875110
18,21095,1763206
18,21508,1546253
18,21920,1296899
18,22332,1030704
18,22745,788426
18,23157,602598
18,23568,450236
18,23982,350730
18,24393,273689
18,24805,226665
18,25217,187282
18,25630,152689
18,26042,133561
18,26453,113290
18,26867,100158
18,27278,88271
18,27690,80530
18,28103,73151
18,28515,63762
18,28927,60381
18,29340,55697
18,29752,53299
18,30163,49231
18,30577,48963
18,30988,46607
18,31400,46384
18,31813,46783
18,32225,44478
18,32637,40115
18,33050,41239
18,33462,38555
18,33873,35096
18,34285,31591
18,34698,31515
18,35110,28312
18,35522,25574
18,35935,23968
18,36347,21968
18,36758,21567
18,37172,17976
18,37583,17362
18,37995,16958
18,38408,16154
18,38820,15715
18,39232,13542
18,39645,12899
18,40057,13302
18,40468,11596
18,40882,12108
18,41293,12492
18,41705,12359
18,42118,11099
18,42530,11770
18,42942,14140
18,43353,15905
18,43767,22872
18,44178,35372
18,44590,60457
18,45003,95685
18,45415,148771
18,45827,223672
18,46240,313332
18,46652,410735
18,47063,507962
18,47477,578791
18,47888,631407
18,48300,627491
18,48713,591564
18,49125,540989
18,49537,459638
18,49950,383853
18,50362,308273
18,50773,245751
18,51187,192133
18,51598,152458
18,52010,116460
18,52422,92951
18,52835,77817
18,53247,64804
18,53658,52918
18,54072,44987
18,54483,40835
18,54895,36639
18,55308,32202
18,55720,28159
18,56132,25396
18,56545,24111
18,56957,22269
18,57368,21458
18,57782,20342
18,58193,18687
18,58605,18697
18,59018,19096
18,59430,23543
18,59842,29192
18,60255,43077
18,60667,65575
18,61078,109366
18,61490,172197
18,61903,251378
18,62315,355002
18,62727,477235
18,63140,602016
18,63552,713410
18,63963,798274
18,64377,830030
18,64788,834331
18,65200,786623
18,65613,680603
18,66025,571493
18,66437,466308
18,66850,368969
18,67262,288542
18,67673,221187
18,68087,174404
18,68498,141792
18,68910,116829
18,69323,94264
18,69735,79770
18,70147,67897
18,70558,58188
18,70972,49875
18,71383,44091
18,71795,40765
18,72208,36335
18,72620,33885
18,73032,30914
18,73445,28564
18,73857,26884
18,74268,24687
18,74682,23116
18,75093,21128
18,75505,20177
18,75918,18443
18,76330,17078
18,76742,16973
18,77155,14408
18,77567,15663
18,77978,16042
18,78392,13855
18,78803,15132
18,79215,12857
18,79627,13406
18,80040,11650
18,80452,10939
18,80863,11232
18,81277,10836
18,81688,10715
18,82100,9390
18,82513,11204
18,82925,9583
18,83337,11406
18,83750,13470
18,84162,13648
18,84573,13822
18,84987,13433
18,85398,11632
18,85810,10910
18,86223,9705
18,86635,8338
18,87047,8128
18,87460,7922
18,87872,8394
18,88283,8375
18,88695,6437
18,89108,7019
18,89520,6651
18,89932,7433
18,90345,6679
18,90757,6888
18,91168,7046
18,91582,5671
18,91993,6584
18,92405,5717
18,92818,5894
18,93230,6469
18,93642,5487
18,94055,7024
18,94467,6076
18,94878,5093
18,95292,5255
18,95703,6855
18,96115,5334
18,96528,5795
18,96940,6281
18,97352,7483
18,97763,11534
18,98177,16291
18,98588,28366
18,99000,49744
18,99413,84143
18,99825,143785
19,00237,219098
19,00650,328785
19,01062,464236
19,01473,602410
19,01887,742524
19,02298,864531
19,02710,943148
19,03123,945271
19,03535,905008
19,03947,808525
19,04360,681870
19,04772,550490
19,05183,427748
19,05597,331363
19,06008,258071
19,06420,199795
19,06832,161130
19,07245,131985
19,07657,101092
19,08068,90072
19,08482,74334
19,08893,67229
19,09305,56909
19,09718,53617
19,10130,47220
19,10542,42076
19,10955,39041
19,11367,34967
19,11778,32114
19,12192,30296
19,12603,29724
19,13015,27301
19,13428,26541
19,13840,24201
19,14252,22399
19,14665,23381
19,15077,20825
19,15488,20315
19,15902,19908
19,16313,19071
19,16725,20437
19,17137,16067
19,17550,15162
19,17962,14825
19,18373,15208
19,18787,14551
19,19198,13634
19,19610,11814
19,20023,11480
19,20435,10674
19,20847,11644
19,21260,11980
19,21672,10919
19,22083,9689
19,22497,10576
19,22908,10508
19,23320,10989
19,23733,9909
19,24145,9544
19,24557,9526
19,24970,9760
19,25382,9050
19,25793,10693
19,26205,9103
19,26618,8487
19,27030,8040
19,27442,9213
19,27855,9727
19,28267,9300
19,28678,10217
19,29092,13705
19,29503,19845
19,29915,31241
19,30328,53946
19,30740,89667
19,31152,145875
19,31565,224146
19,31977,320866
19,32388,429573
19,32802,535543
19,33213,638834
19,33625,714085
19,34038,753024
19,34450,730805
19,34862,690477
19,35273,600201
19,35687,488153
19,36098,404132
19,36510,320078
19,36923,251783
19,37335,197384
19,37747,156695
19,38160,124755
19,38572,100276
19,38983,84664
19,39397,69968
19,39808,60717
19,40220,52856
19,40633,46602
19,41045,42383
19,41457,37144
19,41870,35299
19,42282,31476
19,42693,29227
19,43107,28747
19,43518,26028
19,43930,24208
19,44342,22600
19,44755,19247
19,45167,20160
19,45578,19333
19,45992,17396
19,46403,17312
19,46815,16943
19,47228,16980
19,47640,15065
19,48052,15069
19,48465,15221
19,48877,12376
19,49288,12697
19,49702,11953
19,50113,12477
19,50525,12449
19,50938,12029
19,51350,11560
19,51762,10370
19,52175,9779
19,52587,9302
19,52998,9630
19,53410,10791
19,53823,9152
19,54235,8477
19,54647,7525
19,55060,8875
19,55472,9326
19,55883,9704
19,56297,7796
19,56708,8134
19,57120,7660
19,57533,7701
19,57945,7008
19,58357,7725
19,58770,7230
19,59182,7957
19,59593,8247
19,60007,6265
19,60418,6665
19,60830,7832
19,61243,9144
19,61655,7230
19,62067,6957
19,62478,6797
19,62892,7277
19,63303,6111
19,63715,8452
19,64128,5464
19,64540,7226
19,64952,7545
19,65365,7776
19,65777,6339
19,66188,8208
19,66602,8334
19,67013,9196
19,67425,9153
19,67838,8340
19,68250,7613
19,68662,7708
19,69075,7323
19,69487,7531
19,69898,7823
19,70312,7132
19,70723,6131
19,71135,7576
19,71547,6486
19,71960,6254
19,72372,6336
19,72783,6012
19,73197,6028
19,73608,6947
19,74020,6457
19,74433,6429
19,74845,7347
19,75257,6399
19,75670,6444
19,76082,6961
19,76493,7593
19,76907,7843
19,77318,8258
19,77730,12314
19,78143,18175
19,78555,32967
19,78967,55288
19,79380,99995
19,79792,172182
19,80203,279780
19,80615,436584
19,81028,626690
19,81440,868190
19,81852,1127457
19,82265,1382651
19,82677,1633620
19,83088,1845517
19,83502,2020873
19,83913,2163418
19,84325,2236682
19,84738,2275677
19,85150,2191473
19,85562,2011533
19,85975,1730787
19,86387,1424365
19,86798,1120768
19,87212,851534
19,87623,659184
19,88035,513784
19,88448,403810
19,88860,327737
19,89272,273357
19,89683,227732
19,90097,193900
19,90508,173206
19,90920,149656
19,91333,135264
19,91745,119653
19,92157,108134
19,92570,100671
19,92982,93640
19,93393,82142
19,93807,75401
19,94218,70617
19,94630,66598
19,95043,60768
19,95455,57037
19,95867,53178
19,96280,52903
19,96692,48134
19,97103,46314
19,97517,44569
19,97928,42354
19,98340,41292
19,98752,39241
19,99165,35495
19,99577,34136
19,99988,34477
20,00402,30953
20,00813,31915
20,01225,28606
20,01638,28408
20,02050,27951
20,02462,27824
20,02875,24804
20,03287,23290
20,03698,24285
20,04112,22623
20,04523,21831
20,04935,22791
20,05348,20215
20,05760,19964
20,06172,19132
20,06585,20439
20,06997,19183
20,07408,17950
20,07820,22343
20,08233,26327
20,08645,33982
20,09057,52147
20,09470,79162
20,09882,123188
20,10293,188600
20,10707,271424
20,11118,368781
20,11530,476561
20,11943,571029
20,12355,648128
20,12767,678984
20,13180,681388
20,13592,641334
20,14003,583394
20,14417,510044
20,14828,435118
20,15240,375230
20,15653,344121
20,16065,331170
20,16477,360463
20,16888,406499
20,17302,467199
20,17713,534381
20,18125,601441
20,18538,645149
20,18950,660616
20,19362,651998
20,19775,601032
20,20187,532942
20,20598,460836
20,21012,387888
20,21423,323691
20,21835,275064
20,22248,248311
20,22660,250974
20,23072,276624
20,23485,339151
20,23897,413476
20,24308,523432
20,24722,639860
20,25133,756779
20,25545,852359
20,25957,918481
20,26370,922649
20,26782,875576
20,27193,789100
20,27607,676287
20,28018,566800
20,28430,461405
20,28843,372084
20,29255,294458
20,29667,236256
20,30080,192407
20,30492,159109
20,30903,136873
20,31317,118085
20,31728,103704
20,32140,92421
20,32553,84979
20,32965,75945
20,33377,68967
20,33790,63442
20,34202,60127
20,34613,55422
20,35025,50385
20,35438,47654
20,35850,47172
20,36262,43458
20,36675,41473
20,37087,35454
20,37498,35699
20,37912,33377
20,38323,31961
20,38735,29696
20,39148,27094
20,39560,25082
20,39972,27794
20,40385,26195
20,40797,25219
20,41208,24493
20,41622,25938
20,42033,23154
20,42445,23260
20,42858,22861
20,43270,19721
20,43682,21145
20,44093,19062
20,44507,18199
20,44918,19058
20,45330,19359
20,45743,18561
20,46155,18162
20,46567,17986
20,46980,16995
20,47392,17671
20,47803,18094
20,48217,18314
20,48628,18005
20,49040,16923
20,49453,16681
20,49865,17300
20,50277,16404
20,50690,15293
20,51102,15572
20,51513,15612
20,51927,14671
20,52338,14190
20,52750,15090
20,53162,14529
20,53575,13427
20,53987,12334
20,54398,13644
20,54812,14496
20,55223,15903
20,55635,19295
20,56048,26045
20,56460,35857
20,56872,58127
20,57285,89346
20,57697,133997
20,58108,210899
20,58522,304776
20,58933,419995
20,59345,552174
20,59758,694590
20,60170,812623
20,60582,915846
20,60995,966901
20,61407,966779
20,61818,892581
20,62230,779297
20,62643,650844
20,63055,525674
20,63467,421775
20,63880,334290
20,64292,265347
20,64703,211605
20,65117,174204
20,65528,143809
20,65940,125995
20,66353,111308
20,66765,97049
20,67177,86954
20,67590,76424
20,68002,69379
20,68413,65476
20,68827,61546
20,69238,55320
20,69650,48634
20,70063,48874
20,70475,47742
20,70887,42907
20,71298,43176
20,71712,38306
20,72123,37783
20,72535,35113
20,72948,35575
20,73360,34633
20,73772,33486
20,74185,34075
20,74597,29582
20,75008,29208
20,75422,28192
20,75833,29227
20,76245,27517
20,76658,27467
20,77070,24887
20,77482,25186
20,77895,23626
20,78307,23533
20,78718,22380
20,79132,21122
20,79543,22481
20,79955,20835
20,80368,20677
20,80780,19709
20,81192,20885
20,81603,21728
20,82017,22481
20,82428,20917
20,82840,20806
20,83253,20137
20,83665,19601
20,84077,20569
20,84490,18317
20,84902,18385
20,85313,17964
20,85727,19050
20,86138,18764
20,86550,20580
20,86963,26359
20,87375,34789
20,87787,51236
20,88200,81346
20,88612,132542
20,89023,197609
20,89437,291016
20,89848,405381
20,90260,520983
20,90672,634348
20,91085,730133
20,91497,781393
20,91908,775649
20,92322,745976
20,92733,668998
20,93145,578523
20,93558,482150
20,93970,393363
20,94382,313740
20,94795,254823
20,95207,214018
20,95618,192346
20,96032,184136
20,96443,194455
20,96855,227748
20,97268,280887
20,97680,340908
20,98092,420214
20,98505,490125
20,98917,553259
20,99328,589730
20,99740,600149
21,00153,576910
21,00565,523827
21,00977,461054
21,01390,389366
21,01802,324296
21,02213,264139
21,02627,211669
21,03038,176214
21,03450,144699
21,03863,119900
21,04275,106033
21,04687,89624
21,05100,79496
21,05512,69630
21,05923,62484
21,06337,57076
21,06748,50487
21,07160,48797
21,07573,46981
21,07985,43045
21,08397,40141
21,08808,38586
21,09222,36086
21,09633,31221
21,10045,33162
21,10458,29836
21,10870,30552
21,11282,29630
21,11695,28142
21,12107,26969
21,12518,26242
21,12932,24526
21,13343,24679
21,13755,24628
21,14168,22134
21,14580,21534
21,14992,23015
21,15405,20778
21,15817,20170
21,16228,21193
21,16642,19910
21,17053,19705
21,17465,19557
21,17877,18917
21,18290,17796
21,18702,18246
21,19113,18391
21,19527,18576
21,19938,18805
21,20350,18510
21,20763,17532
21,21175,17854
21,21587,17226
21,22000,16965
21,22412,18181
21,22823,16839
21,23237,16505
21,23648,17329
21,24060,16123
21,24473,14539
21,24885,16165
21,25297,15820
21,25710,12634
21,26122,15334
21,26533,14436
21,26945,15022
21,27358,14480
21,27770,14855
21,28182,14421
21,28595,14511
21,29007,16117
21,29418,17164
21,29832,15742
21,30243,17378
21,30655,19044
21,31068,22302
21,31480,28332
21,31892,39892
21,32305,61158
21,32717,95397
21,33128,148793
21,33542,225882
21,33953,329805
21,34365,451279
21,34778,604749
21,35190,778511
21,35602,982016
21,36013,1200583
21,36427,1423142
21,36838,1631835
21,37250,1788428
21,37663,1864042
21,38075,1828624
21,38487,1686548
21,38900,1463150
21,39312,1183401
21,39723,935105
21,40137,722210
21,40548,566611
21,40960,453643
21,41373,356823
21,41785,303097
21,42197,254752
21,42610,217941
21,43022,191299
21,43433,171635
21,43847,151554
21,44258,137980
21,44670,121724
21,45082,113326
21,45495,105625
21,45907,96602
21,46318,92230
21,46732,87528
21,47143,78995
21,47555,77585
21,47968,68944
21,48380,70202
21,48792,64773
21,49205,62781
21,49617,60689
21,50028,53841
21,50442,54274
21,50853,49851
21,51265,49176
21,51678,48276
21,52090,48102
21,52502,46182
21,52915,40274
21,53327,41137
21,53738,39394
21,54150,37566
21,54563,34568
21,54975,36127
21,55387,37769
21,55800,35156
21,56212,34471
21,56623,34868
21,57037,31793
21,57448,32534
21,57860,31642
21,58273,32653
21,58685,29980
21,59097,30524
21,59510,28031
21,59922,29592
21,60333,29341
21,60747,29296
21,61158,26383
21,61570,26942
21,61983,24772
21,62395,24963
21,62807,25925
21,63218,24916
21,63632,23812
21,64043,24646
21,64455,24411
21,64868,23816
21,65280,23670
21,65692,22406
21,66105,22481
21,66517,23741
21,66928,23285
21,67342,23186
21,67753,24606
21,68165,22024
21,68578,21209
21,68990,21400
21,69402,22058
21,69815,21655
21,70227,21012
21,70638,20983
21,71052,25186
21,71463,25514
21,71875,27958
21,72287,33358
21,72700,45637
21,73112,65514
21,73523,96512
21,73937,140767
21,74348,205736
21,74760,290455
21,75173,398737
21,75585,512037
21,75997,638611
21,76410,740181
21,76822,835613
21,77233,874672
21,77647,873817
21,78058,821273
21,78470,747872
21,78883,648690
21,79295,543576
21,79707,443038
21,80120,365128
21,80532,289599
21,80943,243994
21,81355,201327
21,81768,171974
21,82180,145954
21,82592,130080
21,83005,116448
21,83417,105400
21,83828,95638
21,84242,87780
21,84653,78569
21,85065,75723
21,85478,72209
21,85890,64490
21,86302,58962
21,86715,56935
21,87127,54396
21,87538,53545
21,87952,48059
21,88363,45744
21,88775,44661
21,89188,40639
21,89600,38777
21,90012,38301
21,90423,35802
21,90837,36849
21,91248,35915
21,91660,34470
21,92073,31545
21,92485,33767
21,92897,32761
21,93310,31783
21,93722,30681
21,94133,29849
21,94547,27478
21,94958,26103
21,95370,27295
21,95783,26497
21,96195,27617
21,96607,25732
21,97020,26998
21,97432,25135
21,97843,25482
21,98257,25599
21,98668,25814
21,99080,23837
21,99492,23860
21,99905,23395
22,00317,22900
22,00728,23181
22,01142,23007
22,01553,21888
22,01965,21430
22,02378,20560
22,02790,21440
22,03202,21945
22,03615,20779
22,04027,20117
22,04438,20676
22,04852,19860
22,05263,20907
22,05675,21195
22,06088,21065
22,06500,23664
22,06912,22278
22,07325,25449
22,07737,24109
22,08148,23444
22,08560,25436
22,08973,26285
22,09385,24245
22,09797,24450
22,10210,22094
22,10622,21638
22,11033,22033
22,11447,20233
22,11858,18937
22,12270,18160
22,12683,19625
22,13095,20207
22,13507,18376
22,13920,19961
22,14332,17339
22,14743,17677
22,15157,16459
22,15568,18811
22,15980,17368
22,16393,17358
22,16805,18958
22,17217,18306
22,17628,18672
22,18042,18076
22,18453,18052
22,18865,17509
22,19278,16793
22,19690,18592
22,20102,18278
22,20515,17198
22,20927,16306
22,21338,16952
22,21752,17457
22,22163,16568
22,22575,18001
22,22988,19821
22,23400,21079
22,23812,20699
22,24225,22679
22,24637,22079
22,25048,20110
22,25462,19252
22,25873,18016
22,26285,19350
22,26697,16932
22,27110,19207
22,27522,17145
22,27933,15659
22,28347,18097
22,28758,17561
22,29170,17515
22,29583,17253
22,29995,18130
22,30407,16511
22,30820,18711
22,31232,18725
22,31643,16722
22,32057,18587
22,32468,19157
22,32880,17795
22,33293,18777
22,33705,17819
22,34117,17030
22,34530,16867
22,34942,19317
22,35353,17867
22,35767,18708
22,36178,16671
22,36590,18607
22,37002,14989
22,37415,16387
22,37827,15502
22,38238,16042
22,38652,16528
22,39063,14401
22,39475,15931
22,39888,14721
22,40300,14298
22,40712,14269
22,41125,14957
22,41537,16126
22,41948,14584
22,42362,14994
22,42773,13933
22,43185,16037
22,43598,17262
22,44010,16469
22,44422,15635
22,44835,15430
22,45247,15511
22,45658,14507
22,46070,15152
22,46483,13400
22,46895,15708
22,47307,16009
22,47720,15699
22,48132,15560
22,48543,14222
22,48957,14799
22,49368,15837
22,49780,16176
22,50193,14549
22,50605,15929
22,51017,14843
22,51430,14758
22,51842,14687
22,52253,15899
22,52667,14065
22,53078,15816
22,53490,15466
22,53903,14878
22,54315,13746
22,54727,15931
22,55138,14556
22,55552,16468
22,55963,14317
22,56375,14456
22,56788,15607
22,57200,15442
22,57612,16527
22,58025,15148
22,58437,16294
22,58848,15275
22,59262,14592
22,59673,15570
22,60085,15320
22,60498,15745
22,60910,16982
22,61322,16902
22,61735,15872
22,62147,15108
22,62558,15662
22,62972,15002
22,63383,14934
22,63795,16495
22,64207,14464
22,64620,15092
22,65032,15433
22,65443,14467
22,65857,15464
22,66268,15197
22,66680,14690
22,67093,13747
22,67505,14275
22,67917,13714
22,68330,13718
22,68742,12807
22,69153,13008
22,69567,14225
22,69978,14176
22,70390,14420
22,70803,13067
22,71215,13993
22,71627,13904
22,72040,14896
22,72452,13369
22,72863,14482
22,73275,15928
22,73688,14539
22,74100,14180
22,74512,12894
22,74925,14403
22,75337,14800
22,75748,12733
22,76162,12851
22,76573,13912
22,76985,14020
22,77398,12614
22,77810,13411
22,78222,13405
22,78635,13569
22,79047,12421
22,79458,12105
22,79872,14567
22,80283,13748
22,80695,13985
22,81108,14786
22,81520,14066
22,81932,14442
22,82343,14159
22,82757,15780
22,83168,15172
22,83580,14831
22,83993,14440
22,84405,13763
22,84817,13622
22,85230,15773
22,85642,15380
22,86053,14408
22,86467,14147
22,86878,15205
22,87290,14147
22,87703,15623
22,88115,14607
22,88527,15063
22,88940,15998
22,89352,15923
22,89763,15795
22,90177,15945
22,90588,17189
22,91000,18806
22,91412,23508
22,91825,31473
22,92237,44311
22,92648,60757
22,93062,88194
22,93473,124430
22,93885,168362
22,94298,222388
22,94710,277045
22,95122,334577
22,95535,382612
22,95947,421436
22,96358,438447
22,96772,448677
22,97183,427558
22,97595,398155
22,98008,365773
22,98420,328590
22,98832,285227
22,99245,241534
22,99657,205424
23,00068,173044
23,00480,146005
23,00893,126355
23,01305,109465
23,01717,92870
23,02130,87582
23,02542,76586
23,02953,70009
23,03367,59014
23,03778,54387
23,04190,55108
23,04603,45755
23,05015,46677
23,05427,44609
23,05840,40231
23,06252,38254
23,06663,37604
23,07077,34761
23,07488,34141
23,07900,32653
23,08313,32458
23,08725,30997
23,09137,32108
23,09548,28733
23,09962,26924
23,10373,28159
23,10785,26980
23,11198,25630
23,11610,24209
23,12022,25451
23,12435,23347
23,12847,24797
23,13258,24327
23,13672,24833
23,14083,22933
23,14495,22573
23,14908,23250
23,15320,21959
23,15732,21159
23,16145,19964
23,16557,21758
23,16968,18359
23,17382,18783
23,17793,20292
23,18205,19698
23,18617,21084
23,19030,20278
23,19442,19668
23,19853,19865
23,20267,19737
23,20678,20590
23,21090,20136
23,21503,19448
23,21915,19435
23,22327,19362
23,22740,18427
23,23152,17572
23,23563,16986
23,23977,19042
23,24388,17596
23,24800,18218
23,25213,17998
23,25625,17127
23,26037,18015
23,26450,19043
23,26862,18005
23,27273,17061
23,27685,16473
23,28098,18056
23,28510,17687
23,28922,18344
23,29335,15804
23,29747,16988
23,30158,16750
23,30572,16493
23,30983,14427
23,31395,16740
23,31808,16652
23,32220,17048
23,32632,15564
23,33045,16427
23,33457,16223
23,33868,15732
23,34282,17487
23,34693,16523
23,35105,15302
23,35518,16900
23,35930,16415
