D:\MassHunter\GCMS\1\data\Amal\Constant flow\130C\130C_1ml-min_7C-min_1.D Mon Jul 29 14:03:16 2024
Start of data points
5,59133,36257
5,59577,36071
5,60022,33225
5,60465,34982
5,60910,35414
5,61353,35136
5,61798,32668
5,62242,34984
5,62687,34681
5,63130,33682
5,63575,34812
5,64018,35065
5,64463,34085
5,64908,33582
5,65352,34807
5,65797,33275
5,66240,33213
5,66685,32871
5,67128,32688
5,67573,33380
5,68017,33143
5,68462,32753
5,68905,31942
5,69350,32419
5,69793,32523
5,70238,31267
5,70682,32062
5,71127,33741
5,71570,32423
5,72015,32274
5,72458,33065
5,72903,32590
5,73347,34402
5,73792,33910
5,74235,33651
5,74680,34625
5,75123,34022
5,75568,33220
5,76012,33588
5,76457,33753
5,76902,33382
5,77345,34188
5,77790,33439
5,78233,32979
5,78678,33038
5,79122,31940
5,79567,34066
5,80010,33284
5,80455,31645
5,80898,30231
5,81343,30954
5,81787,32750
5,82232,32019
5,82675,30374
5,83120,30456
5,83563,31061
5,84008,30787
5,84452,29305
5,84897,31792
5,85340,30347
5,85785,30531
5,86228,31044
5,86673,30799
5,87117,29948
5,87562,30471
5,88005,28616
5,88450,28839
5,88895,28543
5,89338,29639
5,89783,28309
5,90227,29770
5,90672,29817
5,91115,28890
5,91560,28806
5,92003,28641
5,92448,28465
5,92892,28644
5,93337,29742
5,93780,30518
5,94225,34476
5,94668,43027
5,95113,67247
5,95557,108595
5,96002,170747
5,96445,253857
5,96890,346800
5,97333,420385
5,97778,486908
5,98222,520766
5,98667,528820
5,99110,522897
5,99555,505846
5,99998,477276
6,00443,453612
6,00887,423644
6,01332,400451
6,01777,372682
6,02220,350354
6,02665,331369
6,03108,313226
6,03553,298508
6,03997,274117
6,04442,256782
6,04885,238736
6,05330,229487
6,05773,217359
6,06218,200112
6,06662,184112
6,07107,173094
6,07550,163478
6,07995,152532
6,08438,140722
6,08883,133187
6,09327,121656
6,09772,114578
6,10215,103239
6,10660,96210
6,11103,91343
6,11548,80269
6,11992,75179
6,12437,69206
6,12880,61924
6,13325,56894
6,13770,54442
6,14213,49404
6,14658,48354
6,15102,45243
6,15547,41525
6,15990,39914
6,16435,37663
6,16878,36190
6,17323,35815
6,17767,32782
6,18212,33162
6,18655,30967
6,19100,30149
6,19543,28672
6,19988,29272
6,20432,28424
6,20877,28057
6,21320,27933
6,21765,26234
6,22208,26295
6,22653,25593
6,23097,25602
6,23542,26270
6,23985,25225
6,24430,24226
6,24873,24019
6,25318,24936
6,25763,23918
6,26207,23995
6,26652,22903
6,27095,24186
6,27540,23363
6,27983,23545
6,28428,23635
6,28872,23866
6,29317,23032
6,29760,21847
6,30205,21997
6,30648,22301
6,31093,22327
6,31537,23330
6,31982,22179
6,32425,22847
6,32870,22990
6,33313,21084
6,33758,21184
6,34202,22123
6,34647,22422
6,35090,21493
6,35535,21560
6,35978,21839
6,36423,20712
6,36867,19764
6,37312,21378
6,37757,21062
6,38200,20158
6,38645,21437
6,39088,20543
6,39533,21992
6,39977,20924
6,40422,21054
6,40865,21277
6,41310,22341
6,41753,20398
6,42198,21567
6,42642,20348
6,43087,20616
6,43530,20622
6,43975,20121
6,44418,19671
6,44863,19823
6,45307,20527
6,45752,19926
6,46195,20080
6,46640,19273
6,47083,20164
6,47528,20150
6,47972,19673
6,48417,18780
6,48860,19762
6,49305,19752
6,49750,20241
6,50193,20987
6,50638,24470
6,51082,30333
6,51527,44132
6,51970,67455
6,52415,105730
6,52858,152971
6,53303,207452
6,53747,264175
6,54192,305388
6,54635,332386
6,55080,346968
6,55523,344065
6,55968,334809
6,56412,324196
6,56857,304805
6,57300,294778
6,57745,267855
6,58188,249853
6,58633,237286
6,59077,219827
6,59522,207105
6,59965,190447
6,60410,171936
6,60853,163114
6,61298,148400
6,61743,137907
6,62187,128739
6,62632,119039
6,63075,109345
6,63520,103133
6,63963,91511
6,64408,85270
6,64852,78671
6,65297,68922
6,65740,64123
6,66185,56503
6,66628,51890
6,67073,46341
6,67517,45635
6,67962,39764
6,68405,36253
6,68850,35423
6,69293,30877
6,69738,30080
6,70182,27236
6,70627,27009
6,71070,25388
6,71515,24661
6,71958,23432
6,72403,21737
6,72847,21081
6,73292,22337
6,73735,20113
6,74180,20424
6,74625,20082
6,75068,19456
6,75513,18006
6,75957,19123
6,76402,20409
6,76845,19873
6,77290,19412
6,77733,19186
6,78178,19512
6,78622,19810
6,79067,19247
6,79510,18133
6,79955,18617
6,80398,19293
6,80843,19301
6,81287,19569
6,81732,18363
6,82175,17451
6,82620,17998
6,83063,18441
6,83508,18698
6,83952,19146
6,84397,17785
6,84840,17639
6,85285,17641
6,85728,18183
6,86173,19033
6,86618,18365
6,87062,17900
6,87507,18250
6,87950,20018
6,88395,18703
6,88838,18687
6,89283,17808
6,89727,17524
6,90172,17821
6,90615,17686
6,91060,17446
6,91503,17655
6,91948,18000
6,92392,16715
6,92837,17939
6,93280,17026
6,93725,17338
6,94168,16567
6,94613,16098
6,95057,17244
6,95502,15790
6,95945,15615
6,96390,16355
6,96833,16713
6,97278,15702
6,97722,15000
6,98167,15415
6,98612,15342
6,99055,15042
6,99500,15745
6,99943,15151
7,00388,16586
7,00832,15572
7,01277,15752
7,01720,14947
7,02165,15297
7,02608,15614
7,03053,14172
7,03497,15156
7,03942,15930
7,04385,14706
7,04830,16232
7,05273,14635
7,05718,14864
7,06162,15078
7,06607,15373
7,07050,15364
7,07495,15590
7,07938,14464
7,08383,14831
7,08827,15456
7,09272,15585
7,09715,14908
7,10160,15059
7,10605,15097
7,11048,15920
7,11493,15046
7,11937,15204
7,12382,14631
7,12825,15839
7,13270,15040
7,13713,15112
7,14158,15171
7,14602,14684
7,15047,16093
7,15490,15538
7,15935,16749
7,16378,17548
7,16823,25200
7,17267,40247
7,17712,71010
7,18155,121812
7,18600,205644
7,19043,314452
7,19488,449485
7,19932,570749
7,20377,694837
7,20820,776391
7,21265,832019
7,21708,851391
7,22153,829379
7,22598,790244
7,23042,751030
7,23487,700018
7,23930,647679
7,24375,597899
7,24818,546173
7,25263,499443
7,25707,453141
7,26152,413764
7,26595,373913
7,27040,332321
7,27483,298745
7,27928,264589
7,28372,240039
7,28817,211289
7,29260,185181
7,29705,163127
7,30148,137356
7,30593,120788
7,31037,102967
7,31482,90037
7,31925,77555
7,32370,67364
7,32813,59331
7,33258,52299
7,33702,46914
7,34147,41581
7,34592,37282
7,35035,34263
7,35480,33611
7,35923,30351
7,36368,29238
7,36812,26617
7,37257,26272
7,37700,22924
7,38145,22387
7,38588,21340
7,39033,21192
7,39477,19072
7,39922,18490
7,40365,19218
7,40810,19073
7,41253,18896
7,41698,18022
7,42142,17491
7,42587,17491
7,43030,16059
7,43475,15636
7,43918,16007
7,44363,16723
7,44807,15765
7,45252,15984
7,45695,15884
7,46140,15775
7,46583,16048
7,47028,14777
7,47473,14507
7,47917,15518
7,48362,14194
7,48805,15962
7,49250,14917
7,49693,14349
7,50138,13964
7,50582,14872
7,51027,14521
7,51470,14092
7,51915,14025
7,52358,14563
7,52803,13710
7,53247,13179
7,53692,13572
7,54135,13263
7,54580,12970
7,55023,14320
7,55468,12771
7,55912,13722
7,56357,13930
7,56800,12789
7,57245,13905
7,57688,14314
7,58133,14071
7,58577,14769
7,59022,13776
7,59467,13219
7,59910,12775
7,60355,14024
7,60798,13889
7,61243,13276
7,61687,14504
7,62132,14037
7,62575,13873
7,63020,13925
7,63463,13321
7,63908,11959
7,64352,12649
7,64797,12921
7,65240,12640
7,65685,12791
7,66128,13089
7,66573,12454
7,67017,13507
7,67462,12844
7,67905,12093
7,68350,11956
7,68793,12188
7,69238,13211
7,69682,13279
7,70127,11441
7,70570,13086
7,71015,13048
7,71460,13096
7,71903,13043
7,72348,12941
7,72792,13018
7,73237,12691
7,73680,12519
7,74125,12970
7,74568,13119
7,75013,11883
7,75457,12791
7,75902,12543
7,76345,13015
7,76790,11267
7,77233,13099
7,77678,12888
7,78122,12564
7,78567,12373
7,79010,11705
7,79455,12841
7,79898,12684
7,80343,12146
7,80787,12869
7,81232,13147
7,81675,12623
7,82120,12549
7,82563,12023
7,83008,13012
7,83453,11824
7,83897,11994
7,84342,12518
7,84785,12074
7,85230,11700
7,85673,12592
7,86118,12105
7,86562,13474
7,87007,14754
7,87450,14830
7,87895,15410
7,88338,16256
7,88783,16544
7,89227,16997
7,89672,16915
7,90115,17980
7,90560,17584
7,91003,19421
7,91448,23267
7,91892,32338
7,92337,48198
7,92780,80981
7,93225,124869
7,93668,187088
7,94113,258510
7,94557,341679
7,95002,412589
7,95447,468044
7,95890,497743
7,96335,504733
7,96778,501510
7,97223,476209
7,97667,460679
7,98112,422010
7,98555,388620
7,99000,353424
7,99443,315455
7,99888,281527
8,00332,250023
8,00777,217950
8,01220,186716
8,01665,161843
8,02108,138219
8,02553,118191
8,02997,99566
8,03442,84831
8,03885,71981
8,04330,62123
8,04773,52990
8,05218,47025
8,05662,39546
8,06107,34384
8,06550,29491
8,06995,29580
8,07440,25631
8,07883,24638
8,08328,21395
8,08772,20057
8,09217,18916
8,09660,18408
8,10105,17659
8,10548,15169
8,10993,16229
8,11437,16391
8,11882,15059
8,12325,15111
8,12770,15161
8,13213,14258
8,13658,13642
8,14102,13125
8,14547,13871
8,14990,13786
8,15435,13685
8,15878,12773
8,16323,14129
8,16767,12763
8,17212,11535
8,17655,12942
8,18100,12635
8,18543,12723
8,18988,12068
8,19432,12385
8,19877,10798
8,20322,11725
8,20765,12236
8,21210,12163
8,21653,10512
8,22098,12285
8,22542,13007
8,22987,12039
8,23430,11712
8,23875,11370
8,24318,11938
8,24763,11579
8,25207,10949
8,25652,11340
8,26095,10942
8,26540,12195
8,26983,10555
8,27428,12102
8,27872,11711
8,28317,10031
8,28760,11458
8,29205,10857
8,29648,11359
8,30093,10944
8,30537,10344
8,30982,11410
8,31425,10145
8,31870,10389
8,32315,11228
8,32758,11418
8,33203,11860
8,33647,12708
8,34092,12411
8,34535,13691
8,34980,12345
8,35423,12730
8,35868,12134
8,36312,12961
8,36757,12431
8,37200,13876
8,37645,12222
8,38088,12776
8,38533,11450
8,38977,12721
8,39422,11550
8,39865,11255
8,40310,11696
8,40753,10944
8,41198,11049
8,41642,11199
8,42087,10840
8,42530,11891
8,42975,11410
8,43418,9202
8,43863,10031
8,44308,10283
8,44752,11106
8,45197,11087
8,45640,10339
8,46085,11240
8,46528,10260
8,46973,9993
8,47417,9685
8,47862,10954
8,48305,10629
8,48750,11120
8,49193,10770
8,49638,9712
8,50082,9747
8,50527,10272
8,50970,10416
8,51415,9181
8,51858,9430
8,52303,9575
8,52747,10097
8,53192,10271
8,53635,9835
8,54080,10563
8,54523,10744
8,54968,10915
8,55412,10884
8,55857,10972
8,56302,10153
8,56745,9507
8,57190,10229
8,57633,10673
8,58078,10963
8,58522,10323
8,58967,10984
8,59410,11117
8,59855,12136
8,60298,13318
8,60743,12659
8,61187,11641
8,61632,11690
8,62075,13665
8,62520,12424
8,62963,12397
8,63408,13008
8,63852,12396
8,64297,11835
8,64740,13555
8,65185,12407
8,65628,12646
8,66073,12181
8,66517,11602
8,66962,10518
8,67405,11384
8,67850,10806
8,68295,10990
8,68738,10995
8,69183,11802
8,69627,10108
8,70072,10411
8,70515,10466
8,70960,11330
8,71403,11574
8,71848,14129
8,72292,21234
8,72737,35579
8,73180,65464
8,73625,116125
8,74068,200691
8,74513,322209
8,74957,474310
8,75402,666311
8,75845,840130
8,76290,1004115
8,76733,1132883
8,77178,1196700
8,77622,1231256
8,78067,1205533
8,78510,1158842
8,78955,1066955
8,79398,952004
8,79843,840082
8,80288,732134
8,80732,620179
8,81177,516656
8,81620,430849
8,82065,347365
8,82508,279346
8,82953,226042
8,83397,183002
8,83842,147189
8,84285,117950
8,84730,97738
8,85173,81251
8,85618,69724
8,86062,60938
8,86507,52785
8,86950,44398
8,87395,40926
8,87838,35896
8,88283,33132
8,88727,29925
8,89172,26723
8,89615,26713
8,90060,26250
8,90503,23660
8,90948,22057
8,91392,22320
8,91837,21346
8,92280,21723
8,92725,19600
8,93170,21042
8,93613,20474
8,94058,20516
8,94502,19721
8,94947,19083
8,95390,18633
8,95835,18901
8,96278,17849
8,96723,16181
8,97167,16297
8,97612,16434
8,98055,16696
8,98500,16826
8,98943,16309
8,99388,16029
8,99832,16730
9,00277,14363
9,00720,14272
9,01165,11599
9,01608,11323
9,02053,14124
9,02497,12080
9,02942,11854
9,03385,11062
9,03830,11345
9,04273,11835
9,04718,10201
9,05163,11479
9,05607,10365
9,06052,11153
9,06495,11252
9,06940,9338
9,07383,9510
9,07828,10991
9,08272,11277
9,08717,11345
9,09160,10732
9,09605,11180
9,10048,12072
9,10493,13113
9,10937,12492
9,11382,12213
9,11825,12612
9,12270,13121
9,12713,13772
9,13158,12586
9,13602,12306
9,14047,13107
9,14490,13212
9,14935,12351
9,15378,11888
9,15823,13786
9,16267,11392
9,16712,12576
9,17157,12529
9,17600,12333
9,18045,12247
9,18488,12802
9,18933,11748
9,19377,13400
9,19822,11494
9,20265,11946
9,20710,12960
9,21153,11568
9,21598,11234
9,22042,10309
9,22487,10693
9,22930,9769
9,23375,10370
9,23818,10807
9,24263,10739
9,24707,10270
9,25152,9618
9,25595,9410
9,26040,9600
9,26483,9681
9,26928,9374
9,27372,9075
9,27817,9932
9,28260,9282
9,28705,8712
9,29150,8873
9,29593,9716
9,30038,9451
9,30482,9436
9,30927,9880
9,31370,9154
9,31815,9382
9,32258,9794
9,32703,8579
9,33147,9405
9,33592,10058
9,34035,8777
9,34480,10755
9,34923,13986
9,35368,20454
9,35812,33752
9,36257,58029
9,36700,96767
9,37145,151938
9,37588,225908
9,38033,310056
9,38477,399046
9,38922,483635
9,39365,551622
9,39810,588890
9,40253,592889
9,40698,583571
9,41143,551214
9,41587,506024
9,42032,441768
9,42475,391043
9,42920,328924
9,43363,268748
9,43808,224593
9,44252,182025
9,44697,145229
9,45140,115440
9,45585,97563
9,46028,77639
9,46473,62893
9,46917,53009
9,47362,46302
9,47805,38637
9,48250,32349
9,48693,30219
9,49138,27055
9,49582,23223
9,50027,22837
9,50470,20112
9,50915,18848
9,51358,16406
9,51803,16150
9,52247,15841
9,52692,15285
9,53137,13474
9,53580,11970
9,54025,12079
9,54468,12017
9,54913,11710
9,55357,11050
9,55802,12307
9,56245,13147
9,56690,10670
9,57133,14177
9,57578,15765
9,58022,25288
9,58467,41866
9,58910,73478
9,59355,121560
9,59798,189920
9,60243,277421
9,60687,386269
9,61132,483420
9,61575,589435
9,62020,661374
9,62463,697688
9,62908,704262
9,63352,674775
9,63797,625442
9,64240,561525
9,64685,476924
9,65128,405972
9,65573,337289
9,66018,270284
9,66462,213171
9,66907,169803
9,67350,133841
9,67795,108194
9,68238,83776
9,68683,67696
9,69127,57549
9,69572,46805
9,70015,39971
9,70460,36096
9,70903,29498
9,71348,29282
9,71792,26134
9,72237,23956
9,72680,21880
9,73125,19537
9,73568,18935
9,74013,17589
9,74457,17412
9,74902,16824
9,75345,14864
9,75790,13407
9,76233,13371
9,76678,12551
9,77122,13578
9,77567,12463
9,78012,10930
9,78455,11583
9,78900,12678
9,79343,11510
9,79788,11055
9,80232,10218
9,80677,10481
9,81120,10016
9,81565,10738
9,82008,9143
9,82453,10583
9,82897,9484
9,83342,8973
9,83785,9546
9,84230,9104
9,84673,10184
9,85118,9436
9,85562,10001
9,86007,9465
9,86450,9016
9,86895,9716
9,87338,9987
9,87783,9477
9,88227,9825
9,88672,8374
9,89115,9613
9,89560,9977
9,90005,10274
9,90448,9236
9,90893,9519
9,91337,8659
9,91782,10365
9,92225,9069
9,92670,9565
9,93113,8561
9,93558,8587
9,94002,7774
9,94447,8730
9,94890,8173
9,95335,8977
9,95778,9378
9,96223,8664
9,96667,8211
9,97112,8963
9,97555,9093
9,98000,8316
9,98443,8187
9,98888,8659
9,99332,8444
9,99777,7931
10,00220,8681
10,00665,7010
10,01108,9579
10,01553,8303
10,01998,8275
10,02442,7823
10,02887,9003
10,03330,7983
10,03775,8595
10,04218,8990
10,04663,9194
10,05107,7909
10,05552,8237
10,05995,8598
10,06440,7936
10,06883,9136
10,07328,8955
10,07772,8390
10,08217,7532
10,08660,8534
10,09105,8083
10,09548,8543
10,09993,8198
10,10437,8240
10,10882,8726
10,11325,7903
10,11770,7860
10,12213,8348
10,12658,8195
10,13102,8811
10,13547,9397
10,13992,8196
10,14435,9014
10,14880,7347
10,15323,8704
10,15768,9981
10,16212,8579
10,16657,9262
10,17100,9302
10,17545,9139
10,17988,8535
10,18433,8878
10,18877,8833
10,19322,9091
10,19765,8942
10,20210,8616
10,20653,9085
10,21098,8229
10,21542,9271
10,21987,10749
10,22430,12930
10,22875,17518
10,23318,31000
10,23763,54994
10,24207,94940
10,24652,152901
10,25095,231111
10,25540,328470
10,25985,440353
10,26428,545340
10,26873,626071
10,27317,677330
10,27762,701637
10,28205,682752
10,28650,636406
10,29093,560418
10,29538,483039
10,29982,397486
10,30427,322953
10,30870,258166
10,31315,203105
10,31758,155997
10,32203,124260
10,32647,100594
10,33092,79461
10,33535,64424
10,33980,52881
10,34423,45538
10,34868,40802
10,35312,31974
10,35757,30006
10,36200,26710
10,36645,22499
10,37088,20219
10,37533,20310
10,37977,17665
10,38422,15888
10,38867,15797
10,39310,15844
10,39755,13268
10,40198,13685
10,40643,13200
10,41087,14204
10,41532,11716
10,41975,11185
10,42420,11917
10,42863,11764
10,43308,12008
10,43752,11649
10,44197,12705
10,44640,15796
10,45085,27648
10,45528,51819
10,45973,100626
10,46417,180561
10,46862,315589
10,47305,507217
10,47750,767760
10,48193,1063592
10,48638,1415070
10,49082,1764857
10,49527,2090336
10,49970,2319967
10,50415,2461908
10,50860,2442704
10,51303,2276493
10,51748,1981130
10,52192,1657382
10,52637,1321741
10,53080,1020135
10,53525,768238
10,53968,577686
10,54413,439472
10,54857,336079
10,55302,256856
10,55745,205925
10,56190,164456
10,56633,136263
10,57078,117525
10,57522,97288
10,57967,85485
10,58410,74956
10,58855,67696
10,59298,55352
10,59743,52284
10,60187,47897
10,60632,42631
10,61075,37941
10,61520,37639
10,61963,35736
10,62408,32075
10,62853,29478
10,63297,27452
10,63742,26021
10,64185,26181
10,64630,22878
10,65073,22535
10,65518,23450
10,65962,20956
10,66407,19105
10,66850,18430
10,67295,18486
10,67738,17948
10,68183,17552
10,68627,16350
10,69072,15988
10,69515,14757
10,69960,14692
10,70403,13897
10,70848,13065
10,71292,14233
10,71737,13778
10,72180,12736
10,72625,12054
10,73068,12251
10,73513,12940
10,73957,10425
10,74402,11262
10,74847,11690
10,75290,11523
10,75735,10882
10,76178,10044
10,76623,9632
10,77067,11549
10,77512,10764
10,77955,10521
10,78400,9737
10,78843,10388
10,79288,9611
10,79732,10399
10,80177,10008
10,80620,9382
10,81065,9922
10,81508,9714
10,81953,8278
10,82397,10280
10,82842,9958
10,83285,9929
10,83730,8858
10,84173,9631
10,84618,10284
10,85062,10040
10,85507,10021
10,85950,9929
10,86395,10675
10,86840,11137
10,87283,11537
10,87728,13851
10,88172,13332
10,88617,12923
10,89060,11532
10,89505,11129
10,89948,8956
10,90393,8751
10,90837,8947
10,91282,8846
10,91725,9136
10,92170,8299
10,92613,9036
10,93058,8670
10,93502,9386
10,93947,8275
10,94390,9695
10,94835,9936
10,95278,9520
10,95723,9429
10,96167,9166
10,96612,9135
10,97055,8826
10,97500,10060
10,97943,8150
10,98388,9722
10,98833,10936
10,99277,12010
10,99722,20019
11,00165,30786
11,00610,56824
11,01053,99041
11,01498,162564
11,01942,252535
11,02387,360056
11,02830,481852
11,03275,605887
11,03718,695173
11,04163,751303
11,04607,763838
11,05052,721945
11,05495,651781
11,05940,569807
11,06383,470205
11,06828,385693
11,07272,297231
11,07717,232122
11,08160,178966
11,08605,141098
11,09048,109796
11,09493,87584
11,09937,67056
11,10382,58317
11,10825,49033
11,11270,43480
11,11715,39125
11,12158,31521
11,12603,28520
11,13047,28291
11,13492,24645
11,13935,24049
11,14380,21624
11,14823,22249
11,15268,20770
11,15712,20909
11,16157,21124
11,16600,18866
11,17045,19241
11,17488,18427
11,17933,17945
11,18377,17314
11,18822,17693
11,19265,18591
11,19710,19032
11,20153,17162
11,20598,17933
11,21042,18648
11,21487,17820
11,21930,15976
11,22375,16436
11,22818,15094
11,23263,14581
11,23708,13606
11,24152,12345
11,24597,13124
11,25040,10548
11,25485,10137
11,25928,9899
11,26373,10673
11,26817,9460
11,27262,9506
11,27705,10520
11,28150,8363
11,28593,9573
11,29038,8406
11,29482,8631
11,29927,8510
11,30370,7877
11,30815,8013
11,31258,7753
11,31703,8718
11,32147,9519
11,32592,11096
11,33035,15177
11,33480,24918
11,33923,45851
11,34368,80077
11,34812,133750
11,35257,219669
11,35702,334643
11,36145,470566
11,36590,606639
11,37033,737775
11,37478,830890
11,37922,872984
11,38367,864269
11,38810,795005
11,39255,692416
11,39698,582095
11,40143,458494
11,40587,355314
11,41032,268346
11,41475,203775
11,41920,157293
11,42363,123009
11,42808,96410
11,43252,76428
11,43697,65124
11,44140,54655
11,44585,45482
11,45028,39699
11,45473,35945
11,45917,32145
11,46362,29323
11,46805,26111
11,47250,22926
11,47695,22496
11,48138,20286
11,48583,19276
11,49027,18152
11,49472,17281
11,49915,15124
11,50360,15659
11,50803,14544
11,51248,13805
11,51692,13327
11,52137,12320
11,52580,12626
11,53025,12723
11,53468,12185
11,53913,12071
11,54357,11232
11,54802,11877
11,55245,10255
11,55690,10784
11,56133,9743
11,56578,10353
11,57022,10522
11,57467,10372
11,57910,9845
11,58355,9157
11,58798,8290
11,59243,8290
11,59688,10283
11,60132,8838
11,60577,8671
11,61020,10358
11,61465,10357
11,61908,9950
11,62353,10339
11,62797,8982
11,63242,9825
11,63685,9125
11,64130,9732
11,64573,9505
11,65018,8619
11,65462,8273
11,65907,8333
11,66350,7926
11,66795,9262
11,67238,8550
11,67683,8231
11,68127,8401
11,68572,8684
11,69015,7830
11,69460,8363
11,69903,7943
11,70348,7538
11,70792,9069
11,71237,8631
11,71682,9093
11,72125,8084
11,72570,9290
11,73013,9561
11,73458,8661
11,73902,9026
11,74347,9186
11,74790,9304
11,75235,8624
11,75678,9060
11,76123,8347
11,76567,9042
11,77012,9595
11,77455,7322
11,77900,7801
11,78343,9523
11,78788,8196
11,79232,8389
11,79677,8086
11,80120,8669
11,80565,8037
11,81008,8690
11,81453,8663
11,81897,8492
11,82342,7389
11,82785,7694
11,83230,7401
11,83673,7151
11,84118,7504
11,84563,8359
11,85007,8124
11,85452,7902
11,85895,8507
11,86340,9065
11,86783,9776
11,87228,11725
11,87672,20186
11,88117,32276
11,88560,55682
11,89005,101446
11,89448,167115
11,89893,269275
11,90337,389125
11,90782,526268
11,91225,659289
11,91670,769307
11,92113,829284
11,92558,846035
11,93002,809382
11,93447,713762
11,93890,601343
11,94335,492871
11,94778,385789
11,95223,300014
11,95667,233202
11,96112,177017
11,96557,137161
11,97000,107526
11,97445,84947
11,97888,70498
11,98333,62378
11,98777,51886
11,99222,42981
11,99665,37552
12,00110,34497
12,00553,30977
12,00998,26902
12,01442,23956
12,01887,21953
12,02330,18896
12,02775,19553
12,03218,18609
12,03663,17849
12,04107,16004
12,04552,15414
12,04995,15727
12,05440,14980
12,05883,14037
12,06328,13743
12,06772,13388
12,07217,12524
12,07660,11446
12,08105,12160
12,08550,12110
12,08993,11203
12,09438,11228
12,09882,11386
12,10327,11117
12,10770,9937
12,11215,9577
12,11658,9588
12,12103,9306
12,12547,9806
12,12992,9260
12,13435,9080
12,13880,9899
12,14323,9133
12,14768,8915
12,15212,9166
12,15657,8602
12,16100,8332
12,16545,8605
12,16988,8109
12,17433,9009
12,17877,9534
12,18322,9152
12,18765,10516
12,19210,11383
12,19653,13620
12,20098,18777
12,20543,32047
12,20987,49531
12,21432,88488
12,21875,156201
12,22320,249116
12,22763,392975
12,23208,574195
12,23652,798918
12,24097,1067930
12,24540,1343760
12,24985,1623033
12,25428,1813677
12,25873,1911642
12,26317,1866775
12,26762,1692058
12,27205,1436569
12,27650,1157889
12,28093,886260
12,28538,665050
12,28982,490492
12,29427,366651
12,29870,282287
12,30315,216670
12,30758,172878
12,31203,140363
12,31647,115273
12,32092,98736
12,32537,86179
12,32980,74924
12,33425,65168
12,33868,56734
12,34313,53383
12,34757,45141
12,35202,41571
12,35645,37956
12,36090,35032
12,36533,31001
12,36978,30213
12,37422,29003
12,37867,26847
12,38310,25230
12,38755,25944
12,39198,24354
12,39643,21316
12,40087,22621
12,40532,21039
12,40975,19902
12,41420,19202
12,41863,17782
12,42308,16988
12,42752,15829
12,43197,15719
12,43640,14703
12,44085,13743
12,44530,14917
12,44973,14108
12,45418,13565
12,45862,13863
12,46307,12931
12,46750,12554
12,47195,13049
12,47638,11453
12,48083,11878
12,48527,11477
12,48972,11660
12,49415,11025
12,49860,10104
12,50303,11923
12,50748,12183
12,51192,15556
12,51637,21763
12,52080,35485
12,52525,62944
12,52968,113280
12,53413,182746
12,53857,282335
12,54302,411057
12,54745,557208
12,55190,690983
12,55633,822243
12,56078,885517
12,56522,886810
12,56967,843729
12,57412,746297
12,57855,638196
12,58300,509090
12,58743,396361
12,59188,307340
12,59632,229218
12,60077,178895
12,60520,140248
12,60965,109838
12,61408,90654
12,61853,73459
12,62297,62335
12,62742,54289
12,63185,47864
12,63630,40318
12,64073,36807
12,64518,32288
12,64962,28340
12,65407,24703
12,65850,26000
12,66295,25739
12,66738,26859
12,67183,32412
12,67627,45369
12,68072,74961
12,68515,126419
12,68960,210577
12,69405,346305
12,69848,527925
12,70293,753051
12,70737,1010220
12,71182,1298955
12,71625,1552569
12,72070,1732645
12,72513,1796178
12,72958,1742157
12,73402,1565811
12,73847,1307705
12,74290,1048575
12,74735,812309
12,75178,611310
12,75623,456962
12,76067,340956
12,76512,266258
12,76955,206996
12,77400,166390
12,77843,136989
12,78288,116995
12,78732,101797
12,79177,84193
12,79620,74088
12,80065,65278
12,80508,59789
12,80953,52974
12,81398,49238
12,81842,43380
12,82287,40800
12,82730,36846
12,83175,34463
12,83618,30214
12,84063,31698
12,84507,29747
12,84952,27859
12,85395,26841
12,85840,26486
12,86283,24933
12,86728,23738
12,87172,22608
12,87617,20666
12,88060,19950
12,88505,18996
12,88948,18403
12,89393,16979
12,89837,16610
12,90282,16575
12,90725,15510
12,91170,15402
12,91613,14109
12,92058,14735
12,92502,13782
12,92947,12355
12,93392,13120
12,93835,12998
12,94280,12535
12,94723,11896
12,95168,12962
12,95612,11613
12,96057,10807
12,96500,11942
12,96945,11098
12,97388,10912
12,97833,10935
12,98277,11743
12,98722,10712
12,99165,10510
12,99610,11245
13,00053,10676
13,00498,10454
13,00942,11749
13,01387,12122
13,01830,14479
13,02275,20154
13,02718,32543
13,03163,60220
13,03607,105599
13,04052,182323
13,04495,284211
13,04940,410286
13,05385,535305
13,05828,677636
13,06273,766342
13,06717,830827
13,07162,811424
13,07605,753404
13,08050,664671
13,08493,544962
13,08938,431984
13,09382,335923
13,09827,257638
13,10270,196241
13,10715,149863
13,11158,120412
13,11603,96250
13,12047,81269
13,12492,66780
13,12935,59145
13,13380,49841
13,13823,42783
13,14268,38705
13,14712,34668
13,15157,28967
13,15600,28044
13,16045,26734
13,16488,24185
13,16933,22638
13,17378,21654
13,17822,21110
13,18267,21440
13,18710,17832
13,19155,18056
13,19598,17368
13,20043,18709
13,20487,15879
13,20932,15883
13,21375,14411
13,21820,15360
13,22263,13387
13,22708,13222
13,23152,13082
13,23597,13383
13,24040,13594
13,24485,14286
13,24928,13637
13,25373,13188
13,25817,13228
13,26262,12816
13,26705,13510
13,27150,11646
13,27593,12303
13,28038,12029
13,28482,11122
13,28927,11139
13,29370,12074
13,29815,11141
13,30260,11803
13,30703,10839
13,31148,10767
13,31592,11708
13,32037,12460
13,32480,12332
13,32925,11739
13,33368,10143
13,33813,10777
13,34257,10522
13,34702,10726
13,35145,11412
13,35590,10203
13,36033,9572
13,36478,10285
13,36922,10182
13,37367,10187
13,37810,12433
13,38255,15464
13,38698,24099
13,39143,42187
13,39587,70973
13,40032,123784
13,40475,204600
13,40920,306604
13,41363,429083
13,41808,563915
13,42253,679813
13,42697,767776
13,43142,792674
13,43585,779393
13,44030,695293
13,44473,592216
13,44918,493399
13,45362,379194
13,45807,297233
13,46250,229623
13,46695,171382
13,47138,133439
13,47583,105145
13,48027,83379
13,48472,71237
13,48915,58418
13,49360,49879
13,49803,45178
13,50248,39188
13,50692,36126
13,51137,33246
13,51580,29193
13,52025,27315
13,52468,25653
13,52913,23194
13,53357,22735
13,53802,21212
13,54247,20054
13,54690,20085
13,55135,19493
13,55578,18704
13,56023,18555
13,56467,18456
13,56912,15924
13,57355,16972
13,57800,14874
13,58243,15637
13,58688,14482
13,59132,14973
13,59577,15063
13,60020,13783
13,60465,14553
13,60908,13123
13,61353,13695
13,61797,11118
13,62242,11821
13,62685,11835
13,63130,10988
13,63573,11957
13,64018,13091
13,64462,11675
13,64907,11480
13,65350,12187
13,65795,11555
13,66240,10739
13,66683,10779
13,67128,10670
13,67572,11284
13,68017,11305
13,68460,10584
13,68905,11434
13,69348,9796
13,69793,9757
13,70237,9860
13,70682,9028
13,71125,9598
13,71570,9161
13,72013,9352
13,72458,9382
13,72902,9326
13,73347,8688
13,73790,9689
13,74235,8663
13,74678,8776
13,75123,8907
13,75567,9200
13,76012,9197
13,76455,10254
13,76900,8881
13,77343,9482
13,77788,9651
13,78233,7906
13,78677,9570
13,79122,9009
13,79565,9218
13,80010,9278
13,80453,9683
13,80898,8114
13,81342,9508
13,81787,9663
13,82230,8539
13,82675,9871
13,83118,8771
13,83563,10113
13,84007,8295
13,84452,8638
13,84895,9247
13,85340,8824
13,85783,9084
13,86228,9041
13,86672,9282
13,87117,8568
13,87560,10287
13,88005,10492
13,88448,12358
13,88893,17435
13,89337,31308
13,89782,55040
13,90227,100950
13,90670,177810
13,91115,294864
13,91558,456285
13,92003,670562
13,92447,914182
13,92892,1181458
13,93335,1448871
13,93780,1696316
13,94223,1940539
13,94668,2148690
13,95112,2307063
13,95557,2363403
13,96000,2281711
13,96445,2070646
13,96888,1780885
13,97333,1430640
13,97777,1113194
13,98222,837156
13,98665,612427
13,99110,464558
13,99553,355454
13,99998,283107
14,00442,226169
14,00887,187865
14,01330,158543
14,01775,136228
14,02218,119019
14,02663,101904
14,03108,92451
14,03552,82145
14,03997,74082
14,04440,67997
14,04885,62119
14,05328,53720
14,05773,51501
14,06217,49557
14,06662,46383
14,07105,41536
14,07550,39508
14,07993,38272
14,08438,34455
14,08882,33591
14,09327,31156
14,09770,31087
14,10215,29525
14,10658,29679
14,11103,29219
14,11547,28979
14,11992,28653
14,12435,30425
14,12880,32019
14,13323,30833
14,13768,32967
14,14212,33849
14,14657,32746
14,15102,33424
14,15545,31638
14,15990,28043
14,16433,25146
14,16878,24080
14,17322,22107
14,17767,18996
14,18210,20656
14,18655,18700
14,19098,18913
14,19543,17465
14,19987,20626
14,20432,25180
14,20875,37249
14,21320,56795
14,21763,93075
14,22208,153242
14,22652,233054
14,23097,338692
14,23540,457423
14,23985,557967
14,24428,647424
14,24873,687884
14,25317,694417
14,25762,650861
14,26205,574132
14,26650,488674
14,27095,381808
14,27538,301214
14,27983,233625
14,28427,182133
14,28872,138705
14,29315,109967
14,29760,90821
14,30203,75995
14,30648,61949
14,31092,54046
14,31537,47465
14,31980,42268
14,32425,37947
14,32868,34142
14,33313,31723
14,33757,29817
14,34202,30093
14,34645,30612
14,35090,37291
14,35533,51639
14,35978,77776
14,36422,124886
14,36867,187944
14,37310,286885
14,37755,409869
14,38198,555885
14,38643,705953
14,39088,838035
14,39532,905631
14,39977,912374
14,40420,859293
14,40865,765282
14,41308,632512
14,41753,501448
14,42197,394192
14,42642,299317
14,43085,232448
14,43530,180667
14,43973,144275
14,44418,117190
14,44862,97219
14,45307,82820
14,45750,70070
14,46195,64458
14,46638,55699
14,47083,49643
14,47527,44138
14,47972,42003
14,48415,37019
14,48860,36281
14,49303,33099
14,49748,31582
14,50192,28540
14,50637,27555
14,51082,25904
14,51525,25941
14,51970,23394
14,52413,21728
14,52858,23086
14,53302,22106
14,53747,20696
14,54190,18819
14,54635,20447
14,55078,21830
14,55523,22000
14,55967,22091
14,56412,21709
14,56855,21703
14,57300,19277
14,57743,18209
14,58188,17891
14,58632,15198
14,59077,15648
14,59520,16266
14,59965,14822
14,60408,14905
14,60853,15933
14,61297,15100
14,61742,14447
14,62185,13456
14,62630,13719
14,63075,12496
14,63518,13118
14,63963,12790
14,64407,14059
14,64852,14192
14,65295,13379
14,65740,12580
14,66183,12948
14,66628,12663
14,67072,12877
14,67517,13371
14,67960,14719
14,68405,12915
14,68848,13052
14,69293,11092
14,69737,11728
14,70182,11980
14,70625,12832
14,71070,12488
14,71513,15640
14,71958,22089
14,72402,31103
14,72847,57658
14,73290,97488
14,73735,163586
14,74178,262497
14,74623,388908
14,75067,545669
14,75512,708959
14,75957,850687
14,76400,957341
14,76845,987606
14,77288,937500
14,77733,832393
14,78177,696558
14,78622,546345
14,79065,423938
14,79510,329500
14,79953,243742
14,80398,193404
14,80842,151756
14,81287,125081
14,81730,104163
14,82175,85620
14,82618,73772
14,83063,66291
14,83507,59752
14,83952,54533
14,84395,47150
14,84840,43196
14,85283,41041
14,85728,36513
14,86172,36077
14,86617,32168
14,87060,29344
14,87505,32354
14,87950,27988
14,88393,27992
14,88838,27639
14,89282,26361
14,89727,24266
14,90170,24770
14,90615,23934
14,91058,24182
14,91503,22275
14,91947,21438
14,92392,20328
14,92835,19769
14,93280,20233
14,93723,17583
14,94168,17441
14,94612,17686
14,95057,16479
14,95500,15288
14,95945,14818
14,96388,15603
14,96833,16386
14,97277,15555
14,97722,14698
14,98165,15634
14,98610,15337
14,99053,14807
14,99498,14254
14,99943,14055
15,00387,13974
15,00832,13149
15,01275,13638
15,01720,14923
15,02163,13588
15,02608,15358
15,03052,16833
15,03497,21934
15,03940,30823
15,04385,51958
15,04828,85206
15,05273,148588
15,05717,229910
15,06162,346243
15,06605,469974
15,07050,608620
15,07493,703686
15,07938,788972
15,08382,791708
15,08827,748753
15,09270,674952
15,09715,566350
15,10158,459414
15,10603,360716
15,11047,275187
15,11492,215603
15,11937,168073
15,12380,133356
15,12825,109451
15,13268,90190
15,13713,75743
15,14157,64211
15,14602,57350
15,15045,50382
15,15490,45463
15,15933,42560
15,16378,40487
15,16822,35706
15,17267,32901
15,17710,30244
15,18155,29013
15,18598,28442
15,19043,25654
15,19487,24142
15,19932,23743
15,20375,22092
15,20820,21899
15,21263,20543
15,21708,19882
15,22152,18657
15,22597,20340
15,23040,19891
15,23485,19319
15,23930,18891
15,24373,17771
15,24818,16707
15,25262,17301
15,25707,17899
15,26150,15459
15,26595,17371
15,27038,17061
15,27483,16823
15,27927,16083
15,28372,15030
15,28815,14429
15,29260,15486
15,29703,14795
15,30148,13622
15,30592,13277
15,31037,15201
15,31480,14317
15,31925,13897
15,32368,14224
15,32813,13371
15,33257,13022
15,33702,14448
15,34145,13920
15,34590,13958
15,35033,14139
15,35478,13557
15,35923,12711
15,36367,12961
15,36812,13423
15,37255,13669
15,37700,11656
15,38143,12783
15,38588,12486
15,39032,11454
15,39477,13620
15,39920,13108
15,40365,13435
15,40808,12722
15,41253,13186
15,41697,13018
15,42142,13354
15,42585,13899
15,43030,12458
15,43473,14046
15,43918,12152
15,44362,13749
15,44807,13323
15,45250,12710
15,45695,12792
15,46138,12808
15,46583,12723
15,47027,13476
15,47472,12646
15,47915,12929
15,48360,12187
15,48805,12384
15,49248,13014
15,49693,12199
15,50137,13807
15,50582,15182
15,51025,21015
15,51470,31447
15,51913,53489
15,52358,98687
15,52802,178412
15,53247,298765
15,53690,479294
15,54135,729897
15,54578,1031037
15,55023,1391043
15,55467,1748404
15,55912,2114441
15,56355,2403876
15,56800,2576517
15,57243,2585750
15,57688,2410643
15,58132,2105303
15,58577,1733514
15,59020,1354483
15,59465,1023473
15,59908,778387
15,60353,586825
15,60798,457463
15,61242,364775
15,61687,295723
15,62130,243494
15,62575,209625
15,63018,177772
15,63463,157062
15,63907,135439
15,64352,122000
15,64795,113029
15,65240,102775
15,65683,93218
15,66128,88089
15,66572,81356
15,67017,76960
15,67460,70156
15,67905,68177
15,68348,61118
15,68793,57440
15,69237,53456
15,69682,49864
15,70125,45909
15,70570,44999
15,71013,42091
15,71458,40966
15,71902,40597
15,72347,38790
15,72792,38036
15,73235,37082
15,73680,35758
15,74123,34770
15,74568,34183
15,75012,31567
15,75457,32943
15,75900,28779
15,76345,29353
15,76788,29165
15,77233,29419
15,77677,25988
15,78122,26052
15,78565,27567
15,79010,25318
15,79453,24573
15,79898,24880
15,80342,23795
15,80787,25011
15,81230,29088
15,81675,34977
15,82118,47960
15,82563,72228
15,83007,112267
15,83452,171334
15,83895,254777
15,84340,367024
15,84785,476736
15,85228,598319
15,85673,688650
15,86117,733341
15,86562,731565
15,87005,683946
15,87450,599216
15,87893,506541
15,88338,422566
15,88782,356095
15,89227,329456
15,89670,337344
15,90115,377093
15,90558,440513
15,91003,526221
15,91447,622676
15,91892,679606
15,92335,718519
15,92780,716084
15,93223,661576
15,93668,593019
15,94112,507800
15,94557,440671
15,95000,394267
15,95445,376737
15,95888,403296
15,96333,455542
15,96778,550066
15,97222,666453
15,97667,784420
15,98110,884497
15,98555,925871
15,98998,911391
15,99443,850339
15,99887,741660
16,00332,626166
16,00775,505994
16,01220,404417
16,01663,322315
16,02108,255532
16,02552,207734
16,02997,171254
16,03440,143863
16,03885,121701
16,04328,108344
16,04773,97542
16,05217,88867
16,05662,81512
16,06105,73944
16,06550,64932
16,06993,63105
16,07438,59166
16,07882,55640
16,08327,51730
16,08772,45839
16,09215,44984
16,09660,43110
16,10103,41075
16,10548,38275
16,10992,37935
16,11437,35403
16,11880,34136
16,12325,33461
16,12768,33410
16,13213,30227
16,13657,30874
16,14102,30270
16,14545,27524
16,14990,27723
16,15433,26214
16,15878,27726
16,16322,26650
16,16767,25461
16,17210,23576
16,17655,24050
16,18098,22870
16,18543,23774
16,18987,23314
16,19432,21840
16,19875,23262
16,20320,22044
16,20763,22741
16,21208,23279
16,21653,22422
16,22097,22709
16,22542,21615
16,22985,21765
16,23430,22351
16,23873,21285
16,24318,22557
16,24762,21641
16,25207,20756
16,25650,20320
16,26095,19452
16,26538,19885
16,26983,24084
16,27427,27027
16,27872,33347
16,28315,43996
16,28760,63647
16,29203,101229
16,29648,155236
16,30092,237064
16,30537,339749
16,30980,479314
16,31425,627960
16,31868,772850
16,32313,883244
16,32757,922599
16,33202,913925
16,33647,835865
16,34090,718524
16,34535,587138
16,34978,467645
16,35423,363792
16,35867,288061
16,36312,231472
16,36755,185104
16,37200,153515
16,37643,129440
16,38088,110538
16,38532,96140
16,38977,87390
16,39420,77898
16,39865,69760
16,40308,64997
16,40753,60302
16,41197,56561
16,41642,53758
16,42085,48918
16,42530,47905
16,42973,45051
16,43418,42581
16,43862,43204
16,44307,39393
16,44750,37621
16,45195,40469
16,45640,38490
16,46083,36517
16,46528,35317
16,46972,34318
16,47417,33954
16,47860,32381
16,48305,31844
16,48748,32917
16,49193,29318
16,49637,30393
16,50082,27577
16,50525,29764
16,50970,28745
16,51413,28010
16,51858,26103
16,52302,27736
16,52747,26126
16,53190,24353
16,53635,26448
16,54078,26530
16,54523,24282
16,54967,25928
16,55412,22668
16,55855,23928
16,56300,24039
16,56743,22996
16,57188,21739
16,57633,24802
16,58077,24579
16,58522,26468
16,58965,30359
16,59410,39801
16,59853,58481
16,60298,89179
16,60742,136648
16,61187,218484
16,61630,319497
16,62075,436082
16,62518,562020
16,62963,677452
16,63407,749626
16,63852,779235
16,64295,754647
16,64740,676050
16,65183,571919
16,65628,466361
16,66072,374635
16,66517,297484
16,66960,232241
16,67405,194602
16,67848,165499
16,68293,150635
16,68737,156703
16,69182,183464
16,69627,224210
16,70070,294631
16,70515,376005
16,70958,471418
16,71403,547045
16,71847,612086
16,72292,632655
16,72735,624796
16,73180,576770
16,73623,498032
16,74068,413435
16,74512,340453
16,74957,276146
16,75400,222729
16,75845,177264
16,76288,147279
16,76733,121315
16,77177,100572
16,77622,89906
16,78065,77938
16,78510,69574
16,78953,63066
16,79398,56091
16,79842,53526
16,80287,49955
16,80730,48186
16,81175,46780
16,81620,42867
16,82063,39789
16,82508,40470
16,82952,38675
16,83397,36442
16,83840,35319
16,84285,33517
16,84728,32996
16,85173,32201
16,85617,31169
16,86062,30330
16,86505,30775
16,86950,28124
16,87393,28177
16,87838,27874
16,88282,26455
16,88727,26484
16,89170,26178
16,89615,27545
16,90058,25909
16,90503,24172
16,90947,26649
16,91392,25698
16,91835,23473
16,92280,24753
16,92723,24968
16,93168,23514
16,93612,23857
16,94057,25508
16,94502,24041
16,94945,24395
16,95390,23579
16,95833,23229
16,96278,22586
16,96722,23235
16,97167,24112
16,97610,23180
16,98055,22216
16,98498,20624
16,98943,22878
16,99387,21047
16,99832,20699
17,00275,20595
17,00720,22985
17,01163,21377
17,01608,21487
17,02052,23752
17,02497,26355
17,02940,35702
17,03385,53935
17,03828,84445
17,04273,131191
17,04717,201834
17,05162,297238
17,05605,428123
17,06050,586622
17,06495,774107
17,06938,1007896
17,07383,1241349
17,07827,1469427
17,08272,1639050
17,08715,1744148
17,09160,1745041
17,09603,1585342
17,10048,1349757
17,10492,1092610
17,10937,849658
17,11380,649267
17,11825,501327
17,12268,394678
17,12713,323458
17,13157,263902
17,13602,228931
17,14045,191844
17,14490,171372
17,14933,153043
17,15378,133369
17,15822,123222
17,16267,113481
17,16710,102573
17,17155,94501
17,17598,89937
17,18043,83491
17,18488,78523
17,18932,76589
17,19377,67536
17,19820,64744
17,20265,63881
17,20708,62316
17,21153,57382
17,21597,55676
17,22042,57700
17,22485,50472
17,22930,50396
17,23373,49943
17,23818,48129
17,24262,45192
17,24707,44817
17,25150,45243
17,25595,43722
17,26038,41501
17,26483,38256
17,26927,36902
17,27372,36917
17,27815,38468
17,28260,36525
17,28703,36625
17,29148,35554
17,29592,36794
17,30037,33978
17,30482,35006
17,30925,34495
17,31370,33362
17,31813,34911
17,32258,31996
17,32702,31622
17,33147,32454
17,33590,30993
17,34035,31092
17,34478,30704
17,34923,28475
17,35367,30911
17,35812,29617
17,36255,27704
17,36700,29761
17,37143,29626
17,37588,29902
17,38032,29381
17,38477,29144
17,38920,27704
17,39365,26831
17,39808,25876
17,40253,25646
17,40697,27783
17,41142,27363
17,41585,27201
17,42030,27534
17,42475,28291
17,42918,29042
17,43363,31124
17,43807,39769
17,44252,53551
17,44695,79472
17,45140,120459
17,45583,178998
17,46028,258563
17,46472,365603
17,46917,480293
17,47360,599079
17,47805,707988
17,48248,792065
17,48693,831732
17,49137,811393
17,49582,746897
17,50025,645392
17,50470,534251
17,50913,439223
17,51358,353238
17,51802,281225
17,52247,232799
17,52690,193233
17,53135,166820
17,53578,139476
17,54023,122030
17,54467,111285
17,54912,97790
17,55357,90204
17,55800,82674
17,56245,78044
17,56688,70767
17,57133,67054
17,57577,62081
17,58022,57802
17,58465,53474
17,58910,53714
17,59353,52738
17,59798,47560
17,60242,44627
17,60687,43876
17,61130,45532
17,61575,42797
17,62018,40090
17,62463,39992
17,62907,36591
17,63352,37369
17,63795,36219
17,64240,35962
17,64683,34138
17,65128,32826
17,65572,33296
17,66017,32101
17,66460,33607
17,66905,31009
17,67350,30532
17,67793,32271
17,68238,31150
17,68682,32343
17,69127,30593
17,69570,30399
17,70015,28184
17,70458,29509
17,70903,32286
17,71347,29272
17,71792,30640
17,72235,28621
17,72680,26967
17,73123,26334
17,73568,27045
17,74012,27311
17,74457,27312
17,74900,26644
17,75345,26831
17,75788,27266
17,76233,28320
17,76677,26824
17,77122,25876
17,77565,27051
17,78010,26597
17,78453,26337
17,78898,29427
17,79343,28471
17,79787,28454
17,80232,28248
17,80675,31307
17,81120,30524
17,81563,28529
17,82008,26893
17,82452,27502
17,82897,26930
17,83340,26308
17,83785,28019
17,84228,23658
17,84673,23385
17,85117,25349
17,85562,24474
17,86005,25192
17,86450,23867
17,86893,25544
17,87338,24752
17,87782,23569
17,88227,24282
17,88670,25784
17,89115,23926
17,89558,25640
17,90003,23096
17,90447,23393
17,90892,24293
17,91337,23643
17,91780,24650
17,92225,25705
17,92668,24765
17,93113,24635
17,93557,25259
17,94002,27110
17,94445,26411
17,94890,28928
17,95333,26997
17,95778,25478
17,96222,24766
17,96667,25507
17,97110,25364
17,97555,24984
17,97998,24037
17,98443,23456
17,98887,25706
17,99332,23655
17,99775,22377
18,00220,23232
18,00663,21393
18,01108,24096
18,01552,23024
18,01997,23304
18,02440,24671
18,02885,23742
18,03330,23956
18,03773,23171
18,04218,23942
18,04662,25220
18,05107,22898
18,05550,23151
18,05995,25702
18,06438,24222
18,06883,24475
18,07327,24835
18,07772,24156
18,08215,23630
18,08660,23767
18,09103,22097
18,09548,22912
18,09992,21924
18,10437,23176
18,10880,21420
18,11325,22020
18,11768,22875
18,12213,22487
18,12657,22377
18,13102,20950
18,13545,21391
18,13990,22758
18,14433,22871
18,14878,21764
18,15323,23012
18,15767,23349
18,16212,22394
18,16655,22071
18,17100,21309
18,17543,21600
18,17988,22540
18,18432,23455
18,18877,21398
18,19320,21845
18,19765,19984
18,20208,23235
18,20653,22140
18,21097,21422
18,21542,21421
18,21985,21863
18,22430,22854
18,22873,22833
18,23318,21251
18,23762,22748
18,24207,22464
18,24650,22010
18,25095,22567
18,25538,20955
18,25983,22889
18,26427,21043
18,26872,21517
18,27315,21049
18,27760,22234
18,28205,21902
18,28648,23176
18,29093,22875
18,29537,21318
18,29982,22232
18,30425,20029
18,30870,21853
18,31313,22190
18,31758,21086
18,32202,21164
18,32647,23794
18,33090,21387
18,33535,23172
18,33978,22574
18,34423,23492
18,34867,22274
18,35312,22908
18,35755,25031
18,36200,21926
18,36643,21792
18,37088,22210
18,37532,20306
18,37977,22348
18,38420,21800
18,38865,20362
18,39308,22818
18,39753,20597
18,40198,22536
18,40642,21434
18,41087,22392
18,41530,22453
18,41975,21139
18,42418,20198
18,42863,21214
18,43307,22147
18,43752,21326
18,44195,20965
18,44640,21754
18,45083,22372
18,45528,22287
18,45972,20286
18,46417,22281
18,46860,21496
18,47305,20147
18,47748,21374
18,48193,19644
18,48637,20723
18,49082,20489
18,49525,19807
18,49970,19249
18,50413,22031
18,50858,20981
18,51302,19613
18,51747,21601
18,52192,21185
18,52635,21112
18,53080,20124
18,53523,21920
18,53968,21454
18,54412,22617
18,54857,22785
18,55300,21522
18,55745,23693
18,56188,22418
18,56633,21905
18,57077,20805
18,57522,22405
18,57965,21590
18,58410,21973
18,58853,22964
18,59298,20842
18,59742,22091
18,60187,22301
18,60630,22274
18,61075,23366
18,61518,22826
18,61963,26212
18,62407,27811
18,62852,30939
18,63295,43047
18,63740,54812
18,64185,78066
18,64628,114098
18,65073,159437
18,65517,214244
18,65962,276479
18,66405,334525
18,66850,391257
18,67293,437301
18,67738,454249
18,68182,450301
18,68627,430126
18,69070,392830
18,69515,345151
18,69958,306878
18,70403,252398
18,70847,211143
18,71292,182249
18,71735,153337
18,72180,129798
18,72623,110050
18,73068,96558
18,73512,87383
18,73957,77244
18,74400,69969
18,74845,63257
18,75288,60161
18,75733,54716
18,76178,53368
18,76622,48342
18,77067,46729
18,77510,44577
18,77955,41683
18,78398,39982
18,78843,38741
18,79287,37058
18,79732,36566
18,80175,34348
18,80620,34479
18,81063,33908
18,81508,33037
18,81952,32614
18,82397,29242
18,82840,31275
18,83285,30516
18,83728,31550
18,84173,31203
18,84617,29680
18,85062,29972
18,85505,28265
18,85950,30499
18,86393,28585
18,86838,29005
18,87282,27287
18,87727,27145
18,88172,28459
18,88615,26492
18,89060,25068
18,89503,26697
18,89948,27146
18,90392,27201
18,90837,26410
18,91280,25960
18,91725,26800
18,92168,25835
18,92613,27744
18,93057,24249
18,93502,25732
18,93945,24814
18,94390,25792
18,94833,24673
18,95278,23967
18,95722,23869
18,96167,24436
18,96610,25377
18,97055,23372
18,97498,24281
18,97943,24679
18,98387,24088
18,98832,26388
18,99275,22784
18,99720,24456
19,00163,23950
19,00608,23612
19,01053,24678
19,01497,22910
19,01942,23233
19,02385,24412
19,02830,23375
19,03273,22744
19,03718,21466
19,04162,25162
19,04607,24077
19,05050,22468
19,05495,21867
19,05938,23665
19,06383,25341
19,06827,23536
19,07272,21834
19,07715,23486
19,08160,22556
19,08603,22640
19,09048,23270
19,09492,23922
19,09937,25045
19,10380,22301
19,10825,25887
19,11268,23855
19,11713,25207
19,12157,24279
19,12602,25574
19,13047,24618
19,13490,23644
19,13935,23186
19,14378,22983
19,14823,25027
19,15267,25435
19,15712,24290
19,16155,23500
19,16600,23765
19,17043,22273
19,17488,23344
19,17932,24521
19,18377,23870
19,18820,20961
19,19265,22764
19,19708,22475
19,20153,22873
19,20597,22812
19,21042,22632
19,21485,22204
19,21930,23648
19,22373,24258
19,22818,24892
19,23262,22292
19,23707,23892
19,24150,23144
19,24595,22112
19,25040,21902
19,25483,24068
19,25928,22179
19,26372,22491
19,26817,22964
19,27260,23784
19,27705,24125
19,28148,24088
19,28593,24293
19,29037,23093
19,29482,25418
19,29925,23274
19,30370,24292
19,30813,23201
19,31258,23206
19,31702,24143
19,32147,22269
19,32590,24135
19,33035,22927
19,33478,22508
19,33923,23933
19,34367,22079
19,34812,24440
19,35255,23906
19,35700,24880
19,36143,24379
19,36588,24071
19,37033,24028
19,37477,23737
19,37922,24092
19,38365,22148
19,38810,22956
19,39253,24846
19,39698,22974
19,40142,23822
19,40587,23939
19,41030,23416
19,41475,23621
19,41918,21847
19,42363,21017
19,42807,23311
19,43252,23439
19,43695,23503
19,44140,22743
19,44583,22078
19,45028,23741
19,45472,23272
19,45917,22686
19,46360,22934
19,46805,24346
19,47248,23495
19,47693,23204
19,48137,22880
19,48582,21288
19,49027,24635
19,49470,22100
19,49915,24361
19,50358,22796
19,50803,21801
19,51247,23214
19,51692,21549
19,52135,20353
19,52580,22919
19,53023,23215
19,53468,24116
19,53912,23362
19,54357,22779
19,54800,23563
19,55245,22613
19,55688,23987
19,56133,22984
19,56577,24349
19,57022,23187
19,57465,22291
19,57910,22004
19,58353,24262
19,58798,23068
19,59242,24003
19,59687,23536
19,60130,23959
19,60575,22290
19,61020,23667
19,61463,22624
19,61908,21631
19,62352,22994
19,62797,24392
19,63240,21508
19,63685,22281
19,64128,23914
19,64573,24369
19,65017,22201
19,65462,22195
19,65905,24223
19,66350,24025
19,66793,23660
19,67238,21894
19,67682,22914
19,68127,23178
19,68570,23158
19,69015,23066
19,69458,22661
19,69903,22911
19,70347,24730
19,70792,23778
19,71235,22665
19,71680,23290
19,72123,22375
