D:\MassHunter\GCMS\1\data\Amal\Constant flow\110C\110C_1ml-min_7C-min_1.D Tue Jul 30 17:14:48 2024
Start of data points
5,59088,23971
5,59500,22770
5,59912,21908
5,60323,21432
5,60737,23753
5,61148,21907
5,61560,21708
5,61973,21997
5,62385,20167
5,62797,21892
5,63210,20997
5,63622,19889
5,64033,21270
5,64447,21246
5,64858,20830
5,65270,21066
5,65683,20684
5,66095,20112
5,66507,20397
5,66920,20001
5,67332,19850
5,67743,20166
5,68157,19712
5,68568,20269
5,68980,22057
5,69392,20026
5,69805,19422
5,70217,19828
5,70628,20829
5,71042,19549
5,71453,19314
5,71865,19786
5,72278,19654
5,72690,18498
5,73102,19230
5,73515,20249
5,73927,19410
5,74338,19252
5,74752,19818
5,75163,19501
5,75575,18445
5,75988,18150
5,76400,18982
5,76812,18911
5,77225,19264
5,77637,18978
5,78048,18874
5,78460,18535
5,78873,18276
5,79285,17759
5,79697,18686
5,80110,18541
5,80522,19409
5,80933,18914
5,81347,18509
5,81758,19232
5,82170,18182
5,82583,18259
5,82995,17906
5,83407,18259
5,83820,17858
5,84232,18946
5,84643,19795
5,85057,18808
5,85468,19700
5,85880,20059
5,86293,18358
5,86705,18740
5,87117,18982
5,87528,19351
5,87942,18111
5,88353,18132
5,88765,17832
5,89178,18014
5,89590,17514
5,90002,17089
5,90415,16970
5,90827,16546
5,91238,17419
5,91652,17702
5,92063,17427
5,92475,18047
5,92888,17671
5,93300,18216
5,93712,21010
5,94125,25492
5,94537,31295
5,94948,40431
5,95362,50925
5,95773,66142
5,96185,77233
5,96598,88899
5,97010,96697
5,97422,98922
5,97833,100988
5,98247,101269
5,98658,95029
5,99070,93699
5,99483,91638
5,99895,85780
6,00307,82780
6,00720,77571
6,01132,76436
6,01543,71099
6,01957,68022
6,02368,64894
6,02780,60595
6,03193,57174
6,03605,54234
6,04017,54551
6,04430,49865
6,04842,48105
6,05253,44066
6,05667,43431
6,06078,41440
6,06490,41598
6,06902,39532
6,07315,35993
6,07727,36257
6,08138,34599
6,08552,34467
6,08963,31643
6,09375,32516
6,09788,29647
6,10200,28965
6,10612,26826
6,11025,25281
6,11437,25240
6,11848,22678
6,12262,23458
6,12673,22549
6,13085,21362
6,13498,20859
6,13910,19592
6,14322,19863
6,14735,19409
6,15147,17921
6,15558,17425
6,15970,17969
6,16383,16428
6,16795,17506
6,17207,16874
6,17620,16507
6,18032,17414
6,18443,15279
6,18857,15670
6,19268,15574
6,19680,14803
6,20093,14257
6,20505,15126
6,20917,12887
6,21330,14578
6,21742,14415
6,22153,14372
6,22567,14106
6,22978,13360
6,23390,14070
6,23803,13800
6,24215,13298
6,24627,14706
6,25038,12849
6,25452,13861
6,25863,12918
6,26275,12690
6,26688,13517
6,27100,13965
6,27512,13710
6,27925,13750
6,28337,12297
6,28748,13869
6,29162,13016
6,29573,12360
6,29985,12372
6,30398,12834
6,30810,12156
6,31222,12994
6,31635,12182
6,32047,12838
6,32458,12629
6,32872,12598
6,33283,12245
6,33695,11810
6,34107,11947
6,34520,11893
6,34932,11872
6,35343,11288
6,35757,10954
6,36168,11708
6,36580,11979
6,36993,11392
6,37405,11751
6,37817,12055
6,38230,12201
6,38642,13523
6,39053,11588
6,39467,11701
6,39878,10834
6,40290,12118
6,40703,11456
6,41115,11695
6,41527,12468
6,41940,11923
6,42352,11072
6,42763,11840
6,43175,11481
6,43588,11178
6,44000,11276
6,44412,11441
6,44825,11290
6,45237,11832
6,45648,11626
6,46062,11458
6,46473,10858
6,46885,11584
6,47298,10198
6,47710,11484
6,48122,10426
6,48535,11676
6,48947,10414
6,49358,10835
6,49772,9341
6,50183,10915
6,50595,9977
6,51008,9710
6,51420,11014
6,51832,10770
6,52243,9342
6,52657,10357
6,53068,10750
6,53480,9940
6,53893,10356
6,54305,10168
6,54717,10202
6,55130,10309
6,55542,10020
6,55953,9792
6,56367,10169
6,56778,9936
6,57190,9690
6,57603,9811
6,58015,10116
6,58427,11056
6,58840,10529
6,59252,9524
6,59663,10717
6,60077,9540
6,60488,9971
6,60900,10154
6,61312,10745
6,61725,9832
6,62137,10806
6,62548,10417
6,62962,9894
6,63373,10740
6,63785,10657
6,64198,9912
6,64610,9912
6,65022,10452
6,65435,9935
6,65847,10188
6,66258,9913
6,66672,9843
6,67083,9378
6,67495,9915
6,67908,9970
6,68320,10025
6,68732,10008
6,69145,10944
6,69557,9814
6,69968,10069
6,70380,9668
6,70793,9891
6,71205,9727
6,71617,9412
6,72030,9756
6,72442,9887
6,72853,8815
6,73267,8712
6,73678,8711
6,74090,9376
6,74503,9345
6,74915,8960
6,75327,9570
6,75740,10022
6,76152,9179
6,76563,9786
6,76977,8730
6,77388,8868
6,77800,8923
6,78213,8898
6,78625,8576
6,79037,9166
6,79448,9442
6,79862,9209
6,80273,8881
6,80685,9477
6,81098,9299
6,81510,10143
6,81922,10368
6,82335,9460
6,82747,10515
6,83158,9732
6,83572,11687
6,83983,10988
6,84395,10874
6,84808,10490
6,85220,9814
6,85632,9994
6,86045,9399
6,86457,10448
6,86868,10035
6,87282,8329
6,87693,9089
6,88105,9281
6,88517,9298
6,88930,9334
6,89342,9698
6,89753,8817
6,90167,9284
6,90578,8518
6,90990,8860
6,91403,7989
6,91815,8582
6,92227,8436
6,92640,7959
6,93052,8685
6,93463,8594
6,93877,8737
6,94288,8321
6,94700,8746
6,95113,7880
6,95525,8053
6,95937,8693
6,96350,8954
6,96762,8079
6,97173,8715
6,97585,7816
6,97998,8377
6,98410,8768
6,98822,8989
6,99235,8896
6,99647,8585
7,00058,6892
7,00472,8508
7,00883,8417
7,01295,8303
7,01708,8979
7,02120,8279
7,02532,7656
7,02945,7695
7,03357,7298
7,03768,7518
7,04182,7809
7,04593,8267
7,05005,7566
7,05418,7561
7,05830,7329
7,06242,7799
7,06653,7384
7,07067,7202
7,07478,7800
7,07890,7534
7,08303,7699
7,08715,7861
7,09127,8507
7,09540,7711
7,09952,8052
7,10363,7718
7,10777,8176
7,11188,7907
7,11600,7389
7,12013,7910
7,12425,7615
7,12837,7686
7,13250,7378
7,13662,7984
7,14073,7666
7,14487,8326
7,14898,7143
7,15310,7620
7,15722,6607
7,16135,7881
7,16547,7883
7,16958,6952
7,17372,7439
7,17783,7577
7,18195,7604
7,18608,7821
7,19020,7320
7,19432,7470
7,19845,7455
7,20257,6900
7,20668,7976
7,21082,7950
7,21493,8262
7,21905,7300
7,22318,7731
7,22730,7635
7,23142,7467
7,23555,9362
7,23967,7826
7,24378,7717
7,24790,8816
7,25203,7109
7,25615,7297
7,26027,7870
7,26440,8357
7,26852,7759
7,27263,8272
7,27677,7219
7,28088,7076
7,28500,7021
7,28913,6900
7,29325,6957
7,29737,7357
7,30150,7047
7,30562,8104
7,30973,7787
7,31387,11237
7,31798,15724
7,32210,22539
7,32623,38243
7,33035,65687
7,33447,99698
7,33858,150979
7,34272,211290
7,34683,274050
7,35095,340459
7,35508,393095
7,35920,429112
7,36332,442465
7,36745,461302
7,37157,458545
7,37568,440663
7,37982,423361
7,38393,394722
7,38805,370947
7,39218,342772
7,39630,317346
7,40042,286971
7,40455,265463
7,40867,240386
7,41278,219679
7,41692,202775
7,42103,183896
7,42515,168089
7,42927,151121
7,43340,139387
7,43752,124105
7,44163,115366
7,44577,100139
7,44988,90161
7,45400,82040
7,45813,72251
7,46225,62926
7,46637,55237
7,47050,48739
7,47462,43792
7,47873,39858
7,48287,33908
7,48698,31657
7,49110,28658
7,49523,26483
7,49935,25346
7,50347,21387
7,50760,21724
7,51172,21423
7,51583,18585
7,51995,15785
7,52408,15842
7,52820,15073
7,53232,13717
7,53645,13329
7,54057,11880
7,54468,11190
7,54882,11505
7,55293,10265
7,55705,10071
7,56118,9832
7,56530,9405
7,56942,9485
7,57355,9734
7,57767,8893
7,58178,8533
7,58592,8353
7,59003,8479
7,59415,8659
7,59828,7581
7,60240,8063
7,60652,8372
7,61063,7386
7,61477,8556
7,61888,8322
7,62300,7769
7,62713,7398
7,63125,7889
7,63537,6766
7,63950,7288
7,64362,7653
7,64773,7524
7,65187,7423
7,65598,7164
7,66010,6210
7,66423,7390
7,66835,6935
7,67247,6870
7,67660,6722
7,68072,6965
7,68483,6776
7,68897,6008
7,69308,6354
7,69720,6542
7,70133,7162
7,70545,6313
7,70957,6510
7,71368,6890
7,71782,6059
7,72193,6139
7,72605,5868
7,73018,6628
7,73430,6351
7,73842,7146
7,74255,6620
7,74667,6963
7,75078,6696
7,75492,5917
7,75903,8176
7,76315,6469
7,76728,7023
7,77140,7284
7,77552,5629
7,77965,5602
7,78377,7233
7,78788,7005
7,79202,6887
7,79613,6016
7,80025,7241
7,80437,6088
7,80850,6052
7,81262,6644
7,81673,5525
7,82087,5759
7,82498,5448
7,82910,5917
7,83323,6336
7,83735,5952
7,84147,6576
7,84560,5353
7,84972,5520
7,85383,5942
7,85797,6247
7,86208,5843
7,86620,5230
7,87033,5962
7,87445,5552
7,87857,5687
7,88270,5891
7,88682,5680
7,89093,5540
7,89505,5165
7,89918,5863
7,90330,5627
7,90742,5444
7,91155,6987
7,91567,5785
7,91978,5630
7,92392,5877
7,92803,4904
7,93215,5403
7,93628,5422
7,94040,4884
7,94452,5666
7,94865,5601
7,95277,5698
7,95688,5477
7,96102,5063
7,96513,4863
7,96925,5839
7,97338,6211
7,97750,5545
7,98162,5222
7,98573,6290
7,98987,4967
7,99398,5626
7,99810,5086
8,00223,5908
8,00635,5781
8,01047,5130
8,01460,5069
8,01872,5218
8,02283,5632
8,02697,4630
8,03108,5915
8,03520,5374
8,03933,5135
8,04345,5203
8,04757,5469
8,05170,5252
8,05582,5529
8,05993,4708
8,06407,6013
8,06818,5704
8,07230,4867
8,07642,5697
8,08055,4404
8,08467,5355
8,08878,5326
8,09292,4805
8,09703,5168
8,10115,4720
8,10528,5385
8,10940,5087
8,11352,5184
8,11765,5675
8,12177,5297
8,12588,4956
8,13002,4748
8,13413,4899
8,13825,4947
8,14238,4665
8,14650,5056
8,15062,5427
8,15475,5669
8,15887,4868
8,16298,5820
8,16710,5363
8,17123,5403
8,17535,7056
8,17947,8466
8,18360,11805
8,18772,18285
8,19183,28134
8,19597,47001
8,20008,71270
8,20420,109156
8,20833,149324
8,21245,193514
8,21657,232069
8,22070,270744
8,22482,298271
8,22893,317436
8,23307,321932
8,23718,316663
8,24130,298556
8,24543,285501
8,24955,262596
8,25367,242024
8,25778,219472
8,26192,198385
8,26603,176218
8,27015,154371
8,27428,140273
8,27840,124176
8,28252,105106
8,28665,97130
8,29077,82128
8,29488,72585
8,29902,62006
8,30313,54336
8,30725,45631
8,31138,39517
8,31550,37151
8,31962,29574
8,32375,25998
8,32787,23239
8,33198,20523
8,33612,17561
8,34023,17012
8,34435,15062
8,34847,14583
8,35260,12448
8,35672,10676
8,36083,11682
8,36497,9748
8,36908,9872
8,37320,9157
8,37733,9039
8,38145,8072
8,38557,7758
8,38970,7729
8,39382,7021
8,39793,7365
8,40207,8232
8,40618,7246
8,41030,7851
8,41443,8526
8,41855,7349
8,42267,6963
8,42680,7286
8,43092,6440
8,43503,6994
8,43915,7492
8,44328,7988
8,44740,7438
8,45152,6994
8,45565,7454
8,45977,6736
8,46388,6744
8,46802,7249
8,47213,7395
8,47625,6652
8,48038,6415
8,48450,6472
8,48862,5966
8,49275,5672
8,49687,5326
8,50098,5554
8,50512,5777
8,50923,6802
8,51335,5730
8,51748,5396
8,52160,5702
8,52572,5647
8,52983,5167
8,53397,5186
8,53808,5819
8,54220,5147
8,54633,4969
8,55045,4792
8,55457,5046
8,55870,5927
8,56282,5452
8,56693,6573
8,57107,5658
8,57518,5574
8,57930,6179
8,58343,5960
8,58755,5897
8,59167,5780
8,59580,6031
8,59992,5052
8,60403,5852
8,60817,5689
8,61228,5016
8,61640,5178
8,62052,5410
8,62465,5043
8,62877,4871
8,63288,4372
8,63702,4488
8,64113,5343
8,64525,3826
8,64938,4417
8,65350,4960
8,65762,3689
8,66175,4020
8,66587,4275
8,66998,4676
8,67412,3946
8,67823,4279
8,68235,4090
8,68648,4527
8,69060,3693
8,69472,4197
8,69885,5216
8,70297,3586
8,70708,4814
8,71120,4786
8,71533,4135
8,71945,4147
8,72357,4083
8,72770,3854
8,73182,4069
8,73593,4516
8,74007,4118
8,74418,3188
8,74830,3899
8,75243,4434
8,75655,4124
8,76067,4226
8,76480,4195
8,76892,4150
8,77303,3962
8,77717,3810
8,78128,4176
8,78540,3565
8,78953,3874
8,79365,4105
8,79777,3417
8,80188,3815
8,80602,4023
8,81013,4151
8,81425,4368
8,81838,4197
8,82250,3788
8,82662,3835
8,83075,3934
8,83487,4128
8,83898,3615
8,84312,4359
8,84723,4385
8,85135,3680
8,85548,4354
8,85960,4577
8,86372,4022
8,86785,4546
8,87197,4280
8,87608,3996
8,88022,3577
8,88433,4652
8,88845,4052
8,89257,4127
8,89670,3789
8,90082,4255
8,90493,3899
8,90907,3735
8,91318,3774
8,91730,4267
8,92143,4259
8,92555,3625
8,92967,3575
8,93380,3778
8,93792,3720
8,94203,3458
8,94617,3549
8,95028,3703
8,95440,3727
8,95853,3598
8,96265,4672
8,96677,3727
8,97090,4604
8,97502,3757
8,97913,3808
8,98325,3856
8,98738,4500
8,99150,3658
8,99562,4407
8,99975,4228
9,00387,3495
9,00798,4343
9,01212,4082
9,01623,4089
9,02035,3783
9,02448,3879
9,02860,3345
9,03272,3445
9,03685,3408
9,04097,3946
9,04508,3975
9,04922,3319
9,05333,3868
9,05745,3930
9,06158,4109
9,06570,3346
9,06982,3324
9,07393,4265
9,07807,3663
9,08218,3071
9,08630,3810
9,09043,3902
9,09455,4117
9,09867,3367
9,10280,3744
9,10692,4573
9,11103,4983
9,11517,6144
9,11928,10261
9,12340,18456
9,12753,31277
9,13165,56214
9,13577,95800
9,13990,158948
9,14402,243083
9,14813,340765
9,15227,454014
9,15638,559092
9,16050,664341
9,16462,739401
9,16875,788449
9,17287,821594
9,17698,810191
9,18112,776324
9,18523,720563
9,18935,655218
9,19348,579331
9,19760,508565
9,20172,438142
9,20585,371458
9,20997,319214
9,21408,263099
9,21822,220971
9,22233,178877
9,22645,149977
9,23058,125573
9,23470,101668
9,23882,86624
9,24295,71288
9,24707,59211
9,25118,50149
9,25532,43208
9,25943,36689
9,26355,32576
9,26767,28546
9,27180,26254
9,27592,23074
9,28003,21795
9,28417,19374
9,28828,17692
9,29240,14702
9,29653,15087
9,30065,14746
9,30477,13652
9,30890,12364
9,31302,11414
9,31713,10663
9,32127,10444
9,32538,9899
9,32950,10040
9,33363,8229
9,33775,8677
9,34187,8317
9,34600,7966
9,35012,6432
9,35423,7461
9,35835,7207
9,36248,6503
9,36660,6609
9,37072,7243
9,37485,6701
9,37897,7031
9,38308,6411
9,38722,6138
9,39133,6208
9,39545,5851
9,39958,4928
9,40370,5190
9,40782,4581
9,41195,4653
9,41607,4749
9,42018,4454
9,42432,4289
9,42843,5351
9,43255,4378
9,43668,5185
9,44080,4709
9,44492,5173
9,44903,4766
9,45317,3930
9,45728,4626
9,46140,4013
9,46553,4442
9,46965,4226
9,47377,4239
9,47790,4210
9,48202,4330
9,48613,3739
9,49027,4202
9,49438,3817
9,49850,3500
9,50263,4257
9,50675,4205
9,51087,3826
9,51500,4109
9,51912,3906
9,52323,3808
9,52737,4458
9,53148,4151
9,53560,3866
9,53972,4253
9,54385,4028
9,54797,3734
9,55208,4413
9,55622,4300
9,56033,5310
9,56445,5844
9,56858,5930
9,57270,5560
9,57682,4269
9,58095,4562
9,58507,4233
9,58918,3549
9,59332,3583
9,59743,4069
9,60155,3505
9,60568,3966
9,60980,3957
9,61392,3937
9,61805,3624
9,62217,3702
9,62628,3569
9,63040,3234
9,63453,3847
9,63865,3312
9,64277,3118
9,64690,3851
9,65102,2789
9,65513,3348
9,65927,3245
9,66338,4213
9,66750,3201
9,67163,3495
9,67575,3634
9,67987,3469
9,68400,3424
9,68812,3748
9,69223,3414
9,69637,3262
9,70048,3391
9,70460,3321
9,70873,3562
9,71285,3032
9,71697,2713
9,72108,3787
9,72522,3621
9,72933,3367
9,73345,2893
9,73758,3445
9,74170,3511
9,74582,3497
9,74995,3216
9,75407,3412
9,75818,3487
9,76232,4025
9,76643,3469
9,77055,2514
9,77468,2842
9,77880,3179
9,78292,3162
9,78705,3105
9,79117,4181
9,79528,4240
9,79942,4370
9,80353,4123
9,80765,4122
9,81177,5556
9,81590,5145
9,82002,6233
9,82413,6195
9,82827,6514
9,83238,7481
9,83650,6814
9,84063,7006
9,84475,6699
9,84887,6588
9,85300,6102
9,85712,6132
9,86123,5752
9,86537,5821
9,86948,5594
9,87360,4640
9,87773,4892
9,88185,3763
9,88597,4437
9,89010,4161
9,89422,3712
9,89833,4081
9,90245,3708
9,90658,3722
9,91070,3348
9,91482,3254
9,91895,3302
9,92307,2971
9,92718,2975
9,93132,2655
9,93543,2860
9,93955,3227
9,94368,2690
9,94780,2609
9,95192,2839
9,95605,3143
9,96017,2898
9,96428,3172
9,96842,3064
9,97253,2744
9,97665,2616
9,98078,3008
9,98490,3019
9,98902,2933
9,99313,3366
9,99727,2617
10,00138,2684
10,00550,2986
10,00963,2334
10,01375,2634
10,01787,2404
10,02200,2853
10,02612,2774
10,03023,2983
10,03437,2592
10,03848,3096
10,04260,3146
10,04673,2623
10,05085,2327
10,05497,2717
10,05910,3236
10,06322,2245
10,06733,2864
10,07147,2801
10,07558,2434
10,07970,2253
10,08382,3051
10,08795,2521
10,09207,3068
10,09618,3429
10,10032,4074
10,10443,7071
10,10855,10464
10,11268,18648
10,11680,33048
10,12092,58234
10,12505,99069
10,12917,147998
10,13328,209831
10,13742,285633
10,14153,349425
10,14565,411191
10,14978,462414
10,15390,488782
10,15802,493854
10,16215,475611
10,16627,439359
10,17038,389939
10,17450,346479
10,17863,291979
10,18275,247107
10,18687,198862
10,19100,162875
10,19512,128032
10,19923,103091
10,20337,82000
10,20748,65735
10,21160,54493
10,21573,45108
10,21985,36845
10,22397,30931
10,22810,26198
10,23222,22470
10,23633,19074
10,24047,18802
10,24458,16213
10,24870,14016
10,25283,13146
10,25695,11521
10,26107,11070
10,26518,10750
10,26932,8977
10,27343,8892
10,27755,8006
10,28168,7384
10,28580,7420
10,28992,6415
10,29405,7019
10,29817,7441
10,30228,6217
10,30642,5902
10,31053,5577
10,31465,5429
10,31878,4719
10,32290,4916
10,32702,4437
10,33115,4404
10,33527,4258
10,33938,4478
10,34352,4564
10,34763,3862
10,35175,4713
10,35587,3929
10,36000,4624
10,36412,3900
10,36823,3560
10,37237,3557
10,37648,3158
10,38060,3887
10,38473,3553
10,38885,3461
10,39297,3093
10,39710,3549
10,40122,2976
10,40533,3229
10,40947,3395
10,41358,3061
10,41770,2688
10,42183,3891
10,42595,3115
10,43007,2603
10,43420,3000
10,43832,3332
10,44243,2768
10,44655,2685
10,45068,2727
10,45480,2674
10,45892,2495
10,46305,3090
10,46717,3325
10,47128,2862
10,47542,2426
10,47953,3265
10,48365,3228
10,48778,2512
10,49190,2405
10,49602,2640
10,50015,2316
10,50427,2924
10,50838,2916
10,51252,2134
10,51663,2979
10,52075,3069
10,52488,2671
10,52900,2415
10,53312,3236
10,53723,2871
10,54137,2490
10,54548,2911
10,54960,2049
10,55373,2588
10,55785,2588
10,56197,2120
10,56610,2461
10,57022,2727
10,57433,2182
10,57847,2834
10,58258,2503
10,58670,2260
10,59083,1966
10,59495,2461
10,59907,2393
10,60320,2212
10,60732,2233
10,61143,2472
10,61557,2518
10,61968,2971
10,62380,3028
10,62792,2691
10,63205,3366
10,63617,3604
10,64028,3784
10,64442,4921
10,64853,4221
10,65265,4520
10,65678,4615
10,66090,4174
10,66502,4166
10,66915,3719
10,67327,3793
10,67738,3447
10,68152,3155
10,68563,3235
10,68975,2908
10,69388,2895
10,69800,2818
10,70212,3005
10,70625,2499
10,71037,2328
10,71448,2380
10,71860,2412
10,72273,2558
10,72685,2303
10,73097,2519
10,73510,1952
10,73922,2108
10,74333,1853
10,74747,2583
10,75158,2110
10,75570,2270
10,75983,1890
10,76395,2249
10,76807,2262
10,77220,2226
10,77632,2101
10,78043,2229
10,78457,3004
10,78868,2617
10,79280,3070
10,79693,2889
10,80105,2923
10,80517,3208
10,80928,3587
10,81342,3660
10,81753,3191
10,82165,4401
10,82578,4091
10,82990,3689
10,83402,2972
10,83815,3676
10,84227,3467
10,84638,2162
10,85052,2859
10,85463,2897
10,85875,2446
10,86288,2074
10,86700,2277
10,87112,2507
10,87525,2728
10,87937,2177
10,88348,2045
10,88762,1880
10,89173,2257
10,89585,2228
10,89998,2299
10,90410,2465
10,90822,2377
10,91233,2231
10,91647,1828
10,92058,2063
10,92470,2525
10,92883,3035
10,93295,2195
10,93707,2816
10,94120,2897
10,94532,2850
10,94943,2345
10,95357,2300
10,95768,2142
10,96180,2031
10,96593,1849
10,97005,2337
10,97417,2275
10,97830,2153
10,98242,2332
10,98653,2541
10,99067,2526
10,99478,2220
10,99890,2073
11,00302,2299
11,00715,1938
11,01127,1693
11,01538,1792
11,01952,2179
11,02363,1972
11,02775,2322
11,03188,1962
11,03600,1676
11,04012,2411
11,04425,2385
11,04837,1691
11,05248,1952
11,05662,2145
11,06073,1703
11,06485,2428
11,06898,2115
11,07310,2070
11,07722,2496
11,08135,2135
11,08547,1636
11,08958,3011
11,09370,1972
11,09783,2755
11,10195,5240
11,10607,9354
11,11020,18534
11,11432,35180
11,11843,66860
11,12257,119429
11,12668,194817
11,13080,302092
11,13493,443214
11,13905,605888
11,14317,780412
11,14730,934487
11,15142,1067079
11,15553,1141201
11,15967,1154090
11,16378,1103691
11,16790,1028905
11,17203,911859
11,17615,768130
11,18027,624033
11,18438,501511
11,18852,391706
11,19263,304949
11,19675,238499
11,20088,185003
11,20500,149162
11,20912,118276
11,21325,96005
11,21737,76259
11,22148,62462
11,22562,56012
11,22973,48490
11,23385,41091
11,23798,35731
11,24210,32944
11,24622,28148
11,25035,26130
11,25447,23973
11,25858,21486
11,26272,18056
11,26683,17856
11,27095,16071
11,27507,15681
11,27920,13449
11,28332,12843
11,28743,11587
11,29157,11213
11,29568,10978
11,29980,9502
11,30393,9190
11,30805,8257
11,31217,8424
11,31630,7504
11,32042,7551
11,32453,8248
11,32867,6914
11,33278,6965
11,33690,6581
11,34103,7426
11,34515,7150
11,34927,6661
11,35340,6681
11,35752,7009
11,36163,7192
11,36575,7767
11,36988,7315
11,37400,6910
11,37812,7038
11,38225,7005
11,38637,7410
11,39048,6517
11,39462,6437
11,39873,5768
11,40285,5173
11,40698,5113
11,41110,4523
11,41522,4145
11,41935,3720
11,42347,4311
11,42758,3746
11,43172,3096
11,43583,3998
11,43995,3462
11,44408,3660
11,44820,3040
11,45232,3322
11,45643,2819
11,46057,3023
11,46468,2486
11,46880,3017
11,47293,3198
11,47705,3063
11,48117,2733
11,48530,2993
11,48942,2358
11,49353,2427
11,49767,2605
11,50178,2765
11,50590,2417
11,51003,2624
11,51415,2544
11,51827,2790
11,52240,2616
11,52652,3185
11,53063,2611
11,53477,2380
11,53888,2393
11,54300,2588
11,54712,2438
11,55125,1916
11,55537,2780
11,55948,2160
11,56362,2623
11,56773,2075
11,57185,1988
11,57598,1912
11,58010,2475
11,58422,2472
11,58835,2362
11,59247,2018
11,59658,2710
11,60072,2628
11,60483,2425
11,60895,2207
11,61308,2047
11,61720,2225
11,62132,2836
11,62545,2326
11,62957,3362
11,63368,4578
11,63780,4689
11,64193,5529
11,64605,4945
11,65017,5002
11,65430,4782
11,65842,3737
11,66253,3441
11,66667,3185
11,67078,3441
11,67490,2647
11,67903,3052
11,68315,2345
11,68727,2558
11,69140,2205
11,69552,1883
11,69963,2877
11,70377,2308
11,70788,1626
11,71200,2323
11,71613,1868
11,72025,1838
11,72437,1992
11,72848,1953
11,73262,1819
11,73673,2307
11,74085,1886
11,74498,2199
11,74910,1848
11,75322,1965
11,75735,2163
11,76147,2265
11,76558,1616
11,76972,2179
11,77383,1838
11,77795,1508
11,78208,2091
11,78620,1979
11,79032,2373
11,79445,1618
11,79857,1858
11,80268,1724
11,80682,2234
11,81093,2544
11,81505,2653
11,81917,4368
11,82330,9322
11,82742,17664
11,83153,32979
11,83567,58803
11,83978,96879
11,84390,153558
11,84803,217685
11,85215,297652
11,85627,378109
11,86040,454673
11,86452,512252
11,86863,547793
11,87277,556436
11,87688,524818
11,88100,478927
11,88513,419513
11,88925,352595
11,89337,288669
11,89750,231540
11,90162,181086
11,90573,143279
11,90985,110289
11,91398,85628
11,91810,70163
11,92222,55028
11,92635,46373
11,93047,38114
11,93458,32420
11,93872,26376
11,94283,24053
11,94695,22588
11,95108,18333
11,95520,17131
11,95932,14734
11,96345,12568
11,96757,12111
11,97168,11355
11,97582,10415
11,97993,8935
11,98405,7688
11,98818,8186
11,99230,5713
11,99642,6894
12,00053,7343
12,00467,5309
12,00878,5451
12,01290,5548
12,01703,4116
12,02115,4942
12,02527,4279
12,02940,5209
12,03352,4052
12,03763,3570
12,04177,4164
12,04588,2605
12,05000,3041
12,05413,4001
12,05825,3553
12,06237,2952
12,06650,3413
12,07062,3443
12,07473,2831
12,07887,3026
12,08298,2594
12,08710,2716
12,09122,3217
12,09535,2827
12,09947,4028
12,10358,5944
12,10772,10078
12,11183,20481
12,11595,36154
12,12008,66820
12,12420,112000
12,12832,171450
12,13245,255267
12,13657,343054
12,14068,436950
12,14482,522887
12,14893,586504
12,15305,622449
12,15718,618462
12,16130,585322
12,16542,522056
12,16955,447094
12,17367,370996
12,17778,290834
12,18190,233580
12,18603,176362
12,19015,132104
12,19427,106789
12,19840,81772
12,20252,64159
12,20663,50876
12,21077,42180
12,21488,35622
12,21900,29932
12,22313,25902
12,22725,23669
12,23137,19425
12,23550,17741
12,23962,16022
12,24373,14360
12,24787,13776
12,25198,12088
12,25610,10731
12,26023,10086
12,26435,8549
12,26847,8748
12,27258,7354
12,27672,7541
12,28083,6801
12,28495,7085
12,28908,5961
12,29320,6167
12,29732,5315
12,30145,5447
12,30557,4966
12,30968,4705
12,31382,3759
12,31793,4747
12,32205,4570
12,32618,4023
12,33030,4260
12,33442,4047
12,33855,4390
12,34267,3722
12,34678,3286
12,35092,3691
12,35503,4032
12,35915,3179
12,36327,3210
12,36740,3216
12,37152,3017
12,37563,2735
12,37977,2689
12,38388,2752
12,38800,2185
12,39213,2308
12,39625,2168
12,40037,2902
12,40450,2262
12,40862,2455
12,41273,2996
12,41687,2425
12,42098,2412
12,42510,2105
12,42923,2347
12,43335,2639
12,43747,2309
12,44160,2083
12,44572,2175
12,44983,2313
12,45395,1920
12,45808,2197
12,46220,1694
12,46632,2127
12,47045,1651
12,47457,1694
12,47868,1939
12,48282,1855
12,48693,1696
12,49105,1567
12,49518,2056
12,49930,2350
12,50342,1688
12,50755,2423
12,51167,2735
12,51578,2019
12,51992,2023
12,52403,1847
12,52815,1683
12,53228,2240
12,53640,2295
12,54052,2079
12,54463,2005
12,54877,2589
12,55288,1887
12,55700,1642
12,56113,1772
12,56525,1678
12,56937,2075
12,57350,2414
12,57762,2337
12,58173,1803
12,58587,2243
12,58998,1910
12,59410,1961
12,59823,1737
12,60235,2143
12,60647,2416
12,61060,2176
12,61472,1827
12,61883,2535
12,62297,2411
12,62708,2337
12,63120,1840
12,63533,2063
12,63945,1501
12,64357,2273
12,64768,2043
12,65182,1625
12,65593,1876
12,66005,1794
12,66418,1570
12,66830,1892
12,67242,1912
12,67655,2071
12,68067,2195
12,68478,1721
12,68892,2035
12,69303,2021
12,69715,1410
12,70128,2036
12,70540,2111
12,70952,1817
12,71365,2020
12,71777,1876
12,72188,1262
12,72602,1296
12,73013,1711
12,73425,1790
12,73837,1740
12,74250,1656
12,74662,2239
12,75073,1420
12,75487,1968
12,75898,2329
12,76310,1777
12,76723,1972
12,77135,1364
12,77547,1304
12,77960,2187
12,78372,1704
12,78783,1796
12,79197,1340
12,79608,1948
12,80020,2372
12,80433,1721
12,80845,2583
12,81257,3702
12,81670,4997
12,82082,10885
12,82493,23378
12,82905,42888
12,83318,72298
12,83730,122517
12,84142,184277
12,84555,267765
12,84967,354793
12,85378,449216
12,85792,523245
12,86203,587702
12,86615,607474
12,87028,598141
12,87440,556845
12,87852,501199
12,88265,423689
12,88677,341678
12,89088,277696
12,89502,214253
12,89913,165220
12,90325,127783
12,90738,97731
12,91150,77137
12,91562,61458
12,91973,50989
12,92387,42422
12,92798,34265
12,93210,28556
12,93623,24306
12,94035,21950
12,94447,20284
12,94860,17313
12,95272,15897
12,95683,13670
12,96097,13564
12,96508,11142
12,96920,10683
12,97333,10642
12,97745,10148
12,98157,8641
12,98570,8216
12,98982,7190
12,99393,6701
12,99807,7160
13,00218,5524
13,00630,4535
13,01042,4400
13,01455,4105
13,01867,3876
13,02278,4625
13,02692,3688
13,03103,4153
13,03515,3673
13,03928,4406
13,04340,3877
13,04752,3002
13,05165,3410
13,05577,3408
13,05988,2403
13,06402,3309
13,06813,3368
13,07225,3191
13,07638,3357
13,08050,5608
13,08462,11519
13,08875,22447
13,09287,45058
13,09698,82328
13,10110,149122
13,10523,253773
13,10935,394013
13,11347,588502
13,11760,819935
13,12172,1095633
13,12583,1395700
13,12997,1671731
13,13408,1899718
13,13820,2034708
13,14233,2056631
13,14645,1972785
13,15057,1736566
13,15470,1470094
13,15882,1172228
13,16293,903012
13,16707,677795
13,17118,500585
13,17530,379281
13,17943,284261
13,18355,223574
13,18767,178761
13,19178,144043
13,19592,119729
13,20003,102270
13,20415,86508
13,20828,72426
13,21240,66689
13,21652,57555
13,22065,48818
13,22477,46898
13,22888,41902
13,23302,39332
13,23713,34369
13,24125,33329
13,24538,26788
13,24950,28685
13,25362,24931
13,25775,22327
13,26187,20385
13,26598,17933
13,27012,17347
13,27423,15597
13,27835,14949
13,28247,15138
13,28660,13774
13,29072,12260
13,29483,12771
13,29897,13311
13,30308,10845
13,30720,9140
13,31133,11065
13,31545,10006
13,31957,8781
13,32370,8535
13,32782,8207
13,33193,7668
13,33607,7327
13,34018,6852
13,34430,7044
13,34843,7329
13,35255,6500
13,35667,6428
13,36080,5963
13,36492,6216
13,36903,5058
13,37315,6422
13,37728,4865
13,38140,4808
13,38552,4769
13,38965,5175
13,39377,4093
13,39788,4386
13,40202,3999
13,40613,4145
13,41025,4247
13,41438,3571
13,41850,3878
13,42262,3239
13,42675,2788
13,43087,3828
13,43498,2672
13,43912,2691
13,44323,3315
13,44735,3423
13,45148,2857
13,45560,2895
13,45972,2480
13,46383,2783
13,46797,3063
13,47208,2868
13,47620,3013
13,48033,3324
13,48445,3117
13,48857,2597
13,49270,2765
13,49682,2457
13,50093,2532
13,50507,3016
13,50918,3049
13,51330,2831
13,51743,3171
13,52155,3465
13,52567,2918
13,52980,3202
13,53392,2612
13,53803,3116
13,54217,2487
13,54628,2406
13,55040,3121
13,55452,2121
13,55865,2450
13,56277,2023
13,56688,2826
13,57102,2472
13,57513,2117
13,57925,2567
13,58338,2206
13,58750,1856
13,59162,1836
13,59575,2618
13,59987,2482
13,60398,2424
13,60812,3253
13,61223,2824
13,61635,3311
13,62048,2436
13,62460,3283
13,62872,2406
13,63285,2356
13,63697,2120
13,64108,2339
13,64520,2252
13,64933,2733
13,65345,3829
13,65757,5401
13,66170,8837
13,66582,14769
13,66993,25949
13,67407,44535
13,67818,77125
13,68230,128849
13,68643,197890
13,69055,287581
13,69467,377914
13,69880,474116
13,70292,556773
13,70703,620223
13,71117,634783
13,71528,615033
13,71940,571047
13,72353,501233
13,72765,423831
13,73177,344639
13,73588,269548
13,74002,208363
13,74413,161091
13,74825,124695
13,75238,98790
13,75650,80310
13,76062,62782
13,76475,56027
13,76887,47862
13,77298,40723
13,77712,36751
13,78123,31576
13,78535,27781
13,78948,23968
13,79360,22586
13,79772,19350
13,80185,18653
13,80597,15655
13,81008,14174
13,81422,13846
13,81833,13883
13,82245,13552
13,82657,12700
13,83070,13067
13,83482,13018
13,83893,12291
13,84307,11105
13,84718,10211
13,85130,10894
13,85543,7719
13,85955,8263
13,86367,6564
13,86780,6167
13,87192,4972
13,87603,5106
13,88017,4705
13,88428,4684
13,88840,5014
13,89253,4204
13,89665,4100
13,90077,4435
13,90490,3540
13,90902,3464
13,91313,3490
13,91725,3191
13,92138,2810
13,92550,2755
13,92962,3341
13,93375,3360
13,93787,3335
13,94198,4169
13,94612,2775
13,95023,3145
13,95435,2858
13,95848,2033
13,96260,2122
13,96672,2291
13,97085,2401
13,97497,1968
13,97908,2496
13,98322,2598
13,98733,2401
13,99145,3030
13,99558,2255
13,99970,2307
14,00382,2088
14,00793,2603
14,01207,2134
14,01618,2331
14,02030,2660
14,02443,2766
14,02855,3124
14,03267,3316
14,03680,4082
14,04092,7914
14,04503,14318
14,04917,28973
14,05328,51352
14,05740,90846
14,06153,148370
14,06565,223853
14,06977,329264
14,07390,433493
14,07802,548032
14,08213,645916
14,08627,701730
14,09038,721993
14,09450,687627
14,09862,633772
14,10275,541814
14,10687,441922
14,11098,350959
14,11512,274691
14,11923,207976
14,12335,160468
14,12748,119066
14,13160,91473
14,13572,73674
14,13985,58900
14,14397,50421
14,14808,42315
14,15222,35963
14,15633,28754
14,16045,25982
14,16458,22835
14,16870,20640
14,17282,17502
14,17695,16175
14,18107,14064
14,18518,14610
14,18930,12411
14,19343,11352
14,19755,11088
14,20167,9308
14,20580,7958
14,20992,7955
14,21403,8179
14,21817,7265
14,22228,7056
14,22640,6351
14,23053,5721
14,23465,5971
14,23877,5693
14,24290,4778
14,24702,5128
14,25113,4808
14,25527,5433
14,25938,5769
14,26350,4873
14,26763,4788
14,27175,4636
14,27587,4601
14,28000,4264
14,28412,5003
14,28823,4150
14,29235,3885
14,29648,3462
14,30060,3893
14,30472,3151
14,30885,3181
14,31297,3699
14,31708,3477
14,32122,3401
14,32533,2892
14,32945,2800
14,33358,3120
14,33770,2427
14,34182,2694
14,34595,3607
14,35007,3639
14,35418,3356
14,35832,3087
14,36243,3796
14,36655,3544
14,37068,3734
14,37480,3418
14,37892,2774
14,38303,3394
14,38717,3218
14,39128,2445
14,39540,2815
14,39953,2996
14,40365,3119
14,40777,2036
14,41190,2575
14,41602,1783
14,42013,2519
14,42427,3007
14,42838,2717
14,43250,2484
14,43663,2521
14,44075,1954
14,44487,2865
14,44900,2334
14,45312,2449
14,45723,2374
14,46137,3068
14,46548,2235
14,46960,2583
14,47372,2117
14,47785,3084
14,48197,2427
14,48608,2378
14,49022,2328
14,49433,2482
14,49845,2497
14,50258,2457
14,50670,1844
14,51082,2259
14,51495,1936
14,51907,2041
14,52318,1528
14,52732,1854
14,53143,2072
14,53555,2470
14,53968,1589
14,54380,2107
14,54792,2431
14,55205,3205
14,55617,2531
14,56028,2815
14,56440,1653
14,56853,2495
14,57265,2054
14,57677,1610
14,58090,1692
14,58502,1792
14,58913,1352
14,59327,2322
14,59738,3076
14,60150,4604
14,60563,6591
14,60975,13379
14,61387,24536
14,61800,46851
14,62212,83579
14,62623,140692
14,63037,217782
14,63448,312847
14,63860,414387
14,64273,522798
14,64685,612652
14,65097,669518
14,65508,697714
14,65922,665436
14,66333,616040
14,66745,538862
14,67158,446108
14,67570,367001
14,67982,282914
14,68395,220246
14,68807,165684
14,69218,127295
14,69632,97564
14,70043,79895
14,70455,61573
14,70868,51250
14,71280,44380
14,71692,36155
14,72105,31699
14,72517,25610
14,72928,24103
14,73342,21381
14,73753,18804
14,74165,16723
14,74577,15418
14,74990,15105
14,75402,13120
14,75813,12078
14,76227,11619
14,76638,10906
14,77050,10116
14,77463,9910
14,77875,8681
14,78287,7994
14,78700,7589
14,79112,6682
14,79523,6337
14,79937,6215
14,80348,6443
14,80760,5334
14,81173,5449
14,81585,4414
14,81997,4029
14,82410,5394
14,82822,4335
14,83233,4463
14,83645,4591
14,84058,3994
14,84470,5048
14,84882,4583
14,85295,4794
14,85707,6510
14,86118,6150
14,86532,9086
14,86943,9108
14,87355,11082
14,87768,13462
14,88180,13596
14,88592,13403
14,89005,14224
14,89417,13175
14,89828,14085
14,90242,13398
14,90653,10680
14,91065,10170
14,91478,9428
14,91890,7348
14,92302,6015
14,92713,5039
14,93127,5695
14,93538,4457
14,93950,4684
14,94363,4335
14,94775,4976
14,95187,4061
14,95600,3726
14,96012,4767
14,96423,7271
14,96837,10892
14,97248,21097
14,97660,40919
14,98073,71433
14,98485,128911
14,98897,210268
14,99310,322944
14,99722,476030
15,00133,658167
15,00547,870834
15,00958,1088856
15,01370,1287483
15,01782,1448798
15,02195,1513705
15,02607,1506212
15,03018,1415782
15,03432,1255872
15,03843,1042906
15,04255,824335
15,04668,634644
15,05080,487511
15,05492,362496
15,05905,273268
15,06317,213126
15,06728,162746
15,07142,132073
15,07553,109541
15,07965,90944
15,08378,78653
15,08790,68305
15,09202,58893
15,09615,51027
15,10027,47801
15,10438,40422
15,10850,36145
15,11263,31668
15,11675,29239
15,12087,26232
15,12500,26370
15,12912,22821
15,13323,22891
15,13737,19815
15,14148,18917
15,14560,17519
15,14973,17541
15,15385,14055
15,15797,13891
15,16210,12845
15,16622,12544
15,17033,11205
15,17447,10303
15,17858,10732
15,18270,10259
15,18683,9593
15,19095,10041
15,19507,7859
15,19918,7260
15,20332,7774
15,20743,8049
15,21155,6985
15,21568,6193
15,21980,7291
15,22392,6612
15,22805,6885
15,23217,6834
15,23628,5899
15,24042,5433
15,24453,5708
15,24865,4954
15,25278,4801
15,25690,6800
15,26102,5416
15,26515,4903
15,26927,4174
15,27338,5021
15,27752,5100
15,28163,8386
15,28575,12610
15,28987,19910
15,29400,37800
15,29812,66114
15,30223,110638
15,30637,173725
15,31048,257764
15,31460,358746
15,31873,461759
15,32285,584537
15,32697,658848
15,33110,718243
15,33522,724302
15,33933,698717
15,34347,634884
15,34758,543061
15,35170,455617
15,35583,365657
15,35995,283856
15,36407,216727
15,36820,168391
15,37232,131903
15,37643,103993
15,38055,83801
15,38468,67323
15,38880,55961
15,39292,46208
15,39705,37680
15,40117,35162
15,40528,29411
15,40942,28195
15,41353,24253
15,41765,23620
15,42178,19731
15,42590,18065
15,43002,16253
15,43415,16352
15,43827,16632
15,44238,19206
15,44652,24574
15,45063,37288
15,45475,62029
15,45888,103762
15,46300,176779
15,46712,274597
15,47123,405956
15,47537,576850
15,47948,775925
15,48360,988314
15,48773,1175746
15,49185,1334822
15,49597,1445959
15,50010,1440592
15,50422,1368633
15,50833,1232775
15,51247,1030441
15,51658,836894
15,52070,648213
15,52483,492536
15,52895,375216
15,53307,290155
15,53720,220327
15,54132,177986
15,54543,142004
15,54957,116272
15,55368,97749
15,55780,81480
15,56192,70542
15,56605,64356
15,57017,56757
15,57428,50643
15,57842,46235
15,58253,43619
15,58665,38860
15,59078,36726
15,59490,35745
15,59902,34086
15,60315,30854
15,60727,25475
15,61138,25157
15,61552,20686
15,61963,19557
15,62375,20071
15,62788,17885
15,63200,16487
15,63612,15507
15,64025,14407
15,64437,14456
15,64848,14872
15,65260,11406
15,65673,11016
15,66085,12009
15,66497,11376
15,66910,10359
15,67322,11070
15,67733,9010
15,68147,8503
15,68558,9071
15,68970,8261
15,69383,8569
15,69795,7804
15,70207,6806
15,70620,6860
15,71032,5740
15,71443,6550
15,71857,5406
15,72268,4864
15,72680,6327
15,73093,6320
15,73505,6552
15,73917,5527
15,74328,4983
15,74742,5381
15,75153,5543
15,75565,5460
15,75978,4739
15,76390,4305
15,76802,4692
15,77215,4422
15,77627,4776
15,78038,4234
15,78452,3288
15,78863,3846
15,79275,4197
15,79688,5292
15,80100,4514
15,80512,6653
15,80925,10696
15,81337,16913
15,81748,31536
15,82162,60387
15,82573,100804
15,82985,161892
15,83398,246101
15,83810,347748
15,84222,454599
15,84633,562922
15,85047,630586
15,85458,682551
15,85870,684827
15,86283,651683
15,86695,572519
15,87107,489996
15,87520,400268
15,87932,322653
15,88343,244848
15,88757,191006
15,89168,150511
15,89580,115219
15,89993,94180
15,90405,75870
15,90817,63300
15,91230,54982
15,91642,46222
15,92053,41158
15,92467,36807
15,92878,31527
15,93290,28641
15,93702,24545
15,94115,22788
15,94527,20186
15,94938,17421
15,95352,16090
15,95763,15837
15,96175,15633
15,96588,14142
15,97000,13139
15,97412,11958
15,97825,10910
15,98237,9913
15,98648,10333
15,99062,9272
15,99473,9472
15,99885,9600
16,00298,9325
16,00710,7065
16,01122,7712
16,01535,7592
16,01947,7096
16,02358,7746
16,02770,6938
16,03183,7590
16,03595,6893
16,04007,6686
16,04420,7605
16,04832,6776
16,05243,6664
16,05657,6457
16,06068,5606
16,06480,7256
16,06893,5665
16,07305,5452
16,07717,6114
16,08130,4955
16,08542,5518
16,08953,5085
16,09367,4787
16,09778,4998
16,10190,5769
16,10603,5716
16,11015,4712
16,11427,4963
16,11838,5246
16,12252,4907
16,12663,5191
16,13075,5017
16,13488,5347
16,13900,4263
16,14312,3979
16,14725,4014
16,15137,3798
16,15548,4425
16,15962,5050
16,16373,3770
16,16785,4130
16,17198,5770
16,17610,9738
16,18022,15311
16,18435,26742
16,18847,49709
16,19258,86156
16,19672,144012
16,20083,218038
16,20495,310604
16,20907,416158
16,21320,515597
16,21732,587762
16,22143,636949
16,22557,654626
16,22968,624186
16,23380,565949
16,23793,487238
16,24205,402145
16,24617,322964
16,25030,254875
16,25442,195368
16,25853,147584
16,26267,116310
16,26678,92392
16,27090,75441
16,27503,60956
16,27915,50680
16,28327,42037
16,28740,37582
16,29152,33319
16,29563,30575
16,29975,24463
16,30388,24500
16,30800,22391
16,31212,19758
16,31625,18351
16,32037,17137
16,32448,15395
16,32862,13991
16,33273,13997
16,33685,13023
16,34098,12053
16,34510,11445
16,34922,11717
16,35335,9959
16,35747,10302
16,36158,11511
16,36572,9488
16,36983,9906
16,37395,8112
16,37808,9144
16,38220,8394
16,38632,7834
16,39043,7589
16,39457,7825
16,39868,7650
16,40280,7165
16,40693,6464
16,41105,5265
16,41517,6015
16,41930,6273
16,42342,4943
16,42753,6119
16,43167,5496
16,43578,4683
16,43990,5429
16,44403,5246
16,44815,4961
16,45227,5396
16,45640,5330
16,46052,4848
16,46463,4565
16,46877,4706
16,47288,4710
16,47700,4781
16,48112,4113
16,48525,3249
16,48937,5117
16,49348,4169
16,49762,4097
16,50173,3688
16,50585,4678
16,50998,4241
16,51410,4116
16,51822,4214
16,52235,4379
16,52647,4158
16,53058,3628
16,53472,3609
16,53883,4108
16,54295,4153
16,54708,3340
16,55120,4702
16,55532,4074
16,55945,4253
16,56357,4364
16,56768,3780
16,57180,3218
16,57593,3609
16,58005,3534
16,58417,3295
16,58830,3186
16,59242,3380
16,59653,3116
16,60067,4324
16,60478,2776
16,60890,2984
16,61303,3249
16,61715,3073
16,62127,2425
16,62540,2790
16,62952,3243
16,63363,3301
16,63777,3474
16,64188,2648
16,64600,2863
16,65013,2885
16,65425,3185
16,65837,1804
16,66248,3602
16,66662,2779
16,67073,3321
16,67485,2800
16,67898,3448
16,68310,3514
16,68722,4348
16,69135,7966
16,69547,15320
16,69958,28631
16,70372,54014
16,70783,88960
16,71195,138502
16,71608,204134
16,72020,292541
16,72432,388457
16,72845,483604
16,73257,574398
16,73668,649185
16,74082,704803
16,74493,758723
16,74905,810298
16,75317,870993
16,75730,985188
16,76142,1115007
16,76553,1279471
16,76967,1452659
16,77378,1610304
16,77790,1736463
16,78203,1777269
16,78615,1707247
16,79027,1556792
16,79440,1318230
16,79852,1059715
16,80263,811139
16,80677,617950
16,81088,469046
16,81500,360216
16,81913,279653
16,82325,222378
16,82737,182044
16,83150,149994
16,83562,129609
16,83973,112344
16,84385,96410
16,84798,83548
16,85210,75453
16,85622,68676
16,86035,61769
16,86447,55434
16,86858,51418
16,87272,47107
16,87683,42633
16,88095,39742
16,88508,39975
16,88920,35834
16,89332,34988
16,89745,38046
16,90157,35909
16,90568,34558
16,90982,35807
16,91393,34851
16,91805,31022
16,92218,31234
16,92630,29614
16,93042,28101
16,93453,23466
16,93867,25332
16,94278,22349
16,94690,20154
16,95103,18405
16,95515,18248
16,95927,15399
16,96340,15737
16,96752,15722
16,97163,13774
16,97577,14433
16,97988,12364
16,98400,11935
16,98813,12394
16,99225,12248
16,99637,11087
17,00050,11349
17,00462,10798
17,00873,12106
17,01287,13575
17,01698,15293
17,02110,27341
17,02522,41592
17,02935,63623
17,03347,103454
17,03758,162703
17,04172,236571
17,04583,317875
17,04995,409522
17,05408,486833
17,05820,547963
17,06232,568279
17,06645,564144
17,07057,528538
17,07468,470688
17,07882,389600
17,08293,323639
17,08705,256263
17,09118,198342
17,09530,157099
17,09942,122308
17,10355,95931
17,10767,78952
17,11178,65756
17,11590,51676
17,12003,46027
17,12415,38926
17,12827,34070
17,13240,31778
17,13652,28272
17,14063,25468
17,14477,21916
17,14888,21750
17,15300,19153
17,15713,18584
17,16125,18739
17,16537,19630
17,16950,18630
17,17362,22417
17,17773,29005
17,18187,41659
17,18598,68839
17,19010,107714
17,19423,166869
17,19835,245492
17,20247,355364
17,20658,465184
17,21072,578334
17,21483,672439
17,21895,743397
17,22308,768309
17,22720,749151
17,23132,682969
17,23545,600142
17,23957,508732
17,24368,403912
17,24782,316899
17,25193,250532
17,25605,193631
17,26018,150611
17,26430,117994
17,26842,96086
17,27255,80346
17,27667,70381
17,28078,58045
17,28492,52434
17,28903,46735
17,29315,38858
17,29727,36371
17,30140,32634
17,30552,31628
17,30963,27963
17,31377,25114
17,31788,24815
17,32200,23164
17,32613,21005
17,33025,20345
17,33437,18804
17,33850,16028
17,34262,15809
17,34673,16508
17,35087,14816
17,35498,15675
17,35910,14063
17,36323,13481
17,36735,14097
17,37147,13222
17,37560,11839
17,37972,10912
17,38383,12552
17,38797,12016
17,39208,11133
17,39620,10959
17,40032,11987
17,40445,10639
17,40857,12258
17,41268,14733
17,41682,13243
17,42093,12721
17,42505,11598
17,42918,11684
17,43330,9680
17,43742,8847
17,44155,9664
17,44567,7472
17,44978,8442
17,45392,9764
17,45803,6769
17,46215,6763
17,46628,7004
17,47040,7622
17,47452,6970
17,47865,6185
17,48277,5832
17,48688,6532
17,49100,6662
17,49513,5519
17,49925,6002
17,50337,6422
17,50750,5459
17,51162,5878
17,51573,6127
17,51987,5397
17,52398,5875
17,52810,4155
17,53223,5387
17,53635,5974
17,54047,5450
17,54460,6178
17,54872,6418
17,55283,9658
17,55697,12885
17,56108,24212
17,56520,40660
17,56933,70417
17,57345,120703
17,57757,186206
17,58168,280636
17,58582,393606
17,58993,522615
17,59405,649195
17,59818,765532
17,60230,843529
17,60642,865738
17,61055,835343
17,61467,756234
17,61878,641962
17,62292,521820
17,62703,409825
17,63115,310019
17,63528,243946
17,63940,189318
17,64352,149377
17,64765,120599
17,65177,99081
17,65588,82811
17,66002,69546
17,66413,62196
17,66825,52948
17,67237,49230
17,67650,43284
17,68062,35533
17,68473,35432
17,68887,31882
17,69298,27943
17,69710,30550
17,70123,26559
17,70535,26906
17,70947,23508
17,71360,22016
17,71772,19786
17,72183,19212
17,72597,18553
17,73008,18796
17,73420,19106
17,73833,18291
17,74245,16422
17,74657,16039
17,75070,16386
17,75482,13724
17,75893,12831
17,76305,15235
17,76718,12817
17,77130,11808
17,77542,11228
17,77955,10650
17,78367,10610
17,78778,10720
17,79192,10929
17,79603,10573
17,80015,10321
17,80428,9760
17,80840,10575
17,81252,9710
17,81665,9287
17,82077,8721
17,82488,8579
17,82902,9551
17,83313,8682
17,83725,8700
17,84138,9689
17,84550,9076
17,84962,7555
17,85373,8225
17,85787,8850
17,86198,10045
17,86610,12074
17,87023,18138
17,87435,26120
17,87847,39868
17,88260,67797
17,88672,114328
17,89083,175931
17,89497,259188
17,89908,360323
17,90320,459206
17,90733,565511
17,91145,638152
17,91557,678721
17,91970,691730
17,92382,646577
17,92793,575328
17,93207,492249
17,93618,405485
17,94030,318230
17,94442,250708
17,94855,194056
17,95267,151985
17,95678,119800
17,96092,97458
17,96503,80312
17,96915,67044
17,97328,54586
17,97740,50224
17,98152,43376
17,98565,37957
17,98977,35397
17,99388,31968
17,99802,30117
18,00213,28239
18,00625,24597
18,01038,22721
18,01450,22999
18,01862,19757
18,02275,18090
18,02687,17938
18,03098,16955
18,03510,17022
18,03923,16580
18,04335,15966
18,04747,15369
18,05160,13896
18,05572,13019
18,05983,12295
18,06397,12598
18,06808,11935
18,07220,13067
18,07633,11272
18,08045,10569
18,08457,12514
18,08870,10263
18,09282,9744
18,09693,9905
18,10107,11051
18,10518,9221
18,10930,9895
18,11343,10504
18,11755,9104
18,12167,8980
18,12578,8938
18,12992,9208
18,13403,8146
18,13815,8286
18,14228,8349
18,14640,8639
18,15052,9123
18,15465,8413
18,15877,8088
18,16288,7984
18,16702,8678
18,17113,7761
18,17525,8214
18,17938,6885
18,18350,8236
18,18762,8656
18,19175,7896
18,19587,8842
18,19998,8364
18,20412,7537
18,20823,7056
18,21235,8743
18,21647,7792
18,22060,8491
18,22472,7954
18,22883,7756
18,23297,7748
18,23708,8514
18,24120,8787
18,24533,9767
18,24945,10030
18,25357,7627
18,25770,7744
18,26182,8318
18,26593,8035
18,27007,8211
18,27418,8357
18,27830,8152
18,28243,8668
18,28655,8333
18,29067,7000
18,29480,6969
18,29892,7887
18,30303,7253
18,30715,6517
18,31128,6267
18,31540,6772
18,31952,6962
18,32365,6031
18,32777,5866
18,33188,6987
18,33602,7395
18,34013,7985
18,34425,7222
18,34838,7957
18,35250,10284
18,35662,17113
18,36075,28532
18,36487,51228
18,36898,91193
18,37312,158909
18,37723,261965
18,38135,402085
18,38548,583449
18,38960,811729
18,39372,1067728
18,39783,1317793
18,40197,1573358
18,40608,1819212
18,41020,2008037
18,41433,2137100
18,41845,2170352
18,42257,2147327
18,42670,2009275
18,43082,1760484
18,43493,1467642
18,43907,1155598
18,44318,895525
18,44730,684707
18,45143,523788
18,45555,412307
18,45967,325047
18,46380,266275
18,46792,225207
18,47203,189564
18,47617,164371
18,48028,147408
18,48440,133826
18,48852,118272
18,49265,101769
18,49677,94238
18,50088,87074
18,50502,82079
18,50913,74705
18,51325,70754
18,51738,63572
18,52150,60235
18,52562,53950
18,52975,50991
18,53387,50323
18,53798,46819
18,54212,41261
18,54623,39125
18,55035,38335
18,55448,37875
18,55860,35586
18,56272,34356
18,56685,33716
18,57097,30254
18,57508,31952
18,57920,28313
18,58333,26102
18,58745,26777
18,59157,24379
18,59570,25314
18,59982,25388
18,60393,23352
18,60807,22149
18,61218,19223
18,61630,20003
18,62043,20578
18,62455,21126
18,62867,19288
18,63280,18728
18,63692,19115
18,64103,17753
18,64517,17340
18,64928,19659
18,65340,20313
18,65753,23889
18,66165,29230
18,66577,45840
18,66988,69148
18,67402,107117
18,67813,161829
18,68225,236091
18,68638,331101
18,69050,422227
18,69462,513965
18,69875,580636
18,70287,626382
18,70698,630043
18,71112,609952
18,71523,558405
18,71935,476445
18,72348,406047
18,72760,345204
18,73172,310705
18,73585,300307
18,73997,315914
18,74408,356449
18,74822,418098
18,75233,483568
18,75645,552349
18,76057,599185
18,76470,620578
18,76882,598101
18,77293,558074
18,77707,505671
18,78118,436277
18,78530,365681
18,78943,307230
18,79355,262001
18,79767,246134
18,80180,252322
18,80592,277264
18,81003,337588
18,81417,418692
18,81828,520618
18,82240,623399
18,82653,722442
18,83065,804327
18,83477,829920
18,83890,838576
18,84302,786463
18,84713,698964
18,85125,597250
18,85538,494879
18,85950,396972
18,86362,315627
18,86775,256618
18,87187,203881
18,87598,169380
18,88012,140030
18,88423,119932
18,88835,104435
18,89248,92545
18,89660,81336
18,90072,74462
18,90485,67664
18,90897,64366
18,91308,56405
18,91722,54242
18,92133,50367
18,92545,44430
18,92958,43171
18,93370,40788
18,93782,37551
18,94195,36606
18,94607,34467
18,95018,31217
18,95430,29767
18,95843,30703
18,96255,29468
18,96667,27192
18,97080,25994
18,97492,24856
18,97903,25107
18,98317,22624
18,98728,23720
18,99140,22676
18,99553,21213
18,99965,21102
19,00377,20546
19,00790,20248
19,01202,19222
19,01613,18086
19,02027,19339
19,02438,18965
19,02850,16857
19,03263,16910
19,03675,17196
19,04087,16707
19,04498,16567
19,04912,16570
19,05323,16478
19,05735,16886
19,06148,16907
19,06560,15494
19,06972,16848
19,07385,15582
19,07797,14599
19,08208,16261
19,08622,15088
19,09033,14477
19,09445,13936
19,09858,13648
19,10270,13092
19,10682,14314
19,11095,15000
19,11507,12951
19,11918,13618
19,12332,14054
19,12743,16447
19,13155,20118
19,13567,28314
19,13980,41799
19,14392,68499
19,14803,105427
19,15217,163640
19,15628,238437
19,16040,339907
19,16453,458424
19,16865,585918
19,17277,715227
19,17690,824231
19,18102,898254
19,18513,902313
19,18927,852130
19,19338,762086
19,19750,646879
19,20163,528804
19,20575,420426
19,20987,334064
19,21400,256169
19,21812,200309
19,22223,170050
19,22635,140070
19,23048,120645
19,23460,102281
19,23872,90023
19,24285,79678
19,24697,73800
19,25108,63488
19,25522,58933
19,25933,55500
19,26345,51689
19,26758,45500
19,27170,44334
19,27582,40839
19,27995,37595
19,28407,39657
19,28818,35316
19,29232,32709
19,29643,33197
19,30055,30950
19,30468,31310
19,30880,32484
19,31292,29300
19,31703,28463
19,32117,26857
19,32528,27906
19,32940,26244
19,33353,27409
19,33765,23639
19,34177,25655
19,34590,24098
19,35002,22376
19,35413,22533
19,35827,22021
19,36238,21413
19,36650,20999
19,37063,20459
19,37475,22296
19,37887,20529
19,38300,21604
19,38712,20468
19,39123,19611
19,39537,20487
19,39948,19266
19,40360,19993
19,40772,20541
19,41185,19487
19,41597,18649
19,42008,19033
19,42422,20326
19,42833,18620
19,43245,18481
19,43658,20588
19,44070,22569
19,44482,26902
19,44895,37401
19,45307,59753
19,45718,89664
19,46132,142236
19,46543,212699
19,46955,305902
19,47368,411637
19,47780,524706
19,48192,625890
19,48605,692830
19,49017,725847
19,49428,719265
19,49840,661264
19,50253,586471
19,50665,496911
19,51077,405356
19,51490,321469
19,51902,257514
19,52313,208830
19,52727,175780
19,53138,159518
19,53550,156999
19,53963,173537
19,54375,210499
19,54787,253021
19,55200,319084
19,55612,391806
19,56023,458558
19,56437,517851
19,56848,548345
19,57260,548677
19,57673,525346
19,58085,477935
19,58497,420430
19,58908,357747
19,59322,295191
19,59733,240006
19,60145,193178
19,60558,157905
19,60970,130919
19,61382,107812
19,61795,92310
19,62207,80353
19,62618,67697
19,63032,62285
19,63443,58666
19,63855,50104
19,64268,49048
19,64680,45126
19,65092,38686
19,65505,39243
19,65917,37077
19,66328,34689
19,66742,32717
19,67153,31024
19,67565,28842
19,67977,29374
19,68390,27681
19,68802,27172
19,69213,26584
19,69627,25213
19,70038,24004
19,70450,23893
19,70863,24532
19,71275,24629
19,71687,23519
19,72100,21230
19,72512,21442
19,72923,22631
19,73337,20972
19,73748,21467
19,74160,21423
19,74573,19551
19,74985,19716
19,75397,18614
19,75810,18503
19,76222,17721
19,76633,19924
19,77045,19257
19,77458,18182
19,77870,18040
19,78282,17821
19,78695,17749
19,79107,17745
19,79518,17381
19,79932,18595
19,80343,14896
19,80755,17813
19,81168,15440
19,81580,15575
19,81992,14912
19,82405,14940
19,82817,14516
19,83228,15976
19,83642,14733
19,84053,14310
19,84465,15609
19,84878,14913
19,85290,14016
19,85702,14487
19,86113,14250
19,86527,14012
19,86938,15625
19,87350,15654
19,87763,16994
19,88175,19302
19,88587,22983
19,89000,30996
19,89412,50985
19,89823,79024
19,90237,127553
19,90648,195708
19,91060,277949
19,91473,387115
19,91885,522582
19,92297,693214
19,92710,879201
19,93122,1088411
19,93533,1304636
19,93947,1504941
19,94358,1667542
19,94770,1758391
19,95182,1732291
19,95595,1577396
19,96007,1362134
19,96418,1114434
19,96832,879629
19,97243,683464
19,97655,532879
19,98068,419466
19,98480,336279
19,98892,274948
19,99305,233053
19,99717,198396
20,00128,172490
20,00542,155753
20,00953,136878
20,01365,125572
20,01778,114194
20,02190,103952
20,02602,98147
20,03015,89574
20,03427,82681
20,03838,81334
20,04250,74349
20,04663,67445
20,05075,68199
20,05487,61983
20,05900,61214
20,06312,57596
20,06723,52571
20,07137,51030
20,07548,50501
20,07960,44614
20,08373,46512
20,08785,44838
20,09197,41352
20,09610,41503
20,10022,38402
20,10433,36391
20,10847,37262
20,11258,35509
20,11670,35494
20,12083,35140
20,12495,33344
20,12907,35101
20,13318,32980
20,13732,32154
20,14143,30865
20,14555,30003
20,14968,30647
20,15380,29734
20,15792,26673
20,16205,26639
20,16617,25761
20,17028,24851
20,17442,26990
20,17853,26587
20,18265,26269
20,18678,24268
20,19090,23167
20,19502,25178
20,19915,23311
20,20327,25020
20,20738,24163
20,21152,22016
20,21563,20651
20,21975,20769
20,22387,20949
20,22800,21870
20,23212,22359
20,23623,21074
20,24037,23707
20,24448,22494
20,24860,19778
20,25273,20330
20,25685,21027
20,26097,18304
20,26510,20792
20,26922,20436
20,27333,19523
20,27747,20787
20,28158,20826
20,28570,21486
20,28983,23986
20,29395,28821
20,29807,37837
20,30220,52698
20,30632,73971
20,31043,115155
20,31455,166729
20,31868,240038
20,32280,328392
20,32692,432356
20,33105,547294
20,33517,654295
20,33928,745702
20,34342,809423
20,34753,823188
20,35165,782093
20,35578,720921
20,35990,635212
20,36402,539867
20,36815,438120
20,37227,355762
20,37638,286220
20,38052,233466
20,38463,193761
20,38875,164996
20,39288,137058
20,39700,119598
20,40112,110924
20,40523,98369
20,40937,87996
20,41348,81416
20,41760,71244
20,42173,70316
20,42585,64241
20,42997,57697
20,43410,54739
20,43822,52252
20,44233,49236
20,44647,43904
20,45058,43443
20,45470,43949
20,45883,41203
20,46295,37500
20,46707,39117
20,47120,36307
20,47532,35381
20,47943,34590
20,48357,31638
20,48768,30778
20,49180,30126
20,49592,29689
20,50005,28889
20,50417,28003
20,50828,29027
20,51242,27036
20,51653,25192
20,52065,26654
20,52478,25147
20,52890,24801
20,53302,25467
20,53715,23725
20,54127,25411
20,54538,24868
20,54952,24137
20,55363,24628
20,55775,23572
20,56188,23749
20,56600,23849
20,57012,21139
20,57425,22150
20,57837,21697
20,58248,22119
20,58662,20937
20,59073,20983
20,59485,20958
20,59897,19713
20,60310,20773
20,60722,19387
20,61133,17702
20,61547,19840
20,61958,17147
20,62370,19018
20,62783,20232
20,63195,20617
20,63607,19502
20,64020,20339
20,64432,23459
20,64843,21268
20,65257,22725
20,65668,24155
20,66080,24192
20,66493,22323
20,66905,21838
20,67317,20811
20,67730,21127
20,68142,19423
20,68553,21129
20,68965,20846
20,69378,20084
20,69790,18369
20,70202,17571
20,70615,17612
20,71027,18558
20,71438,18419
20,71852,18064
20,72263,17770
20,72675,19425
20,73088,19817
20,73500,18195
20,73912,17253
20,74325,17026
20,74737,18404
20,75148,18081
20,75562,15861
20,75973,16612
20,76385,18041
20,76798,16955
20,77210,15154
20,77622,15382
20,78033,17123
20,78447,17317
20,78858,17224
20,79270,17432
20,79683,18206
20,80095,20205
20,80507,21246
20,80920,20156
20,81332,18111
20,81743,19803
20,82157,19377
20,82568,19388
20,82980,17823
20,83393,17862
20,83805,16667
20,84217,16450
20,84630,15825
20,85042,15849
20,85453,16282
20,85867,17774
20,86278,16339
20,86690,16394
20,87102,16113
20,87515,16701
20,87927,17621
20,88338,17685
20,88752,15035
20,89163,19003
20,89575,16255
20,89988,16219
20,90400,17101
20,90812,18516
20,91225,18055
20,91637,18442
20,92048,18210
20,92462,16585
20,92873,17837
20,93285,17592
20,93698,17431
20,94110,17275
20,94522,15102
20,94935,16779
20,95347,15720
20,95758,16475
20,96170,15207
20,96583,15332
20,96995,16598
20,97407,14500
20,97820,15257
20,98232,15096
20,98643,15163
20,99057,14780
20,99468,16254
20,99880,15722
21,00293,15911
21,00705,15323
21,01117,15849
21,01530,15900
21,01942,15545
21,02353,15979
21,02767,15048
21,03178,15502
21,03590,14397
21,04003,15664
21,04415,16040
21,04827,15916
21,05238,16118
21,05652,14481
21,06063,15751
21,06475,16394
21,06888,14659
21,07300,14202
21,07712,15522
21,08125,15173
21,08537,15830
21,08948,14269
21,09362,15344
21,09773,14308
21,10185,14223
21,10598,15977
21,11010,15631
21,11422,14278
21,11835,16064
21,12247,15363
21,12658,14929
21,13072,15799
21,13483,14719
21,13895,14245
21,14307,14828
21,14720,14604
21,15132,15618
21,15543,16235
21,15957,14434
21,16368,15775
21,16780,14985
21,17193,15121
21,17605,15756
21,18017,15482
21,18430,16528
21,18842,15380
21,19253,14415
21,19667,16043
21,20078,13975
21,20490,14731
21,20903,16443
21,21315,14466
21,21727,14367
21,22140,14993
21,22552,16673
21,22963,16340
21,23375,14494
21,23788,14513
21,24200,14644
21,24612,15991
21,25025,13703
21,25437,15295
21,25848,15679
21,26262,13841
21,26673,13920
21,27085,13900
21,27498,14347
21,27910,15754
21,28322,12892
21,28735,13712
21,29147,13398
21,29558,13632
21,29972,15076
21,30383,13777
21,30795,14802
21,31208,14317
21,31620,13839
21,32032,13174
21,32443,14360
21,32857,14667
21,33268,14269
21,33680,13652
21,34093,13675
21,34505,13705
21,34917,15526
21,35330,15389
21,35742,12709
21,36153,14422
21,36567,14928
21,36978,14180
21,37390,15423
21,37803,14405
21,38215,14459
21,38627,15066
21,39040,15840
21,39452,15309
21,39863,15001
21,40277,15283
21,40688,15517
21,41100,14850
21,41512,15584
21,41925,15074
21,42337,14664
21,42748,15649
21,43162,15221
21,43573,14351
21,43985,15773
21,44398,13788
21,44810,14300
21,45222,14670
21,45635,13703
21,46047,13971
21,46458,15859
21,46872,15166
21,47283,16652
21,47695,16383
21,48108,18872
21,48520,20550
21,48932,27300
21,49345,36551
21,49757,47449
21,50168,69021
21,50580,96627
21,50993,132392
21,51405,188026
21,51817,235529
21,52230,287949
21,52642,346697
21,53053,387362
21,53467,414366
21,53878,419871
21,54290,410015
21,54703,392580
21,55115,363889
21,55527,321094
21,55940,281114
21,56352,242727
21,56763,205287
21,57177,174886
21,57588,146907
21,58000,121811
21,58413,105950
21,58825,90349
21,59237,80572
21,59648,73409
21,60062,65568
21,60473,60575
21,60885,53851
21,61298,50524
21,61710,45779
21,62122,41783
21,62535,41720
21,62947,38833
21,63358,36705
21,63772,33896
21,64183,34588
21,64595,32264
21,65008,32269
21,65420,30067
21,65832,30371
21,66245,28540
21,66657,29505
21,67068,29079
21,67482,27147
21,67893,24577
21,68305,26177
21,68717,24765
21,69130,23556
21,69542,24260
21,69953,24088
21,70367,22643
21,70778,23776
21,71190,23055
21,71603,20164
21,72015,22746
21,72427,21090
21,72840,21551
21,73252,20294
21,73663,21700
21,74077,20783
21,74488,21529
21,74900,22811
21,75313,21479
21,75725,20375
21,76137,19934
21,76550,19587
21,76962,17949
21,77373,19130
21,77785,20838
21,78198,19923
21,78610,19044
21,79022,19218
21,79435,18457
21,79847,20391
21,80258,17893
21,80672,19600
21,81083,17872
21,81495,18436
21,81908,17409
21,82320,17383
21,82732,18479
21,83145,18945
21,83557,17079
21,83968,19289
21,84382,16374
21,84793,18543
21,85205,16778
21,85618,18583
21,86030,15309
21,86442,16682
21,86853,17107
21,87267,16855
21,87678,16680
21,88090,15995
21,88503,17151
21,88915,16382
21,89327,16804
21,89740,16173
21,90152,16140
21,90563,15895
21,90977,14689
21,91388,15407
21,91800,15955
21,92213,15471
21,92625,16375
21,93037,15464
21,93450,15852
21,93862,15665
21,94273,16189
21,94687,15893
21,95098,16240
21,95510,15297
21,95922,16412
21,96335,16675
21,96747,15921
21,97158,18082
21,97572,16530
21,97983,19110
21,98395,17315
21,98808,17152
21,99220,16306
21,99632,15786
22,00045,17049
22,00457,17573
22,00868,17659
22,01282,16391
22,01693,16564
22,02105,15641
22,02518,15067
22,02930,16969
22,03342,16260
22,03755,15051
22,04167,16063
22,04578,16508
22,04990,15826
22,05403,16051
22,05815,14976
22,06227,15092
22,06640,16863
22,07052,16091
22,07463,16764
22,07877,17149
22,08288,16328
22,08700,17085
22,09113,16632
22,09525,15960
22,09937,15787
22,10350,17310
22,10762,15805
22,11173,17026
22,11587,16470
22,11998,15858
22,12410,17018
22,12823,17568
22,13235,16864
22,13647,17592
22,14058,15634
22,14472,17683
22,14883,17173
22,15295,15292
22,15708,15937
22,16120,15813
22,16532,15971
22,16945,16077
22,17357,15090
22,17768,16045
22,18182,15264
22,18593,16005
22,19005,16224
22,19418,16360
22,19830,15064
22,20242,16811
22,20655,15442
22,21067,15214
22,21478,14675
22,21892,16950
22,22303,15509
22,22715,17222
22,23128,14932
22,23540,15947
22,23952,15714
22,24363,15554
22,24777,16091
22,25188,15220
22,25600,17275
22,26013,15964
22,26425,16843
22,26837,15404
22,27250,16218
22,27662,16479
22,28073,15866
22,28487,15500
22,28898,14695
22,29310,15149
22,29723,16340
22,30135,15176
22,30547,14377
22,30960,14058
22,31372,14876
22,31783,15190
22,32197,16300
22,32608,15869
22,33020,16750
22,33432,17194
22,33845,16434
22,34257,16581
22,34668,17564
22,35082,16111
22,35493,15023
22,35905,17104
22,36318,16018
22,36730,16515
22,37142,16563
22,37555,15022
22,37967,15246
22,38378,15753
22,38792,16135
22,39203,16752
22,39615,14871
22,40028,15636
22,40440,15890
22,40852,16822
22,41265,17005
22,41677,16490
22,42088,14676
22,42500,16901
22,42913,16683
22,43325,15780
22,43737,17178
22,44150,15412
22,44562,15806
22,44973,15277
22,45387,14941
22,45798,15065
22,46210,14429
22,46623,15545
22,47035,16766
22,47447,15489
22,47860,15426
22,48272,15308
22,48683,15213
22,49097,15361
22,49508,16071
22,49920,17664
22,50333,15756
22,50745,15996
22,51157,16194
22,51568,15358
22,51982,14231
22,52393,14346
22,52805,15486
22,53218,16055
22,53630,16065
22,54042,16604
22,54455,15025
22,54867,15072
22,55278,16365
22,55692,15873
22,56103,16126
22,56515,15400
22,56928,17002
22,57340,15092
22,57752,15218
22,58165,16297
22,58577,15660
22,58988,16409
22,59402,15255
22,59813,15861
22,60225,15837
22,60637,16479
22,61050,15923
22,61462,16060
22,61873,16761
22,62287,15727
22,62698,16865
22,63110,18249
22,63523,15215
22,63935,16096
22,64347,15192
22,64760,16636
22,65172,15759
22,65583,17646
22,65997,16320
22,66408,17506
22,66820,17229
22,67233,18078
22,67645,19226
22,68057,18718
22,68470,18532
22,68882,18048
22,69293,20122
22,69705,17328
22,70118,18686
22,70530,18326
22,70942,16948
22,71355,18337
22,71767,18081
22,72178,17493
22,72592,18409
22,73003,15961
22,73415,17361
22,73828,16228
22,74240,15838
22,74652,17924
22,75065,15639
22,75477,17889
22,75888,15697
22,76302,15527
22,76713,15491
22,77125,15889
22,77538,17224
22,77950,14979
22,78362,16076
22,78773,14174
22,79187,13304
22,79598,13849
22,80010,16346
22,80423,15133
22,80835,16793
22,81247,14800
22,81660,16263
22,82072,15275
22,82483,15442
22,82897,15095
22,83308,15665
22,83720,16199
22,84133,14886
22,84545,14534
22,84957,15108
22,85370,16787
22,85782,14979
22,86193,15571
22,86607,14026
22,87018,15041
22,87430,15093
22,87842,16392
22,88255,15609
22,88667,15533
22,89078,15864
22,89492,16168
22,89903,16338
22,90315,16018
22,90728,17050
22,91140,16431
22,91552,17607
22,91965,14742
22,92377,15875
22,92788,16876
22,93202,15891
22,93613,16329
22,94025,17146
22,94438,17268
22,94850,17310
22,95262,15146
22,95675,15733
22,96087,16106
22,96498,16079
22,96910,17635
22,97323,17843
22,97735,18732
22,98147,16671
22,98560,16889
22,98972,15162
22,99383,15777
22,99797,16432
23,00208,15872
23,00620,15172
23,01033,15903
23,01445,16488
23,01857,16389
23,02270,16057
23,02682,14762
23,03093,16205
23,03507,15516
23,03918,15557
23,04330,15264
23,04743,14239
23,05155,15917
23,05567,14359
23,05978,15680
23,06392,15447
23,06803,16685
23,07215,15380
23,07628,14128
23,08040,14320
23,08452,14161
23,08865,14889
23,09277,16767
23,09688,16642
23,10102,15928
23,10513,15779
23,10925,14984
23,11338,17665
23,11750,16347
23,12162,15860
23,12575,16192
23,12987,17494
23,13398,15308
23,13812,15254
23,14223,15606
23,14635,14498
23,15047,16924
23,15460,15018
23,15872,14981
23,16283,15835
23,16697,13832
23,17108,15883
23,17520,14771
23,17933,16342
23,18345,16925
23,18757,15811
23,19170,16011
23,19582,15811
23,19993,15111
23,20407,13856
23,20818,14868
23,21230,15613
23,21643,13853
23,22055,14583
23,22467,17718
23,22880,15479
23,23292,13972
23,23703,14383
23,24115,14438
23,24528,14573
23,24940,14441
23,25352,14631
23,25765,14151
23,26177,14110
23,26588,14639
23,27002,14465
23,27413,14653
23,27825,16151
23,28238,14465
23,28650,15070
23,29062,15839
23,29475,16353
23,29887,13915
23,30298,15484
23,30712,16827
23,31123,15389
23,31535,15151
23,31948,14819
23,32360,15372
23,32772,15818
23,33183,15160
23,33597,14341
23,34008,15105
23,34420,13707
23,34833,15829
23,35245,15250
23,35657,15901
23,36070,14022
23,36482,13470
23,36893,15620
23,37307,15565
23,37718,16427
23,38130,16313
23,38543,13561
23,38955,14007
23,39367,15863
23,39780,16833
23,40192,14152
23,40603,15829
23,41017,14399
23,41428,15595
23,41840,14079
23,42252,13882
23,42665,13599
23,43077,15091
23,43488,13407
23,43902,15462
23,44313,14655
23,44725,15483
23,45138,16786
23,45550,14983
23,45962,14856
23,46375,14998
23,46787,16859
23,47198,14054
23,47612,15001
23,48023,15878
23,48435,14104
23,48848,14938
23,49260,14745
23,49672,15595
23,50085,14559
23,50497,14004
23,50908,16023
23,51320,16330
23,51733,14428
23,52145,14315
23,52557,13610
23,52970,15551
