D:\MassHunter\GCMS\1\data\Amal\Constant flow\130C\130C_1ml-min_8C-min_3.D Mon Sep 16 13:16:15 2024
Start of data points
4,94105	1681197
4,94517	1587983
4,94930	1519375
4,95342	1437219
4,95753	1359967
4,96167	1297490
4,96578	1231356
4,96990	1169073
4,97403	1119270
4,97815	1062958
4,98227	1007585
4,98640	958110
4,99052	913843
4,99463	878002
4,99875	844672
5,00288	804724
5,00700	761970
5,01112	733776
5,01525	701839
5,01937	670328
5,02348	648270
5,02762	623887
5,03173	607723
5,03585	580841
5,03998	560881
5,04410	535289
5,04822	519688
5,05235	526744
5,05647	568003
5,06058	642685
5,06472	773912
5,06883	956653
5,07295	1134620
5,07708	1294875
5,08120	1417188
5,08532	1468414
5,08943	1458954
5,09357	1454369
5,09768	1417907
5,10180	1370956
5,10593	1323243
5,11005	1280651
5,11417	1239396
5,11830	1201855
5,12242	1140910
5,12653	1112033
5,13067	1056604
5,13478	1025317
5,13890	994942
5,14303	946893
5,14715	914708
5,15127	878536
5,15540	846600
5,15952	806572
5,16363	783401
5,16777	757852
5,17188	731639
5,17600	706397
5,18012	673729
5,18425	652808
5,18837	621141
5,19248	598381
5,19662	573417
5,20073	555666
5,20485	524482
5,20898	506819
5,21310	485854
5,21722	459818
5,22135	435684
5,22547	409808
5,22958	390949
5,23372	365544
5,23783	350601
5,24195	329692
5,24608	308707
5,25020	291679
5,25432	278725
5,25845	268457
5,26257	253652
5,26668	240021
5,27080	234162
5,27493	223117
5,27905	210250
5,28317	202451
5,28730	194839
5,29142	187642
5,29553	178802
5,29967	171689
5,30378	167702
5,30790	160325
5,31203	158415
5,31615	155062
5,32027	152968
5,32440	145913
5,32852	144749
5,33263	136693
5,33677	137236
5,34088	133633
5,34500	131304
5,34913	126393
5,35325	126657
5,35737	124322
5,36148	120241
5,36562	121991
5,36973	122859
5,37385	120993
5,37798	119805
5,38210	118861
5,38622	112731
5,39035	113092
5,39447	114399
5,39858	113276
5,40272	111248
5,40683	111915
5,41095	111274
5,41508	111723
5,41920	106899
5,42332	108721
5,42745	107900
5,43157	109093
5,43568	108436
5,43982	107373
5,44393	104137
5,44805	105718
5,45217	105173
5,45630	104999
5,46042	102327
5,46453	100859
5,46867	100613
5,47278	97081
5,47690	97195
5,48103	100016
5,48515	97796
5,48927	96396
5,49340	99437
5,49752	92396
5,50163	94535
5,50577	95909
5,50988	94427
5,51400	93107
5,51813	92281
5,52225	94346
5,52637	93886
5,53050	93642
5,53462	90057
5,53873	91888
5,54285	92867
5,54698	89030
5,55110	92039
5,55522	89384
5,55935	87573
5,56347	88812
5,56758	90294
5,57172	89599
5,57583	88994
5,57995	87728
5,58408	86742
5,58820	88016
5,59232	87818
5,59645	89184
5,60057	84762
5,60468	83034
5,60882	86410
5,61293	87324
5,61705	83987
5,62118	86477
5,62530	85668
5,62942	84475
5,63353	84642
5,63767	85791
5,64178	86034
5,64590	86044
5,65003	86713
5,65415	85475
5,65827	83804
5,66240	84019
5,66652	85402
5,67063	82761
5,67477	83083
5,67888	80621
5,68300	80665
5,68713	82385
5,69125	82903
5,69537	82104
5,69950	83033
5,70362	84028
5,70773	83284
5,71187	78272
5,71598	79487
5,72010	79440
5,72422	78624
5,72835	80226
5,73247	79618
5,73658	77733
5,74072	76340
5,74483	77050
5,74895	78534
5,75308	76676
5,75720	76651
5,76132	76256
5,76545	74835
5,76957	75004
5,77368	76299
5,77782	75280
5,78193	76338
5,78605	74290
5,79018	76966
5,79430	73239
5,79842	78206
5,80255	92885
5,80667	114565
5,81078	174107
5,81490	270134
5,81903	435334
5,82315	642507
5,82727	899459
5,83140	1141984
5,83552	1351390
5,83963	1497838
5,84377	1602948
5,84788	1642964
5,85200	1640715
5,85613	1625457
5,86025	1585998
5,86437	1528095
5,86850	1474304
5,87262	1424729
5,87673	1367676
5,88087	1305660
5,88498	1266260
5,88910	1211810
5,89323	1159765
5,89735	1102490
5,90147	1048049
5,90558	1009096
5,90972	954357
5,91383	896775
5,91795	869053
5,92208	818243
5,92620	771258
5,93032	722279
5,93445	674287
5,93857	640620
5,94268	589166
5,94682	550522
5,95093	501292
5,95505	461508
5,95918	424277
5,96330	379894
5,96742	354349
5,97155	323489
5,97567	291168
5,97978	268381
5,98392	249338
5,98803	224110
5,99215	213395
5,99627	191170
6,00040	176396
6,00452	169597
6,00863	162465
6,01277	144214
6,01688	137678
6,02100	130772
6,02513	120413
6,02925	117826
6,03337	111119
6,03750	107374
6,04162	103995
6,04573	99031
6,04987	96094
6,05398	91126
6,05810	91113
6,06223	89244
6,06635	88303
6,07047	85387
6,07460	84061
6,07872	80814
6,08283	78992
6,08695	77773
6,09108	78213
6,09520	76762
6,09932	74483
6,10345	74989
6,10757	74001
6,11168	71681
6,11582	70730
6,11993	71581
6,12405	72022
6,12818	70556
6,13230	67764
6,13642	65809
6,14055	68583
6,14467	69009
6,14878	65815
6,15292	64830
6,15703	65603
6,16115	64286
6,16528	66384
6,16940	62473
6,17352	63274
6,17763	62855
6,18177	62829
6,18588	62603
6,19000	61623
6,19413	60618
6,19825	63087
6,20237	60463
6,20650	61368
6,21062	60425
6,21473	61171
6,21887	61894
6,22298	61733
6,22710	62200
6,23123	60557
6,23535	62362
6,23947	57713
6,24360	60709
6,24772	60168
6,25183	59561
6,25597	60069
6,26008	58811
6,26420	57619
6,26832	60172
6,27245	58377
6,27657	57403
6,28068	57889
6,28482	57559
6,28893	57649
6,29305	55337
6,29718	54105
6,30130	55740
6,30542	55998
6,30955	59934
6,31367	68490
6,31778	87902
6,32192	125831
6,32603	184259
6,33015	277927
6,33428	396372
6,33840	532369
6,34252	666437
6,34665	785512
6,35077	877380
6,35488	938934
6,35900	957293
6,36313	958980
6,36725	948908
6,37137	927663
6,37550	904025
6,37962	868083
6,38373	837799
6,38787	797443
6,39198	763875
6,39610	735794
6,40023	701156
6,40435	656206
6,40847	631082
6,41260	593849
6,41672	566869
6,42083	527267
6,42497	492876
6,42908	456270
6,43320	422004
6,43733	386879
6,44145	356874
6,44557	323613
6,44970	288889
6,45382	265816
6,45793	243517
6,46205	218058
6,46618	196602
6,47030	178645
6,47442	162378
6,47855	148553
6,48267	136006
6,48678	127673
6,49092	114155
6,49503	106035
6,49915	98340
6,50328	94050
6,50740	88487
6,51152	81488
6,51565	78540
6,51977	76060
6,52388	74430
6,52802	69904
6,53213	65669
6,53625	69413
6,54038	65659
6,54450	65497
6,54862	65212
6,55273	64018
6,55687	62957
6,56098	59946
6,56510	60777
6,56923	58842
6,57335	59084
6,57747	58880
6,58160	56167
6,58572	56019
6,58983	56531
6,59397	56930
6,59808	54705
6,60220	54319
6,60633	55766
6,61045	52727
6,61457	52245
6,61870	51752
6,62282	51380
6,62693	51108
6,63107	52958
6,63518	51380
6,63930	50723
6,64342	52052
6,64755	49153
6,65167	48963
6,65578	49014
6,65992	51196
6,66403	49816
6,66815	50440
6,67228	50452
6,67640	50117
6,68052	49878
6,68465	49046
6,68877	48242
6,69288	49631
6,69702	47825
6,70113	47552
6,70525	46274
6,70938	47484
6,71350	48462
6,71762	44644
6,72175	44399
6,72587	44497
6,72998	45157
6,73410	45505
6,73823	43406
6,74235	41831
6,74647	44978
6,75060	42525
6,75472	42506
6,75883	41232
6,76297	43129
6,76708	43777
6,77120	42040
6,77533	41794
6,77945	41230
6,78357	42849
6,78770	41196
6,79182	41384
6,79593	39590
6,80007	41393
6,80418	40551
6,80830	40210
6,81243	40274
6,81655	39886
6,82067	38827
6,82478	40466
6,82892	41131
6,83303	40688
6,83715	38133
6,84128	41408
6,84540	40162
6,84952	40006
6,85365	42092
6,85777	42735
6,86188	40891
6,86602	40921
6,87013	41771
6,87425	40080
6,87838	41646
6,88250	39962
6,88662	41769
6,89075	38950
6,89487	44017
6,89898	44047
6,90312	53867
6,90723	76036
6,91135	118552
6,91547	198327
6,91960	336928
6,92372	541424
6,92783	804384
6,93197	1101144
6,93608	1419082
6,94020	1688164
6,94433	1930190
6,94845	2090074
6,95257	2182609
6,95670	2213285
6,96082	2206759
6,96493	2157975
6,96907	2077951
6,97318	2016077
6,97730	1914911
6,98143	1828905
6,98555	1718644
6,98967	1635446
6,99380	1530041
6,99792	1414822
7,00203	1302051
7,00615	1211036
7,01028	1087092
7,01440	988328
7,01852	884245
7,02265	776492
7,02677	695801
7,03088	601499
7,03502	530247
7,03913	463146
7,04325	403174
7,04738	348851
7,05150	309027
7,05562	268442
7,05975	239301
7,06387	209891
7,06798	188187
7,07212	169035
7,07623	149468
7,08035	134334
7,08448	123460
7,08860	113757
7,09272	104129
7,09683	95700
7,10097	93778
7,10508	86504
7,10920	79462
7,11333	75510
7,11745	74199
7,12157	69071
7,12570	68584
7,12982	64906
7,13393	61546
7,13807	60805
7,14218	59485
7,14630	58106
7,15043	53803
7,15455	52784
7,15867	52361
7,16280	51635
7,16692	50631
7,17103	50437
7,17517	48468
7,17928	48155
7,18340	48122
7,18752	46144
7,19165	46315
7,19577	43346
7,19988	45132
7,20402	43872
7,20813	42857
7,21225	42100
7,21638	41857
7,22050	42396
7,22462	40076
7,22875	41944
7,23287	39725
7,23698	40756
7,24112	42041
7,24523	41067
7,24935	39347
7,25348	39656
7,25760	37843
7,26172	40337
7,26585	40085
7,26997	39447
7,27408	40548
7,27820	38199
7,28233	39825
7,28645	38212
7,29057	38589
7,29470	37523
7,29882	36308
7,30293	37763
7,30707	38331
7,31118	36633
7,31530	39113
7,31943	37268
7,32355	34582
7,32767	36757
7,33180	35294
7,33592	36161
7,34003	35244
7,34417	36077
7,34828	34958
7,35240	36080
7,35653	35395
7,36065	34478
7,36477	34672
7,36888	35191
7,37302	33283
7,37713	33938
7,38125	34103
7,38538	34292
7,38950	32987
7,39362	33826
7,39775	34235
7,40187	33832
7,40598	33469
7,41012	34145
7,41423	32108
7,41835	35034
7,42248	35557
7,42660	34764
7,43072	32857
7,43485	33378
7,43897	33783
7,44308	35700
7,44722	33785
7,45133	33039
7,45545	34028
7,45957	32527
7,46370	32864
7,46782	33915
7,47193	33371
7,47607	33402
7,48018	33869
7,48430	33007
7,48843	33056
7,49255	32006
7,49667	32043
7,50080	31791
7,50492	31701
7,50903	32210
7,51317	31265
7,51728	31750
7,52140	32327
7,52553	32587
7,52965	32435
7,53377	33399
7,53790	31361
7,54202	32606
7,54613	31317
7,55025	31563
7,55438	32817
7,55850	33445
7,56262	35492
7,56675	40701
7,57087	51102
7,57498	75561
7,57912	117275
7,58323	180487
7,58735	286405
7,59148	421678
7,59560	588568
7,59972	763150
7,60385	942689
7,60797	1101166
7,61208	1230158
7,61622	1315734
7,62033	1351816
7,62445	1348778
7,62858	1329669
7,63270	1271790
7,63682	1214360
7,64093	1146228
7,64507	1084460
7,64918	1001842
7,65330	918457
7,65743	839381
7,66155	747739
7,66567	671361
7,66980	584731
7,67392	511058
7,67803	443934
7,68217	383880
7,68628	327939
7,69040	278102
7,69453	243968
7,69865	200797
7,70277	176955
7,70690	160310
7,71102	136556
7,71513	120322
7,71927	107808
7,72338	98564
7,72750	94416
7,73162	80648
7,73575	76313
7,73987	70926
7,74398	66231
7,74812	63604
7,75223	60995
7,75635	56791
7,76048	54037
7,76460	51409
7,76872	52783
7,77285	49714
7,77697	48887
7,78108	47320
7,78522	46079
7,78933	42403
7,79345	45885
7,79758	41194
7,80170	41090
7,80582	38058
7,80995	38735
7,81407	37108
7,81818	38208
7,82230	37069
7,82643	36162
7,83055	33743
7,83467	35470
7,83880	35006
7,84292	34490
7,84703	34435
7,85117	32053
7,85528	31948
7,85940	33798
7,86353	32461
7,86765	31379
7,87177	33352
7,87590	33127
7,88002	34076
7,88413	31468
7,88827	32058
7,89238	32559
7,89650	30767
7,90063	32315
7,90475	32614
7,90887	31486
7,91298	31239
7,91712	30438
7,92123	29852
7,92535	30205
7,92948	30966
7,93360	30486
7,93772	31847
7,94185	32639
7,94597	32502
7,95008	34242
7,95422	34184
7,95833	33140
7,96245	34390
7,96658	37085
7,97070	35975
7,97482	37031
7,97895	33396
7,98307	34867
7,98718	36329
7,99132	34042
7,99543	35771
7,99955	33903
8,00368	32748
8,00780	31835
8,01192	31315
8,01603	31581
8,02017	32011
8,02428	29619
8,02840	28578
8,03253	28961
8,03665	28069
8,04077	28538
8,04490	29285
8,04902	27948
8,05313	27010
8,05727	27400
8,06138	28965
8,06550	28166
8,06963	26959
8,07375	26931
8,07787	28335
8,08200	27590
8,08612	27166
8,09023	25618
8,09437	25858
8,09848	26061
8,10260	25553
8,10672	26773
8,11085	26832
8,11497	26584
8,11908	26374
8,12322	25711
8,12733	26890
8,13145	26230
8,13558	25640
8,13970	25463
8,14382	25457
8,14795	25910
8,15207	26880
8,15618	26248
8,16032	25917
8,16443	24760
8,16855	25902
8,17268	25753
8,17680	25440
8,18092	24852
8,18505	26664
8,18917	26581
8,19328	28637
8,19740	28243
8,20153	28277
8,20565	30107
8,20977	28822
8,21390	28443
8,21802	29251
8,22213	31399
8,22627	33204
8,23038	31882
8,23450	32892
8,23863	32835
8,24275	33323
8,24687	31134
8,25100	31649
8,25512	31365
8,25923	32185
8,26337	32669
8,26748	32838
8,27160	32085
8,27573	31617
8,27985	34775
8,28397	42136
8,28808	61261
8,29222	102390
8,29633	179081
8,30045	310148
8,30458	506450
8,30870	789470
8,31282	1156501
8,31695	1569666
8,32107	2009150
8,32518	2414218
8,32932	2773796
8,33343	3027479
8,33755	3168212
8,34168	3197593
8,34580	3152618
8,34992	3050370
8,35405	2889883
8,35817	2637703
8,36228	2394307
8,36642	2130489
8,37053	1867756
8,37465	1622484
8,37877	1367396
8,38290	1157295
8,38702	963858
8,39113	804652
8,39527	669150
8,39938	550738
8,40350	453967
8,40763	378019
8,41175	322320
8,41587	285037
8,42000	238758
8,42412	211722
8,42823	184170
8,43237	162217
8,43648	147523
8,44060	131444
8,44473	120708
8,44885	109541
8,45297	103182
8,45710	92549
8,46122	88566
8,46533	83645
8,46945	78861
8,47358	73805
8,47770	72182
8,48182	69635
8,48595	64770
8,49007	63455
8,49418	63836
8,49832	62620
8,50243	61893
8,50655	60928
8,51068	62756
8,51480	59957
8,51892	58320
8,52305	58353
8,52717	55980
8,53128	54384
8,53542	54325
8,53953	51761
8,54365	50126
8,54778	50348
8,55190	48528
8,55602	46059
8,56013	45358
8,56427	44149
8,56838	43897
8,57250	41871
8,57663	38741
8,58075	39005
8,58487	37631
8,58900	36148
8,59312	34689
8,59723	32667
8,60137	34958
8,60548	34758
8,60960	32798
8,61373	32178
8,61785	31910
8,62197	31760
8,62610	32816
8,63022	30210
8,63433	31324
8,63847	31969
8,64258	29359
8,64670	31186
8,65082	28190
8,65495	31257
8,65907	31659
8,66318	29377
8,66732	31802
8,67143	32446
8,67555	34753
8,67968	35503
8,68380	37805
8,68792	41415
8,69205	41393
8,69617	42321
8,70028	42781
8,70442	42050
8,70853	43065
8,71265	42600
8,71678	41855
8,72090	39959
8,72502	39631
8,72915	38414
8,73327	37175
8,73738	34385
8,74150	34308
8,74563	32923
8,74975	31419
8,75387	29878
8,75800	29571
8,76212	28671
8,76623	30040
8,77037	28227
8,77448	27904
8,77860	27970
8,78273	28533
8,78685	28012
8,79097	26782
8,79510	26820
8,79922	26477
8,80333	25641
8,80747	26121
8,81158	26914
8,81570	25379
8,81983	25266
8,82395	26264
8,82807	26177
8,83218	27022
8,83632	27354
8,84043	29918
8,84455	35861
8,84868	48930
8,85280	69244
8,85692	115172
8,86105	186856
8,86517	291122
8,86928	442231
8,87342	624578
8,87753	853423
8,88165	1077525
8,88578	1287338
8,88990	1451884
8,89402	1573941
8,89815	1636513
8,90227	1640892
8,90638	1592431
8,91052	1498417
8,91463	1359282
8,91875	1229644
8,92287	1071829
8,92700	918426
8,93112	791303
8,93523	664539
8,93937	549750
8,94348	460102
8,94760	381490
8,95173	317964
8,95585	267019
8,95997	225869
8,96410	191302
8,96822	164994
8,97233	138977
8,97647	127314
8,98058	113162
8,98470	101802
8,98883	91985
8,99295	85213
8,99707	76201
9,00120	73678
9,00532	69409
9,00943	62544
9,01355	60135
9,01768	58249
9,02180	53663
9,02592	51970
9,03005	51513
9,03417	52791
9,03828	58719
9,04242	73214
9,04653	101855
9,05065	161682
9,05478	255481
9,05890	391963
9,06302	588215
9,06715	812008
9,07127	1080513
9,07538	1331786
9,07952	1549791
9,08363	1725614
9,08775	1806027
9,09188	1853404
9,09600	1834613
9,10012	1734527
9,10423	1622800
9,10837	1451898
9,11248	1287344
9,11660	1098274
9,12073	916446
9,12485	757120
9,12897	617731
9,13310	498814
9,13722	414257
9,14133	341605
9,14547	281810
9,14958	238573
9,15370	199833
9,15783	173580
9,16195	150740
9,16607	134186
9,17020	116250
9,17432	108947
9,17843	97737
9,18257	88764
9,18668	82943
9,19080	77774
9,19492	70554
9,19905	68695
9,20317	61616
9,20728	61021
9,21142	57098
9,21553	54078
9,21965	53231
9,22378	50537
9,22790	47774
9,23202	48423
9,23615	44775
9,24027	43792
9,24438	41495
9,24852	40792
9,25263	40942
9,25675	40493
9,26088	38048
9,26500	36038
9,26912	37045
9,27325	34543
9,27737	34887
9,28148	34876
9,28560	33816
9,28973	31125
9,29385	33631
9,29797	32994
9,30210	31118
9,30622	30918
9,31033	29749
9,31447	29649
9,31858	29092
9,32270	30438
9,32683	29782
9,33095	29369
9,33507	28776
9,33920	28320
9,34332	25944
9,34743	29835
9,35157	27187
9,35568	25852
9,35980	27581
9,36393	26682
9,36805	27546
9,37217	23682
9,37628	26594
9,38042	26596
9,38453	25749
9,38865	25942
9,39278	26211
9,39690	25917
9,40102	24330
9,40515	25083
9,40927	25297
9,41338	24266
9,41752	25047
9,42163	24151
9,42575	23826
9,42988	24818
9,43400	21408
9,43812	23182
9,44225	23549
9,44637	24714
9,45048	23617
9,45462	23421
9,45873	23014
9,46285	23439
9,46697	22512
9,47110	23682
9,47522	22864
9,47933	23916
9,48347	22835
9,48758	22555
9,49170	24214
9,49583	23502
9,49995	23734
9,50407	23181
9,50820	22804
9,51232	23545
9,51643	21456
9,52057	22847
9,52468	22273
9,52880	23562
9,53293	22598
9,53705	22884
9,54117	23366
9,54530	23381
9,54942	22512
9,55353	21236
9,55767	21079
9,56178	20733
9,56590	21114
9,57002	21580
9,57415	20482
9,57827	22600
9,58238	22812
9,58652	22747
9,59063	20229
9,59475	22899
9,59888	21348
9,60300	23905
9,60712	25253
9,61125	25917
9,61537	31204
9,61948	42574
9,62362	64830
9,62773	108056
9,63185	177570
9,63598	294505
9,64010	450675
9,64422	673041
9,64835	907198
9,65247	1183513
9,65658	1442491
9,66070	1642122
9,66483	1780803
9,66895	1839401
9,67307	1810563
9,67720	1737626
9,68132	1614995
9,68543	1439406
9,68957	1246911
9,69368	1039659
9,69780	876498
9,70193	706489
9,70605	578737
9,71017	468042
9,71430	377662
9,71842	318396
9,72253	264062
9,72667	219436
9,73078	185535
9,73490	163575
9,73903	142281
9,74315	127354
9,74727	112043
9,75138	101826
9,75552	91782
9,75963	83906
9,76375	76753
9,76788	74505
9,77200	66260
9,77612	62123
9,78025	61289
9,78437	57801
9,78848	55287
9,79262	54711
9,79673	52787
9,80085	54191
9,80498	68219
9,80910	95948
9,81322	153072
9,81735	274804
9,82147	472182
9,82558	793120
9,82972	1240246
9,83383	1832054
9,83795	2555117
9,84207	3400556
9,84620	4267327
9,85032	5076202
9,85443	5738271
9,85857	6163197
9,86268	6251883
9,86680	6119252
9,87093	5699583
9,87505	5083442
9,87917	4329985
9,88330	3570970
9,88742	2903446
9,89153	2321113
9,89567	1839447
9,89978	1451719
9,90390	1157320
9,90803	944487
9,91215	770056
9,91627	646547
9,92040	545190
9,92452	469695
9,92863	406277
9,93275	350241
9,93688	310710
9,94100	279891
9,94512	251058
9,94925	226859
9,95337	208954
9,95748	191357
9,96162	174931
9,96573	160846
9,96985	150335
9,97398	141389
9,97810	128674
9,98222	122229
9,98635	116788
9,99047	109414
9,99458	101320
9,99872	99923
10,00283	93277
10,00695	91860
10,01108	84401
10,01520	83314
10,01932	77249
10,02343	72470
10,02757	73352
10,03168	69806
10,03580	65126
10,03993	65459
10,04405	62751
10,04817	62391
10,05230	56733
10,05642	57367
10,06053	55151
10,06467	53396
10,06878	51689
10,07290	51135
10,07703	48425
10,08115	47268
10,08527	46461
10,08940	44441
10,09352	42241
10,09763	44389
10,10177	44263
10,10588	43826
10,11000	39639
10,11412	39866
10,11825	39097
10,12237	39329
10,12648	37428
10,13062	38455
10,13473	37441
10,13885	38567
10,14298	35995
10,14710	36428
10,15122	34810
10,15535	35954
10,15947	34180
10,16358	35968
10,16772	33978
10,17183	35556
10,17595	36900
10,18008	34961
10,18420	35318
10,18832	32894
10,19245	33455
10,19657	32393
10,20068	32304
10,20480	32427
10,20893	30181
10,21305	29679
10,21717	28323
10,22130	30235
10,22542	28842
10,22953	27633
10,23367	28192
10,23778	28511
10,24190	27129
10,24603	29569
10,25015	29354
10,25427	30456
10,25840	31598
10,26252	30788
10,26663	32175
10,27077	30622
10,27488	30558
10,27900	29028
10,28313	30023
10,28725	33035
10,29137	38474
10,29548	53391
10,29962	82578
10,30373	135041
10,30785	223527
10,31198	364560
10,31610	555404
10,32022	797120
10,32435	1081334
10,32847	1379026
10,33258	1635240
10,33672	1840099
10,34083	1956559
10,34495	1974431
10,34908	1908940
10,35320	1748934
10,35732	1545185
10,36145	1309094
10,36557	1100264
10,36968	907635
10,37382	731193
10,37793	594343
10,38205	479526
10,38617	388670
10,39030	320876
10,39442	265891
10,39853	225550
10,40267	197711
10,40678	166999
10,41090	149392
10,41503	135598
10,41915	123059
10,42327	113643
10,42740	106845
10,43152	100242
10,43563	96533
10,43977	90562
10,44388	86582
10,44800	83331
10,45213	79123
10,45625	73729
10,46037	72395
10,46450	65178
10,46862	61773
10,47273	57355
10,47685	54610
10,48098	52751
10,48510	49100
10,48922	48706
10,49335	47067
10,49747	45279
10,50158	45097
10,50572	43150
10,50983	44190
10,51395	46622
10,51808	46032
10,52220	47946
10,52632	51804
10,53045	54385
10,53457	52881
10,53868	54878
10,54282	54066
10,54693	53412
10,55105	49923
10,55518	50559
10,55930	47228
10,56342	44304
10,56753	42910
10,57167	42444
10,57578	43525
10,57990	52233
10,58403	75017
10,58815	112869
10,59227	188435
10,59640	313821
10,60052	492980
10,60463	746730
10,60877	1066716
10,61288	1404545
10,61700	1745046
10,62113	2023943
10,62525	2197758
10,62937	2235612
10,63350	2175094
10,63762	1992947
10,64173	1781001
10,64587	1515753
10,64998	1254354
10,65410	1021825
10,65822	810836
10,66235	645849
10,66647	525625
10,67058	422533
10,67472	350380
10,67883	293894
10,68295	246626
10,68708	210687
10,69120	185488
10,69532	161951
10,69945	143199
10,70357	131725
10,70768	117001
10,71182	105611
10,71593	100608
10,72005	92982
10,72418	85316
10,72830	82965
10,73242	76250
10,73655	73793
10,74067	68362
10,74478	66542
10,74890	63234
10,75303	59271
10,75715	57101
10,76127	54156
10,76540	51507
10,76952	48060
10,77363	46944
10,77777	46217
10,78188	44105
10,78600	42257
10,79013	42114
10,79425	39582
10,79837	39201
10,80250	38593
10,80662	38049
10,81073	37269
10,81487	35699
10,81898	33844
10,82310	33990
10,82723	33330
10,83135	33597
10,83547	33783
10,83958	32990
10,84372	32976
10,84783	32795
10,85195	31107
10,85608	31226
10,86020	30553
10,86432	32869
10,86845	31526
10,87257	31224
10,87668	31256
10,88082	28656
10,88493	29416
10,88905	28359
10,89318	27445
10,89730	27467
10,90142	27941
10,90555	24054
10,90967	26852
10,91378	27360
10,91792	26695
10,92203	26987
10,92615	26572
10,93027	26008
10,93440	26806
10,93852	25065
10,94263	26592
10,94677	25204
10,95088	25519
10,95500	25895
10,95913	24167
10,96325	27317
10,96737	25757
10,97150	24924
10,97562	23766
10,97973	24643
10,98387	24141
10,98798	24167
10,99210	25004
10,99623	24269
11,00035	23271
11,00447	23256
11,00860	23928
11,01272	24327
11,01683	23911
11,02095	24397
11,02508	25517
11,02920	25137
11,03332	25636
11,03745	23944
11,04157	24693
11,04568	25661
11,04982	25639
11,05393	27351
11,05805	29688
11,06218	35947
11,06630	48207
11,07042	76884
11,07455	130369
11,07867	219666
11,08278	361382
11,08692	568723
11,09103	843098
11,09515	1152519
11,09928	1486587
11,10340	1775420
11,10752	2021537
11,11163	2167874
11,11577	2170510
11,11988	2056326
11,12400	1854585
11,12813	1602078
11,13225	1355559
11,13637	1124361
11,14050	899303
11,14462	720091
11,14873	578030
11,15287	475521
11,15698	383767
11,16110	314937
11,16523	264794
11,16935	227314
11,17347	196800
11,17760	168608
11,18172	151733
11,18583	136887
11,18997	121614
11,19408	114065
11,19820	103567
11,20232	94276
11,20645	89648
11,21057	82771
11,21468	75682
11,21882	73338
11,22293	69181
11,22705	64449
11,23118	60790
11,23530	57802
11,23942	55887
11,24355	54178
11,24767	52683
11,25178	49512
11,25592	48722
11,26003	47846
11,26415	44322
11,26828	42213
11,27240	41123
11,27652	43117
11,28065	40455
11,28477	39568
11,28888	38934
11,29302	39885
11,29713	37823
11,30125	36934
11,30537	37655
11,30950	34386
11,31362	33633
11,31773	34562
11,32187	33293
11,32598	33247
11,33010	33156
11,33423	34758
11,33835	35223
11,34247	45768
11,34660	68582
11,35072	111861
11,35483	201428
11,35897	358146
11,36308	599726
11,36720	973593
11,37133	1463362
11,37545	2068430
11,37957	2730543
11,38370	3417228
11,38782	4061451
11,39193	4549788
11,39605	4846905
11,40018	4789291
11,40430	4446815
11,40842	3923692
11,41255	3323950
11,41667	2714023
11,42078	2175721
11,42492	1732095
11,42903	1364349
11,43315	1095226
11,43728	897676
11,44140	733404
11,44552	611188
11,44965	517494
11,45377	444981
11,45788	385208
11,46202	338676
11,46613	301371
11,47025	269211
11,47438	234653
11,47850	214375
11,48262	195977
11,48673	180217
11,49087	159809
11,49498	149039
11,49910	139281
11,50323	130425
11,50735	124064
11,51147	119035
11,51560	111101
11,51972	101953
11,52383	96521
11,52797	93404
11,53208	91076
11,53620	85734
11,54033	83167
11,54445	77497
11,54857	77359
11,55270	72099
11,55682	67603
11,56093	67932
11,56507	65066
11,56918	64042
11,57330	63039
11,57742	58187
11,58155	58037
11,58567	54620
11,58978	52632
11,59392	52490
11,59803	52925
11,60215	48403
11,60628	49539
11,61040	49024
11,61452	49584
11,61865	59779
11,62277	74135
11,62688	105612
11,63102	168684
11,63513	270544
11,63925	436440
11,64338	671091
11,64750	979458
11,65162	1319672
11,65575	1666411
11,65987	1979307
11,66398	2202482
11,66810	2298579
11,67223	2262478
11,67635	2117749
11,68047	1854200
11,68460	1603043
11,68872	1325814
11,69283	1074778
11,69697	862442
11,70108	682591
11,70520	569781
11,70933	465967
11,71345	379712
11,71757	326733
11,72170	278003
11,72582	233976
11,72993	210714
11,73407	186358
11,73818	164912
11,74230	147691
11,74643	137079
11,75055	126616
11,75467	119837
11,75878	120808
11,76292	136435
11,76703	171252
11,77115	245699
11,77528	384148
11,77940	624269
11,78352	987037
11,78765	1448525
11,79177	2079467
11,79588	2760114
11,80002	3433546
11,80413	4053266
11,80825	4482035
11,81238	4635590
11,81650	4525107
11,82062	4222709
11,82475	3688802
11,82887	3073255
11,83298	2510389
11,83712	2013541
11,84123	1590150
11,84535	1282230
11,84947	1021842
11,85360	837780
11,85772	694276
11,86183	583506
11,86597	499379
11,87008	431089
11,87420	373620
11,87833	334297
11,88245	299574
11,88657	271157
11,89070	243197
11,89482	219901
11,89893	199911
11,90307	185355
11,90718	178853
11,91130	158570
11,91543	149344
11,91955	140414
11,92367	130929
11,92780	127865
11,93192	118489
11,93603	112018
11,94015	106860
11,94428	103843
11,94840	101225
11,95252	93998
11,95665	90589
11,96077	85436
11,96488	85255
11,96902	78563
11,97313	78111
11,97725	73494
11,98138	74061
11,98550	69385
11,98962	64591
11,99375	65215
11,99787	64588
12,00198	61214
12,00612	60393
12,01023	56519
12,01435	56358
12,01848	57922
12,02260	53665
12,02672	55697
12,03083	49848
12,03497	49672
12,03908	50524
12,04320	48688
12,04733	47422
12,05145	47451
12,05557	47773
12,05970	52601
12,06382	54411
12,06793	69013
12,07207	96386
12,07618	156732
12,08030	253927
12,08443	404832
12,08855	632793
12,09267	934596
12,09680	1279621
12,10092	1658579
12,10503	2046846
12,10917	2394790
12,11328	2676659
12,11740	2910359
12,12152	3185552
12,12565	3546425
12,12977	3987642
12,13388	4463997
12,13802	4951420
12,14213	5241686
12,14625	5353811
12,15038	5150977
12,15450	4698811
12,15862	4075344
12,16275	3394974
12,16687	2739216
12,17098	2181551
12,17512	1715318
12,17923	1374678
12,18335	1098358
12,18748	910773
12,19160	759683
12,19572	650949
12,19985	551375
12,20397	485283
12,20808	429490
12,21220	381388
12,21633	337630
12,22045	310617
12,22457	279405
12,22870	258374
12,23282	238461
12,23693	217651
12,24107	205799
12,24518	191447
12,24930	180199
12,25343	170034
12,25755	161427
12,26167	154610
12,26580	146024
12,26992	140352
12,27403	132642
12,27817	130952
12,28228	126473
12,28640	118504
12,29053	117909
12,29465	112403
12,29877	108497
12,30288	104819
12,30702	99157
12,31113	95999
12,31525	91718
12,31938	87540
12,32350	85038
12,32762	86165
12,33175	80562
12,33587	78158
12,33998	76368
12,34412	73884
12,34823	73971
12,35235	69502
12,35648	70364
12,36060	66506
12,36472	66166
12,36885	64078
12,37297	60847
12,37708	61252
12,38122	59119
12,38533	61452
12,38945	66695
12,39357	78139
12,39770	113026
12,40182	172199
12,40593	272653
12,41007	427172
12,41418	654065
12,41830	927589
12,42243	1230593
12,42655	1544973
12,43067	1800305
12,43480	1989994
12,43892	2039381
12,44303	1956296
12,44717	1802465
12,45128	1579732
12,45540	1326741
12,45953	1092355
12,46365	898020
12,46777	721088
12,47190	581646
12,47602	481238
12,48013	399737
12,48425	336350
12,48838	284881
12,49250	247707
12,49662	218781
12,50075	194707
12,50487	172786
12,50898	157292
12,51312	146115
12,51723	132910
12,52135	125214
12,52548	119193
12,52960	109754
12,53372	106724
12,53785	104486
12,54197	97135
12,54608	93407
12,55022	85201
12,55433	83090
12,55845	82191
12,56258	77474
12,56670	75914
12,57082	73084
12,57493	70018
12,57907	65509
12,58318	64536
12,58730	62805
12,59143	60351
12,59555	58913
12,59967	58792
12,60380	57733
12,60792	55487
12,61203	54403
12,61617	53889
12,62028	54186
12,62440	50292
12,62853	49745
12,63265	48560
12,63677	49614
12,64090	49194
12,64502	48392
12,64913	46434
12,65327	48384
12,65738	45377
12,66150	46125
12,66562	46069
12,66975	46233
12,67387	45170
12,67798	44887
12,68212	45259
12,68623	44317
12,69035	42016
12,69448	42044
12,69860	41320
12,70272	41418
12,70685	41788
12,71097	39026
12,71508	40492
12,71922	36401
12,72333	38599
12,72745	38144
12,73158	36013
12,73570	34897
12,73982	38244
12,74395	35384
12,74807	36764
12,75218	36324
12,75630	35866
12,76043	33424
12,76455	32786
12,76867	34645
12,77280	33576
12,77692	33234
12,78103	33406
12,78517	33246
12,78928	33562
12,79340	31807
12,79753	33872
12,80165	32503
12,80577	32965
12,80990	33950
12,81402	31756
12,81813	34913
12,82227	38279
12,82638	47230
12,83050	73008
12,83463	126338
12,83875	226507
12,84287	407261
12,84698	710454
12,85112	1170838
12,85523	1814776
12,85935	2635681
12,86348	3597589
12,86760	4582465
12,87172	5519327
12,87585	6298442
12,87997	6725818
12,88408	6715169
12,88822	6348039
12,89233	5615804
12,89645	4762152
12,90058	3873742
12,90470	3118121
12,90882	2470462
12,91295	1971524
12,91707	1588337
12,92118	1301907
12,92532	1073822
12,92943	902904
12,93355	765187
12,93768	667636
12,94180	588330
12,94592	522920
12,95003	466217
12,95417	423419
12,95828	387937
12,96240	352689
12,96653	322190
12,97065	301083
12,97477	284124
12,97890	267593
12,98302	247463
12,98713	236313
12,99127	225922
12,99538	215678
12,99950	204649
13,00363	199641
13,00775	193545
13,01187	184840
13,01600	175408
13,02012	168220
13,02423	163308
13,02837	157551
13,03248	151557
13,03660	147452
13,04072	143533
13,04485	139017
13,04897	137131
13,05308	131073
13,05722	129941
13,06133	128362
13,06545	126515
13,06958	122839
13,07370	124067
13,07782	121379
13,08195	121548
13,08607	126761
13,09018	129491
13,09432	132570
13,09843	137848
13,10255	140508
13,10668	147774
13,11080	148119
13,11492	160024
13,11905	182406
13,12317	226430
13,12728	304259
13,13140	433665
13,13553	610087
13,13965	845127
13,14377	1112763
13,14790	1377632
13,15202	1600519
13,15613	1732384
13,16027	1773790
13,16438	1720505
13,16850	1574003
13,17263	1392135
13,17675	1189795
13,18087	994891
13,18500	820941
13,18912	667629
13,19323	550847
13,19737	460071
13,20148	384930
13,20560	325186
13,20973	289620
13,21385	250962
13,21797	228922
13,22208	208830
13,22622	202013
13,23033	210421
13,23445	236836
13,23858	297730
13,24270	414201
13,24682	590100
13,25095	855285
13,25507	1170835
13,25918	1555194
13,26332	1914539
13,26743	2198252
13,27155	2381243
13,27568	2421476
13,27980	2304969
13,28392	2073075
13,28805	1805202
13,29217	1508834
13,29628	1236712
13,30042	1017655
13,30453	838798
13,30865	688213
13,31277	576681
13,31690	485622
13,32102	417401
13,32513	363185
13,32927	324733
13,33338	291326
13,33750	258886
13,34163	238850
13,34575	215630
13,34987	203434
13,35400	186700
13,35812	172742
13,36223	163267
13,36637	158175
13,37048	146680
13,37460	140001
13,37873	133371
13,38285	128977
13,38697	121359
13,39110	116901
13,39522	109568
13,39933	105610
13,40345	103946
13,40758	99702
13,41170	95396
13,41582	93520
13,41995	89293
13,42407	86718
13,42818	87582
13,43232	81548
13,43643	78653
13,44055	80787
13,44468	77994
13,44880	76085
13,45292	73069
13,45705	77448
13,46117	72166
13,46528	69902
13,46942	69916
13,47353	67725
13,47765	65323
13,48178	63157
13,48590	64859
13,49002	64231
13,49413	62061
13,49827	63798
13,50238	60752
13,50650	59249
13,51063	61221
13,51475	58325
13,51887	58616
13,52300	56981
13,52712	56230
13,53123	56145
13,53537	58295
13,53948	68427
13,54360	83749
13,54773	115619
13,55185	177678
13,55597	286749
13,56010	460735
13,56422	717690
13,56833	1054745
13,57247	1451252
13,57658	1850822
13,58070	2177880
13,58482	2431849
13,58895	2518333
13,59307	2447760
13,59718	2232378
13,60132	1958262
13,60543	1648139
13,60955	1335667
13,61368	1082909
13,61780	889384
13,62192	723285
13,62605	605572
13,63017	498683
13,63428	431742
13,63842	375850
13,64253	328912
13,64665	294442
13,65078	261295
13,65490	234627
13,65902	216341
13,66315	198675
13,66727	187522
13,67138	171075
13,67550	159126
13,67963	151290
13,68375	146432
13,68787	130943
13,69200	128802
13,69612	125172
13,70023	118181
13,70437	113690
13,70848	110455
13,71260	108630
13,71673	106487
13,72085	102040
13,72497	102114
13,72910	96844
13,73322	96982
13,73733	92649
13,74147	91859
13,74558	87655
13,74970	82096
13,75383	80791
13,75795	81165
13,76207	76969
13,76618	74898
13,77032	74108
13,77443	75362
13,77855	73874
13,78268	70680
13,78680	68576
13,79092	67725
13,79505	67338
13,79917	66092
13,80328	64818
13,80742	64206
13,81153	61392
13,81565	61162
13,81978	58070
13,82390	61478
13,82802	64112
13,83215	75838
13,83627	96598
13,84038	135507
13,84452	214360
13,84863	341801
13,85275	536173
13,85687	799598
13,86100	1113696
13,86512	1441713
13,86923	1740775
13,87337	1948086
13,87748	2034026
13,88160	2000443
13,88573	1855698
13,88985	1657604
13,89397	1426952
13,89810	1199033
13,90222	982736
13,90633	808323
13,91047	659008
13,91458	549677
13,91870	464420
13,92283	387955
13,92695	334592
13,93107	295342
13,93520	263724
13,93932	234503
13,94343	211199
13,94755	192667
13,95168	179581
13,95580	166509
13,95992	155182
13,96405	143251
13,96817	131481
13,97228	130743
13,97642	122821
13,98053	116220
13,98465	109759
13,98878	105756
13,99290	98698
13,99702	96509
14,00115	95980
14,00527	90787
14,00938	87811
14,01352	82960
14,01763	84449
14,02175	79348
14,02588	82793
14,03000	80107
14,03412	75666
14,03823	75234
14,04237	76066
14,04648	70621
14,05060	69422
14,05473	71112
14,05885	72557
14,06297	68938
14,06710	65357
14,07122	63792
14,07533	68045
14,07947	65234
14,08358	67175
14,08770	63428
14,09183	61362
14,09595	62977
14,10007	62036
14,10420	60009
14,10832	58689
14,11243	58625
14,11657	59648
14,12068	56466
14,12480	54264
14,12892	57337
14,13305	52995
14,13717	53663
14,14128	53709
14,14542	53558
14,14953	51768
14,15365	53949
14,15778	53639
14,16190	51685
14,16602	53119
14,17015	52920
14,17427	53708
14,17838	50571
14,18252	50873
14,18663	50463
14,19075	51154
14,19488	52891
14,19900	52561
14,20312	52128
14,20725	51480
14,21137	52177
14,21548	51519
14,21960	49227
14,22373	53777
14,22785	56297
14,23197	69170
14,23610	88434
14,24022	128557
14,24433	198569
14,24847	329106
14,25258	531405
14,25670	829912
14,26083	1256564
14,26495	1802091
14,26907	2472292
14,27320	3244138
14,27732	4079336
14,28143	4913804
14,28557	5591089
14,28968	6054162
14,29380	6139844
14,29793	5917451
14,30205	5445135
14,30617	4839686
14,31028	4205872
14,31442	3560351
14,31853	2991145
14,32265	2497649
14,32678	2064287
14,33090	1706679
14,33502	1415267
14,33915	1203856
14,34327	1011907
14,34738	868142
14,35152	746637
14,35563	658013
14,35975	587914
14,36388	526193
14,36800	482400
14,37212	432891
14,37625	401238
14,38037	368623
14,38448	341537
14,38862	319448
14,39273	295396
14,39685	281797
14,40097	260750
14,40510	245466
14,40922	231542
14,41333	221132
14,41747	212704
14,42158	204582
14,42570	194187
14,42983	182527
14,43395	177734
14,43807	169602
14,44220	168774
14,44632	159522
14,45043	154296
14,45457	153025
14,45868	145257
14,46280	141249
14,46693	138963
14,47105	137201
14,47517	131942
14,47930	128882
14,48342	129733
14,48753	124282
14,49167	120956
14,49578	117719
14,49990	117899
14,50402	116107
14,50815	112931
14,51227	114213
14,51638	116180
14,52052	130472
14,52463	153691
14,52875	198306
14,53288	277704
14,53700	415015
14,54112	600750
14,54525	863185
14,54937	1142149
14,55348	1424124
14,55762	1679239
14,56173	1811179
14,56585	1854732
14,56998	1789674
14,57410	1644963
14,57822	1467798
14,58235	1277318
14,58647	1123020
14,59058	1005232
14,59470	960994
14,59883	989344
14,60295	1097628
14,60707	1278679
14,61120	1490775
14,61532	1719833
14,61943	1890259
14,62357	2031111
14,62768	2120777
14,63180	2166997
14,63593	2263779
14,64005	2337957
14,64417	2466221
14,64830	2616498
14,65242	2763098
14,65653	2850925
14,66067	2835331
14,66478	2709804
14,66890	2478572
14,67303	2193200
14,67715	1881153
14,68127	1586713
14,68538	1335714
14,68952	1116393
14,69363	944889
14,69775	802982
14,70188	695853
14,70600	606377
14,71012	538066
14,71425	482160
14,71837	434710
14,72248	400789
14,72662	367398
14,73073	339584
14,73485	311856
14,73898	293524
14,74310	276171
14,74722	255736
14,75135	241529
14,75547	230216
14,75958	220730
14,76372	208756
14,76783	196432
14,77195	192983
14,77607	180411
14,78020	173769
14,78432	172245
14,78843	162568
14,79257	156150
14,79668	149760
14,80080	146535
14,80493	142012
14,80905	139557
14,81317	132698
14,81730	130249
14,82142	125468
14,82553	124032
14,82967	119836
14,83378	115783
14,83790	116128
14,84203	112274
14,84615	112122
14,85027	109932
14,85440	109964
14,85852	108563
14,86263	104989
14,86675	101188
14,87088	98780
14,87500	99673
14,87912	96537
14,88325	96533
14,88737	95954
14,89148	99182
14,89562	99472
14,89973	107844
14,90385	123796
14,90798	155025
14,91210	208933
14,91622	299815
14,92035	471116
14,92447	699025
14,92858	1000015
14,93272	1362102
14,93683	1748866
14,94095	2105547
14,94508	2343687
14,94920	2439942
14,95332	2382110
14,95743	2170729
14,96157	1895347
14,96568	1592963
14,96980	1337997
14,97393	1098478
14,97805	917857
14,98217	774491
14,98630	653826
14,99042	577218
14,99453	501215
14,99867	451354
15,00278	407866
15,00690	365422
15,01103	334553
15,01515	312596
15,01927	289213
15,02340	269583
15,02752	256678
15,03163	239631
15,03577	223036
15,03988	213018
15,04400	208065
15,04812	194693
15,05225	190070
15,05637	185073
15,06048	176005
15,06462	165276
15,06873	166147
15,07285	160000
15,07698	155513
15,08110	147184
15,08522	146018
15,08935	143252
15,09347	135158
15,09758	130238
15,10172	129019
15,10583	123987
15,10995	123630
15,11408	117020
15,11820	119047
15,12232	113301
15,12645	110579
15,13057	110713
15,13468	108173
15,13880	110099
15,14293	106870
15,14705	109993
15,15117	103367
15,15530	106493
15,15942	99689
15,16353	100578
15,16767	96829
15,17178	94832
15,17590	95606
15,18003	93628
15,18415	99914
15,18827	104154
15,19240	120859
15,19652	144180
15,20063	201590
15,20477	293828
15,20888	439946
15,21300	644449
15,21713	916317
15,22125	1209342
15,22537	1516969
15,22948	1777354
15,23362	1933161
15,23773	1976142
15,24185	1921481
15,24598	1770397
15,25010	1564588
15,25422	1353507
15,25835	1141798
15,26247	960516
15,26658	812995
15,27072	675378
15,27483	585942
15,27895	513863
15,28308	454973
15,28720	420939
15,29132	407611
15,29545	407617
15,29957	452999
15,30368	540865
15,30782	665027
15,31193	832574
15,31605	1017198
15,32017	1237093
15,32430	1412562
15,32842	1520221
15,33253	1555009
15,33667	1515673
15,34078	1434893
15,34490	1297381
15,34903	1160075
15,35315	990885
15,35727	853086
15,36140	730445
15,36552	619128
15,36963	527087
15,37377	461684
15,37788	401005
15,38200	352346
15,38613	320924
15,39025	287262
15,39437	266888
15,39850	246402
15,40262	227958
15,40673	213335
15,41085	198943
15,41498	189584
15,41910	177471
15,42322	167790
15,42735	163477
15,43147	154823
15,43558	151401
15,43972	144089
15,44383	140503
15,44795	133293
15,45208	130981
15,45620	126826
15,46032	127839
15,46445	122666
15,46857	121271
15,47268	113467
15,47682	113581
15,48093	112199
15,48505	107012
15,48918	111787
15,49330	109101
15,49742	104552
15,50153	102568
15,50567	101009
15,50978	103004
15,51390	100010
15,51803	97563
15,52215	97570
15,52627	95498
15,53040	94002
15,53452	94342
15,53863	92123
15,54277	91856
15,54688	90081
15,55100	89792
15,55513	91014
15,55925	86576
15,56337	93092
15,56750	105457
15,57162	122537
15,57573	156515
15,57987	214783
15,58398	309278
15,58810	451824
15,59222	650245
15,59635	940807
15,60047	1307321
15,60458	1773593
15,60872	2308949
15,61283	2888733
15,61695	3472833
15,62108	3951813
15,62520	4224856
15,62932	4311762
15,63345	4133395
15,63757	3717114
15,64168	3210485
15,64582	2686482
15,64993	2240226
15,65405	1856095
15,65818	1544054
15,66230	1315383
15,66642	1111121
15,67055	968831
15,67467	859841
15,67878	756070
15,68290	675856
15,68703	614746
15,69115	555457
15,69527	515903
15,69940	469939
15,70352	440254
15,70763	405866
15,71177	376081
15,71588	351916
15,72000	332844
15,72413	318878
15,72825	299323
15,73237	284969
15,73650	275090
15,74062	262292
15,74473	251205
15,74887	242558
15,75298	232800
15,75710	215272
15,76123	212646
15,76535	205928
15,76947	199686
15,77358	188894
15,77772	188163
15,78183	178194
15,78595	181660
15,79008	171626
15,79420	168244
15,79832	162971
15,80245	158717
15,80657	154609
15,81068	150707
15,81482	150903
15,81893	145525
15,82305	142525
15,82718	140405
15,83130	138529
15,83542	134264
15,83955	133994
15,84367	132136
15,84778	127523
15,85192	126077
15,85603	124183
15,86015	125672
15,86427	121823
15,86840	122243
15,87252	119747
15,87663	118318
15,88077	115961
15,88488	115779
15,88900	115474
15,89313	112984
15,89725	108476
15,90137	106799
15,90550	104805
15,90962	104475
15,91373	102028
15,91787	103706
15,92198	102029
15,92610	99012
15,93023	102860
15,93435	101361
15,93847	97301
15,94260	100818
15,94672	103512
15,95083	105081
15,95495	118519
15,95908	139273
15,96320	170026
15,96732	227797
15,97145	317558
15,97557	454341
15,97968	632146
15,98382	852663
15,98793	1107457
15,99205	1386311
15,99618	1627943
16,00030	1829432
16,00442	1927393
16,00855	1936877
16,01267	1853451
16,01678	1697387
16,02092	1513863
16,02503	1327324
16,02915	1151135
16,03328	996747
16,03740	862443
16,04152	753224
16,04565	651975
16,04977	581916
16,05388	519034
16,05800	465327
16,06213	425353
16,06625	388247
16,07037	361009
16,07450	335713
16,07862	312509
16,08273	287421
16,08687	278828
16,09098	256798
16,09510	245116
16,09923	233213
16,10335	226684
16,10747	215118
16,11160	206247
16,11572	195716
16,11983	191387
16,12397	185279
16,12808	178134
16,13220	169663
16,13633	162123
16,14045	156510
16,14457	155107
16,14868	151662
16,15282	147576
16,15693	143145
16,16105	136832
16,16518	136437
16,16930	134093
16,17342	131268
16,17755	129153
16,18167	126733
16,18578	122333
16,18992	122588
16,19403	120269
16,19815	117944
16,20228	117292
16,20640	113412
16,21052	111623
16,21465	111948
16,21877	107688
16,22288	108822
16,22702	106283
16,23113	105399
16,23525	104611
16,23937	103912
16,24350	97741
16,24762	95696
16,25173	93549
16,25587	95583
16,25998	96659
16,26410	95839
16,26823	92060
16,27235	96513
16,27647	94347
16,28060	94454
16,28472	91139
16,28883	92125
16,29297	91386
16,29708	93748
16,30120	90744
16,30533	89683
16,30945	90394
16,31357	93982
16,31770	91708
16,32182	91661
16,32593	93680
16,33005	92520
16,33418	91849
16,33830	92122
16,34242	92362
16,34655	90183
16,35067	89945
16,35478	88523
16,35892	87793
16,36303	86450
16,36715	89259
16,37128	80506
16,37540	79903
16,37952	82800
16,38365	80394
16,38777	80667
16,39188	80125
16,39602	79485
16,40013	79089
16,40425	79870
16,40838	77615
16,41250	83388
16,41662	87120
16,42073	88676
16,42487	97261
16,42898	102160
16,43310	115651
16,43723	124575
16,44135	136825
16,44547	149563
16,44960	156971
16,45372	165439
16,45783	167477
16,46197	169514
16,46608	166774
16,47020	158497
16,47433	154330
16,47845	140866
16,48257	133448
16,48670	124064
16,49082	117607
16,49493	109496
16,49907	101367
16,50318	100763
16,50730	96075
16,51142	91080
16,51555	91586
16,51967	85389
16,52378	84353
16,52792	83306
16,53203	79126
16,53615	79774
16,54028	76039
16,54440	76758
16,54852	72421
16,55265	73056
16,55677	75245
16,56088	75217
16,56502	73095
16,56913	73212
16,57325	74446
16,57738	69592
16,58150	72737
16,58562	73639
16,58975	73947
16,59387	71188
16,59798	71795
16,60210	67743
16,60623	72070
16,61035	72357
16,61447	71218
16,61860	69129
16,62272	70717
16,62683	70491
16,63097	70051
16,63508	64455
16,63920	67781
16,64333	65895
16,64745	68789
16,65157	67770
16,65570	63959
16,65982	66095
16,66393	65985
16,66807	67018
16,67218	67069
16,67630	67585
16,68043	70042
16,68455	67366
16,68867	66671
16,69278	65098
16,69692	65890
16,70103	68001
16,70515	65033
16,70928	67597
16,71340	64930
16,71752	66362
16,72165	66286
16,72577	65341
16,72988	63704
16,73402	62539
16,73813	66600
16,74225	64365
16,74638	64487
16,75050	64380
16,75462	64066
16,75875	61400
16,76287	62191
16,76698	63201
16,77112	62156
16,77523	62340
16,77935	61255
16,78347	61792
16,78760	61828
16,79172	62697
16,79583	65014
16,79997	65011
16,80408	61132
16,80820	64202
16,81233	59691
16,81645	62222
16,82057	58954
16,82470	61912
16,82882	60863
16,83293	63695
16,83707	61413
16,84118	60872
16,84530	63011
16,84943	62483
16,85355	64062
16,85767	64169
16,86180	60423
16,86592	61851
16,87003	63804
16,87415	59512
16,87828	61161
16,88240	63369
16,88652	60152
16,89065	61710
16,89477	63595
16,89888	63831
16,90302	64358
16,90713	64763
16,91125	64078
16,91538	61714
16,91950	61123
16,92362	62932
16,92775	63541
16,93187	62048
16,93598	64155
16,94012	61831
16,94423	63658
16,94835	62304
16,95248	57261
16,95660	61057
16,96072	60020
16,96483	57150
16,96897	57748
16,97308	59013
16,97720	58400
16,98133	59087
16,98545	61628
16,98957	59323
16,99370	57017
16,99782	59098
17,00193	60475
17,00607	59869
17,01018	58909
17,01430	57684
17,01843	57998
17,02255	60935
17,02667	59643
17,03080	60229
17,03492	62307
17,03903	61590
17,04317	59470
17,04728	58706
17,05140	59368
17,05552	62756
17,05965	60487
17,06377	60554
17,06788	61420
17,07202	61675
17,07613	58530
17,08025	61018
17,08438	63460
17,08850	63295
17,09262	65467
17,09675	70830
17,10087	81733
17,10498	94772
17,10912	116975
17,11323	161675
17,11735	208628
17,12148	280921
17,12560	372762
17,12972	472214
17,13385	584437
17,13797	693428
17,14208	789580
17,14620	857486
17,15033	887873
17,15445	905986
17,15857	888887
17,16270	855078
17,16682	793299
17,17093	728393
17,17507	659252
17,17918	586417
17,18330	526856
17,18743	469380
17,19155	420532
17,19567	372488
17,19980	330923
17,20392	308743
17,20803	276917
17,21217	259099
17,21628	232833
17,22040	218483
17,22453	203757
17,22865	185513
17,23277	179749
17,23688	168321
17,24102	156792
17,24513	147970
17,24925	145774
17,25338	141392
17,25750	136730
17,26162	129127
17,26575	128160
17,26987	122663
17,27398	119842
17,27812	113551
17,28223	110386
17,28635	108885
17,29048	105899
17,29460	103674
17,29872	103403
17,30285	98843
17,30697	101592
17,31108	98592
17,31522	95272
17,31933	95453
17,32345	93822
17,32757	90683
17,33170	88867
17,33582	89108
17,33993	84979
17,34407	88051
17,34818	85596
17,35230	83829
17,35643	78758
17,36055	80852
17,36467	79738
17,36880	79885
17,37292	79559
17,37703	78038
17,38117	78050
17,38528	75340
17,38940	78664
17,39353	77336
17,39765	73325
17,40177	75917
17,40590	72749
17,41002	72746
17,41413	73015
17,41825	76099
17,42238	70665
17,42650	74175
17,43062	75021
17,43475	72978
17,43887	69143
17,44298	70103
17,44712	69960
17,45123	71298
17,45535	69403
17,45948	69661
17,46360	70264
17,46772	70521
17,47185	68422
17,47597	66982
17,48008	67670
17,48422	67281
17,48833	65821
17,49245	66277
17,49658	64492
17,50070	67090
17,50482	65425
17,50893	66549
17,51307	64418
17,51718	66169
17,52130	62974
17,52543	66518
17,52955	64479
17,53367	62263
17,53780	65446
17,54192	62802
17,54603	65910
17,55017	63338
17,55428	61527
17,55840	66141
17,56253	64597
17,56665	62700
17,57077	60938
17,57490	63036
17,57902	64849
17,58313	63807
17,58727	65697
17,59138	60933
17,59550	63882
17,59963	65865
17,60375	65205
17,60787	64593
17,61198	65136
17,61612	60881
17,62023	61062
17,62435	63162
17,62848	65960
17,63260	64061
17,63672	61424
17,64085	64332
17,64497	63101
17,64908	63630
17,65322	63185
17,65733	61312
17,66145	59884
17,66558	63992
17,66970	59504
17,67382	60835
17,67795	58188
17,68207	59715
17,68618	60592
17,69032	59469
17,69443	59530
17,69855	57656
17,70267	60477
17,70680	61180
17,71092	57670
17,71503	60699
17,71917	61252
17,72328	59490
17,72740	59670
17,73153	55617
17,73565	58453
17,73977	57740
17,74390	59769
17,74802	59359
17,75213	59823
17,75627	59315
17,76038	61639
17,76450	59160
17,76863	62589
17,77275	59371
17,77687	61357
17,78100	57877
17,78512	59939
17,78923	58581
17,79335	59893
17,79748	61658
17,80160	59119
17,80572	60375
17,80985	60682
17,81397	61306
17,81808	58593
17,82222	63309
17,82633	61514
17,83045	64354
17,83458	60209
17,83870	60768
17,84282	62623
17,84695	62470
17,85107	62339
17,85518	62429
17,85932	60083
17,86343	60591
17,86755	60253
17,87168	59231
17,87580	61723
17,87992	60783
17,88403	60449
17,88817	61302
17,89228	61112
17,89640	62038
17,90053	58179
17,90465	62163
17,90877	60888
17,91290	59727
17,91702	60304
17,92113	63332
17,92527	59340
17,92938	60325
17,93350	60587
17,93763	62241
17,94175	61111
17,94587	61579
17,95000	58685
17,95412	60049
17,95823	61010
17,96237	61744
17,96648	58612
17,97060	60630
17,97472	62331
17,97885	60856
17,98297	58557
17,98708	59871
17,99122	62590
17,99533	60937
17,99945	60745
18,00358	61526
18,00770	62016
18,01182	61604
18,01595	61662
18,02007	60505
18,02418	59491
18,02832	60774
18,03243	61749
18,03655	58627
18,04068	62208
18,04480	60986
18,04892	61173
18,05305	61443
18,05717	59729
18,06128	59821
18,06540	58315
18,06953	61625
18,07365	60648
18,07777	61470
18,08190	62043
18,08602	59408
18,09013	58515
18,09427	59321
18,09838	57816
18,10250	59575
18,10663	58457
18,11075	58589
18,11487	60658
18,11900	62320
18,12312	57678
18,12723	56083
18,13137	60417
18,13548	59797
18,13960	57585
18,14373	59081
18,14785	57406
18,15197	59052
18,15608	59456
18,16022	61261
18,16433	60130
18,16845	57209
18,17258	56375
18,17670	61624
18,18082	57624
18,18495	58703
18,18907	61549
18,19318	56880
18,19732	59370
18,20143	58340
18,20555	58642
18,20968	60772
18,21380	60848
18,21792	61313
18,22205	62811
18,22617	60388
18,23028	62166
18,23442	64300
18,23853	61446
18,24265	62750
18,24677	61344
18,25090	61188
18,25502	60258
18,25913	58025
18,26327	59984
18,26738	59980
18,27150	59785
18,27563	58255
18,27975	58995
18,28387	57200
18,28800	58025
18,29212	57425
18,29623	58655
18,30037	57601
18,30448	57890
18,30860	61837
18,31273	56519
18,31685	58512
18,32097	59203
18,32510	57111
18,32922	55680
18,33333	53901
18,33745	58317
18,34158	55690
18,34570	58214
18,34982	55837
18,35395	57878
18,35807	56327
18,36218	54773
18,36632	56367
18,37043	55311
18,37455	54056
18,37868	57472
18,38280	55338
18,38692	55785
18,39105	56574
18,39517	55009
18,39928	56427
18,40342	54339
18,40753	56132
18,41165	52673
18,41578	54468
18,41990	54485
18,42402	53137
18,42813	54275
18,43227	52940
18,43638	55455
18,44050	54055
18,44463	56057
18,44875	54023
18,45287	57538
18,45700	53389
18,46112	55912
18,46523	55611
18,46937	58028
18,47348	53801
18,47760	51731
18,48173	54660
18,48585	57495
18,48997	53657
18,49410	55621
18,49822	54586
18,50233	54658
18,50647	53528
18,51058	53740
18,51470	55557
18,51882	57751
18,52295	54508
18,52707	53648
18,53118	55187
18,53532	56270
18,53943	52752
18,54355	51555
18,54768	57548
18,55180	56358
18,55592	54991
18,56005	55209
18,56417	54988
18,56828	55088
18,57242	56190
18,57653	55102
18,58065	53974
18,58478	55895
18,58890	56212
18,59302	54242
18,59715	55430
18,60127	56035
18,60538	54337
18,60950	57268
18,61363	57217
18,61775	56716
18,62187	56363
18,62600	55553
18,63012	56229
18,63423	56059
18,63837	54633
18,64248	54047
18,64660	54599
18,65073	54978
18,65485	53304
18,65897	56012
18,66310	55887
18,66722	55859
18,67133	55134
18,67547	54687
18,67958	55305
18,68370	56460
18,68783	54183
18,69195	54534
18,69607	52524
18,70018	53505
18,70432	53156
18,70843	54260
18,71255	57597
18,71668	54756
18,72080	55392
18,72492	53603
18,72905	54837
18,73317	54577
18,73728	56695
18,74142	55808
18,74553	53724
18,74965	52369
18,75378	53441
18,75790	52421
18,76202	55267
18,76615	51965
18,77027	54396
18,77438	53890
18,77852	52449
18,78263	53398
18,78675	52753
18,79087	53602
18,79500	51103
18,79912	52806
18,80323	52300
18,80737	53984
18,81148	54449
18,81560	49077
18,81973	51920
18,82385	55661
18,82797	53569
18,83210	53689
18,83622	52041
18,84033	53885
18,84447	53083
18,84858	52243
18,85270	51219
