D:\MassHunter\GCMS\1\data\Amal\Constant flow\140C\140C_1ml-min_4C-min_1.D Fri Jul 26 17:52:10 2024
Start of data points
5,04117	433712
5,04562	420538
5,05005	415479
5,05450	387888
5,05893	377329
5,06338	363487
5,06782	349669
5,07227	331415
5,07670	312772
5,08115	305605
5,08558	294395
5,09003	280848
5,09447	269881
5,09892	261296
5,10335	251031
5,10780	244368
5,11223	233254
5,11668	222589
5,12112	222797
5,12557	210573
5,13000	200667
5,13445	196110
5,13888	187600
5,14333	185316
5,14777	180325
5,15222	172859
5,15667	168169
5,16110	163184
5,16555	160835
5,16998	157563
5,17443	150746
5,17887	147408
5,18332	141660
5,18775	135099
5,19220	134414
5,19663	131399
5,20108	129143
5,20552	122903
5,20997	119111
5,21440	119309
5,21885	113917
5,22328	112259
5,22773	110972
5,23217	109423
5,23662	106286
5,24105	101384
5,24550	98031
5,24993	96568
5,25438	96185
5,25882	94982
5,26327	90087
5,26770	89277
5,27215	85291
5,27660	87668
5,28103	86180
5,28548	83978
5,28992	84493
5,29437	80158
5,29880	78599
5,30325	79299
5,30768	76639
5,31213	78038
5,31657	77261
5,32102	75342
5,32545	71332
5,32990	70963
5,33433	74084
5,33878	72993
5,34322	69579
5,34767	69200
5,35210	70572
5,35655	68542
5,36098	66117
5,36543	67194
5,36987	67199
5,37432	67174
5,37875	66247
5,38320	68583
5,38763	65634
5,39208	64573
5,39652	67856
5,40097	66017
5,40542	64365
5,40985	63472
5,41430	62752
5,41873	63777
5,42318	62941
5,42762	62784
5,43207	61835
5,43650	62452
5,44095	60778
5,44538	61634
5,44983	59002
5,45427	60715
5,45872	59832
5,46315	58258
5,46760	57438
5,47203	57492
5,47648	58222
5,48092	57619
5,48537	59838
5,48980	55354
5,49425	56780
5,49868	58383
5,50313	57797
5,50757	55084
5,51202	55626
5,51645	54544
5,52090	54385
5,52535	55569
5,52978	55236
5,53423	54138
5,53867	54586
5,54312	53056
5,54755	54198
5,55200	53051
5,55643	54332
5,56088	54330
5,56532	51564
5,56977	54561
5,57420	51332
5,57865	53714
5,58308	50812
5,58753	53726
5,59197	53444
5,59642	52379
5,60085	50949
5,60530	52430
5,60973	52076
5,61418	51809
5,61862	52092
5,62307	52729
5,62750	50683
5,63195	53436
5,63638	50483
5,64083	52528
5,64528	51693
5,64972	50646
5,65417	49458
5,65860	51041
5,66305	51276
5,66748	50078
5,67193	49877
5,67637	50488
5,68082	49667
5,68525	50134
5,68970	48000
5,69413	48512
5,69858	47396
5,70302	48565
5,70747	48448
5,71190	46634
5,71635	47644
5,72078	48949
5,72523	48081
5,72967	47383
5,73412	45524
5,73855	46049
5,74300	47287
5,74743	45948
5,75188	47268
5,75632	47760
5,76077	45974
5,76522	46737
5,76965	44651
5,77410	46005
5,77853	45599
5,78298	46672
5,78742	44305
5,79187	44668
5,79630	44567
5,80075	43902
5,80518	45051
5,80963	44235
5,81407	46316
5,81852	49562
5,82295	61419
5,82740	79626
5,83183	113376
5,83628	162559
5,84072	228843
5,84517	297681
5,84960	370193
5,85405	422325
5,85848	458270
5,86293	487965
5,86737	485815
5,87182	470276
5,87625	464528
5,88070	449335
5,88515	435775
5,88958	420224
5,89403	405769
5,89847	387305
5,90292	376759
5,90735	358887
5,91180	345951
5,91623	329144
5,92068	311100
5,92512	301881
5,92957	290434
5,93400	282782
5,93845	268046
5,94288	259374
5,94733	249819
5,95177	241676
5,95622	229708
5,96065	223012
5,96510	212833
5,96953	199994
5,97398	194888
5,97842	188119
5,98287	175036
5,98730	170583
5,99175	162431
5,99618	158912
6,00063	149759
6,00507	138834
6,00952	134435
6,01397	126252
6,01840	119911
6,02285	116577
6,02728	109776
6,03173	103258
6,03617	96789
6,04062	93724
6,04505	85163
6,04950	82678
6,05393	81697
6,05838	76031
6,06282	73539
6,06727	69791
6,07170	68650
6,07615	64578
6,08058	61235
6,08503	62234
6,08947	58122
6,09392	54609
6,09835	54298
6,10280	50429
6,10723	52690
6,11168	50683
6,11612	49993
6,12057	48160
6,12500	46861
6,12945	46151
6,13390	44741
6,13833	43007
6,14278	43937
6,14722	41446
6,15167	40614
6,15610	40944
6,16055	38812
6,16498	36849
6,16943	38667
6,17387	38669
6,17832	37454
6,18275	36235
6,18720	36538
6,19163	34953
6,19608	36469
6,20052	34488
6,20497	35909
6,20940	35102
6,21385	34587
6,21828	35119
6,22273	32753
6,22717	33134
6,23162	33734
6,23605	32291
6,24050	33476
6,24493	32932
6,24938	32604
6,25383	32194
6,25827	31692
6,26272	30964
6,26715	33411
6,27160	32294
6,27603	32828
6,28048	30191
6,28492	32736
6,28937	32668
6,29380	30270
6,29825	31394
6,30268	29525
6,30713	30730
6,31157	32512
6,31602	32283
6,32045	31044
6,32490	30724
6,32933	29785
6,33378	30166
6,33822	30787
6,34267	31153
6,34710	28220
6,35155	30494
6,35598	29382
6,36043	27723
6,36487	29513
6,36932	29315
6,37377	27875
6,37820	27429
6,38265	28426
6,38708	27422
6,39153	28630
6,39597	28541
6,40042	27065
6,40485	29157
6,40930	29348
6,41373	31169
6,41818	37594
6,42262	47836
6,42707	64085
6,43150	87172
6,43595	122943
6,44038	160629
6,44483	203297
6,44927	235722
6,45372	263773
6,45815	282375
6,46260	292063
6,46703	298989
6,47148	294264
6,47592	286568
6,48037	278203
6,48480	269741
6,48925	258835
6,49370	245143
6,49813	238754
6,50258	227362
6,50702	220972
6,51147	211172
6,51590	206195
6,52035	197080
6,52478	191798
6,52923	181417
6,53367	171111
6,53812	165199
6,54255	155869
6,54700	149035
6,55143	143806
6,55588	135930
6,56032	128161
6,56477	123122
6,56920	119021
6,57365	113049
6,57808	108436
6,58253	102564
6,58697	91179
6,59142	91386
6,59585	86043
6,60030	80207
6,60473	75778
6,60918	70991
6,61363	69191
6,61807	62277
6,62252	58894
6,62695	58004
6,63140	53303
6,63583	52669
6,64028	49363
6,64472	44934
6,64917	44328
6,65360	42151
6,65805	42101
6,66248	39997
6,66693	39398
6,67137	38315
6,67582	35443
6,68025	35619
6,68470	33274
6,68913	31314
6,69358	33301
6,69802	33325
6,70247	31954
6,70690	30424
6,71135	29541
6,71578	28304
6,72023	29330
6,72467	28514
6,72912	27831
6,73355	27262
6,73800	25975
6,74245	26071
6,74688	24782
6,75133	24764
6,75577	24636
6,76022	25787
6,76465	25282
6,76910	26416
6,77353	25035
6,77798	23848
6,78242	22470
6,78687	24087
6,79130	23348
6,79575	25125
6,80018	23575
6,80463	23235
6,80907	24558
6,81352	25131
6,81795	24954
6,82240	23710
6,82683	24096
6,83128	23422
6,83572	22822
6,84017	23931
6,84460	23450
6,84905	23798
6,85348	22244
6,85793	23396
6,86238	23493
6,86682	23681
6,87127	23427
6,87570	22047
6,88015	22679
6,88458	23335
6,88903	23929
6,89347	22714
6,89792	23120
6,90235	23308
6,90680	22658
6,91123	23138
6,91568	23914
6,92012	20728
6,92457	22297
6,92900	21726
6,93345	20696
6,93788	21583
6,94233	20868
6,94677	20968
6,95122	20193
6,95565	20220
6,96010	21383
6,96453	20232
6,96898	21972
6,97342	21550
6,97787	21517
6,98232	19778
6,98675	21493
6,99120	20815
6,99563	20889
7,00008	21538
7,00452	20871
7,00897	21199
7,01340	21899
7,01785	22203
7,02228	20193
7,02673	20664
7,03117	20803
7,03562	19802
7,04005	21564
7,04450	19584
7,04893	20076
7,05338	19552
7,05782	20080
7,06227	20945
7,06670	21515
7,07115	21510
7,07558	18932
7,08003	21170
7,08447	20187
7,08892	19891
7,09335	20335
7,09780	20725
7,10225	19232
7,10668	19411
7,11113	18497
7,11557	19874
7,12002	21244
7,12445	19904
7,12890	20477
7,13333	20076
7,13778	19846
7,14222	19533
7,14667	21025
7,15110	21595
7,15555	25593
7,15998	32578
7,16443	48369
7,16887	73883
7,17332	113163
7,17775	165274
7,18220	240031
7,18663	313718
7,19108	406135
7,19552	487099
7,19997	552665
7,20440	595710
7,20885	632966
7,21328	647053
7,21773	641335
7,22218	637576
7,22662	622026
7,23107	601655
7,23550	583768
7,23995	561118
7,24438	541515
7,24883	511404
7,25327	489620
7,25772	473500
7,26215	444423
7,26660	426921
7,27103	403237
7,27548	378350
7,27992	364193
7,28437	338506
7,28880	319617
7,29325	299201
7,29768	288144
7,30213	267350
7,30657	247639
7,31102	235553
7,31545	214380
7,31990	195270
7,32433	183589
7,32878	170298
7,33322	153695
7,33767	144962
7,34212	131988
7,34655	120564
7,35100	109042
7,35543	97928
7,35988	91734
7,36432	88608
7,36877	80082
7,37320	71883
7,37765	69376
7,38208	63988
7,38653	58277
7,39097	55055
7,39542	50299
7,39985	47012
7,40430	44089
7,40873	41992
7,41318	39743
7,41762	38016
7,42207	35203
7,42650	34794
7,43095	31803
7,43538	31388
7,43983	29800
7,44427	28343
7,44872	27488
7,45315	26372
7,45760	25886
7,46203	24223
7,46648	24457
7,47093	24047
7,47537	24974
7,47982	23001
7,48425	23507
7,48870	22169
7,49313	20206
7,49758	20657
7,50202	20928
7,50647	20582
7,51090	20310
7,51535	19218
7,51978	19323
7,52423	18411
7,52867	18886
7,53312	20082
7,53755	19581
7,54200	20275
7,54643	18534
7,55088	17038
7,55532	18413
7,55977	18394
7,56420	18507
7,56865	17939
7,57308	18502
7,57753	17454
7,58197	17450
7,58642	17825
7,59087	19503
7,59530	17167
7,59975	16558
7,60418	18221
7,60863	17269
7,61307	17797
7,61752	17296
7,62195	18251
7,62640	17517
7,63083	17539
7,63528	17652
7,63972	17626
7,64417	17224
7,64860	17414
7,65305	17379
7,65748	16191
7,66193	17735
7,66637	16838
7,67082	16375
7,67525	16947
7,67970	16869
7,68413	16166
7,68858	16991
7,69302	16696
7,69747	17137
7,70190	16947
7,70635	16568
7,71080	15926
7,71523	15716
7,71968	17019
7,72412	16276
7,72857	16891
7,73300	16260
7,73745	17350
7,74188	16295
7,74633	16572
7,75077	16356
7,75522	16993
7,75965	17021
7,76410	16216
7,76853	15658
7,77298	16775
7,77742	14818
7,78187	16729
7,78630	16141
7,79075	15994
7,79518	16167
7,79963	15692
7,80407	16875
7,80852	16562
7,81295	16120
7,81740	16458
7,82183	15284
7,82628	16338
7,83073	15083
7,83517	15552
7,83962	15856
7,84405	16178
7,84850	16918
7,85293	16559
7,85738	15687
7,86182	16732
7,86627	15947
7,87070	15978
7,87515	16178
7,87958	15955
7,88403	16015
7,88847	16225
7,89292	14983
7,89735	15205
7,90180	17451
7,90623	17206
7,91068	14835
7,91512	16773
7,91957	15526
7,92400	16027
7,92845	15904
7,93288	15900
7,93733	15811
7,94177	16078
7,94622	15519
7,95067	16059
7,95510	15963
7,95955	15561
7,96398	15870
7,96843	15144
7,97287	15733
7,97732	15676
7,98175	17135
7,98620	16315
7,99063	16378
7,99508	17142
7,99952	18070
8,00397	16934
8,00840	18201
8,01285	17811
8,01728	18190
8,02173	17595
8,02617	17752
8,03062	18459
8,03505	18287
8,03950	18987
8,04393	19720
8,04838	17959
8,05282	19480
8,05727	23494
8,06170	29227
8,06615	38571
8,07060	53778
8,07503	76384
8,07948	107668
8,08392	140467
8,08837	184111
8,09280	226024
8,09725	271689
8,10168	306607
8,10613	332073
8,11057	352114
8,11502	366670
8,11945	370744
8,12390	368841
8,12833	359475
8,13278	353613
8,13722	341513
8,14167	328035
8,14610	316141
8,15055	298605
8,15498	284768
8,15943	266646
8,16387	254870
8,16832	239136
8,17275	229791
8,17720	213368
8,18163	198291
8,18608	183138
8,19052	172383
8,19497	156897
8,19942	145783
8,20385	133043
8,20830	123469
8,21273	110727
8,21718	102126
8,22162	90343
8,22607	81063
8,23050	76646
8,23495	67221
8,23938	62641
8,24383	57655
8,24827	52322
8,25272	48022
8,25715	44636
8,26160	42463
8,26603	37846
8,27048	34051
8,27492	33838
8,27937	30559
8,28380	29085
8,28825	29028
8,29268	25707
8,29713	24812
8,30157	22693
8,30602	22898
8,31045	20523
8,31490	21230
8,31935	21046
8,32378	19053
8,32823	19913
8,33267	18890
8,33712	18722
8,34155	17470
8,34600	18793
8,35043	17577
8,35488	16382
8,35932	17269
8,36377	15982
8,36820	16209
8,37265	15516
8,37708	14793
8,38153	14635
8,38597	14064
8,39042	15648
8,39485	15241
8,39930	14469
8,40373	13656
8,40818	15006
8,41262	14827
8,41707	14671
8,42150	13766
8,42595	14627
8,43038	13411
8,43483	15078
8,43928	14464
8,44372	13688
8,44817	13476
8,45260	15093
8,45705	14690
8,46148	14014
8,46593	14803
8,47037	14004
8,47482	13808
8,47925	12945
8,48370	13821
8,48813	14323
8,49258	13786
8,49702	13577
8,50147	14016
8,50590	13349
8,51035	13943
8,51478	13014
8,51923	12848
8,52367	12582
8,52812	12752
8,53255	13505
8,53700	12743
8,54143	13699
8,54588	14332
8,55032	14039
8,55477	13614
8,55922	13794
8,56365	13771
8,56810	12465
8,57253	13637
8,57698	14063
8,58142	13499
8,58587	15035
8,59030	13087
8,59475	13333
8,59918	14989
8,60363	14692
8,60807	14753
8,61252	14620
8,61695	14599
8,62140	13857
8,62583	14007
8,63028	15040
8,63472	14915
8,63917	14936
8,64360	15133
8,64805	13949
8,65248	14196
8,65693	14071
8,66137	13858
8,66582	13298
8,67025	13770
8,67470	13610
8,67915	14611
8,68358	13815
8,68803	13834
8,69247	14747
8,69692	14271
8,70135	13315
8,70580	13566
8,71023	14311
8,71468	12959
8,71912	12836
8,72357	13781
8,72800	12399
8,73245	14627
8,73688	12268
8,74133	14001
8,74577	11834
8,75022	13889
8,75465	13629
8,75910	13427
8,76353	11375
8,76798	13132
8,77242	12739
8,77687	12572
8,78130	12295
8,78575	12603
8,79018	11189
8,79463	12330
8,79908	12961
8,80352	12170
8,80797	11763
8,81240	12407
8,81685	11870
8,82128	12566
8,82573	12995
8,83017	13135
8,83462	12567
8,83905	11665
8,84350	12699
8,84793	11617
8,85238	11634
8,85682	12348
8,86127	12793
8,86570	13168
8,87015	11612
8,87458	12539
8,87903	12622
8,88347	13198
8,88792	13942
8,89235	14477
8,89680	12968
8,90123	13435
8,90568	14114
8,91012	13838
8,91457	13198
8,91900	14174
8,92345	13979
8,92790	13859
8,93233	14857
8,93678	13272
8,94122	13435
8,94567	14142
8,95010	15128
8,95455	13395
8,95898	14682
8,96343	12481
8,96787	12887
8,97232	14334
8,97675	12636
8,98120	12936
8,98563	13729
8,99008	13539
8,99452	13657
8,99897	14021
9,00340	12921
9,00785	12055
9,01228	13084
9,01673	12647
9,02117	12698
9,02562	13203
9,03005	13284
9,03450	12660
9,03893	12332
9,04338	12108
9,04783	13452
9,05227	12002
9,05672	12530
9,06115	12690
9,06560	11218
9,07003	12456
9,07448	11140
9,07892	12694
9,08337	12752
9,08780	12719
9,09225	14113
9,09668	15277
9,10113	18744
9,10557	26303
9,11002	37765
9,11445	60374
9,11890	93654
9,12333	140473
9,12778	196717
9,13222	271636
9,13667	360644
9,14110	460845
9,14555	552419
9,14998	632050
9,15443	708381
9,15887	767030
9,16332	805572
9,16777	835194
9,17220	841773
9,17665	821044
9,18108	818426
9,18553	787072
9,18997	768038
9,19442	722987
9,19885	697009
9,20330	652135
9,20773	600876
9,21218	563874
9,21662	521099
9,22107	479372
9,22550	435466
9,22995	394407
9,23438	356102
9,23883	324192
9,24327	287418
9,24772	251216
9,25215	225147
9,25660	199563
9,26103	177541
9,26548	151295
9,26992	133576
9,27437	121854
9,27880	106949
9,28325	92448
9,28770	82393
9,29213	76344
9,29658	67626
9,30102	60799
9,30547	52906
9,30990	50361
9,31435	45864
9,31878	42732
9,32323	38553
9,32767	38958
9,33212	34258
9,33655	34551
9,34100	30937
9,34543	28645
9,34988	28395
9,35432	26656
9,35877	26060
9,36320	25984
9,36765	23772
9,37208	23641
9,37653	21855
9,38097	22265
9,38542	21673
9,38985	20255
9,39430	19134
9,39873	19127
9,40318	20052
9,40763	17166
9,41207	16795
9,41652	17585
9,42095	17363
9,42540	17142
9,42983	16279
9,43428	14321
9,43872	14937
9,44317	15619
9,44760	14817
9,45205	13281
9,45648	15946
9,46093	14428
9,46537	13165
9,46982	14301
9,47425	13794
9,47870	13043
9,48313	12326
9,48758	12770
9,49202	12016
9,49647	13306
9,50090	11865
9,50535	13847
9,50978	13230
9,51423	13015
9,51867	13300
9,52312	13823
9,52757	12993
9,53200	12325
9,53645	13620
9,54088	13265
9,54533	13864
9,54977	13967
9,55422	12739
9,55865	14841
9,56310	13953
9,56753	14541
9,57198	14179
9,57642	14641
9,58087	13794
9,58530	14199
9,58975	13651
9,59418	13972
9,59863	13393
9,60307	13252
9,60752	13126
9,61195	13980
9,61640	12884
9,62083	14065
9,62528	13889
9,62972	13347
9,63417	13281
9,63860	13419
9,64305	13465
9,64748	14147
9,65193	13945
9,65638	12622
9,66082	12049
9,66527	12892
9,66970	12691
9,67415	11830
9,67858	12507
9,68303	11659
9,68747	12598
9,69192	11857
9,69635	11474
9,70080	12706
9,70523	11665
9,70968	12809
9,71412	11910
9,71857	12063
9,72300	12527
9,72745	12220
9,73188	12750
9,73633	13012
9,74077	12481
9,74522	13064
9,74965	13177
9,75410	11343
9,75853	11690
9,76298	11798
9,76742	12147
9,77187	14412
9,77632	11614
9,78075	11669
9,78520	11383
9,78963	11375
9,79408	10901
9,79852	12196
9,80297	11132
9,80740	11247
9,81185	11193
9,81628	11682
9,82073	11846
9,82517	11111
9,82962	11230
9,83405	11809
9,83850	11064
9,84293	10900
9,84738	10349
9,85182	10327
9,85627	10452
9,86070	10855
9,86515	10896
9,86958	10820
9,87403	11163
9,87847	10737
9,88292	11103
9,88735	10989
9,89180	11466
9,89625	10515
9,90068	11353
9,90513	11865
9,90957	10369
9,91402	10606
9,91845	9767
9,92290	10448
9,92733	11176
9,93178	11132
9,93622	10265
9,94067	10588
9,94510	11544
9,94955	13819
9,95398	16754
9,95843	23204
9,96287	33483
9,96732	48353
9,97175	69597
9,97620	95749
9,98063	126521
9,98508	166155
9,98952	212268
9,99397	250482
9,99840	296042
10,00285	334754
10,00728	366958
10,01173	391075
10,01618	405231
10,02062	414875
10,02507	411148
10,02950	403858
10,03395	388099
10,03838	373546
10,04283	361484
10,04727	339671
10,05172	311472
10,05615	288656
10,06060	269409
10,06503	244987
10,06948	223076
10,07392	201848
10,07837	177892
10,08280	160707
10,08725	140088
10,09168	127547
10,09613	114682
10,10057	96638
10,10502	85548
10,10945	77437
10,11390	68295
10,11833	59016
10,12278	55134
10,12722	50296
10,13167	41158
10,13612	38853
10,14055	36372
10,14500	31962
10,14943	28977
10,15388	30041
10,15832	24318
10,16277	23036
10,16720	23395
10,17165	21887
10,17608	20107
10,18053	17166
10,18497	16678
10,18942	17181
10,19385	16607
10,19830	15480
10,20273	14188
10,20718	12905
10,21162	13910
10,21607	14575
10,22050	14613
10,22495	12899
10,22938	12647
10,23383	12884
10,23827	12215
10,24272	11927
10,24715	12810
10,25160	11585
10,25605	11989
10,26048	12087
10,26493	12255
10,26937	12883
10,27382	13847
10,27825	16035
10,28270	20001
10,28713	29459
10,29158	42504
10,29602	60140
10,30047	84817
10,30490	115685
10,30935	153631
10,31378	198876
10,31823	248278
10,32267	299678
10,32712	350321
10,33155	393318
10,33600	417637
10,34043	444624
10,34488	459293
10,34932	467619
10,35377	456903
10,35820	452363
10,36265	438628
10,36708	419464
10,37153	393719
10,37597	368118
10,38042	347368
10,38487	311063
10,38930	281834
10,39375	257355
10,39818	230519
10,40263	198750
10,40707	179170
10,41152	154601
10,41595	132189
10,42040	114160
10,42483	100126
10,42928	86414
10,43372	76955
10,43817	66839
10,44260	59036
10,44705	51136
10,45148	47597
10,45593	40399
10,46037	38322
10,46482	34595
10,46925	30166
10,47370	29384
10,47813	25067
10,48258	24709
10,48702	23953
10,49147	22054
10,49590	20169
10,50035	19352
10,50480	18470
10,50923	17398
10,51368	16455
10,51812	16038
10,52257	15845
10,52700	15297
10,53145	14916
10,53588	13432
10,54033	13567
10,54477	13708
10,54922	12625
10,55365	13479
10,55810	11825
10,56253	12676
10,56698	12317
10,57142	12364
10,57587	11905
10,58030	11699
10,58475	12272
10,58918	12476
10,59363	11050
10,59807	12040
10,60252	11237
10,60695	11589
10,61140	10340
10,61583	10188
10,62028	10211
10,62473	10738
10,62917	10578
10,63362	10535
10,63805	9479
10,64250	11228
10,64693	9565
10,65138	10654
10,65582	10068
10,66027	10796
10,66470	9531
10,66915	10204
10,67358	10248
10,67803	10310
10,68247	10229
10,68692	10071
10,69135	10219
10,69580	10031
10,70023	10587
10,70468	9728
10,70912	10170
10,71357	10063
10,71800	9744
10,72245	9935
10,72688	10714
10,73133	9440
10,73577	9444
10,74022	10657
10,74467	9469
10,74910	8872
10,75355	9771
10,75798	9056
10,76243	9869
10,76687	10058
10,77132	9992
10,77575	8719
10,78020	9412
10,78463	9149
10,78908	9933
10,79352	9871
10,79797	10215
10,80240	9218
10,80685	10032
10,81128	10612
10,81573	10044
10,82017	9124
10,82462	9486
10,82905	9849
10,83350	9105
10,83793	10051
10,84238	9035
10,84682	8422
10,85127	10387
10,85570	10144
10,86015	8857
10,86460	8852
10,86903	9822
10,87348	9296
10,87792	9274
10,88237	9459
10,88680	8901
10,89125	9357
10,89568	9504
10,90013	9347
10,90457	9580
10,90902	9187
10,91345	9718
10,91790	9810
10,92233	9393
10,92678	9809
10,93122	9099
10,93567	8686
10,94010	9801
10,94455	9331
10,94898	9329
10,95343	9561
10,95787	9249
10,96232	9373
10,96675	9880
10,97120	9268
10,97563	10065
10,98008	9517
10,98453	9942
10,98897	8981
10,99342	9741
10,99785	9392
11,00230	10386
11,00673	8777
11,01118	9367
11,01562	9740
11,02007	9607
11,02450	9064
11,02895	9202
11,03338	8869
11,03783	9094
11,04227	9110
11,04672	9187
11,05115	8956
11,05560	9324
11,06003	9046
11,06448	9488
11,06892	8526
11,07337	8783
11,07780	9421
11,08225	8677
11,08668	9395
11,09113	8786
11,09557	8724
11,10002	9152
11,10445	9476
11,10890	8987
11,11335	9809
11,11778	9161
11,12223	9351
11,12667	8851
11,13112	8631
11,13555	8772
11,14000	8775
11,14443	9697
11,14888	8783
11,15332	8962
11,15777	8805
11,16220	8775
11,16665	8608
11,17108	9052
11,17553	9414
11,17997	8832
11,18442	9519
11,18885	9356
11,19330	9154
11,19773	10218
11,20218	11637
11,20662	14185
11,21107	19590
11,21550	26617
11,21995	39761
11,22438	57546
11,22883	82440
11,23328	115852
11,23772	153594
11,24217	196509
11,24660	242819
11,25105	291692
11,25548	339965
11,25993	382059
11,26437	416214
11,26882	439986
11,27325	462792
11,27770	466504
11,28213	463729
11,28658	453242
11,29102	430282
11,29547	402317
11,29990	382521
11,30435	351006
11,30878	319119
11,31323	287993
11,31767	257923
11,32212	231827
11,32655	207148
11,33100	173657
11,33543	149697
11,33988	132870
11,34432	113935
11,34877	100272
11,35322	87385
11,35765	72374
11,36210	67923
11,36653	56122
11,37098	48553
11,37542	43598
11,37987	41088
11,38430	36174
11,38875	31850
11,39318	28750
11,39763	25276
11,40207	25171
11,40652	21417
11,41095	20994
11,41540	19497
11,41983	18329
11,42428	18682
11,42872	18578
11,43317	17278
11,43760	15554
11,44205	14830
11,44648	14004
11,45093	12973
11,45537	14717
11,45982	14186
11,46425	13357
11,46870	13009
11,47315	12098
11,47758	11203
11,48203	11833
11,48647	11212
11,49092	11137
11,49535	10922
11,49980	10261
11,50423	10002
11,50868	11675
11,51312	10063
11,51757	11169
11,52200	10407
11,52645	9967
11,53088	10587
11,53533	11029
11,53977	10691
11,54422	12514
11,54865	16255
11,55310	22753
11,55753	32943
11,56198	51673
11,56642	80935
11,57087	124178
11,57530	186076
11,57975	263913
11,58418	355620
11,58863	476358
11,59308	619336
11,59752	753919
11,60197	906482
11,60640	1062533
11,61085	1215609
11,61528	1353661
11,61973	1479123
11,62417	1549905
11,62862	1604131
11,63305	1623947
11,63750	1585520
11,64193	1532632
11,64638	1448841
11,65082	1344362
11,65527	1215967
11,65970	1077923
11,66415	952117
11,66858	824182
11,67303	702549
11,67747	595764
11,68192	506680
11,68635	429844
11,69080	361034
11,69523	305033
11,69968	255489
11,70412	218141
11,70857	187167
11,71302	161443
11,71745	138081
11,72190	118967
11,72633	106711
11,73078	95090
11,73522	84925
11,73967	74556
11,74410	69777
11,74855	60380
11,75298	56567
11,75743	51245
11,76187	48056
11,76632	45083
11,77075	41606
11,77520	36993
11,77963	34991
11,78408	33678
11,78852	30705
11,79297	31058
11,79740	29046
11,80185	27373
11,80628	26327
11,81073	25541
11,81517	23368
11,81962	22585
11,82405	21135
11,82850	21361
11,83293	21842
11,83738	21239
11,84183	20361
11,84627	18536
11,85072	18520
11,85515	17884
11,85960	17720
11,86403	15899
11,86848	14852
11,87292	15967
11,87737	15768
11,88180	14971
11,88625	14359
11,89068	14601
11,89513	14816
11,89957	15451
11,90402	14648
11,90845	13035
11,91290	13938
11,91733	13240
11,92178	12638
11,92622	11083
11,93067	12315
11,93510	12162
11,93955	10884
11,94398	11712
11,94843	11919
11,95287	11490
11,95732	11371
11,96177	11140
11,96620	11673
11,97065	10478
11,97508	11114
11,97953	10109
11,98397	10946
11,98842	11847
11,99285	10450
11,99730	10320
12,00173	9932
12,00618	10017
12,01062	10639
12,01507	9942
12,01950	9800
12,02395	9986
12,02838	9641
12,03283	9864
12,03727	9218
12,04172	10484
12,04615	9746
12,05060	10134
12,05503	8525
12,05948	9556
12,06392	8267
12,06837	8989
12,07280	10122
12,07725	9043
12,08170	9099
12,08613	9249
12,09058	9040
12,09502	9143
12,09947	9746
12,10390	8853
12,10835	9253
12,11278	9187
12,11723	9539
12,12167	9639
12,12612	9619
12,13055	8756
12,13500	8805
12,13943	8480
12,14388	9972
12,14832	9936
12,15277	9252
12,15720	8642
12,16165	8463
12,16608	10053
12,17053	9110
12,17497	9987
12,17942	9236
12,18385	9050
12,18830	8749
12,19273	9010
12,19718	8666
12,20163	8951
12,20607	8875
12,21052	8356
12,21495	7858
12,21940	9243
12,22383	9481
12,22828	8711
12,23272	8299
12,23717	8504
12,24160	8861
12,24605	8141
12,25048	8907
12,25493	8575
12,25937	8759
12,26382	9151
12,26825	8771
12,27270	9167
12,27713	9801
12,28158	8562
12,28602	8756
12,29047	9582
12,29490	9341
12,29935	8661
12,30378	9264
12,30823	8707
12,31267	8805
12,31712	8873
12,32157	8611
12,32600	9168
12,33045	8523
12,33488	9151
12,33933	9719
12,34377	8907
12,34822	9900
12,35265	11181
12,35710	11866
12,36153	16244
12,36598	21693
12,37042	31673
12,37487	47923
12,37930	69208
12,38375	97875
12,38818	131007
12,39263	177129
12,39707	220926
12,40152	276119
12,40595	329905
12,41040	380502
12,41483	426846
12,41928	465776
12,42372	500484
12,42817	509420
12,43260	509597
12,43705	497112
12,44150	481272
12,44593	453503
12,45038	416227
12,45482	381797
12,45927	342742
12,46370	301754
12,46815	264027
12,47258	229098
12,47703	199750
12,48147	172940
12,48592	148520
12,49035	132046
12,49480	108871
12,49923	92030
12,50368	82271
12,50812	72310
12,51257	61685
12,51700	56595
12,52145	51486
12,52588	44645
12,53033	40000
12,53477	35954
12,53922	32712
12,54365	29654
12,54810	28319
12,55253	27742
12,55698	25116
12,56142	24382
12,56587	20770
12,57032	22991
12,57475	20620
12,57920	21956
12,58363	20705
12,58808	18716
12,59252	19833
12,59697	19090
12,60140	17743
12,60585	17196
12,61028	16258
12,61473	16761
12,61917	15480
12,62362	14982
12,62805	13416
12,63250	13502
12,63693	13677
12,64138	13289
12,64582	12479
12,65027	11343
12,65470	10968
12,65915	9919
12,66358	11030
12,66803	10516
12,67247	10823
12,67692	10102
12,68135	9857
12,68580	8897
12,69025	9806
12,69468	10378
12,69913	10450
12,70357	9174
12,70802	9651
12,71245	9042
12,71690	9940
12,72133	8490
12,72578	8296
12,73022	8377
12,73467	9027
12,73910	8853
12,74355	9385
12,74798	7566
12,75243	8094
12,75687	8449
12,76132	8126
12,76575	8542
12,77020	9164
12,77463	8646
12,77908	8577
12,78352	8343
12,78797	7687
12,79240	9422
12,79685	8582
12,80128	7905
12,80573	8834
12,81018	8303
12,81462	7613
12,81907	8125
12,82350	8181
12,82795	9006
12,83238	8058
12,83683	8790
12,84127	8238
12,84572	7603
12,85015	8788
12,85460	8684
12,85903	7946
12,86348	7625
12,86792	8408
12,87237	8237
12,87680	7617
12,88125	8912
12,88568	9083
12,89013	9617
12,89457	11788
12,89902	13480
12,90345	18769
12,90790	27270
12,91233	38495
12,91678	55482
12,92122	83702
12,92567	115298
12,93012	158059
12,93455	213155
12,93900	267513
12,94343	326074
12,94788	383128
12,95232	446243
12,95677	495542
12,96120	538400
12,96565	566792
12,97008	577502
12,97453	573654
12,97897	563630
12,98342	536194
12,98785	488681
12,99230	443431
12,99673	402055
13,00118	353014
13,00562	307781
13,01007	263428
13,01450	224427
13,01895	190533
13,02338	159719
13,02783	135253
13,03227	116043
13,03672	97472
13,04115	83663
13,04560	70614
13,05005	63097
13,05448	53581
13,05893	46058
13,06337	43212
13,06782	38755
13,07225	34709
13,07670	31144
13,08113	29009
13,08558	27848
13,09002	23375
13,09447	23031
13,09890	20506
13,10335	20082
13,10778	19391
13,11223	18319
13,11667	16603
13,12112	18006
13,12555	15337
13,13000	15838
13,13443	14672
13,13888	13868
13,14332	13309
13,14777	11917
13,15220	12713
13,15665	12914
13,16108	12152
13,16553	11128
13,16998	11698
13,17442	11970
13,17887	11598
13,18330	11329
13,18775	10837
13,19218	10580
13,19663	10490
13,20107	10446
13,20552	11091
13,20995	10384
13,21440	10533
13,21883	9292
13,22328	10353
13,22772	10178
13,23217	10075
13,23660	9152
13,24105	10134
13,24548	10668
13,24993	10060
13,25437	9820
13,25882	8256
13,26325	10585
13,26770	9468
13,27213	10088
13,27658	9627
13,28102	9114
13,28547	8757
13,28990	8778
13,29435	9214
13,29880	9227
13,30323	8148
13,30768	8400
13,31212	8832
13,31657	8578
13,32100	8829
13,32545	8796
13,32988	9058
13,33433	8135
13,33877	8057
13,34322	8412
13,34765	9561
13,35210	8635
13,35653	8498
13,36098	8076
13,36542	8421
13,36987	8804
13,37430	7935
13,37875	9653
13,38318	8561
13,38763	8523
13,39207	7643
13,39652	8192
13,40095	8317
13,40540	9051
13,40983	7589
13,41428	8743
13,41873	7954
13,42317	7874
13,42762	7953
13,43205	7962
13,43650	8096
13,44093	8017
13,44538	8341
13,44982	7718
13,45427	8436
13,45870	8405
13,46315	8393
13,46758	8399
13,47203	7823
13,47647	8338
13,48092	8575
13,48535	8109
13,48980	7511
13,49423	7894
13,49868	8255
13,50312	8292
13,50757	8183
13,51200	7681
13,51645	8169
13,52088	8542
13,52533	8278
13,52977	8220
13,53422	7933
13,53867	7694
13,54310	7090
13,54755	7906
13,55198	7555
13,55643	7264
13,56087	7760
13,56532	8239
13,56975	7952
13,57420	8536
13,57863	7893
13,58308	8108
13,58752	9233
13,59197	8168
13,59640	8122
13,60085	8428
13,60528	7647
13,60973	8088
13,61417	7393
13,61862	8433
13,62305	7834
13,62750	7551
13,63193	8188
13,63638	8123
13,64082	7504
13,64527	7114
13,64970	8321
13,65415	6780
13,65860	7882
13,66303	6747
13,66748	7881
13,67192	7538
13,67637	7764
13,68080	8285
13,68525	8284
13,68968	7298
13,69413	8030
13,69857	8260
13,70302	7211
13,70745	7654
13,71190	8346
13,71633	8107
13,72078	9350
13,72522	10449
13,72967	13368
13,73410	16867
13,73855	24776
13,74298	35677
13,74743	51798
13,75187	73995
13,75632	101162
13,76075	142494
13,76520	185715
13,76963	244762
13,77408	306854
13,77853	364598
13,78297	421791
13,78742	466351
13,79185	514909
13,79630	552830
13,80073	576878
13,80518	569078
13,80962	558714
13,81407	531010
13,81850	491151
13,82295	452036
13,82738	398504
13,83183	352505
13,83627	308492
13,84072	260352
13,84515	219821
13,84960	191427
13,85403	159272
13,85848	135730
13,86292	113791
13,86737	96618
13,87180	81461
13,87625	73909
13,88068	64403
13,88513	54968
13,88957	48909
13,89402	43033
13,89847	35472
13,90290	33535
13,90735	31191
13,91178	29725
13,91623	26235
13,92067	24248
13,92512	22313
13,92955	19934
13,93400	20016
13,93843	19791
13,94288	19913
13,94732	16719
13,95177	14803
13,95620	15635
13,96065	15796
13,96508	12870
13,96953	15537
13,97397	13818
13,97842	13209
13,98285	13316
13,98730	12612
13,99173	12724
13,99618	11518
14,00062	11223
14,00507	12743
14,00950	13801
14,01395	13634
14,01838	13382
14,02283	14476
14,02728	14631
14,03172	15198
14,03617	15403
14,04060	16967
14,04505	17451
14,04948	17094
14,05393	17643
14,05837	16347
14,06282	17267
14,06725	15813
14,07170	15459
14,07613	15191
14,08058	14835
14,08502	14915
14,08947	14193
14,09390	13932
14,09835	13188
14,10278	13079
14,10723	11454
14,11167	11402
14,11612	9992
14,12055	10714
14,12500	9822
14,12943	9555
14,13388	8950
14,13832	9283
14,14277	9119
14,14722	9255
14,15165	9219
14,15610	9076
14,16053	8400
14,16498	8538
14,16942	9150
14,17387	7707
14,17830	8964
14,18275	8660
14,18718	8042
14,19163	8671
14,19607	7562
14,20052	7822
14,20495	7659
14,20940	8847
14,21383	8117
14,21828	9019
14,22272	8871
14,22717	8869
14,23160	7799
14,23605	8225
14,24048	8000
14,24493	8106
14,24937	7770
14,25382	7940
14,25825	7530
14,26270	8844
14,26715	8265
14,27158	9363
14,27603	10909
14,28047	12952
14,28492	18645
14,28935	26629
14,29380	40411
14,29823	62794
14,30268	90323
14,30712	139546
14,31157	192729
14,31600	263847
14,32045	349544
14,32488	455820
14,32933	570678
14,33377	686883
14,33822	811203
14,34265	938510
14,34710	1043452
14,35153	1153026
14,35598	1238947
14,36042	1289252
14,36487	1310321
14,36930	1266215
14,37375	1217364
14,37818	1131649
14,38263	1021366
14,38708	893483
14,39152	762741
14,39597	648832
14,40040	542531
14,40485	445224
14,40928	367141
14,41373	302202
14,41817	258053
14,42262	213106
14,42705	177894
14,43150	156407
14,43593	133226
14,44038	114647
14,44482	100082
14,44927	89132
14,45370	77136
14,45815	70415
14,46258	63642
14,46703	56783
14,47147	52954
14,47592	46885
14,48035	46443
14,48480	41637
14,48923	39520
14,49368	36792
14,49812	33777
14,50257	31356
14,50702	30458
14,51145	27897
14,51590	26028
14,52033	25772
14,52478	23636
14,52922	22768
14,53367	20561
14,53810	20446
14,54255	19989
14,54698	17955
14,55143	19257
14,55587	19046
14,56032	18469
14,56475	15887
14,56920	16381
14,57363	15681
14,57808	15385
14,58252	14997
14,58697	14413
14,59140	14888
14,59585	13820
14,60028	13986
14,60473	13764
14,60917	11548
14,61362	13081
14,61805	13434
14,62250	10724
14,62695	11187
14,63138	12845
14,63583	10890
14,64027	11102
14,64472	11536
14,64915	11192
14,65360	10277
14,65803	10051
14,66248	10572
14,66692	10645
14,67137	9668
14,67580	9561
14,68025	9290
14,68468	10352
14,68913	9805
14,69357	10388
14,69802	10381
14,70245	9680
14,70690	9607
14,71133	10111
14,71578	8835
14,72022	8523
14,72467	9082
14,72910	9465
14,73355	9138
14,73798	9402
14,74243	9334
14,74687	9060
14,75132	9126
14,75577	9197
14,76020	9707
14,76465	11685
14,76908	14071
14,77353	17106
14,77797	25636
14,78242	38636
14,78685	53624
14,79130	77169
14,79573	112643
14,80018	152386
14,80462	204437
14,80907	256036
14,81350	323079
14,81795	391212
14,82238	451227
14,82683	503430
14,83127	549611
14,83572	588042
14,84015	606621
14,84460	608566
14,84903	590787
14,85348	561583
14,85792	515353
14,86237	461103
14,86680	415597
14,87125	361987
14,87570	312892
14,88013	259177
14,88458	219985
14,88902	185648
14,89347	156536
14,89790	134599
14,90235	112113
14,90678	95057
14,91123	80647
14,91567	72058
14,92012	62572
14,92455	54707
14,92900	48162
14,93343	41472
14,93788	39697
14,94232	34939
14,94677	31999
14,95120	29051
14,95565	26388
14,96008	26293
14,96453	23801
14,96897	22756
14,97342	18821
14,97785	19327
14,98230	19277
14,98673	17892
14,99118	17239
14,99563	17741
15,00007	16823
15,00452	21089
15,00895	20897
15,01340	28169
15,01783	37059
15,02228	50980
15,02672	78369
15,03117	110601
15,03560	153163
15,04005	217595
15,04448	295711
15,04893	384503
15,05337	489880
15,05782	614777
15,06225	734734
15,06670	856133
15,07113	970742
15,07558	1088468
15,08002	1172194
15,08447	1229648
15,08890	1234613
15,09335	1200968
15,09778	1131732
15,10223	1043176
15,10667	942529
15,11112	839301
15,11557	721555
15,12000	610925
15,12445	511341
15,12888	420044
15,13333	355378
15,13777	295974
15,14222	253401
15,14665	211918
15,15110	180733
15,15553	151985
15,15998	132186
15,16442	118491
15,16887	101255
15,17330	89875
15,17775	81440
15,18218	73915
15,18663	63163
15,19107	60451
15,19552	54046
15,19995	48735
15,20440	46004
15,20883	43817
15,21328	41088
15,21772	36527
15,22217	35496
15,22660	31324
15,23105	31803
15,23550	29840
15,23993	28023
15,24438	26643
15,24882	25753
15,25327	24378
15,25770	22536
15,26215	22143
15,26658	21219
15,27103	20079
15,27547	20925
15,27992	18597
15,28435	18149
15,28880	17356
15,29323	16624
15,29768	15969
15,30212	16210
15,30657	14201
15,31100	14194
15,31545	13334
15,31988	14906
15,32433	13786
15,32877	13790
15,33322	12643
15,33765	12611
15,34210	12423
15,34653	13391
15,35098	11585
15,35543	12464
15,35987	12587
15,36432	11152
15,36875	11519
15,37320	11787
15,37763	12137
15,38208	10461
15,38652	9860
15,39097	10350
15,39540	11094
15,39985	11547
15,40428	11247
15,40873	10212
15,41317	9974
15,41762	9801
15,42205	10313
15,42650	9950
15,43093	9118
15,43538	8833
15,43982	9397
15,44427	8067
15,44870	9546
15,45315	9596
15,45758	8686
15,46203	9403
15,46647	8514
15,47092	8373
15,47535	9465
15,47980	8356
15,48425	7925
15,48868	8701
15,49313	9480
15,49757	8260
15,50202	8019
15,50645	8263
15,51090	7677
15,51533	8122
15,51978	8260
15,52422	8071
15,52867	7235
15,53310	7903
15,53755	8392
15,54198	8167
15,54643	8581
15,55087	8414
15,55532	7651
15,55975	8802
15,56420	7670
15,56863	8517
15,57308	9299
15,57752	9435
15,58197	10137
15,58640	10957
15,59085	12456
15,59528	14415
15,59973	19859
15,60418	25223
15,60862	38376
15,61307	56784
15,61750	82444
15,62195	115809
15,62638	160607
15,63083	207831
15,63527	267635
15,63972	332614
15,64415	392411
15,64860	451444
15,65303	507635
15,65748	543928
15,66192	570595
15,66637	568426
15,67080	563390
15,67525	535920
15,67968	500488
15,68413	448005
15,68857	401194
15,69302	341719
15,69745	295907
15,70190	252949
15,70633	212557
15,71078	182863
15,71522	154664
15,71967	128745
15,72412	111493
15,72855	96130
15,73300	80951
15,73743	72665
15,74188	66145
15,74632	55384
15,75077	50122
15,75520	46129
15,75965	40604
15,76408	37187
15,76853	35750
15,77297	32416
15,77742	28532
15,78185	27234
15,78630	25286
15,79073	24572
15,79518	21592
15,79962	20390
15,80407	19687
15,80850	20561
15,81295	18484
15,81738	16848
15,82183	18065
15,82627	15903
15,83072	15216
15,83515	15147
15,83960	14532
15,84405	13676
15,84848	13033
15,85293	13665
15,85737	12639
15,86182	13642
15,86625	10909
15,87070	10946
15,87513	11400
15,87958	10132
15,88402	11119
15,88847	10905
15,89290	10486
15,89735	9850
15,90178	10229
15,90623	8701
15,91067	10651
15,91512	9822
15,91955	9568
15,92400	10304
15,92843	9796
15,93288	9804
15,93732	9715
15,94177	9451
15,94620	9533
15,95065	10205
15,95508	9617
15,95953	9591
15,96398	9718
15,96842	9333
15,97287	9589
15,97730	10545
15,98175	9231
15,98618	9034
15,99063	10272
15,99507	9154
15,99952	8928
16,00395	8591
16,00840	7934
16,01283	8524
16,01728	7679
16,02172	7569
16,02617	8753
16,03060	9738
16,03505	8668
16,03948	8603
16,04393	8772
16,04837	8862
16,05282	7980
16,05725	8477
16,06170	9275
16,06613	8659
16,07058	9285
16,07502	9908
16,07947	9278
16,08392	8942
16,08835	8186
16,09280	8701
16,09723	8353
16,10168	7355
16,10612	7586
16,11057	7681
16,11500	8646
16,11945	7459
16,12388	8275
16,12833	8501
16,13277	8293
16,13722	7308
16,14165	10628
16,14610	10019
16,15053	12760
16,15498	15579
16,15942	20497
16,16387	29745
16,16830	43414
16,17275	63260
16,17718	90998
16,18163	122735
16,18607	172182
16,19052	222913
16,19495	285030
16,19940	343571
16,20383	403774
16,20828	451582
16,21273	494168
16,21717	527966
16,22162	544569
16,22605	543772
16,23050	522190
16,23493	490479
16,23938	456267
16,24382	407832
16,24827	357298
16,25270	312459
16,25715	266577
16,26158	226072
16,26603	197111
16,27047	164634
16,27492	139923
16,27935	116883
16,28380	100701
16,28823	86027
16,29268	75201
16,29712	64948
16,30157	55568
16,30600	51907
16,31045	44258
16,31488	40811
16,31933	34908
16,32377	33828
16,32822	31406
16,33267	29579
16,33710	28181
16,34155	25005
16,34598	21452
16,35043	22083
16,35487	19677
16,35932	18638
16,36375	17072
16,36820	16718
16,37263	16426
16,37708	16557
16,38152	15670
16,38597	13374
16,39040	14894
16,39485	13798
16,39928	12321
16,40373	12533
16,40817	12748
16,41262	12234
16,41705	12389
16,42150	13414
16,42593	11971
16,43038	10012
16,43482	11260
16,43927	10265
16,44370	11269
16,44815	10515
16,45260	9836
16,45703	10958
16,46148	10767
16,46592	11540
16,47037	9729
16,47480	10506
16,47925	10416
16,48368	10237
16,48813	9395
16,49257	9388
16,49702	9157
16,50145	8664
16,50590	9677
16,51033	9288
16,51478	8573
16,51922	8230
16,52367	8422
16,52810	8006
16,53255	9249
16,53698	8171
16,54143	9272
16,54587	8796
16,55032	8646
16,55475	9269
16,55920	8278
16,56363	8335
16,56808	7869
16,57253	7781
16,57697	8099
16,58142	7623
16,58585	8639
16,59030	8434
16,59473	8078
16,59918	7816
16,60362	8407
16,60807	7971
16,61250	7281
16,61695	7390
16,62138	8353
16,62583	8069
16,63027	8331
16,63472	8143
16,63915	7765
16,64360	6956
16,64803	6513
16,65248	7612
16,65692	6818
16,66137	7412
16,66580	6692
16,67025	7375
16,67468	6957
16,67913	7535
16,68357	8182
16,68802	7753
16,69247	7415
16,69690	7672
16,70135	8048
16,70578	7985
16,71023	8099
16,71467	7677
16,71912	7715
16,72355	7580
16,72800	6429
16,73243	7575
16,73688	7336
16,74132	7343
16,74577	8080
16,75020	7113
16,75465	7663
16,75908	7894
16,76353	7471
16,76797	7623
16,77242	8183
16,77685	8221
16,78130	8611
16,78573	8014
16,79018	8276
16,79462	8429
16,79907	6491
16,80350	7702
16,80795	7392
16,81240	7606
16,81683	7345
16,82128	8223
16,82572	7611
16,83017	7573
16,83460	7378
16,83905	8121
16,84348	8471
16,84793	6735
16,85237	7965
16,85682	7608
16,86125	7055
16,86570	7189
16,87013	7351
16,87458	7219
16,87902	8006
16,88347	7607
16,88790	6818
16,89235	7401
16,89678	7618
16,90123	6966
16,90567	7467
16,91012	7138
16,91455	7741
16,91900	6872
16,92343	7710
16,92788	6691
16,93232	7513
16,93677	7957
16,94122	7622
16,94565	8452
16,95010	7969
16,95453	8716
16,95898	9857
16,96342	11648
16,96787	14214
16,97230	21924
16,97675	30188
16,98118	42988
16,98563	65661
16,99007	89233
16,99452	123538
16,99895	166871
17,00340	214925
17,00783	262716
17,01228	320009
17,01672	369535
17,02117	417025
17,02560	456116
17,03005	483577
17,03448	498295
17,03893	481217
17,04337	476299
17,04782	437642
17,05225	410839
17,05670	370922
17,06115	326496
17,06558	277641
17,07003	250774
17,07447	208471
17,07892	179641
17,08335	159282
17,08780	142807
17,09223	140390
17,09668	142481
17,10112	161396
17,10557	186848
17,11000	229455
17,11445	280929
17,11888	347793
17,12333	438915
17,12777	528751
17,13222	637420
17,13665	756565
17,14110	881583
17,14553	1015461
17,14998	1154923
17,15442	1265692
17,15887	1361775
17,16330	1429512
17,16775	1467346
17,17218	1438891
17,17663	1358919
17,18108	1244260
17,18552	1108780
17,18997	963639
17,19440	831961
17,19885	689429
17,20328	570146
17,20773	473153
17,21217	392862
17,21662	329151
17,22105	275606
17,22550	235528
17,22993	197986
17,23438	172028
17,23882	148918
17,24327	131061
17,24770	118733
17,25215	104888
17,25658	90573
17,26103	84441
17,26547	75618
17,26992	71690
17,27435	65707
17,27880	60129
17,28323	55932
17,28768	50514
17,29212	48630
17,29657	44107
17,30102	41142
17,30545	40142
17,30990	37907
17,31433	35233
17,31878	33120
17,32322	30330
17,32767	29761
17,33210	27680
17,33655	29595
17,34098	26039
17,34543	26094
17,34987	25370
17,35432	24470
17,35875	21307
17,36320	20488
17,36763	22321
17,37208	19404
17,37652	20083
17,38097	19562
17,38540	18733
17,38985	18027
17,39428	16642
17,39873	15599
17,40317	17946
17,40762	16067
17,41205	16584
17,41650	15253
17,42095	14135
17,42538	15401
17,42983	13689
17,43427	14686
17,43872	13507
17,44315	14114
17,44760	13414
17,45203	13404
17,45648	12228
17,46092	12861
17,46537	13499
17,46980	11947
17,47425	13613
17,47868	12123
17,48313	13742
17,48757	14744
17,49202	17974
17,49645	19193
17,50090	28294
17,50533	36387
17,50978	50473
17,51422	70077
17,51867	95927
17,52310	131313
17,52755	171934
17,53198	219886
17,53643	271273
17,54088	323218
17,54532	377197
17,54977	419580
17,55420	455830
17,55865	476073
17,56308	479127
17,56753	476954
17,57197	458638
17,57642	424175
17,58085	388769
17,58530	345904
17,58973	306517
17,59418	268181
17,59862	228719
17,60307	194180
17,60750	162326
17,61195	133733
17,61638	120312
17,62083	99956
17,62527	87173
17,62972	73650
17,63415	66860
17,63860	56754
17,64303	51198
17,64748	45940
17,65192	43317
17,65637	37696
17,66080	34342
17,66525	33238
17,66970	30446
17,67413	28564
17,67858	25389
17,68302	26220
17,68747	22816
17,69190	22133
17,69635	20692
17,70078	20075
17,70523	18421
17,70967	17588
17,71412	17572
17,71855	16183
17,72300	16676
17,72743	14355
17,73188	15009
17,73632	15316
17,74077	14926
17,74520	14589
17,74965	13722
17,75408	12690
17,75853	13267
17,76297	13026
17,76742	12167
17,77185	12625
17,77630	13122
17,78073	12869
17,78518	12761
17,78963	12380
17,79407	15635
17,79852	18129
17,80295	24495
17,80740	32111
17,81183	45403
17,81628	66693
17,82072	94067
17,82517	126057
17,82960	174859
17,83405	230164
17,83848	287595
17,84293	354462
17,84737	423389
17,85182	488779
17,85625	549382
17,86070	606201
17,86513	638734
17,86958	653073
17,87402	643635
17,87847	622750
17,88290	589126
17,88735	528973
17,89178	475412
17,89623	407261
17,90067	355904
17,90512	302478
17,90957	259158
17,91400	213955
17,91845	181692
17,92288	152000
17,92733	134902
17,93177	112268
17,93622	97330
17,94065	85630
17,94510	73857
17,94953	66150
17,95398	57834
17,95842	50597
17,96287	47652
17,96730	42840
17,97175	39700
17,97618	37940
17,98063	34455
17,98507	34750
17,98952	29835
17,99395	27326
17,99840	26933
18,00283	25628
18,00728	24243
18,01172	21690
18,01617	20708
18,02060	20873
18,02505	20225
18,02950	18869
18,03393	17792
18,03838	17711
18,04282	16534
18,04727	16399
18,05170	15133
18,05615	15207
18,06058	14697
18,06503	14770
18,06947	13856
18,07392	14140
18,07835	13863
18,08280	12715
18,08723	12242
18,09168	13816
18,09612	12246
18,10057	12127
18,10500	11681
18,10945	11841
18,11388	10952
18,11833	10835
18,12277	10397
18,12722	9285
18,13165	10227
18,13610	10781
18,14053	10160
18,14498	9443
18,14943	9131
18,15387	10429
18,15832	10866
18,16275	10199
18,16720	9749
18,17163	10279
18,17608	10046
18,18052	8967
18,18497	9714
18,18940	9562
18,19385	9690
18,19828	8964
18,20273	8854
18,20717	8233
18,21162	9539
18,21605	8703
18,22050	8548
18,22493	9887
18,22938	9455
18,23382	8998
18,23827	9630
18,24270	10127
18,24715	9272
18,25158	9104
18,25603	9403
18,26047	8415
18,26492	8580
18,26937	9371
18,27380	9268
18,27825	7990
18,28268	8670
18,28713	8960
18,29157	8656
18,29602	8504
18,30045	8289
18,30490	7421
18,30933	8510
18,31378	7844
18,31822	7231
18,32267	8590
18,32710	8086
18,33155	7763
18,33598	9373
18,34043	7955
18,34487	7984
18,34932	8122
18,35375	8369
18,35820	8484
18,36263	7917
18,36708	8321
18,37152	8432
18,37597	8674
18,38040	8037
18,38485	7903
18,38928	9054
18,39373	8862
18,39818	8132
18,40262	8075
18,40707	7963
18,41150	7661
18,41595	7466
18,42038	7784
18,42483	7933
18,42927	8404
18,43372	8130
18,43815	8035
18,44260	8155
18,44703	8119
18,45148	7673
18,45592	10536
18,46037	9700
18,46480	13501
18,46925	15562
18,47368	22194
18,47813	31252
18,48257	44094
18,48702	67422
18,49145	93029
18,49590	130604
18,50033	181475
18,50478	235204
18,50922	302873
18,51367	375937
18,51812	459791
18,52255	539124
18,52700	621523
18,53143	690260
18,53588	736089
18,54032	766277
18,54477	756022
18,54920	734870
18,55365	672752
18,55808	617101
18,56253	540271
18,56697	460414
18,57142	393330
18,57585	331654
18,58030	282745
18,58473	235581
18,58918	196043
18,59362	164490
18,59807	140224
18,60250	119654
18,60695	104837
18,61138	90318
18,61583	81100
18,62027	72025
18,62472	62491
18,62915	56874
18,63360	51481
18,63805	50735
18,64248	42269
18,64693	41973
18,65137	38974
18,65582	36448
18,66025	33349
18,66470	30011
18,66913	29336
18,67358	28437
18,67802	26865
18,68247	24794
18,68690	26946
18,69135	22999
18,69578	22278
18,70023	20404
18,70467	22493
18,70912	19995
18,71355	19869
18,71800	19597
18,72243	17782
18,72688	18741
18,73132	17379
18,73577	16747
18,74020	15091
18,74465	16535
18,74908	15171
18,75353	15649
18,75798	14801
18,76242	13647
18,76687	13810
18,77130	13138
18,77575	14162
18,78018	12790
18,78463	12755
18,78907	13314
18,79352	13378
18,79795	12168
18,80240	15297
18,80683	14659
18,81128	16024
18,81572	15889
18,82017	14019
18,82460	13282
18,82905	13020
18,83348	13013
18,83793	12026
18,84237	11015
18,84682	11517
18,85125	12123
18,85570	11351
18,86013	10547
18,86458	11153
18,86902	10750
18,87347	10947
18,87792	10434
18,88235	9474
18,88680	10471
18,89123	9815
18,89568	9474
18,90012	8850
18,90457	9049
18,90900	11402
18,91345	9971
18,91788	9598
18,92233	12045
18,92677	11420
18,93122	14482
18,93565	18976
18,94010	24377
18,94453	34825
18,94898	51902
18,95342	72708
18,95787	102944
18,96230	139560
18,96675	188206
18,97118	248165
18,97563	306060
18,98007	366342
18,98452	428913
18,98895	479033
18,99340	528040
18,99785	554618
19,00228	583549
19,00673	574788
19,01117	548217
19,01562	516737
19,02005	465832
19,02450	422384
19,02893	375824
19,03338	317560
19,03782	276268
19,04227	233264
19,04670	198475
19,05115	164365
19,05558	140043
19,06003	124367
19,06447	106086
19,06892	91240
19,07335	79786
19,07780	69652
19,08223	64085
19,08668	56589
19,09112	48291
19,09557	44119
19,10000	40001
19,10445	39385
19,10888	34616
19,11333	31510
19,11777	29547
19,12222	27029
19,12667	26740
19,13110	23904
19,13555	23184
19,13998	23384
19,14443	22534
19,14887	20211
19,15332	19842
19,15775	18144
19,16220	17718
19,16663	17077
19,17108	17369
19,17552	16436
19,17997	15891
19,18440	15904
19,18885	14842
19,19328	15117
19,19773	14397
19,20217	13903
19,20662	12564
19,21105	15193
19,21550	13491
19,21993	13010
19,22438	12974
19,22882	12125
19,23327	12280
19,23770	13250
19,24215	11809
19,24660	11641
19,25103	12861
19,25548	10828
19,25992	11461
19,26437	11662
19,26880	10208
19,27325	10887
19,27768	11153
19,28213	11298
19,28657	11087
19,29102	10257
19,29545	11193
19,29990	10002
19,30433	9917
19,30878	10966
19,31322	9179
19,31767	9293
19,32210	10582
19,32655	9904
19,33098	9809
19,33543	10241
19,33987	10173
19,34432	10445
19,34875	9446
19,35320	9278
19,35763	10263
19,36208	8844
19,36653	9707
19,37097	9044
19,37542	10289
19,37985	9440
19,38430	8961
19,38873	9074
19,39318	8634
19,39762	9807
19,40207	9156
19,40650	8252
19,41095	9048
19,41538	8402
19,41983	9629
19,42427	9221
19,42872	8518
19,43315	8599
19,43760	9717
19,44203	9018
19,44648	9690
19,45092	8606
19,45537	9535
19,45980	8743
19,46425	8691
19,46868	8603
19,47313	8353
19,47757	8732
19,48202	9111
19,48647	8376
19,49090	8838
19,49535	8971
19,49978	8369
19,50423	8596
19,50867	7796
19,51312	8814
19,51755	8912
19,52200	10219
19,52643	9999
19,53088	9723
19,53532	9870
19,53977	9194
19,54420	11542
19,54865	11009
19,55308	10370
19,55753	10073
19,56197	11986
19,56642	10753
19,57085	11871
19,57530	12660
19,57973	10871
19,58418	11190
19,58862	11901
19,59307	9909
19,59750	9793
19,60195	8900
19,60640	9861
19,61083	9127
19,61528	9481
19,61972	8549
19,62417	9462
19,62860	9006
19,63305	9265
19,63748	8580
19,64193	8091
19,64637	9576
19,65082	9323
19,65525	8863
19,65970	8843
19,66413	9389
19,66858	8576
19,67302	8495
19,67747	8693
19,68190	9016
19,68635	8900
19,69078	8048
19,69523	7541
19,69967	8369
19,70412	8697
19,70855	8393
19,71300	9393
19,71743	9386
19,72188	12898
19,72633	15669
19,73077	20209
19,73522	29578
19,73965	44275
19,74410	61880
19,74853	89361
19,75298	123113
19,75742	161574
19,76187	209675
19,76630	265668
19,77075	321595
19,77518	378958
19,77963	423078
19,78407	473927
19,78852	502756
19,79295	523923
19,79740	523524
19,80183	517899
19,80628	483949
19,81072	442885
19,81517	406275
19,81960	358561
19,82405	322614
19,82848	284535
19,83293	254022
19,83737	235863
19,84182	221978
19,84625	221871
19,85070	230272
19,85515	254946
19,85958	292249
19,86403	339496
19,86847	401645
19,87292	473440
19,87735	555531
19,88180	654261
19,88623	765227
19,89068	854000
19,89512	972136
19,89957	1095903
19,90400	1222189
19,90845	1317483
19,91288	1406059
19,91733	1456209
19,92177	1471864
19,92622	1444904
19,93065	1350998
19,93510	1235270
19,93953	1082330
19,94398	921305
19,94842	787122
19,95287	652282
19,95730	542034
19,96175	456307
19,96618	384242
19,97063	322407
19,97508	273228
19,97952	235283
19,98397	209129
19,98840	180923
19,99285	162503
19,99728	144877
20,00173	128737
20,00617	118811
20,01062	107805
20,01505	97338
20,01950	90687
20,02393	81151
20,02838	77534
20,03282	72120
20,03727	67497
20,04170	63021
20,04615	58674
20,05058	55843
20,05503	51996
20,05947	49447
20,06392	45574
20,06835	45780
20,07280	44367
20,07723	40955
20,08168	38494
20,08612	38761
20,09057	37100
20,09502	34188
20,09945	33867
20,10390	31870
20,10833	31001
20,11278	30333
20,11722	29448
20,12167	29843
20,12610	27518
20,13055	25356
20,13498	26770
20,13943	25590
20,14387	25783
20,14832	25661
20,15275	23964
20,15720	23463
20,16163	24461
20,16608	23864
20,17052	23442
20,17497	22400
20,17940	19397
20,18385	22480
20,18828	20357
20,19273	20284
20,19717	19484
20,20162	18574
20,20605	20725
20,21050	18853
20,21495	17143
20,21938	18457
20,22383	16111
20,22827	17095
20,23272	18597
20,23715	20210
20,24160	23623
20,24603	28975
20,25048	36574
20,25492	51318
20,25937	71112
20,26380	95538
20,26825	126920
20,27268	166935
20,27713	215691
20,28157	276102
20,28602	333169
20,29045	391511
20,29490	441346
20,29933	493113
20,30378	524169
20,30822	541293
20,31267	551488
20,31710	541913
20,32155	517223
20,32598	497290
20,33043	474977
20,33488	453562
20,33932	441808
20,34377	432420
20,34820	439882
20,35265	451683
20,35708	470180
20,36153	489539
20,36597	524811
20,37042	542152
20,37485	542359
20,37930	544501
20,38373	534372
20,38818	509919
20,39262	475271
20,39707	444188
20,40150	401497
20,40595	354296
20,41038	304567
20,41483	267083
20,41927	231769
20,42372	198812
20,42815	171927
20,43260	149608
20,43703	127639
20,44148	109973
20,44592	98262
20,45037	88952
20,45482	77583
20,45925	69577
20,46370	63464
20,46813	56338
20,47258	50983
20,47702	48999
20,48147	45011
20,48590	40512
20,49035	40644
20,49478	35697
20,49923	36296
20,50367	34195
20,50812	35407
20,51255	34702
20,51700	38785
20,52143	41110
20,52588	47914
20,53032	57067
20,53477	74214
20,53920	94867
20,54365	124129
20,54808	162111
20,55253	205041
20,55697	262634
20,56142	317936
20,56585	381530
20,57030	450382
20,57473	515441
20,57918	585901
20,58363	631758
20,58807	675770
20,59252	677697
20,59695	678073
20,60140	647013
20,60583	611371
20,61028	555003
20,61472	497310
20,61917	429951
20,62360	374102
20,62805	321218
20,63248	273912
20,63693	229707
20,64137	204541
20,64582	169047
20,65025	147273
20,65470	132560
20,65913	114126
20,66358	99141
20,66802	89915
20,67247	82406
20,67690	72492
20,68135	66365
20,68578	60997
20,69023	56248
20,69467	54679
20,69912	47779
20,70357	45251
20,70800	42627
20,71245	42076
20,71688	39009
20,72133	37703
20,72577	36023
20,73022	32941
20,73465	31727
20,73910	31978
20,74353	30261
20,74798	29394
20,75242	27370
20,75687	26111
20,76130	25780
20,76575	24032
20,77018	23962
20,77463	22710
20,77907	22432
20,78352	21635
20,78795	19944
20,79240	20982
20,79683	19527
20,80128	20316
20,80572	18488
20,81017	18309
20,81460	18628
20,81905	17783
20,82350	17122
20,82793	19291
20,83238	17873
20,83682	17465
20,84127	15475
20,84570	17428
20,85015	14338
20,85458	14771
20,85903	15387
20,86347	14445
20,86792	13883
20,87235	13681
20,87680	14883
20,88123	15032
20,88568	13474
20,89012	13955
20,89457	14243
20,89900	13500
20,90345	14139
20,90788	13763
20,91233	13101
20,91677	12571
20,92122	13299
20,92565	12837
20,93010	12771
20,93453	12696
20,93898	12240
20,94343	13344
20,94787	11796
20,95232	13046
20,95675	12869
20,96120	12425
20,96563	12401
20,97008	10965
20,97452	12167
20,97897	12741
20,98340	11326
20,98785	12120
20,99228	11181
20,99673	12747
21,00117	11277
21,00562	11691
21,01005	11994
21,01450	12044
21,01893	10553
21,02338	10414
21,02782	12061
21,03227	11516
21,03670	11952
21,04115	12202
21,04558	11492
21,05003	11611
21,05447	10229
21,05892	12352
21,06337	10696
21,06780	11127
21,07225	12243
21,07668	10651
21,08113	10881
21,08557	10726
21,09002	11359
21,09445	12677
21,09890	12536
21,10333	11618
21,10778	10890
21,11222	10951
21,11667	11785
21,12110	11352
21,12555	12943
21,12998	11893
21,13443	13650
21,13887	14619
21,14332	13298
21,14775	17447
21,15220	19914
21,15663	24974
21,16108	30723
21,16552	41769
21,16997	60323
21,17440	83195
21,17885	113794
21,18330	152475
21,18773	202009
21,19218	256615
21,19662	331969
21,20107	398554
21,20550	470456
21,20995	547217
21,21438	614215
21,21883	678094
21,22327	722477
21,22772	745390
21,23215	752958
21,23660	729824
21,24103	686637
21,24548	613099
21,24992	549760
21,25437	481513
21,25880	413892
21,26325	348513
21,26768	296838
21,27213	251786
21,27657	211915
21,28102	184727
21,28545	156114
21,28990	137423
21,29433	121303
21,29878	109030
21,30322	95136
21,30767	85680
21,31212	75905
21,31655	73004
21,32100	65871
21,32543	61433
21,32988	54566
21,33432	51601
21,33877	46642
21,34320	44653
21,34765	45351
21,35208	39504
21,35653	39639
21,36097	35870
21,36542	34392
21,36985	33109
21,37430	33350
21,37873	32166
21,38318	31408
21,38762	27273
21,39207	27558
21,39650	24952
21,40095	26973
21,40538	26314
21,40983	24189
21,41427	23445
21,41872	22991
21,42315	23570
21,42760	22482
21,43205	21214
21,43648	20811
21,44093	19715
21,44537	19314
21,44982	17936
21,45425	17964
21,45870	17418
21,46313	18246
21,46758	16223
21,47202	18402
21,47647	15203
21,48090	16128
21,48535	16015
21,48978	15177
21,49423	15232
21,49867	15323
21,50312	14449
21,50755	14935
21,51200	16308
21,51643	16036
21,52088	15199
21,52532	14383
21,52977	15731
21,53420	13685
21,53865	14654
21,54308	14210
21,54753	14925
21,55198	13805
21,55642	13827
21,56087	12835
21,56530	13699
21,56975	14502
21,57418	14021
21,57863	13301
21,58307	13622
21,58752	12229
21,59195	15408
21,59640	14802
21,60083	12899
21,60528	15498
21,60972	16933
21,61417	21311
21,61860	25776
21,62305	33681
21,62748	47067
21,63193	64397
21,63637	89258
21,64082	124214
21,64525	167980
21,64970	226956
21,65413	286105
21,65858	364438
21,66302	446751
21,66747	517367
21,67192	589824
21,67635	665118
21,68080	725902
21,68523	769899
21,68968	797641
21,69412	817121
21,69857	832076
21,70300	818181
21,70745	810750
21,71188	793506
21,71633	756183
21,72077	710395
21,72522	669265
21,72965	617734
21,73410	564830
21,73853	510945
21,74298	452983
21,74742	400260
21,75187	347310
21,75630	299693
21,76075	262048
21,76518	224363
21,76963	198089
21,77407	168525
21,77852	149767
21,78295	130530
21,78740	116589
21,79185	103606
21,79628	96584
21,80073	85811
21,80517	80092
21,80962	71083
21,81405	66324
21,81850	60353
21,82293	56099
21,82738	53240
21,83182	50754
21,83627	45574
21,84070	42212
21,84515	40431
21,84958	38984
21,85403	35189
21,85847	33845
21,86292	32813
21,86735	32365
21,87180	30835
21,87623	29531
21,88068	28577
21,88512	28167
21,88957	27017
21,89400	24834
21,89845	24265
21,90288	23288
21,90733	23326
21,91177	22014
21,91622	23055
21,92067	22439
21,92510	21358
21,92955	19714
21,93398	19488
21,93843	18537
21,94287	18253
21,94732	17899
21,95175	17926
21,95620	16492
21,96063	17737
21,96508	17562
21,96952	18511
21,97397	16372
21,97840	17148
21,98285	15508
21,98728	16584
21,99173	16787
21,99617	16502
22,00062	15288
22,00505	16099
22,00950	14520
22,01393	15726
22,01838	14944
22,02282	14802
22,02727	15342
22,03170	14895
22,03615	13155
22,04060	14906
22,04503	14471
22,04948	13395
22,05392	14127
22,05837	14105
22,06280	14337
22,06725	13043
22,07168	13445
22,07613	12701
22,08057	13260
22,08502	13528
22,08945	12939
22,09390	13092
22,09833	13978
22,10278	13376
22,10722	12988
22,11167	13063
22,11610	13069
22,12055	13666
22,12498	13533
22,12943	13087
22,13387	13495
22,13832	12594
22,14275	12197
22,14720	11968
22,15163	13504
22,15608	14254
22,16053	13184
22,16497	12764
22,16942	13068
22,17385	12211
22,17830	11490
22,18273	12564
22,18718	12813
22,19162	13757
22,19607	13232
22,20050	13476
22,20495	13314
22,20938	12602
22,21383	12849
22,21827	11739
22,22272	11404
22,22715	11935
22,23160	11897
22,23603	11933
22,24048	13114
22,24492	12003
22,24937	11542
22,25380	11838
22,25825	12645
22,26268	12203
22,26713	10768
22,27157	13238
22,27602	11392
22,28047	10480
22,28490	11735
22,28935	12161
22,29378	10729
22,29823	12824
22,30267	11721
22,30712	11708
22,31155	12273
22,31600	10997
22,32043	12142
22,32488	12235
22,32932	10965
22,33377	10988
22,33820	11349
22,34265	12422
22,34708	11525
22,35153	12917
22,35597	12101
22,36042	12473
22,36485	12114
22,36930	12163
22,37373	11407
22,37818	14105
22,38262	11874
22,38707	12340
22,39150	11680
22,39595	12078
22,40040	11727
22,40483	10686
22,40928	11721
22,41372	12256
22,41817	11972
22,42260	12964
22,42705	11178
22,43148	12739
22,43593	12652
22,44037	13010
22,44482	14946
22,44925	18610
22,45370	21965
22,45813	28417
22,46258	36494
22,46702	48483
22,47147	63676
22,47590	91323
22,48035	119930
22,48478	159092
22,48923	209932
22,49367	267806
22,49812	335363
22,50255	405492
22,50700	493242
22,51143	577669
22,51588	673075
22,52033	768305
22,52477	880393
22,52922	980837
22,53365	1081403
22,53810	1187713
22,54253	1289469
22,54698	1364935
22,55142	1405919
22,55587	1404001
22,56030	1347335
22,56475	1265762
22,56918	1128348
22,57363	985788
22,57807	836218
22,58252	714905
22,58695	591107
22,59140	500082
22,59583	421148
22,60028	356153
22,60472	311612
22,60917	269135
22,61360	239333
22,61805	213722
22,62248	185428
22,62693	167494
22,63137	149628
22,63582	136005
22,64027	124198
22,64470	115828
22,64915	102597
22,65358	97417
22,65803	91140
22,66247	84100
22,66692	79304
22,67135	74691
22,67580	73578
22,68023	67763
22,68468	62739
22,68912	61691
22,69357	57931
22,69800	54688
22,70245	52965
22,70688	50499
22,71133	48666
22,71577	46471
22,72022	42265
22,72465	44083
22,72910	42791
22,73353	41439
22,73798	38884
22,74242	40144
22,74687	38087
22,75130	35934
22,75575	34007
22,76018	33822
22,76463	32201
22,76908	31428
22,77352	32241
22,77797	29490
22,78240	28260
22,78685	29646
22,79128	27338
22,79573	28502
22,80017	26660
22,80462	26524
22,80905	26001
22,81350	25484
22,81793	25768
22,82238	25791
22,82682	23587
22,83127	24067
22,83570	23745
22,84015	23550
22,84458	24782
22,84903	21470
22,85347	22105
22,85792	21808
22,86235	20977
22,86680	20798
22,87123	20868
22,87568	20827
22,88012	21023
22,88457	21081
22,88902	20431
22,89345	20197
22,89790	19764
22,90233	19017
22,90678	19236
22,91122	19680
22,91567	19400
22,92010	18486
22,92455	19304
22,92898	19053
22,93343	17980
22,93787	18395
22,94232	17156
22,94675	19737
22,95120	19210
22,95563	17504
22,96008	17691
22,96452	17027
22,96897	17671
22,97340	16586
22,97785	17048
22,98228	17684
22,98673	17369
22,99117	16382
22,99562	15906
23,00005	16903
23,00450	15813
23,00895	16128
23,01338	17190
23,01783	16258
23,02227	16746
23,02672	16857
23,03115	16471
23,03560	15242
23,04003	15137
23,04448	15961
23,04892	14143
23,05337	13713
23,05780	14862
23,06225	14682
23,06668	14856
23,07113	14505
23,07557	15091
23,08002	14865
23,08445	13067
23,08890	15134
23,09333	15752
23,09778	15169
23,10222	16194
23,10667	18841
23,11110	19533
23,11555	23731
23,11998	27957
23,12443	37593
23,12888	49201
23,13332	70826
23,13777	90481
23,14220	125284
23,14665	167770
23,15108	214979
23,15553	272710
23,15997	333559
23,16442	407692
23,16885	477877
23,17330	546277
23,17773	605526
23,18218	643050
23,18662	680799
23,19107	685444
23,19550	678653
23,19995	652892
23,20438	599661
23,20883	543195
23,21327	487950
23,21772	429370
23,22215	364161
23,22660	319020
23,23103	279231
23,23548	235374
23,23992	203486
23,24437	177682
23,24882	152073
23,25325	138502
23,25770	121668
23,26213	109942
23,26658	97240
23,27102	87816
23,27547	81015
23,27990	75558
23,28435	67175
23,28878	64333
23,29323	60108
23,29767	59124
23,30212	51676
23,30655	51095
23,31100	47254
23,31543	44715
23,31988	42204
23,32432	42463
23,32877	37105
23,33320	37319
23,33765	32872
23,34208	35319
23,34653	32725
23,35097	33078
23,35542	29611
23,35985	31453
23,36430	31373
23,36875	27874
23,37318	27226
23,37763	26206
23,38207	27878
23,38652	26203
23,39095	25879
23,39540	25606
23,39983	22894
23,40428	23935
23,40872	24249
23,41317	23428
23,41760	23834
23,42205	22281
23,42648	21534
23,43093	20784
23,43537	21404
23,43982	21882
23,44425	21140
23,44870	20092
23,45313	21518
23,45758	20439
23,46202	20816
23,46647	20703
23,47090	20587
23,47535	20429
23,47978	20136
23,48423	20952
23,48867	19492
23,49312	19733
23,49757	20698
23,50200	19662
23,50645	18531
23,51088	20086
23,51533	19769
23,51977	18787
23,52422	19153
23,52865	17218
23,53310	18141
23,53753	17554
23,54198	16490
23,54642	17171
23,55087	17273
23,55530	16245
23,55975	17610
23,56418	15733
23,56863	15665
23,57307	16480
23,57752	16513
23,58195	14666
23,58640	15635
23,59083	14935
23,59528	15536
23,59972	15995
23,60417	14702
23,60860	14966
23,61305	14634
23,61750	15185
23,62193	13974
23,62638	14893
23,63082	14758
23,63527	14751
23,63970	13493
23,64415	14205
23,64858	15219
23,65303	13783
23,65747	14476
23,66192	14274
23,66635	14026
23,67080	14831
23,67523	14553
23,67968	13785
23,68412	14479
23,68857	15346
23,69300	15584
23,69745	13480
23,70188	13369
23,70633	14565
23,71077	15213
23,71522	14740
23,71965	15000
23,72410	14898
23,72853	12445
23,73298	14053
23,73743	14152
23,74187	16207
23,74632	15127
23,75075	13846
23,75520	14102
23,75963	13743
23,76408	14370
23,76852	15279
23,77297	15031
23,77740	14457
23,78185	14994
23,78628	14285
23,79073	14184
23,79517	14466
23,79962	15044
23,80405	14546
23,80850	13558
23,81293	14693
23,81738	14476
23,82182	13815
23,82627	13394
23,83070	14052
23,83515	13567
23,83958	13951
23,84403	14089
23,84847	14146
23,85292	14323
23,85737	13217
23,86180	14687
23,86625	13331
23,87068	15065
23,87513	13674
23,87957	13551
23,88402	14270
23,88845	15419
23,89290	14246
23,89733	13311
23,90178	14673
23,90622	14294
23,91067	14280
23,91510	13214
23,91955	13628
23,92398	12726
23,92843	13592
23,93287	12236
23,93732	14544
23,94175	12426
23,94620	13905
23,95063	13699
23,95508	13218
23,95952	13133
23,96397	15349
23,96840	14196
23,97285	13328
23,97730	12914
23,98173	14042
23,98618	12814
23,99062	12396
23,99507	14665
23,99950	12187
24,00395	13625
24,00838	13099
24,01283	13535
24,01727	13013
24,02172	14830
24,02615	12813
24,03060	13765
24,03503	12128
24,03948	13354
24,04392	13371
24,04837	14708
24,05280	12745
24,05725	14160
24,06168	13332
24,06613	14629
24,07057	14419
24,07502	13364
24,07945	12641
24,08390	14355
24,08833	14361
24,09278	12308
24,09722	12328
24,10167	13378
24,10612	13447
24,11055	13069
24,11500	13755
24,11943	12786
24,12388	13832
24,12832	13241
24,13277	12913
24,13720	12757
24,14165	13341
24,14608	13203
24,15053	14680
24,15497	14010
24,15942	13285
24,16385	13926
24,16830	14030
24,17273	13449
24,17718	14459
24,18162	13153
24,18607	14568
24,19050	13638
24,19495	14479
24,19938	14329
24,20383	12828
24,20827	12572
24,21272	12505
24,21715	14490
24,22160	13686
24,22605	13880
24,23048	13989
24,23493	12290
24,23937	13816
24,24382	13434
24,24825	13892
24,25270	12726
24,25713	14926
24,26158	13941
24,26602	14457
24,27047	12512
24,27490	12804
24,27935	13802
24,28378	12424
24,28823	12709
24,29267	13469
24,29712	13834
24,30155	14084
24,30600	11513
24,31043	14453
24,31488	12326
24,31932	12781
24,32377	14015
24,32820	13089
24,33265	14270
24,33708	12334
24,34153	14059
24,34598	12441
24,35042	12171
24,35487	12804
24,35930	14582
24,36375	13044
24,36818	13517
24,37263	12508
24,37707	13937
24,38152	14089
24,38595	13562
24,39040	12813
24,39483	13473
24,39928	13269
24,40372	12719
24,40817	13014
24,41260	12358
24,41705	13235
24,42148	12766
24,42593	13153
24,43037	13259
24,43482	14853
24,43925	13542
24,44370	14552
24,44813	13573
24,45258	13089
24,45702	12980
24,46147	12769
24,46592	12585
24,47035	13314
24,47480	13608
24,47923	13434
24,48368	12955
24,48812	12843
24,49257	12947
24,49700	12611
24,50145	14326
24,50588	12514
24,51033	13885
24,51477	13964
24,51922	12716
24,52365	14956
24,52810	13277
24,53253	13589
24,53698	13798
24,54142	14429
24,54587	13609
24,55030	13865
24,55475	14308
24,55918	13951
24,56363	13665
24,56807	15328
24,57252	13045
24,57695	13690
24,58140	14460
24,58585	13035
24,59028	13131
24,59473	15029
24,59917	12917
24,60362	14351
24,60805	14214
24,61250	14757
24,61693	13935
24,62138	14586
24,62582	13465
24,63027	13813
24,63470	15397
24,63915	14010
24,64358	12789
24,64803	15308
24,65247	16409
24,65692	14867
24,66135	16029
24,66580	15125
24,67023	15741
24,67468	16844
24,67912	13741
24,68357	16621
24,68800	16101
24,69245	15501
24,69688	15474
24,70133	14246
24,70578	12997
24,71022	13929
24,71467	13737
24,71910	14171
24,72355	15400
24,72798	13985
24,73243	13623
24,73687	13298
24,74132	13081
24,74575	12987
24,75020	14088
24,75463	14568
24,75908	14136
24,76352	13897
24,76797	14051
24,77240	13694
24,77685	14054
24,78128	13218
24,78573	15165
24,79017	14614
24,79462	13966
24,79905	14060
24,80350	14300
24,80793	14306
24,81238	13217
24,81682	12992
24,82127	13796
24,82570	12781
24,83015	14893
24,83460	13804
24,83903	14155
24,84348	14430
24,84792	14372
24,85237	16971
24,85680	18799
24,86125	22250
24,86568	29534
24,87013	35459
24,87457	48198
24,87902	62150
24,88345	84284
24,88790	115434
24,89233	150036
24,89678	190235
24,90122	230445
24,90567	274738
24,91010	319986
24,91455	360230
24,91898	391082
24,92343	403633
24,92787	423630
24,93232	423245
24,93675	405639
24,94120	387399
24,94563	355010
24,95008	325226
24,95453	290023
24,95897	257736
24,96342	222486
24,96785	197084
24,97230	171258
24,97673	146948
24,98118	128528
24,98562	109807
24,99007	99209
24,99450	85590
24,99895	79879
25,00338	69992
25,00783	62659
25,01227	56994
25,01672	52358
25,02115	49494
25,02560	43411
25,03003	40389
25,03448	38646
25,03892	37979
25,04337	35952
25,04780	32928
25,05225	31572
25,05668	31997
25,06113	29906
25,06557	29421
25,07002	27711
25,07447	27113
25,07890	25421
25,08335	25183
25,08778	23135
25,09223	24589
25,09667	24187
25,10112	23548
25,10555	23722
25,11000	22309
25,11443	21048
25,11888	21333
25,12332	20009
25,12777	20979
25,13220	21753
25,13665	21158
25,14108	19623
25,14553	19693
25,14997	21789
25,15442	20950
25,15885	21795
25,16330	19620
25,16773	21150
25,17218	20222
25,17662	17937
25,18107	18765
25,18550	19944
25,18995	17834
25,19440	19260
25,19883	20079
25,20328	19492
25,20772	19287
25,21217	18962
25,21660	19212
25,22105	17768
25,22548	16455
25,22993	17329
25,23437	17528
25,23882	17715
25,24325	17158
25,24770	16320
25,25213	18108
25,25658	17184
25,26102	17139
25,26547	15125
25,26990	16113
25,27435	15537
25,27878	17349
25,28323	15169
25,28767	16687
25,29212	16517
25,29655	14599
25,30100	16875
25,30543	15125
25,30988	16845
25,31433	15779
25,31877	16038
25,32322	17616
25,32765	16366
25,33210	14812
25,33653	16217
25,34098	15768
25,34542	15723
25,34987	16300
25,35430	14905
25,35875	16189
25,36318	15064
25,36763	15137
25,37207	15730
25,37652	15470
25,38095	15055
25,38540	15086
25,38983	15496
25,39428	15537
25,39872	15610
25,40317	16754
25,40760	15769
25,41205	15909
25,41648	15228
25,42093	17169
25,42537	16059
25,42982	16764
25,43427	15625
25,43870	16153
25,44315	16341
25,44758	16178
25,45203	17270
25,45647	17366
25,46092	15827
25,46535	17175
25,46980	15962
25,47423	16492
25,47868	15761
25,48312	16737
25,48757	15530
25,49200	16670
25,49645	17560
25,50088	16190
25,50533	16727
25,50977	15504
25,51422	16536
25,51865	16939
25,52310	16565
25,52753	16806
25,53198	18153
25,53642	17099
25,54087	17788
25,54530	17987
25,54975	17794
25,55418	17516
25,55863	17122
25,56308	18971
25,56752	18364
25,57197	16389
25,57640	18105
25,58085	18492
25,58528	18037
25,58973	16159
25,59417	18518
25,59862	18111
25,60305	18282
25,60750	16977
25,61193	17080
25,61638	18139
25,62082	16828
25,62527	15664
25,62970	17197
25,63415	16887
25,63858	17994
25,64303	17012
25,64747	16543
25,65192	16429
25,65635	16945
25,66080	16914
25,66523	15925
25,66968	16160
25,67412	14119
25,67857	16792
25,68302	16771
25,68745	15234
25,69190	15942
25,69633	15862
25,70078	16826
25,70522	16361
25,70967	17101
25,71410	16126
25,71855	16340
25,72298	16443
25,72743	15651
25,73187	15624
25,73632	16575
25,74075	16497
25,74520	15496
25,74963	15129
25,75408	14754
25,75852	17361
25,76297	16069
25,76740	15491
25,77185	15784
25,77628	18962
25,78073	17288
25,78517	17887
25,78962	16129
25,79405	17495
25,79850	17812
25,80295	16184
25,80738	16465
25,81183	15298
25,81627	18684
25,82072	17058
25,82515	16647
25,82960	17314
25,83403	17191
25,83848	16268
25,84292	16905
25,84737	16744
25,85180	15628
25,85625	16900
25,86068	17034
25,86513	17876
25,86957	17139
25,87402	16978
25,87845	15043
25,88290	16883
25,88733	17326
25,89178	15727
25,89622	16069
25,90067	17173
25,90510	17019
25,90955	17959
25,91398	16284
25,91843	17108
25,92288	16950
25,92732	16801
25,93177	14723
25,93620	16400
25,94065	16965
25,94508	16354
25,94953	16395
25,95397	17208
25,95842	16685
25,96285	17105
25,96730	16552
25,97173	15725
25,97618	17658
25,98062	17223
25,98507	16768
25,98950	16124
25,99395	17602
25,99838	16013
26,00283	16744
26,00727	16825
26,01172	18400
26,01615	17517
26,02060	18420
26,02503	15638
26,02948	17349
26,03392	18434
26,03837	17611
26,04282	18665
26,04725	18234
26,05170	18646
26,05613	18286
26,06058	18264
26,06502	20271
26,06947	17727
26,07390	17631
26,07835	18202
26,08278	18815
26,08723	18451
26,09167	18065
26,09612	17079
26,10055	17137
26,10500	17373
26,10943	18451
26,11388	18475
26,11832	17745
26,12277	17218
26,12720	18145
26,13165	16373
26,13608	16991
26,14053	16655
26,14497	17151
26,14942	17101
26,15385	17343
26,15830	18126
26,16275	17570
26,16718	17267
26,17163	16956
26,17607	17371
26,18052	18525
26,18495	17210
26,18940	17255
26,19383	17553
26,19828	17316
26,20272	15785
26,20717	17200
26,21160	15019
26,21605	15533
26,22048	17096
26,22493	16805
26,22937	16166
26,23382	16580
26,23825	17050
26,24270	16030
26,24713	15297
26,25158	15566
26,25602	16514
26,26047	17015
26,26490	17349
26,26935	16988
26,27378	17565
26,27823	17726
26,28267	16377
26,28712	16167
26,29157	17391
26,29600	17742
26,30045	16773
26,30488	17654
26,30933	17919
26,31377	17194
26,31822	16922
26,32265	16793
26,32710	17065
26,33153	17170
26,33598	17347
26,34042	17902
26,34487	17370
26,34930	16800
26,35375	17595
26,35818	17151
26,36263	17140
26,36707	16193
26,37152	17788
26,37595	16770
26,38040	16828
26,38483	17671
26,38928	16428
26,39372	16682
26,39817	17146
26,40260	17811
26,40705	17698
26,41150	17813
26,41593	17113
26,42038	19317
26,42482	18364
26,42927	16900
26,43370	17998
26,43815	19747
26,44258	16520
26,44703	18445
26,45147	19063
26,45592	16657
26,46035	18440
26,46480	18523
26,46923	17891
26,47368	18206
26,47812	17459
26,48257	18343
26,48700	16272
26,49145	18573
26,49588	18318
26,50033	17857
26,50477	18388
26,50922	17667
26,51365	17877
26,51810	16947
26,52253	17197
26,52698	16753
26,53143	17570
26,53587	17175
26,54032	18195
26,54475	18022
26,54920	17814
26,55363	18154
26,55808	19009
26,56252	18592
26,56697	18797
26,57140	20073
26,57585	18600
26,58028	20933
26,58473	20010
26,58917	19736
26,59362	21416
26,59805	19498
26,60250	19093
26,60693	21220
26,61138	19144
26,61582	19533
26,62027	19502
26,62470	19084
26,62915	17306
26,63358	19099
26,63803	20857
26,64247	20899
26,64692	19205
26,65137	19335
26,65580	20570
26,66025	19754
26,66468	18199
26,66913	18382
26,67357	18686
26,67802	19379
26,68245	19248
26,68690	19024
26,69133	18180
26,69578	18693
26,70022	18607
26,70467	18866
26,70910	17635
26,71355	18961
26,71798	17393
26,72243	19285
26,72687	17444
26,73132	18794
26,73575	19537
26,74020	18663
26,74463	17941
26,74908	18151
26,75352	17436
26,75797	18384
26,76240	18577
26,76685	19563
26,77130	19498
26,77573	17158
26,78018	20191
26,78462	18802
26,78907	18943
26,79350	18106
26,79795	20028
26,80238	19639
26,80683	17845
26,81127	19123
26,81572	19241
26,82015	19872
26,82460	18734
26,82903	17839
26,83348	18118
26,83792	17478
26,84237	19300
26,84680	18916
26,85125	18473
26,85568	18615
26,86013	18699
26,86457	17713
26,86902	18904
26,87345	19041
26,87790	19181
26,88233	20396
26,88678	18436
26,89123	18956
26,89567	20379
26,90012	18399
26,90455	17622
26,90900	19183
26,91343	18251
26,91788	19026
26,92232	18921
26,92677	19915
26,93120	19634
26,93565	19096
26,94008	18096
26,94453	20206
26,94897	18315
26,95342	18845
26,95785	20405
26,96230	19302
26,96673	19156
26,97118	20062
26,97562	19347
26,98007	20548
26,98450	20828
26,98895	19364
26,99338	19712
26,99783	19832
27,00227	19702
27,00672	18820
27,01115	21015
27,01560	20997
27,02005	20400
27,02448	20893
27,02893	19668
27,03337	19165
27,03782	19550
27,04225	18896
27,04670	19387
27,05113	21548
27,05558	20744
27,06002	18914
27,06447	19981
27,06890	20965
27,07335	19252
27,07778	21027
27,08223	20226
27,08667	21664
27,09112	19496
27,09555	20295
27,10000	19969
27,10443	20369
27,10888	19480
27,11332	19947
27,11777	20588
27,12220	20311
27,12665	18425
27,13108	18352
27,13553	19633
27,13998	20226
27,14442	19240
27,14887	19584
27,15330	21135
27,15775	20708
27,16218	20023
27,16663	19643
27,17107	21271
27,17552	18875
27,17995	21524
27,18440	19259
27,18883	20094
27,19328	18589
27,19772	19926
27,20217	19358
27,20660	21230
27,21105	19956
27,21548	21162
27,21993	20054
27,22437	20803
27,22882	20905
27,23325	19373
27,23770	20963
27,24213	19889
27,24658	21354
27,25102	18889
27,25547	19264
27,25992	20414
27,26435	19949
27,26880	21818
27,27323	21571
27,27768	19201
27,28212	20158
27,28657	21275
27,29100	20984
27,29545	21106
27,29988	21144
27,30433	20952
27,30877	21450
27,31322	20720
27,31765	21126
27,32210	20639
27,32653	22109
27,33098	21875
27,33542	23510
27,33987	20769
27,34430	21748
27,34875	24082
27,35318	23158
27,35763	22088
27,36207	23564
27,36652	25912
27,37095	22969
27,37540	25836
27,37985	24488
27,38428	24965
27,38873	24338
27,39317	24155
27,39762	24024
27,40205	24373
27,40650	25966
27,41093	24765
27,41538	24627
27,41982	24201
27,42427	22554
27,42870	24601
27,43315	24119
27,43758	24593
27,44203	22836
27,44647	23212
27,45092	22622
27,45535	22789
27,45980	22983
27,46423	22626
27,46868	21059
27,47312	24135
27,47757	23466
27,48200	22582
27,48645	22834
27,49088	23298
27,49533	21488
