D:\MassHunter\GCMS\1\data\Amal\Constant flow\80C\80C_1ml-min_10C-min_1.D Thu Aug 01 19:03:44 2024
Start of data points
6,24085	18526
6,24497	20368
6,24908	17677
6,25322	17630
6,25733	17980
6,26145	18073
6,26557	17089
6,26970	16624
6,27382	16820
6,27793	16875
6,28207	16627
6,28618	16578
6,29030	15732
6,29443	15619
6,29855	14794
6,30267	14868
6,30680	15005
6,31092	14644
6,31503	14954
6,31917	14429
6,32328	15223
6,32740	15268
6,33153	14022
6,33565	14636
6,33977	14728
6,34390	15279
6,34802	14469
6,35213	15249
6,35625	13400
6,36038	13906
6,36450	12956
6,36862	13304
6,37275	15092
6,37687	13708
6,38098	13534
6,38512	13579
6,38923	13046
6,39335	11878
6,39748	13513
6,40160	13360
6,40572	12413
6,40985	13372
6,41397	13190
6,41808	13454
6,42222	13737
6,42633	12182
6,43045	12203
6,43458	12949
6,43870	13003
6,44282	12896
6,44693	11422
6,45107	12095
6,45518	11873
6,45930	12442
6,46343	12337
6,46755	12452
6,47167	11792
6,47580	12302
6,47992	11761
6,48403	12144
6,48817	11168
6,49228	12715
6,49640	12118
6,50053	12258
6,50465	11734
6,50877	11756
6,51290	12007
6,51702	12370
6,52113	11974
6,52527	11956
6,52938	11215
6,53350	11104
6,53762	11669
6,54175	12212
6,54587	11668
6,54998	11723
6,55412	11216
6,55823	12319
6,56235	11038
6,56648	11345
6,57060	11634
6,57472	11671
6,57885	11397
6,58297	11151
6,58708	11488
6,59122	12057
6,59533	11099
6,59945	11234
6,60358	11281
6,60770	10738
6,61182	11462
6,61595	11297
6,62007	10676
6,62418	10891
6,62830	11153
6,63243	10617
6,63655	10227
6,64067	11465
6,64480	10381
6,64892	10605
6,65303	10203
6,65717	9980
6,66128	10054
6,66540	10196
6,66953	9427
6,67365	9604
6,67777	9488
6,68190	9969
6,68602	10284
6,69013	9993
6,69427	9531
6,69838	8792
6,70250	10275
6,70663	9847
6,71075	9623
6,71487	8862
6,71898	10767
6,72312	9591
6,72723	10173
6,73135	10233
6,73548	9764
6,73960	9133
6,74372	10620
6,74785	8674
6,75197	9098
6,75608	9709
6,76022	9274
6,76433	9839
6,76845	9142
6,77258	9542
6,77670	9178
6,78082	8687
6,78495	8927
6,78907	9077
6,79318	8626
6,79732	9197
6,80143	10172
6,80555	8430
6,80967	10161
6,81380	9767
6,81792	8786
6,82203	8972
6,82617	9454
6,83028	9130
6,83440	9517
6,83853	9198
6,84265	9128
6,84677	10104
6,85090	9430
6,85502	9304
6,85913	9279
6,86327	9614
6,86738	10512
6,87150	11340
6,87563	10630
6,87975	12633
6,88387	11887
6,88800	11267
6,89212	10741
6,89623	10343
6,90035	11303
6,90448	11276
6,90860	10485
6,91272	10437
6,91685	10042
6,92097	9926
6,92508	9744
6,92922	9368
6,93333	9668
6,93745	9547
6,94158	10457
6,94570	8593
6,94982	9438
6,95395	9506
6,95807	8734
6,96218	8593
6,96632	8737
6,97043	9211
6,97455	9517
6,97868	8049
6,98280	9077
6,98692	8922
6,99103	9108
6,99517	9312
6,99928	8021
7,00340	8276
7,00753	8281
7,01165	8447
7,01577	7834
7,01990	9018
7,02402	8639
7,02813	8852
7,03227	8634
7,03638	8325
7,04050	8873
7,04463	7782
7,04875	8649
7,05287	8834
7,05700	8764
7,06112	8942
7,06523	8674
7,06937	9147
7,07348	9136
7,07760	8677
7,08172	8551
7,08585	8628
7,08997	8153
7,09408	8125
7,09822	8515
7,10233	8612
7,10645	8705
7,11058	8095
7,11470	9061
7,11882	8415
7,12295	8467
7,12707	8220
7,13118	8717
7,13532	7994
7,13943	7904
7,14355	9516
7,14768	8728
7,15180	8336
7,15592	8936
7,16005	9288
7,16417	7497
7,16828	8417
7,17240	7017
7,17653	8578
7,18065	8737
7,18477	7627
7,18890	8638
7,19302	7701
7,19713	8442
7,20127	8436
7,20538	8172
7,20950	8793
7,21363	8635
7,21775	8814
7,22187	7581
7,22600	7466
7,23012	8915
7,23423	7309
7,23837	7865
7,24248	6789
7,24660	7542
7,25073	7838
7,25485	7662
7,25897	8126
7,26308	8666
7,26722	7452
7,27133	7251
7,27545	8592
7,27958	8942
7,28370	10579
7,28782	14669
7,29195	21219
7,29607	33312
7,30018	49876
7,30432	74062
7,30843	102636
7,31255	134640
7,31668	164929
7,32080	189974
7,32492	208068
7,32905	219203
7,33317	212032
7,33728	207594
7,34142	198103
7,34553	180979
7,34965	164641
7,35377	147398
7,35790	126128
7,36202	109694
7,36613	94042
7,37027	79260
7,37438	69663
7,37850	58579
7,38263	49295
7,38675	41974
7,39087	35677
7,39500	31429
7,39912	27022
7,40323	23647
7,40737	20008
7,41148	19148
7,41560	17892
7,41973	15626
7,42385	14669
7,42797	12507
7,43210	12674
7,43622	11486
7,44033	11427
7,44445	11073
7,44858	9958
7,45270	10210
7,45682	9299
7,46095	9079
7,46507	8889
7,46918	9215
7,47332	9880
7,47743	8719
7,48155	8621
7,48568	7989
7,48980	8319
7,49392	7229
7,49805	8133
7,50217	8283
7,50628	7679
7,51042	7814
7,51453	7888
7,51865	6988
7,52278	7938
7,52690	8025
7,53102	8778
7,53513	7599
7,53927	8363
7,54338	8688
7,54750	8815
7,55163	10991
7,55575	11300
7,55987	11330
7,56400	11450
7,56812	13120
7,57223	12122
7,57637	10366
7,58048	9585
7,58460	8355
7,58873	8824
7,59285	7849
7,59697	7818
7,60110	7391
7,60522	6031
7,60933	6977
7,61347	7468
7,61758	7035
7,62170	6451
7,62583	6318
7,62995	7186
7,63407	7087
7,63818	6768
7,64232	6474
7,64643	6310
7,65055	6890
7,65468	6876
7,65880	7333
7,66292	7430
7,66705	6441
7,67117	6278
7,67528	6919
7,67942	7008
7,68353	6342
7,68765	6734
7,69178	6391
7,69590	6609
7,70002	6289
7,70415	6535
7,70827	6954
7,71238	7253
7,71652	6517
7,72063	6508
7,72475	6188
7,72887	6140
7,73300	6278
7,73712	6166
7,74123	5387
7,74537	7460
7,74948	6257
7,75360	5872
7,75773	5793
7,76185	6378
7,76597	6383
7,77010	6230
7,77422	6433
7,77833	6700
7,78247	6272
7,78658	6869
7,79070	7040
7,79483	6758
7,79895	7356
7,80307	7112
7,80720	6704
7,81132	8058
7,81543	6222
7,81955	6580
7,82368	6854
7,82780	6324
7,83192	7035
7,83605	6832
7,84017	5898
7,84428	6104
7,84842	6627
7,85253	7117
7,85665	6395
7,86078	6068
7,86490	6261
7,86902	6298
7,87315	6846
7,87727	6395
7,88138	5802
7,88552	5761
7,88963	6279
7,89375	5952
7,89788	6578
7,90200	5718
7,90612	6413
7,91023	7254
7,91437	5718
7,91848	7391
7,92260	6188
7,92673	6207
7,93085	5840
7,93497	6048
7,93910	6489
7,94322	6884
7,94733	6793
7,95147	6231
7,95558	5502
7,95970	5889
7,96383	5925
7,96795	6352
7,97207	6312
7,97620	5982
7,98032	5718
7,98443	5376
7,98857	6750
7,99268	5323
7,99680	5700
8,00092	6050
8,00505	5924
8,00917	5918
8,01328	5556
8,01742	6239
8,02153	5560
8,02565	5570
8,02978	5428
8,03390	5797
8,03802	5756
8,04215	4994
8,04627	5202
8,05038	5570
8,05452	5750
8,05863	5095
8,06275	5901
8,06688	5724
8,07100	5685
8,07512	5337
8,07925	6265
8,08337	5700
8,08748	5604
8,09160	5545
8,09573	5310
8,09985	7041
8,10397	5066
8,10810	5723
8,11222	6269
8,11633	5510
8,12047	5363
8,12458	5818
8,12870	5942
8,13283	7553
8,13695	6905
8,14107	6776
8,14520	6448
8,14932	6373
8,15343	6925
8,15757	6672
8,16168	7105
8,16580	7043
8,16993	5859
8,17405	6067
8,17817	6660
8,18228	6407
8,18642	5689
8,19053	5004
8,19465	5305
8,19878	5249
8,20290	6452
8,20702	5028
8,21115	5554
8,21527	5317
8,21938	5637
8,22352	5035
8,22763	6190
8,23175	5605
8,23588	5450
8,24000	5463
8,24412	5082
8,24825	6016
8,25237	5419
8,25648	5420
8,26062	6432
8,26473	6999
8,26885	7083
8,27297	7869
8,27710	8243
8,28122	9477
8,28533	9837
8,28947	11052
8,29358	11031
8,29770	10503
8,30183	10682
8,30595	10034
8,31007	10323
8,31420	8151
8,31832	8904
8,32243	8103
8,32657	8072
8,33068	6919
8,33480	6426
8,33893	6647
8,34305	6160
8,34717	6500
8,35130	6782
8,35542	6442
8,35953	5801
8,36365	5172
8,36778	5455
8,37190	5513
8,37602	5021
8,38015	5923
8,38427	5302
8,38838	5156
8,39252	5088
8,39663	5786
8,40075	5559
8,40488	5518
8,40900	5361
8,41312	5417
8,41725	5596
8,42137	5036
8,42548	5266
8,42962	5080
8,43373	5341
8,43785	5135
8,44198	5195
8,44610	5297
8,45022	4943
8,45433	5451
8,45847	5167
8,46258	5369
8,46670	5584
8,47083	5050
8,47495	5640
8,47907	5699
8,48320	5282
8,48732	6030
8,49143	5839
8,49557	4919
8,49968	5220
8,50380	5222
8,50793	5445
8,51205	5475
8,51617	5489
8,52030	5299
8,52442	5634
8,52853	5363
8,53267	5054
8,53678	4882
8,54090	4736
8,54502	4910
8,54915	5025
8,55327	5640
8,55738	4707
8,56152	4894
8,56563	3906
8,56975	4740
8,57388	4893
8,57800	5325
8,58212	5309
8,58625	4543
8,59037	4840
8,59448	5493
8,59862	4596
8,60273	4557
8,60685	4921
8,61098	5530
8,61510	4929
8,61922	5216
8,62335	4700
8,62747	4101
8,63158	5293
8,63570	5178
8,63983	5900
8,64395	4292
8,64807	4959
8,65220	4517
8,65632	4779
8,66043	4652
8,66457	5039
8,66868	4694
8,67280	4747
8,67693	5681
8,68105	4898
8,68517	4638
8,68930	5159
8,69342	4949
8,69753	5212
8,70167	5310
8,70578	5228
8,70990	5132
8,71403	5322
8,71815	5512
8,72227	5759
8,72638	5675
8,73052	5673
8,73463	5376
8,73875	5458
8,74288	5747
8,74700	5528
8,75112	5351
8,75525	4796
8,75937	5013
8,76348	5190
8,76762	4611
8,77173	4813
8,77585	4959
8,77998	5319
8,78410	5525
8,78822	5252
8,79235	5343
8,79647	4546
8,80058	5700
8,80472	4595
8,80883	5358
8,81295	5564
8,81707	4824
8,82120	5151
8,82532	4687
8,82943	4494
8,83357	4796
8,83768	4791
8,84180	4562
8,84593	4944
8,85005	5126
8,85417	4601
8,85830	5220
8,86242	5475
8,86653	5536
8,87067	4669
8,87478	4925
8,87890	5507
8,88303	4408
8,88715	5232
8,89127	4266
8,89540	5268
8,89952	4401
8,90363	3836
8,90775	4632
8,91188	4934
8,91600	5502
8,92012	4640
8,92425	4381
8,92837	5081
8,93248	3613
8,93662	4346
8,94073	3757
8,94485	5478
8,94898	7911
8,95310	11989
8,95722	24142
8,96135	49419
8,96547	93337
8,96958	163688
8,97372	278421
8,97783	429540
8,98195	607765
8,98608	803265
8,99020	969437
8,99432	1106499
8,99843	1164695
9,00257	1165218
9,00668	1094355
9,01080	971578
9,01493	817581
9,01905	669898
9,02317	520453
9,02730	399442
9,03142	302208
9,03553	231872
9,03967	178462
9,04378	135076
9,04790	109551
9,05203	86359
9,05615	69109
9,06027	57454
9,06440	48849
9,06852	41736
9,07263	37801
9,07677	33882
9,08088	29490
9,08500	25854
9,08912	23755
9,09325	21437
9,09737	20455
9,10148	18875
9,10562	17169
9,10973	14892
9,11385	14714
9,11798	13789
9,12210	12397
9,12622	12663
9,13035	11474
9,13447	11456
9,13858	10797
9,14272	10327
9,14683	10125
9,15095	9557
9,15508	8665
9,15920	8057
9,16332	8477
9,16745	8808
9,17157	7320
9,17568	7933
9,17980	7648
9,18393	7822
9,18805	6867
9,19217	6486
9,19630	6850
9,20042	5682
9,20453	6289
9,20867	6250
9,21278	5478
9,21690	6306
9,22103	6188
9,22515	5696
9,22927	5752
9,23340	5857
9,23752	5451
9,24163	5570
9,24577	5732
9,24988	5618
9,25400	5823
9,25813	5305
9,26225	5363
9,26637	5937
9,27050	5622
9,27462	6073
9,27873	6440
9,28285	5300
9,28698	5630
9,29110	6557
9,29522	5686
9,29935	6318
9,30347	5247
9,30758	6051
9,31172	6001
9,31583	6705
9,31995	6743
9,32408	8260
9,32820	9870
9,33232	9586
9,33645	9750
9,34057	9583
9,34468	7350
9,34882	6360
9,35293	5541
9,35705	5288
9,36118	5152
9,36530	5132
9,36942	5463
9,37353	5560
9,37767	5608
9,38178	6093
9,38590	5177
9,39003	5139
9,39415	4819
9,39827	3821
9,40240	4450
9,40652	5125
9,41063	4775
9,41477	5472
9,41888	4680
9,42300	4368
9,42713	5307
9,43125	4495
9,43537	4622
9,43950	3698
9,44362	5189
9,44773	3634
9,45187	3971
9,45598	4490
9,46010	3659
9,46422	3999
9,46835	4495
9,47247	4642
9,47658	3915
9,48072	3772
9,48483	4877
9,48895	4827
9,49308	4733
9,49720	4938
9,50132	4378
9,50545	4558
9,50957	4277
9,51368	4695
9,51782	4803
9,52193	4928
9,52605	5433
9,53018	4074
9,53430	3560
9,53842	4226
9,54255	4311
9,54667	3547
9,55078	3912
9,55490	3347
9,55903	4042
9,56315	3351
9,56727	4194
9,57140	3698
9,57552	3953
9,57963	4133
9,58377	4453
9,58788	3718
9,59200	4128
9,59613	4106
9,60025	3607
9,60437	4134
9,60850	4676
9,61262	4333
9,61673	4389
9,62087	4755
9,62498	4793
9,62910	4857
9,63323	4720
9,63735	4540
9,64147	4025
9,64558	4504
9,64972	5028
9,65383	3763
9,65795	4293
9,66208	4509
9,66620	4172
9,67032	5113
9,67445	3852
9,67857	4652
9,68268	4340
9,68682	4362
9,69093	5183
9,69505	3993
9,69918	4585
9,70330	3412
9,70742	3812
9,71155	4226
9,71567	3979
9,71978	4924
9,72392	3380
9,72803	3106
9,73215	3927
9,73627	4288
9,74040	3937
9,74452	4678
9,74863	3887
9,75277	3916
9,75688	3146
9,76100	3465
9,76513	3755
9,76925	3590
9,77337	3324
9,77750	3821
9,78162	4481
9,78573	3940
9,78987	3473
9,79398	3759
9,79810	4346
9,80223	4742
9,80635	4992
9,81047	7685
9,81460	13522
9,81872	27319
9,82283	53462
9,82695	98928
9,83108	174435
9,83520	277530
9,83932	400600
9,84345	538040
9,84757	650913
9,85168	731118
9,85582	758406
9,85993	731835
9,86405	670863
9,86818	572052
9,87230	459209
9,87642	362533
9,88055	275388
9,88467	209674
9,88878	150035
9,89292	111370
9,89703	87741
9,90115	66722
9,90528	52711
9,90940	43856
9,91352	37107
9,91763	31975
9,92177	26798
9,92588	25146
9,93000	22100
9,93413	20845
9,93825	20715
9,94237	17258
9,94650	16650
9,95062	15356
9,95473	16159
9,95887	14098
9,96298	13878
9,96710	12484
9,97123	12215
9,97535	11224
9,97947	11001
9,98360	9900
9,98772	9473
9,99183	9135
9,99597	7358
10,00008	7807
10,00420	6625
10,00832	7232
10,01245	7023
10,01657	5762
10,02068	5966
10,02482	6515
10,02893	6804
10,03305	5544
10,03718	5701
10,04130	5512
10,04542	5267
10,04955	5587
10,05367	4895
10,05778	4168
10,06192	4923
10,06603	4008
10,07015	4427
10,07428	4602
10,07840	4704
10,08252	3815
10,08665	4389
10,09077	4043
10,09488	4798
10,09900	3868
10,10313	4454
10,10725	4192
10,11137	3870
10,11550	3631
10,11962	4022
10,12373	3912
10,12787	4125
10,13198	4240
10,13610	4768
10,14023	4107
10,14435	3778
10,14847	4220
10,15260	5164
10,15672	4774
10,16083	5541
10,16497	6481
10,16908	6776
10,17320	6720
10,17733	7403
10,18145	7219
10,18557	6804
10,18968	6592
10,19382	6107
10,19793	4168
10,20205	4737
10,20618	3320
10,21030	4076
10,21442	4113
10,21855	3613
10,22267	4147
10,22678	3256
10,23092	4258
10,23503	4011
10,23915	3916
10,24328	3574
10,24740	3172
10,25152	3790
10,25565	2821
10,25977	3182
10,26388	3471
10,26802	3462
10,27213	3372
10,27625	3435
10,28037	2819
10,28450	3423
10,28862	3295
10,29273	4146
10,29687	3738
10,30098	3711
10,30510	2979
10,30923	3914
10,31335	3683
10,31747	2860
10,32160	4024
10,32572	3351
10,32983	3029
10,33397	2770
10,33808	2875
10,34220	3445
10,34633	3104
10,35045	2548
10,35457	3175
10,35870	3174
10,36282	3246
10,36693	3407
10,37105	2994
10,37518	3059
10,37930	3403
10,38342	2776
10,38755	3006
10,39167	3972
10,39578	3573
10,39992	3766
10,40403	3491
10,40815	3381
10,41228	3043
10,41640	3417
10,42052	3195
10,42465	3674
10,42877	3831
10,43288	3067
10,43702	3469
10,44113	3388
10,44525	3570
10,44938	3068
10,45350	3861
10,45762	3098
10,46173	4154
10,46587	3262
10,46998	3215
10,47410	2632
10,47823	2398
10,48235	3040
10,48647	3283
10,49060	3217
10,49472	2998
10,49883	2808
10,50297	3496
10,50708	2928
10,51120	3782
10,51533	3540
10,51945	3200
10,52357	4518
10,52770	3424
10,53182	3609
10,53593	5030
10,54007	3816
10,54418	3633
10,54830	3366
10,55242	3331
10,55655	2653
10,56067	2745
10,56478	3574
10,56892	3057
10,57303	2872
10,57715	3526
10,58128	3656
10,58540	3720
10,58952	3506
10,59365	3454
10,59777	3655
10,60188	4361
10,60602	4269
10,61013	4438
10,61425	4219
10,61838	3661
10,62250	4103
10,62662	3394
10,63075	4093
10,63487	3450
10,63898	2832
10,64310	3784
10,64723	4370
10,65135	8072
10,65547	17733
10,65960	40695
10,66372	89216
10,66783	173361
10,67197	319958
10,67608	523019
10,68020	804274
10,68433	1109795
10,68845	1415365
10,69257	1657684
10,69670	1781440
10,70082	1781961
10,70493	1624717
10,70907	1377105
10,71318	1108536
10,71730	835684
10,72143	614236
10,72555	440949
10,72967	320788
10,73378	233769
10,73792	180315
10,74203	138996
10,74615	106586
10,75028	87558
10,75440	72481
10,75852	57996
10,76265	50880
10,76677	44857
10,77088	36373
10,77502	32878
10,77913	29637
10,78325	26205
10,78738	23360
10,79150	21261
10,79562	19052
10,79975	18295
10,80387	15942
10,80798	15608
10,81212	14598
10,81623	13029
10,82035	11922
10,82447	11763
10,82860	11592
10,83272	9730
10,83683	10023
10,84097	9973
10,84508	9512
10,84920	8868
10,85333	8803
10,85745	7048
10,86157	7552
10,86570	7647
10,86982	7647
10,87393	6500
10,87807	7055
10,88218	6071
10,88630	5844
10,89043	5542
10,89455	6249
10,89867	5661
10,90280	4882
10,90692	5274
10,91103	4863
10,91517	4516
10,91928	4982
10,92340	4704
10,92752	4405
10,93165	5038
10,93577	4649
10,93988	4381
10,94402	4053
10,94813	4008
10,95225	4281
10,95638	3874
10,96050	3895
10,96462	3837
10,96875	4365
10,97287	4051
10,97698	4069
10,98112	4061
10,98523	4335
10,98935	3893
10,99348	3576
10,99760	5493
11,00172	5272
11,00585	6538
11,00997	6988
11,01408	8094
11,01820	6822
11,02233	6375
11,02645	5623
11,03057	4097
11,03470	3693
11,03882	3271
11,04293	3405
11,04707	3227
11,05118	3685
11,05530	3694
11,05943	3414
11,06355	3262
11,06767	3181
11,07180	4011
11,07592	3796
11,08003	3866
11,08417	3731
11,08828	3228
11,09240	4165
11,09653	3924
11,10065	2884
11,10477	3541
11,10888	3137
11,11302	2792
11,11713	3726
11,12125	4493
11,12538	3558
11,12950	4656
11,13362	4745
11,13775	5031
11,14187	4116
11,14598	3227
11,15012	3793
11,15423	3248
11,15835	3747
11,16248	3985
11,16660	3304
11,17072	3151
11,17485	2797
11,17897	4179
11,18308	4511
11,18722	5371
11,19133	6967
11,19545	8095
11,19957	10934
11,20370	11686
11,20782	12728
11,21193	11734
11,21607	12799
11,22018	11127
11,22430	10306
11,22843	9012
11,23255	8699
11,23667	6807
11,24080	5780
11,24492	6198
11,24903	4435
11,25317	4529
11,25728	4012
11,26140	3851
11,26553	3485
11,26965	3992
11,27377	3348
11,27790	2988
11,28202	3243
11,28613	2926
11,29025	2632
11,29438	2748
11,29850	2688
11,30262	3052
11,30675	2617
11,31087	2297
11,31498	2112
11,31912	2672
11,32323	2509
11,32735	2095
11,33148	2236
11,33560	3242
11,33972	2816
11,34385	3050
11,34797	2503
11,35208	2044
11,35622	2839
11,36033	2638
11,36445	2896
11,36858	3128
11,37270	2102
11,37682	3259
11,38093	2602
11,38507	2638
11,38918	2345
11,39330	2502
11,39743	2805
11,40155	2474
11,40567	2619
11,40980	2676
11,41392	3213
11,41803	2497
11,42217	3419
11,42628	2384
11,43040	2484
11,43453	2345
11,43865	3254
11,44277	2899
11,44690	2539
11,45102	2112
11,45513	3346
11,45927	2902
11,46338	3950
11,46750	6306
11,47162	11158
11,47575	28968
11,47987	60132
11,48398	123559
11,48812	221896
11,49223	361547
11,49635	534870
11,50048	709956
11,50460	867965
11,50872	966667
11,51285	986145
11,51697	912062
11,52108	795468
11,52522	645496
11,52933	491237
11,53345	355645
11,53758	257445
11,54170	183645
11,54582	137473
11,54995	101208
11,55407	76539
11,55818	59869
11,56230	46125
11,56643	38807
11,57055	31661
11,57467	27476
11,57880	23666
11,58292	19327
11,58703	16615
11,59117	15361
11,59528	14154
11,59940	12595
11,60353	12562
11,60765	9840
11,61177	10327
11,61590	8564
11,62002	7990
11,62413	8136
11,62827	7666
11,63238	6938
11,63650	6986
11,64063	5871
11,64475	5550
11,64887	5719
11,65298	5095
11,65712	4872
11,66123	5328
11,66535	5541
11,66948	4133
11,67360	4653
11,67772	4335
11,68185	4178
11,68597	3989
11,69008	4181
11,69422	3195
11,69833	3573
11,70245	3388
11,70658	3083
11,71070	3054
11,71482	2929
11,71895	3676
11,72307	3309
11,72718	3196
11,73132	2930
11,73543	3008
11,73955	3016
11,74367	2813
11,74780	3682
11,75192	2942
11,75603	3410
11,76017	3499
11,76428	2433
11,76840	2542
11,77253	3198
11,77665	2857
11,78077	2482
11,78490	2549
11,78902	2092
11,79313	2294
11,79727	3089
11,80138	2960
11,80550	2985
11,80963	2608
11,81375	2324
11,81787	2799
11,82200	2551
11,82612	2490
11,83023	2005
11,83435	2606
11,83848	2244
11,84260	2510
11,84672	1804
11,85085	2316
11,85497	2557
11,85908	1744
11,86322	2598
11,86733	2990
11,87145	2151
11,87558	2760
11,87970	2645
11,88382	2874
11,88795	4386
11,89207	4038
11,89618	5770
11,90032	6047
11,90443	5875
11,90855	7066
11,91268	5476
11,91680	5265
11,92092	4916
11,92503	3732
11,92917	3722
11,93328	3165
11,93740	2250
11,94153	2703
11,94565	2583
11,94977	2588
11,95390	2363
11,95802	2282
11,96213	2719
11,96627	2291
11,97038	1920
11,97450	2182
11,97863	1997
11,98275	1774
11,98687	2461
11,99100	1806
11,99512	2213
11,99923	2631
12,00337	2042
12,00748	2285
12,01160	2767
12,01572	3389
12,01985	4048
12,02397	4967
12,02808	5401
12,03222	5132
12,03633	5856
12,04045	5720
12,04458	6159
12,04870	5423
12,05282	5451
12,05695	4145
12,06107	4081
12,06518	3637
12,06932	3112
12,07343	3205
12,07755	2798
12,08168	2646
12,08580	2440
12,08992	2367
12,09405	1878
12,09817	2194
12,10228	1607
12,10640	2473
12,11053	2835
12,11465	2683
12,11877	3650
12,12290	2631
12,12702	3229
12,13113	3225
12,13527	2901
12,13938	2507
12,14350	2460
12,14763	2472
12,15175	3248
12,15587	2156
12,16000	2395
12,16412	2324
12,16823	3157
12,17237	2732
12,17648	1891
12,18060	1825
12,18473	2384
12,18885	2272
12,19297	1739
12,19708	2531
12,20122	1359
12,20533	2288
12,20945	1802
12,21358	1531
12,21770	2241
12,22182	2533
12,22595	2051
12,23007	2142
12,23418	2701
12,23832	2100
12,24243	2262
12,24655	2617
12,25068	6016
12,25480	15291
12,25892	38070
12,26305	85633
12,26717	176248
12,27128	331220
12,27542	572385
12,27953	897473
12,28365	1260880
12,28777	1666944
12,29190	1962490
12,29602	2138297
12,30013	2117133
12,30427	1920940
12,30838	1593620
12,31250	1245704
12,31663	907620
12,32075	636316
12,32487	446189
12,32900	322319
12,33312	229244
12,33723	178256
12,34137	136860
12,34548	105410
12,34960	85954
12,35373	71432
12,35785	59484
12,36197	49187
12,36610	41856
12,37022	34773
12,37433	30726
12,37845	28946
12,38258	24091
12,38670	22471
12,39082	20041
12,39495	17685
12,39907	16942
12,40318	15839
12,40732	15091
12,41143	12788
12,41555	12900
12,41968	12800
12,42380	11399
12,42792	8540
12,43205	9912
12,43617	9342
12,44028	9823
12,44442	8718
12,44853	8581
12,45265	7607
12,45678	8494
12,46090	8892
12,46502	10054
12,46913	8998
12,47327	11718
12,47738	12497
12,48150	11656
12,48563	11357
12,48975	11104
12,49387	9438
12,49800	8380
12,50212	7958
12,50623	7190
12,51037	6271
12,51448	5380
12,51860	5199
12,52273	4568
12,52685	5113
12,53097	5127
12,53510	6764
12,53922	6320
12,54333	8073
12,54747	8223
12,55158	6138
12,55570	5185
12,55982	3722
12,56395	2776
12,56807	3646
12,57218	3289
12,57632	2818
12,58043	3300
12,58455	2893
12,58868	3602
12,59280	3050
12,59692	2962
12,60105	2516
12,60517	2550
12,60928	3226
12,61342	3079
12,61753	2295
12,62165	3423
12,62578	3262
12,62990	2671
12,63402	2441
12,63815	2990
12,64227	3045
12,64638	3886
12,65052	3988
12,65463	4216
12,65875	4700
12,66287	5317
12,66700	6134
12,67112	6212
12,67523	5851
12,67937	5167
12,68348	4496
12,68760	4068
12,69173	4197
12,69585	3271
12,69997	3128
12,70410	2932
12,70822	2766
12,71233	2604
12,71647	2228
12,72058	3692
12,72470	2332
12,72883	2265
12,73295	2385
12,73707	2125
12,74120	2189
12,74532	2108
12,74943	2453
12,75355	1965
12,75768	2551
12,76180	1907
12,76592	2443
12,77005	2265
12,77417	1692
12,77828	2032
12,78242	2359
12,78653	3127
12,79065	3622
12,79478	7543
12,79890	15737
12,80302	37991
12,80715	80369
12,81127	154483
12,81538	272205
12,81952	429062
12,82363	610788
12,82775	790054
12,83188	927382
12,83600	990776
12,84012	978632
12,84423	872734
12,84837	738681
12,85248	585943
12,85660	438562
12,86073	315861
12,86485	230812
12,86897	164932
12,87310	119275
12,87722	90798
12,88133	67811
12,88547	54934
12,88958	44704
12,89370	36049
12,89783	28724
12,90195	24244
12,90607	21585
12,91020	18940
12,91432	16615
12,91843	14547
12,92257	14401
12,92668	12726
12,93080	11152
12,93492	10563
12,93905	10261
12,94317	10275
12,94728	9022
12,95142	8012
12,95553	7708
12,95965	5883
12,96378	6391
12,96790	6531
12,97202	5387
12,97615	5090
12,98027	5856
12,98438	4553
12,98852	4480
12,99263	4406
12,99675	5065
13,00088	6048
13,00500	11186
13,00912	26298
13,01325	56367
13,01737	112284
13,02148	215047
13,02560	355780
13,02973	537500
13,03385	747117
13,03797	946535
13,04210	1054487
13,04622	1090179
13,05033	1025990
13,05447	876451
13,05858	706307
13,06270	528918
13,06683	380234
13,07095	265828
13,07507	187676
13,07920	135202
13,08332	99883
13,08743	73905
13,09157	55732
13,09568	47258
13,09980	36970
13,10393	31691
13,10805	26603
13,11217	25629
13,11628	21499
13,12042	17273
13,12453	14208
13,12865	14560
13,13278	12718
13,13690	12024
13,14102	10623
13,14515	9887
13,14927	9773
13,15338	7904
13,15752	8006
13,16163	7263
13,16575	6872
13,16988	7320
13,17400	6439
13,17812	5980
13,18225	4801
13,18637	5209
13,19048	5104
13,19462	4290
13,19873	4216
13,20285	4918
13,20697	4122
13,21110	3431
13,21522	3898
13,21933	4349
13,22347	3704
13,22758	3638
13,23170	3432
13,23583	3591
13,23995	3689
13,24407	3437
13,24820	2841
13,25232	3149
13,25643	3780
13,26057	3528
13,26468	3713
13,26880	3118
13,27293	2707
13,27705	3813
13,28117	3276
13,28530	3160
13,28942	3041
13,29353	2411
13,29765	3318
13,30178	3066
13,30590	3127
13,31002	2532
13,31415	3114
13,31827	1916
13,32238	2268
13,32652	2168
13,33063	2368
13,33475	2063
13,33888	2650
13,34300	2235
13,34712	2547
13,35125	1775
13,35537	2549
13,35948	2742
13,36362	2117
13,36773	2747
13,37185	2199
13,37598	2628
13,38010	2609
13,38422	3349
13,38833	2360
13,39247	2958
13,39658	3217
13,40070	2706
13,40483	2887
13,40895	2341
13,41307	3005
13,41720	3330
13,42132	2660
13,42543	3307
13,42957	4422
13,43368	3382
13,43780	3420
13,44193	3187
13,44605	3482
13,45017	2639
13,45430	2138
13,45842	2617
13,46253	3111
13,46667	2513
13,47078	2112
13,47490	2585
13,47902	2068
13,48315	2993
13,48727	2995
13,49138	2711
13,49552	2528
13,49963	3095
13,50375	3383
13,50788	3540
13,51200	2338
13,51612	3397
13,52025	3282
13,52437	3692
13,52848	4971
13,53262	8538
13,53673	19448
13,54085	42499
13,54498	88865
13,54910	175590
13,55322	305035
13,55735	480126
13,56147	668339
13,56558	859270
13,56970	1006381
13,57383	1065079
13,57795	1014369
13,58207	895975
13,58620	735816
13,59032	561470
13,59443	413943
13,59857	294583
13,60268	209792
13,60680	155531
13,61093	111910
13,61505	83455
13,61917	65562
13,62330	52398
13,62742	44138
13,63153	33954
13,63567	29094
13,63978	26255
13,64390	22006
13,64803	18624
13,65215	17952
13,65627	15642
13,66038	13593
13,66452	12641
13,66863	11355
13,67275	10426
13,67688	8608
13,68100	8105
13,68512	9164
13,68925	8182
13,69337	8284
13,69748	7194
13,70162	8801
13,70573	8083
13,70985	8014
13,71398	7776
13,71810	9403
13,72222	15856
13,72635	33241
13,73047	68020
13,73458	148062
13,73872	288613
13,74283	518138
13,74695	852206
13,75107	1330393
13,75520	1870558
13,75932	2438797
13,76343	2988732
13,76757	3294448
13,77168	3365614
13,77580	3097772
13,77993	2621568
13,78405	2042240
13,78817	1471387
13,79230	1016594
13,79642	692716
13,80053	475291
13,80467	338208
13,80878	247197
13,81290	187035
13,81703	147992
13,82115	117574
13,82527	97785
13,82940	84844
13,83352	71581
13,83763	62060
13,84175	52121
13,84588	47316
13,85000	42089
13,85412	40320
13,85825	35305
13,86237	31547
13,86648	30714
13,87062	27920
13,87473	24228
13,87885	24243
13,88298	22401
13,88710	20453
13,89122	18649
13,89535	17706
13,89947	18424
13,90358	15608
13,90772	13640
13,91183	12266
13,91595	12507
13,92008	11936
13,92420	11203
13,92832	9850
13,93243	9520
13,93657	10635
13,94068	8934
13,94480	7041
13,94893	7942
13,95305	8400
13,95717	8667
13,96130	7404
13,96542	8741
13,96953	8857
13,97367	10046
13,97778	11782
13,98190	12585
13,98603	10785
13,99015	8464
13,99427	6563
13,99840	6290
14,00252	5747
14,00663	4922
14,01077	5919
14,01488	4752
14,01900	5751
14,02312	5729
14,02725	5899
14,03137	5232
14,03548	6130
14,03962	6430
14,04373	4862
14,04785	5333
14,05198	6101
14,05610	4562
14,06022	4354
14,06435	4568
14,06847	3638
14,07258	3645
14,07672	3473
14,08083	4040
14,08495	3639
14,08908	3795
14,09320	4102
14,09732	4222
14,10145	5121
14,10557	4716
14,10968	4799
14,11380	4596
14,11793	5627
14,12205	4563
14,12617	4285
14,13030	5506
14,13442	4782
14,13853	4193
14,14267	5776
14,14678	9907
14,15090	21027
14,15503	48898
14,15915	96307
14,16327	183415
14,16740	321028
14,17152	498290
14,17563	692492
14,17977	879059
14,18388	1005209
14,18800	1067383
14,19213	1007697
14,19625	888157
14,20037	720993
14,20450	551074
14,20862	405594
14,21273	284430
14,21685	200385
14,22098	146275
14,22510	104405
14,22922	78636
14,23335	63495
14,23747	52391
14,24158	40510
14,24572	36541
14,24983	31619
14,25395	26107
14,25808	26661
14,26220	24922
14,26632	26843
14,27045	25411
14,27457	23744
14,27868	23410
14,28282	23223
14,28693	21677
14,29105	23327
14,29518	21401
14,29930	21695
14,30342	22892
14,30753	20656
14,31167	20229
14,31578	17990
14,31990	16311
14,32403	14079
14,32815	14014
14,33227	10987
14,33640	10173
14,34052	8759
14,34463	8646
14,34877	6980
14,35288	6912
14,35700	6667
14,36113	6013
14,36525	5194
14,36937	5531
14,37350	4655
14,37762	4983
14,38173	4193
14,38587	5342
14,38998	4518
14,39410	4786
14,39822	5334
14,40235	5132
14,40647	7880
14,41058	13359
14,41472	29212
14,41883	59810
14,42295	123438
14,42708	226383
14,43120	377035
14,43532	571383
14,43945	795428
14,44357	1000782
14,44768	1135588
14,45182	1150704
14,45593	1083504
14,46005	930871
14,46418	730612
14,46830	547099
14,47242	388305
14,47655	271683
14,48067	190357
14,48478	136045
14,48890	100957
14,49303	76192
14,49715	59493
14,50127	48275
14,50540	40888
14,50952	34185
14,51363	30010
14,51777	26616
14,52188	23063
14,52600	18435
14,53013	19599
14,53425	18604
14,53837	15119
14,54250	13846
14,54662	12944
14,55073	11523
14,55487	11335
14,55898	10056
14,56310	11045
14,56723	8185
14,57135	9415
14,57547	7761
14,57958	8271
14,58372	6577
14,58783	7990
14,59195	6996
14,59608	7127
14,60020	6772
14,60432	5883
14,60845	6030
14,61257	6619
14,61668	6916
14,62082	7968
14,62493	6193
14,62905	8119
14,63318	6616
14,63730	8577
14,64142	6523
14,64555	6114
14,64967	6059
14,65378	6237
14,65792	5758
14,66203	5282
14,66615	4451
14,67027	4622
14,67440	3997
14,67852	4816
14,68263	3876
14,68677	4040
14,69088	4915
14,69500	4007
14,69913	4412
14,70325	4366
14,70737	4530
14,71150	4643
14,71562	4782
14,71973	4440
14,72387	3504
14,72798	4059
14,73210	4810
14,73623	5207
14,74035	4954
14,74447	4706
14,74860	5339
14,75272	5630
14,75683	4640
14,76095	4833
14,76508	4029
14,76920	3356
14,77332	4259
14,77745	4410
14,78157	3547
14,78568	3946
14,78982	4633
14,79393	4205
14,79805	3059
14,80218	3943
14,80630	3926
14,81042	3886
14,81455	4435
14,81867	7369
14,82278	14746
14,82692	32865
14,83103	68935
14,83515	137323
14,83928	250995
14,84340	416880
14,84752	617084
14,85163	843786
14,85577	1016624
14,85988	1110245
14,86400	1123169
14,86813	1022803
14,87225	867333
14,87637	682069
14,88050	501917
14,88462	360786
14,88873	250369
14,89287	181383
14,89698	132777
14,90110	98230
14,90523	81046
14,90935	61308
14,91347	48660
14,91760	43837
14,92172	35683
14,92583	31393
14,92997	27048
14,93408	25236
14,93820	21400
14,94232	19479
14,94645	15595
14,95057	17067
14,95468	13727
14,95882	13838
14,96293	11241
14,96705	11507
14,97118	10574
14,97530	10108
14,97942	10301
14,98355	9305
14,98767	8399
14,99178	8157
14,99592	6883
15,00003	7740
15,00415	6967
15,00828	6685
15,01240	6601
15,01652	6699
15,02065	6307
15,02477	7344
15,02888	6615
15,03300	7132
15,03713	5574
15,04125	4940
15,04537	5809
15,04950	5938
15,05362	4477
15,05773	5816
15,06187	5601
15,06598	7723
15,07010	12020
15,07423	25962
15,07835	56691
15,08247	114131
15,08660	221266
15,09072	392586
15,09483	649412
15,09897	973914
15,10308	1363556
15,10720	1794603
15,11133	2170174
15,11545	2380921
15,11957	2426606
15,12368	2248785
15,12782	1915760
15,13193	1479087
15,13605	1072624
15,14018	750499
15,14430	516273
15,14842	361343
15,15255	257070
15,15667	194979
15,16078	148237
15,16492	119540
15,16903	98289
15,17315	83838
15,17728	70307
15,18140	59661
15,18552	51161
15,18965	48651
15,19377	42485
15,19788	38691
15,20202	35631
15,20613	32583
15,21025	31169
15,21437	27504
15,21850	25580
15,22262	22525
15,22673	22826
15,23087	22407
15,23498	20470
15,23910	18890
15,24323	17106
15,24735	17425
15,25147	17111
15,25560	14575
15,25972	14996
15,26383	13950
15,26797	13784
15,27208	12252
15,27620	12116
15,28033	10776
15,28445	11044
15,28857	10153
15,29270	12924
15,29682	16052
15,30093	24129
15,30505	47906
15,30918	91806
15,31330	169291
15,31742	293201
15,32155	458160
15,32567	669088
15,32978	859984
15,33392	1039085
15,33803	1148550
15,34215	1145856
15,34628	1039354
15,35040	898204
15,35452	715026
15,35865	531614
15,36277	397602
15,36688	280603
15,37102	199794
15,37513	152363
15,37925	110956
15,38338	89650
15,38750	68836
15,39162	58770
15,39573	49435
15,39987	42361
15,40398	37146
15,40810	32675
15,41223	32401
15,41635	36111
15,42047	51505
15,42460	90544
15,42872	166878
15,43283	296800
15,43697	508541
15,44108	802779
15,44520	1162104
15,44933	1592379
15,45345	1971287
15,45757	2232163
15,46170	2311977
15,46582	2182302
15,46993	1876378
15,47407	1481856
15,47818	1109217
15,48230	789609
15,48642	558498
15,49055	395517
15,49467	286384
15,49878	213366
15,50292	165796
15,50703	128859
15,51115	108615
15,51528	90941
15,51940	77336
15,52352	64118
15,52765	59255
15,53177	52460
15,53588	48031
15,54002	43691
15,54413	39983
15,54825	38021
15,55238	34587
15,55650	30721
15,56062	28511
15,56475	29228
15,56887	27797
15,57298	24164
15,57710	23375
15,58123	22424
15,58535	20464
15,58947	18215
15,59360	18583
15,59772	17032
15,60183	15945
15,60597	16805
15,61008	14641
15,61420	13159
15,61833	13134
15,62245	12195
15,62657	11962
15,63070	11007
15,63482	11948
15,63893	11381
15,64307	12017
15,64718	11097
15,65130	11026
15,65543	10657
15,65955	10673
15,66367	11991
15,66778	15602
15,67192	26207
15,67603	52282
15,68015	104358
15,68428	192664
15,68840	334088
15,69252	526214
15,69665	749467
15,70077	949363
15,70488	1075126
15,70902	1105046
15,71313	1043659
15,71725	892590
15,72138	704116
15,72550	533235
15,72962	391886
15,73375	280068
15,73787	202493
15,74198	148433
15,74612	116794
15,75023	85610
15,75435	71011
15,75847	59656
15,76260	48007
15,76672	41481
15,77083	36111
15,77497	34872
15,77908	29817
15,78320	26304
15,78733	24908
15,79145	22984
15,79557	22598
15,79970	19241
15,80382	18034
15,80793	16758
15,81207	15649
15,81618	12999
15,82030	14400
15,82443	11983
15,82855	13299
15,83267	14376
15,83680	14433
15,84092	13981
15,84503	15354
15,84915	15783
15,85328	15108
15,85740	16233
15,86152	15223
15,86565	15109
15,86977	12574
15,87388	12366
15,87802	10890
15,88213	11863
15,88625	12879
15,89038	12602
15,89450	12485
15,89862	12256
15,90275	10125
15,90687	11294
15,91098	10875
15,91512	10091
15,91923	8975
15,92335	9186
15,92748	9547
15,93160	8334
15,93572	11918
15,93985	15597
15,94397	27517
15,94808	54529
15,95220	104663
15,95633	196237
15,96045	332882
15,96457	512130
15,96870	723105
15,97282	895576
15,97693	1012326
15,98107	1040586
15,98518	956948
15,98930	841917
15,99343	672466
15,99755	507116
16,00167	377292
16,00580	277965
16,00992	196939
16,01403	141013
16,01817	108233
16,02228	85122
16,02640	67621
16,03053	54260
16,03465	47906
16,03877	42402
16,04288	34721
16,04702	32233
16,05113	29587
16,05525	28452
16,05938	26623
16,06350	24534
16,06762	23224
16,07175	22110
16,07587	21538
16,07998	19574
16,08412	17852
16,08823	17475
16,09235	15669
16,09648	14790
16,10060	13349
16,10472	13709
16,10885	14040
16,11297	12353
16,11708	10623
16,12122	11990
16,12533	11368
16,12945	10359
16,13357	11250
16,13770	11370
16,14182	10950
16,14593	10643
16,15007	11637
16,15418	9927
16,15830	11648
16,16243	10526
16,16655	10915
16,17067	11217
16,17480	11188
16,17892	10254
16,18303	11006
16,18717	10956
16,19128	12183
16,19540	11750
16,19953	10473
16,20365	11499
16,20777	10395
16,21190	11315
16,21602	10175
16,22013	8956
16,22425	9320
16,22838	10205
16,23250	9206
16,23662	9617
16,24075	7704
16,24487	9428
16,24898	8009
16,25312	6901
16,25723	8272
16,26135	7716
16,26548	8390
16,26960	8264
16,27372	6785
16,27785	9204
16,28197	7736
16,28608	7300
16,29022	7082
16,29433	9018
16,29845	8996
16,30258	15519
16,30670	26101
16,31082	56332
16,31493	120819
16,31907	239408
16,32318	449475
16,32730	779263
16,33143	1217163
16,33555	1758517
16,33967	2359703
16,34380	2903945
16,34792	3380519
16,35203	3542261
16,35617	3379372
16,36028	2956596
16,36440	2324060
16,36853	1739572
16,37265	1233894
16,37677	869521
16,38090	601349
16,38502	436980
16,38913	332014
16,39327	256510
16,39738	204653
16,40150	168926
16,40562	139386
16,40975	120166
16,41387	109731
16,41798	95614
16,42212	82266
16,42623	73720
16,43035	66626
16,43448	62703
16,43860	56579
16,44272	51076
16,44685	49663
16,45097	42947
16,45508	42031
16,45922	39110
16,46333	36638
16,46745	34947
16,47158	32120
16,47570	29678
16,47982	29017
16,48395	26548
16,48807	27092
16,49218	25852
16,49630	24838
16,50043	22878
16,50455	22212
16,50867	21508
16,51280	20730
16,51692	22119
16,52103	19898
16,52517	22581
16,52928	24816
16,53340	29161
16,53753	36371
16,54165	52140
16,54577	87499
16,54990	141605
16,55402	232882
16,55813	361509
16,56227	526831
16,56638	694345
16,57050	844796
16,57463	925769
16,57875	920678
16,58287	834085
16,58698	709277
16,59112	559863
16,59523	426693
16,59935	315211
16,60348	228797
16,60760	173928
16,61172	128940
16,61585	102931
16,61997	80369
16,62408	71136
16,62822	61442
16,63233	67532
16,63645	87677
16,64058	127448
16,64470	210743
16,64882	340541
16,65295	519843
16,65707	734399
16,66118	947403
16,66532	1127884
16,66943	1218235
16,67355	1201867
16,67767	1066785
16,68180	879018
16,68592	681498
16,69003	515150
16,69417	375779
16,69828	276029
16,70240	200358
16,70653	158662
16,71065	124159
16,71477	103958
16,71890	84936
16,72302	73885
16,72713	67543
16,73127	55323
16,73538	51798
16,73950	46684
16,74363	43997
16,74775	41731
16,75187	36922
16,75600	33745
16,76012	33059
16,76423	30237
16,76835	28569
16,77248	29323
16,77660	26123
16,78072	24041
16,78485	24133
16,78897	22937
16,79308	21889
16,79722	22487
16,80133	22715
16,80545	20845
16,80958	19409
16,81370	19841
16,81782	19976
16,82195	18542
16,82607	20025
16,83018	17674
16,83432	19771
16,83843	18811
16,84255	18196
16,84668	18267
16,85080	15491
16,85492	16265
16,85903	16967
16,86317	15964
16,86728	15187
16,87140	15518
16,87553	16159
16,87965	17325
16,88377	20571
16,88790	32205
16,89202	60204
16,89613	112135
16,90027	203813
16,90438	349069
16,90850	551327
16,91263	802253
16,91675	1053951
16,92087	1230683
16,92500	1330378
16,92912	1293033
16,93323	1140998
16,93737	917317
16,94148	700837
16,94560	507651
16,94972	370308
16,95385	271471
16,95797	202836
16,96208	156361
16,96622	123550
16,97033	104365
16,97445	88681
16,97858	77096
16,98270	64473
16,98682	60640
16,99095	54106
16,99507	50872
16,99918	45378
17,00332	43034
17,00743	38492
17,01155	37501
17,01568	35180
17,01980	33808
17,02392	33913
17,02805	31561
17,03217	31603
17,03628	27647
17,04040	28868
17,04453	27254
17,04865	24979
17,05277	24069
17,05690	25705
17,06102	24187
17,06513	25883
17,06927	22305
17,07338	22997
17,07750	22770
17,08163	22470
17,08575	21914
17,08987	20904
17,09400	19315
17,09812	17482
17,10223	19170
17,10637	17941
17,11048	17319
17,11460	18660
17,11873	18232
17,12285	19968
17,12697	28806
17,13108	43524
17,13522	74690
17,13933	136525
17,14345	237046
17,14758	386359
17,15170	566995
17,15582	758599
17,15995	945250
17,16407	1042891
17,16818	1053929
17,17232	980442
17,17643	830750
17,18055	671302
17,18468	510171
17,18880	374134
17,19292	276926
17,19705	208234
17,20117	156226
17,20528	122951
17,20942	98329
17,21353	82114
17,21765	69828
17,22177	60619
17,22590	54767
17,23002	52151
17,23413	45862
17,23827	43126
17,24238	38594
17,24650	36711
17,25063	36391
17,25475	34348
17,25887	32635
17,26300	29314
17,26712	30328
17,27123	26888
17,27537	28498
17,27948	27584
17,28360	23959
17,28773	25303
17,29185	25009
17,29597	22507
17,30010	23486
17,30422	23428
17,30833	20943
17,31245	21879
17,31658	20740
17,32070	20732
17,32482	21235
17,32895	20689
17,33307	20236
17,33718	17983
17,34132	19830
17,34543	18866
17,34955	19579
17,35368	17441
17,35780	16349
17,36192	17089
17,36605	17022
17,37017	17659
17,37428	17514
17,37842	15835
17,38253	15662
17,38665	16673
17,39078	16267
17,39490	16141
17,39902	16151
17,40313	17270
17,40727	17445
17,41138	16181
17,41550	14282
17,41963	14885
17,42375	16703
17,42787	14695
17,43200	15366
17,43612	14586
17,44023	14438
17,44437	15761
17,44848	17779
17,45260	19098
17,45673	28700
17,46085	44222
17,46497	76721
17,46910	136269
17,47322	234724
17,47733	391532
17,48147	594738
17,48558	878574
17,48970	1232312
17,49383	1616090
17,49795	2026642
17,50207	2457156
17,50618	2768196
17,51032	2955654
17,51443	2953933
17,51855	2711867
17,52268	2372640
17,52680	2014793
17,53092	1667457
17,53505	1360301
17,53917	1082222
17,54328	844986
17,54742	651967
17,55153	503710
17,55565	396628
17,55978	308363
17,56390	252849
17,56802	209755
17,57215	181167
17,57627	157357
17,58038	138353
17,58452	124218
17,58863	113437
17,59275	103384
17,59687	93370
17,60100	84979
17,60512	81006
17,60923	73710
17,61337	69919
17,61748	65239
17,62160	63183
17,62573	59176
17,62985	54441
17,63397	52940
17,63810	50360
17,64222	44681
17,64633	48304
17,65047	42111
17,65458	39956
17,65870	40843
17,66283	40930
17,66695	38094
17,67107	37312
17,67520	36859
17,67932	34100
17,68343	34830
17,68755	36840
17,69168	37264
17,69580	37312
17,69992	39917
17,70405	44036
17,70817	55440
17,71228	75093
17,71642	118306
17,72053	189985
17,72465	283038
17,72878	420914
17,73290	588652
17,73702	742672
17,74115	860860
17,74527	912401
17,74938	900323
17,75352	827912
17,75763	701826
17,76175	582984
17,76588	471364
17,77000	392037
17,77412	357293
17,77823	374140
17,78237	443380
17,78648	570574
17,79060	722641
17,79473	902156
17,79885	1072501
17,80297	1257830
17,80710	1388998
17,81122	1503811
17,81533	1559011
17,81947	1580198
17,82358	1535454
17,82770	1422023
17,83183	1243211
17,83595	1051125
17,84007	830937
17,84420	652372
17,84832	503944
17,85243	400048
17,85657	312252
17,86068	257197
17,86480	212504
17,86892	185839
17,87305	160763
17,87717	140747
17,88128	126361
17,88542	113948
17,88953	106868
17,89365	96453
17,89778	85682
17,90190	80400
17,90602	75787
17,91015	66581
17,91427	66087
17,91838	59132
17,92252	57014
17,92663	51890
17,93075	50215
17,93488	49500
17,93900	47858
17,94312	45379
17,94725	42801
17,95137	42600
17,95548	40589
17,95960	36986
17,96373	35894
17,96785	35729
17,97197	35712
17,97610	32982
17,98022	31020
17,98433	31075
17,98847	28529
17,99258	29772
17,99670	29588
18,00083	27703
18,00495	27697
18,00907	25694
18,01320	25581
18,01732	28316
18,02143	28475
18,02557	31192
18,02968	39960
18,03380	61594
18,03793	97295
18,04205	156352
18,04617	249490
18,05028	376249
18,05442	546870
18,05853	729744
18,06265	922461
18,06678	1086771
18,07090	1175888
18,07502	1171359
18,07915	1094781
18,08327	938064
18,08738	768963
18,09152	607719
18,09563	466576
18,09975	365337
18,10388	286787
18,10800	229250
18,11212	189362
18,11625	159357
18,12037	137480
18,12448	121889
18,12862	107671
18,13273	96755
18,13685	86688
18,14097	79837
18,14510	74160
18,14922	69843
18,15333	64144
18,15747	60450
18,16158	58720
18,16570	55506
18,16983	52489
18,17395	48726
18,17807	48256
18,18220	47005
18,18632	47358
18,19043	44875
18,19457	44408
18,19868	41621
18,20280	39271
18,20693	37871
18,21105	37189
18,21517	34807
18,21930	32084
18,22342	31735
18,22753	34336
18,23165	28634
18,23578	30055
18,23990	29862
18,24402	30467
18,24815	29064
18,25227	27602
18,25638	28487
18,26052	28026
18,26463	28481
18,26875	28346
18,27288	26319
18,27700	26896
18,28112	28411
18,28525	26237
18,28937	32372
18,29348	38362
18,29762	54303
18,30173	85556
18,30585	134173
18,30998	209705
18,31410	327699
18,31822	468643
18,32233	633586
18,32647	783170
18,33058	902594
18,33470	962206
18,33883	946220
18,34295	858397
18,34707	746525
18,35120	618539
18,35532	507591
18,35943	399594
18,36357	310731
18,36768	251686
18,37180	200765
18,37593	163509
18,38005	133916
18,38417	117579
18,38830	102026
18,39242	99119
18,39653	106231
18,40067	122049
18,40478	159071
18,40890	212463
18,41302	288443
18,41715	383471
18,42127	489798
18,42538	585290
18,42952	667118
18,43363	714401
18,43775	703613
18,44188	656882
18,44600	582429
18,45012	499293
18,45425	408030
18,45837	324706
18,46248	264137
18,46662	212803
18,47073	169505
18,47485	141469
18,47898	118333
18,48310	101888
18,48722	84829
18,49135	80031
18,49547	72688
18,49958	65403
18,50370	58688
18,50783	54443
18,51195	51911
18,51607	50247
18,52020	46471
18,52432	43642
18,52843	43313
18,53257	39618
18,53668	40216
18,54080	38745
18,54493	36109
18,54905	34263
18,55317	32095
18,55730	33149
18,56142	30366
18,56553	31045
18,56967	29777
18,57378	28457
18,57790	28473
18,58203	28118
18,58615	28271
18,59027	27019
18,59438	28056
18,59852	27044
18,60263	25485
18,60675	27303
18,61088	27686
18,61500	28967
18,61912	35551
18,62325	45894
18,62737	67525
18,63148	99266
18,63562	155851
18,63973	239023
18,64385	358063
18,64798	513693
18,65210	715335
18,65622	935093
18,66035	1190863
18,66447	1474059
18,66858	1755084
18,67272	1973590
18,67683	2099403
18,68095	2086880
18,68507	1941520
18,68920	1675608
18,69332	1390440
18,69743	1101084
18,70157	861451
18,70568	662966
18,70980	521721
18,71393	427948
18,71805	351997
18,72217	299342
18,72630	257512
18,73042	226453
18,73453	197692
18,73867	178154
18,74278	162497
18,74690	148238
18,75103	136234
18,75515	124004
18,75927	113345
18,76340	109691
18,76752	101730
18,77163	92994
18,77575	86446
18,77988	81036
18,78400	83263
18,78812	74592
18,79225	72109
18,79637	68934
18,80048	66975
18,80462	62781
18,80873	58426
18,81285	58344
18,81698	55759
18,82110	52787
18,82522	51314
18,82935	48889
18,83347	50757
18,83758	45619
18,84172	45923
18,84583	44947
18,84995	41183
18,85408	41560
18,85820	40689
18,86232	40619
18,86643	39037
18,87057	39815
18,87468	38687
18,87880	36236
18,88293	36428
18,88705	37141
18,89117	35648
18,89530	35459
18,89942	32752
18,90353	31758
18,90767	32484
18,91178	31452
18,91590	28831
18,92003	29362
18,92415	31086
18,92827	31362
18,93240	30747
18,93652	29002
18,94063	30262
18,94477	27777
18,94888	29409
18,95300	28846
18,95712	28539
18,96125	29997
18,96537	30518
18,96948	34554
18,97362	42859
18,97773	58665
18,98185	85769
18,98598	131642
18,99010	197123
18,99422	281904
18,99835	400031
19,00247	539488
19,00658	679458
19,01072	816863
19,01483	913921
19,01895	970899
19,02308	982132
19,02720	924279
19,03132	834539
19,03545	716125
19,03957	598942
19,04368	492513
19,04782	402237
19,05193	324134
19,05605	269756
19,06017	225872
19,06430	190326
19,06842	169659
19,07253	146337
19,07667	130372
19,08078	118719
19,08490	106585
19,08903	97514
19,09315	90611
19,09727	83417
19,10140	77681
19,10552	72113
19,10963	71099
19,11377	64266
19,11788	62309
19,12200	58525
19,12613	56945
19,13025	54499
19,13437	49763
19,13850	47897
19,14262	44713
19,14673	49604
19,15085	47535
19,15498	47936
19,15910	46956
19,16322	47225
19,16735	46154
19,17147	45965
19,17558	42526
19,17972	40208
19,18383	40599
19,18795	36494
19,19208	36130
19,19620	35105
19,20032	36756
19,20445	31520
19,20857	32618
19,21268	30189
19,21682	30720
19,22093	29194
19,22505	30080
19,22918	27817
19,23330	28948
19,23742	27300
19,24153	29049
19,24567	29204
19,24978	27890
19,25390	29634
19,25803	27870
19,26215	27224
19,26627	26386
19,27040	26062
19,27452	25655
19,27863	26563
19,28277	24847
19,28688	26763
19,29100	24448
19,29513	24317
19,29925	23410
19,30337	25599
19,30750	24638
19,31162	24660
19,31573	25069
19,31987	22169
19,32398	24097
19,32810	24546
19,33222	26404
19,33635	25658
19,34047	27231
19,34458	28117
19,34872	28910
19,35283	29647
19,35695	27445
19,36108	27800
19,36520	26449
19,36932	25424
19,37345	24074
19,37757	23475
19,38168	22722
19,38582	21253
19,38993	22931
19,39405	21073
19,39818	20965
19,40230	21114
19,40642	19925
19,41055	20125
19,41467	18686
19,41878	20571
19,42290	20330
19,42703	21183
19,43115	21250
19,43527	19466
19,43940	19963
19,44352	20201
19,44763	21115
19,45177	19226
19,45588	20557
19,46000	20211
19,46413	19362
19,46825	20284
19,47237	21516
19,47650	20399
19,48062	22034
19,48473	22495
19,48887	21256
19,49298	22310
19,49710	24075
19,50123	20256
19,50535	22933
19,50947	22205
19,51358	22223
19,51772	21329
19,52183	21834
19,52595	21233
19,53008	20766
19,53420	20337
19,53832	21129
19,54245	21787
19,54657	21910
19,55068	20570
19,55482	21577
19,55893	23004
19,56305	21739
19,56718	21207
19,57130	21278
19,57542	22387
19,57955	21365
19,58367	22860
19,58778	21465
19,59192	22785
19,59603	21104
19,60015	20893
19,60427	21674
19,60840	20105
19,61252	19248
19,61663	19514
19,62077	19995
19,62488	18917
19,62900	17269
19,63313	17478
19,63725	18873
19,64137	19548
19,64550	18339
19,64962	17406
19,65373	18090
19,65787	18442
19,66198	19127
19,66610	18933
19,67023	20745
19,67435	20080
19,67847	19804
19,68260	18963
19,68672	19307
19,69083	18620
19,69495	19315
19,69908	19198
19,70320	19476
19,70732	19383
19,71145	18803
19,71557	19614
19,71968	19490
19,72382	16648
19,72793	17488
19,73205	16673
19,73618	17908
19,74030	17661
19,74442	18696
19,74855	19332
19,75267	15977
19,75678	17782
19,76092	18235
19,76503	17319
19,76915	18097
19,77328	18307
19,77740	18589
19,78152	19548
19,78563	20694
19,78977	18176
19,79388	21002
19,79800	19206
19,80213	20604
19,80625	20037
19,81037	19902
19,81450	18497
19,81862	19382
19,82273	19003
19,82687	19533
19,83098	18949
19,83510	19525
19,83923	17796
19,84335	17902
19,84747	19033
19,85160	17737
19,85572	17583
19,85983	18976
19,86397	17373
19,86808	18856
19,87220	18009
19,87632	17649
19,88045	18974
19,88457	19721
19,88868	17553
19,89282	17015
19,89693	17291
19,90105	17773
19,90518	19223
19,90930	18948
19,91342	19320
19,91755	18951
19,92167	18732
19,92578	19122
19,92992	18350
19,93403	18622
19,93815	17230
19,94228	18379
19,94640	17938
19,95052	18191
19,95465	19002
19,95877	18440
19,96288	18167
19,96700	17104
19,97113	18185
19,97525	16217
19,97937	16809
19,98350	17865
19,98762	17674
19,99173	19167
19,99587	17517
19,99998	17271
20,00410	19776
20,00823	18900
20,01235	17878
20,01647	18521
20,02060	16256
20,02472	18200
20,02883	17629
20,03297	19612
20,03708	19452
20,04120	21807
20,04533	25752
20,04945	33024
20,05357	44360
20,05768	61838
20,06182	84363
20,06593	124967
20,07005	169489
20,07418	228240
20,07830	299182
20,08242	367623
20,08655	424993
20,09067	470830
20,09478	491819
20,09892	498433
20,10303	486081
20,10715	448389
20,11128	410866
20,11540	364701
20,11952	317609
20,12365	268064
20,12777	226071
20,13188	190717
20,13602	162259
20,14013	143306
20,14425	121361
20,14837	107475
20,15250	92094
20,15662	83783
20,16073	76581
20,16487	70191
20,16898	63691
20,17310	58469
20,17723	56362
20,18135	52745
20,18547	49612
20,18960	46451
20,19372	43001
20,19783	42445
20,20197	40551
20,20608	38841
20,21020	37429
20,21433	36263
20,21845	35706
20,22257	34147
20,22670	33978
20,23082	32227
20,23493	31117
20,23905	30606
20,24318	31648
20,24730	29439
20,25142	27134
20,25555	27775
20,25967	28078
20,26378	26456
20,26792	27133
20,27203	27056
20,27615	25061
20,28028	25275
20,28440	24814
20,28852	25801
20,29265	24331
20,29677	23830
20,30088	23284
20,30502	24942
20,30913	24442
20,31325	24233
20,31738	24062
20,32150	22084
20,32562	21685
20,32973	21955
20,33387	22497
20,33798	22848
20,34210	21085
20,34623	22751
20,35035	24175
20,35447	22303
20,35860	21960
20,36272	21004
20,36683	20539
20,37097	21489
20,37508	21120
20,37920	19518
20,38333	21477
20,38745	20545
20,39157	20240
20,39570	19621
20,39982	19682
20,40393	19555
20,40807	19891
20,41218	19907
20,41630	18768
20,42042	18854
20,42455	18762
20,42867	18051
20,43278	17918
20,43692	18776
20,44103	20564
20,44515	18512
20,44928	19104
20,45340	18398
20,45752	17162
20,46165	17954
20,46577	16716
20,46988	17434
20,47402	18423
20,47813	19265
20,48225	17991
20,48638	16685
20,49050	17517
20,49462	18602
20,49875	18341
20,50287	18901
20,50698	17532
20,51110	19769
20,51523	18711
20,51935	18263
20,52347	18103
20,52760	16731
20,53172	17877
20,53583	16850
20,53997	18604
20,54408	17194
20,54820	19374
20,55233	18676
20,55645	17741
20,56057	18735
20,56470	18423
20,56882	17226
20,57293	17701
20,57707	15808
20,58118	17823
20,58530	17188
20,58943	17820
20,59355	16549
20,59767	15602
20,60178	18633
20,60592	18036
20,61003	19015
20,61415	18932
20,61828	19259
20,62240	19304
20,62652	16922
20,63065	17410
20,63477	19437
20,63888	19277
20,64302	19146
20,64713	18095
20,65125	16846
20,65538	17610
20,65950	16285
20,66362	18579
20,66775	17230
20,67187	17511
20,67598	18715
20,68012	17383
20,68423	17232
20,68835	17571
20,69247	18365
20,69660	17333
20,70072	18592
20,70483	17785
20,70897	18891
20,71308	18854
20,71720	19705
