D:\MassHunter\GCMS\1\data\Amal\Constant flow\140C\140C_1ml-min_6C-min_1.D Fri Jul 26 16:54:08 2024
Start of data points
5,04138,238991
5,04583,233789
5,05027,220488
5,05472,213417
5,05915,202896
5,06360,196959
5,06805,191885
5,07248,182117
5,07693,173739
5,08137,168974
5,08582,163134
5,09025,159313
5,09470,152015
5,09913,144630
5,10358,142140
5,10802,134327
5,11247,130868
5,11690,128417
5,12135,121226
5,12578,115990
5,13023,114366
5,13467,112204
5,13912,105895
5,14355,105277
5,14800,102903
5,15243,100206
5,15688,99166
5,16132,93524
5,16577,91598
5,17020,90161
5,17465,92100
5,17908,86230
5,18353,85532
5,18798,83995
5,19242,82001
5,19687,80725
5,20130,79634
5,20575,76088
5,21018,75505
5,21463,76997
5,21907,75386
5,22352,74240
5,22795,69973
5,23240,71582
5,23683,70537
5,24128,68613
5,24572,66594
5,25017,67442
5,25460,67356
5,25905,67666
5,26348,65790
5,26793,62410
5,27237,64115
5,27682,63043
5,28125,63207
5,28570,62023
5,29013,60031
5,29458,60648
5,29902,59635
5,30347,59011
5,30792,60066
5,31235,58498
5,31680,58304
5,32123,59079
5,32568,58594
5,33012,58156
5,33457,57560
5,33900,55991
5,34345,56161
5,34788,55529
5,35233,55334
5,35677,53078
5,36122,54364
5,36565,53160
5,37010,52639
5,37453,51990
5,37898,51449
5,38342,53196
5,38787,50226
5,39230,51682
5,39675,51435
5,40118,51564
5,40563,52785
5,41007,50385
5,41452,50333
5,41895,50947
5,42340,48334
5,42783,50034
5,43228,50249
5,43673,50465
5,44117,51439
5,44562,49088
5,45005,48855
5,45450,48874
5,45893,48641
5,46338,49013
5,46782,48765
5,47227,48324
5,47670,50100
5,48115,47752
5,48558,46220
5,49003,49436
5,49447,46868
5,49892,46078
5,50335,47078
5,50780,46226
5,51223,46383
5,51668,47657
5,52112,46328
5,52557,46901
5,53000,44785
5,53445,44122
5,53888,44696
5,54333,45417
5,54777,44489
5,55222,43314
5,55667,44808
5,56110,45891
5,56555,47117
5,56998,51919
5,57443,64032
5,57887,87852
5,58332,130708
5,58775,194678
5,59220,270110
5,59663,346386
5,60108,413456
5,60552,453031
5,60997,474552
5,61440,478621
5,61885,462598
5,62328,457126
5,62773,435727
5,63217,420861
5,63662,404027
5,64105,395280
5,64550,376071
5,64993,361877
5,65438,350027
5,65882,337630
5,66327,322431
5,66770,311226
5,67215,295574
5,67660,285024
5,68103,272417
5,68548,259712
5,68992,250379
5,69437,239843
5,69880,225930
5,70325,220214
5,70768,212319
5,71213,199444
5,71657,191152
5,72102,185019
5,72545,174199
5,72990,166897
5,73433,155922
5,73878,151509
5,74322,141534
5,74767,132944
5,75210,124063
5,75655,117278
5,76098,108900
5,76543,103047
5,76987,96734
5,77432,89272
5,77875,83273
5,78320,80133
5,78763,75495
5,79208,71249
5,79653,68798
5,80097,66456
5,80542,62451
5,80985,58278
5,81430,57425
5,81873,53557
5,82318,51559
5,82762,50226
5,83207,49695
5,83650,46179
5,84095,47733
5,84538,44271
5,84983,42650
5,85427,42448
5,85872,42085
5,86315,41974
5,86760,39611
5,87203,39853
5,87648,38676
5,88092,38527
5,88537,38819
5,88980,36784
5,89425,35975
5,89868,36127
5,90313,37245
5,90757,36799
5,91202,36580
5,91647,34946
5,92090,35916
5,92535,36764
5,92978,35142
5,93423,35116
5,93867,36710
5,94312,35486
5,94755,34484
5,95200,35276
5,95643,34938
5,96088,32962
5,96532,35268
5,96977,33361
5,97420,33275
5,97865,35029
5,98308,32590
5,98753,34266
5,99197,34556
5,99642,33658
6,00085,35244
6,00530,34718
6,00973,33696
6,01418,32880
6,01862,32662
6,02307,33804
6,02750,34010
6,03195,32290
6,03640,33850
6,04083,34533
6,04528,33806
6,04972,39573
6,05417,49747
6,05860,66436
6,06305,97718
6,06748,129741
6,07193,175748
6,07637,217018
6,08082,258143
6,08525,281332
6,08970,296374
6,09413,305525
6,09858,300548
6,10302,295989
6,10747,287013
6,11190,275095
6,11635,266222
6,12078,251038
6,12523,246366
6,12967,231850
6,13412,222963
6,13855,213257
6,14300,202524
6,14743,196907
6,15188,184900
6,15632,179609
6,16077,169353
6,16522,161235
6,16965,150339
6,17410,144130
6,17853,138832
6,18298,131452
6,18742,124763
6,19187,119546
6,19630,113123
6,20075,105777
6,20518,100089
6,20963,91573
6,21407,84986
6,21852,79793
6,22295,76152
6,22740,71336
6,23183,66391
6,23628,63229
6,24072,56306
6,24517,52578
6,24960,51899
6,25405,50217
6,25848,45569
6,26293,42982
6,26737,42438
6,27182,40252
6,27625,38977
6,28070,36466
6,28515,36770
6,28958,35022
6,29403,33775
6,29847,32183
6,30292,30501
6,30735,30923
6,31180,31545
6,31623,29646
6,32068,28930
6,32512,26876
6,32957,28132
6,33400,28301
6,33845,26368
6,34288,27248
6,34733,26175
6,35177,26873
6,35622,26538
6,36065,25634
6,36510,24941
6,36953,24190
6,37398,24110
6,37842,24334
6,38287,24928
6,38730,24828
6,39175,25269
6,39618,23387
6,40063,23970
6,40508,24713
6,40952,24417
6,41397,23888
6,41840,25183
6,42285,24764
6,42728,25196
6,43173,25491
6,43617,24607
6,44062,24675
6,44505,23827
6,44950,23307
6,45393,23847
6,45838,24139
6,46282,22737
6,46727,23286
6,47170,24831
6,47615,24000
6,48058,23846
6,48503,23233
6,48947,22875
6,49392,22479
6,49835,23320
6,50280,24007
6,50723,24056
6,51168,23984
6,51612,23407
6,52057,23388
6,52502,23325
6,52945,23285
6,53390,23324
6,53833,22804
6,54278,22769
6,54722,22784
6,55167,22519
6,55610,23041
6,56055,23338
6,56498,22803
6,56943,21957
6,57387,21675
6,57832,21908
6,58275,22436
6,58720,22160
6,59163,22324
6,59608,22829
6,60052,23312
6,60497,23454
6,60940,22234
6,61385,22064
6,61828,24046
6,62273,23910
6,62717,28023
6,63162,38069
6,63605,58460
6,64050,97170
6,64495,153644
6,64938,231714
6,65383,332053
6,65827,436871
6,66272,530369
6,66715,610423
6,67160,659324
6,67603,682345
6,68048,687293
6,68492,671180
6,68937,655879
6,69380,629631
6,69825,600167
6,70268,573703
6,70713,537207
6,71157,519802
6,71602,486721
6,72045,470866
6,72490,438000
6,72933,407994
6,73378,387989
6,73822,354264
6,74267,337714
6,74710,319500
6,75155,296023
6,75598,278091
6,76043,257968
6,76488,236067
6,76932,222510
6,77377,194404
6,77820,180708
6,78265,164266
6,78708,144496
6,79153,129973
6,79597,119179
6,80042,105084
6,80485,92919
6,80930,85714
6,81373,75295
6,81818,68345
6,82262,62734
6,82707,58617
6,83150,52527
6,83595,49579
6,84038,45746
6,84483,41947
6,84927,40035
6,85372,36817
6,85815,32717
6,86260,31567
6,86703,30255
6,87148,29139
6,87592,28948
6,88037,27386
6,88480,26989
6,88925,24858
6,89370,25232
6,89813,25087
6,90258,23369
6,90702,23001
6,91147,22990
6,91590,22461
6,92035,22230
6,92478,21069
6,92923,21800
6,93367,21761
6,93812,21314
6,94255,20822
6,94700,19767
6,95143,20653
6,95588,20634
6,96032,20270
6,96477,20546
6,96920,19681
6,97365,20325
6,97808,19097
6,98253,20681
6,98697,19333
6,99142,19541
6,99585,19001
7,00030,19764
7,00473,19917
7,00918,19326
7,01363,20468
7,01807,18624
7,02252,20031
7,02695,18181
7,03140,19192
7,03583,19750
7,04028,18275
7,04472,18307
7,04917,18297
7,05360,18284
7,05805,19066
7,06248,17838
7,06693,17752
7,07137,18035
7,07582,17594
7,08025,18028
7,08470,17290
7,08913,19026
7,09358,18693
7,09802,18345
7,10247,17659
7,10690,17126
7,11135,17462
7,11578,16944
7,12023,17192
7,12467,16437
7,12912,18802
7,13357,16413
7,13800,17075
7,14245,18475
7,14688,17951
7,15133,17822
7,15577,18000
7,16022,17946
7,16465,17742
7,16910,16612
7,17353,17691
7,17798,15697
7,18242,17242
7,18687,17387
7,19130,17628
7,19575,16489
7,20018,16833
7,20463,16280
7,20907,17716
7,21352,18048
7,21795,16824
7,22240,18214
7,22683,17092
7,23128,16942
7,23572,16479
7,24017,16963
7,24460,17745
7,24905,16694
7,25350,15977
7,25793,15921
7,26238,17608
7,26682,17438
7,27127,17632
7,27570,16637
7,28015,17923
7,28458,17261
7,28903,16681
7,29347,17174
7,29792,16779
7,30235,16718
7,30680,17019
7,31123,20556
7,31568,25831
7,32012,35786
7,32457,53716
7,32900,82224
7,33345,122660
7,33788,175134
7,34233,231822
7,34677,290014
7,35122,332622
7,35565,375702
7,36010,398099
7,36453,402313
7,36898,403793
7,37343,391722
7,37787,381844
7,38232,363428
7,38675,341431
7,39120,330448
7,39563,308538
7,40008,291782
7,40452,270680
7,40897,253653
7,41340,231417
7,41785,215350
7,42228,200973
7,42673,185375
7,43117,168470
7,43562,150471
7,44005,138544
7,44450,125222
7,44893,110125
7,45338,97126
7,45782,85957
7,46227,75982
7,46670,68616
7,47115,62262
7,47558,52026
7,48003,47283
7,48447,42765
7,48892,40594
7,49337,37078
7,49780,33049
7,50225,31668
7,50668,28769
7,51113,26473
7,51557,24320
7,52002,23449
7,52445,22258
7,52890,22672
7,53333,21457
7,53778,21238
7,54222,19284
7,54667,19921
7,55110,18590
7,55555,17957
7,55998,17354
7,56443,16820
7,56887,16994
7,57332,17079
7,57775,17188
7,58220,16221
7,58663,15919
7,59108,16533
7,59552,15676
7,59997,16123
7,60440,15017
7,60885,14614
7,61328,14687
7,61773,15305
7,62218,15801
7,62662,17313
7,63107,16114
7,63550,14745
7,63995,14506
7,64438,15036
7,64883,15753
7,65327,14602
7,65772,14136
7,66215,15089
7,66660,15298
7,67103,15668
7,67548,15538
7,67992,13642
7,68437,15473
7,68880,14667
7,69325,14474
7,69768,15349
7,70213,14857
7,70657,16316
7,71102,15805
7,71545,15676
7,71990,16404
7,72433,16851
7,72878,16210
7,73322,16892
7,73767,15740
7,74212,15748
7,74655,16255
7,75100,15605
7,75543,15434
7,75988,15004
7,76432,15385
7,76877,15935
7,77320,15496
7,77765,15562
7,78208,14713
7,78653,14042
7,79097,14444
7,79542,15402
7,79985,14932
7,80430,14015
7,80873,14531
7,81318,15400
7,81762,14999
7,82207,15448
7,82650,13510
7,83095,14759
7,83538,14840
7,83983,14152
7,84427,13458
7,84872,14091
7,85315,13337
7,85760,14357
7,86205,14315
7,86648,15677
7,87093,13815
7,87537,12913
7,87982,14183
7,88425,13551
7,88870,14533
7,89313,14193
7,89758,14432
7,90202,14637
7,90647,13419
7,91090,13112
7,91535,14627
7,91978,13855
7,92423,13615
7,92867,14061
7,93312,13354
7,93755,13219
7,94200,13308
7,94643,13340
7,95088,13738
7,95532,14144
7,95977,13922
7,96420,14327
7,96865,14394
7,97308,13182
7,97753,12865
7,98198,13655
7,98642,13898
7,99087,14418
7,99530,13182
7,99975,15218
8,00418,14991
8,00863,13753
8,01307,15440
8,01752,15561
8,02195,14724
8,02640,13465
8,03083,14571
8,03528,14279
8,03972,14410
8,04417,15916
8,04860,16978
8,05305,15481
8,05748,15571
8,06193,15249
8,06637,14253
8,07082,15047
8,07525,15147
8,07970,16114
8,08413,18786
8,08858,25515
8,09302,36895
8,09747,63890
8,10192,101957
8,10635,170404
8,11080,258738
8,11523,371660
8,11968,507160
8,12412,632013
8,12857,746242
8,13300,830257
8,13745,902489
8,14188,928864
8,14633,943191
8,15077,917746
8,15522,883171
8,15965,840837
8,16410,788343
8,16853,741121
8,17298,675946
8,17742,629196
8,18187,565776
8,18630,511170
8,19075,461208
8,19518,408136
8,19963,366032
8,20407,319485
8,20852,275786
8,21295,236789
8,21740,199355
8,22185,171936
8,22628,144136
8,23073,126532
8,23517,106423
8,23962,89669
8,24405,78289
8,24850,64854
8,25293,58410
8,25738,52202
8,26182,45615
8,26627,42084
8,27070,38367
8,27515,35641
8,27958,34668
8,28403,31897
8,28847,28545
8,29292,27924
8,29735,26262
8,30180,22615
8,30623,21219
8,31068,20830
8,31512,21150
8,31957,21053
8,32400,19853
8,32845,19076
8,33288,19646
8,33733,18674
8,34177,20193
8,34622,21150
8,35067,20417
8,35510,19686
8,35955,17483
8,36398,18614
8,36843,18885
8,37287,19007
8,37732,19226
8,38175,18949
8,38620,16891
8,39063,18147
8,39508,16186
8,39952,17246
8,40397,14376
8,40840,15813
8,41285,15541
8,41728,14766
8,42173,13679
8,42617,14541
8,43062,14588
8,43505,15037
8,43950,14418
8,44393,13526
8,44838,13376
8,45282,13032
8,45727,13738
8,46170,14117
8,46615,13512
8,47060,12638
8,47503,12980
8,47948,12572
8,48392,12868
8,48837,13314
8,49280,12773
8,49725,13397
8,50168,12724
8,50613,13240
8,51057,12558
8,51502,12888
8,51945,13761
8,52390,12487
8,52833,14825
8,53278,15860
8,53722,16230
8,54167,16928
8,54610,17053
8,55055,16135
8,55498,17433
8,55943,15652
8,56387,16175
8,56832,16259
8,57275,14554
8,57720,16293
8,58163,15463
8,58608,14505
8,59053,15288
8,59497,15141
8,59942,14327
8,60385,13645
8,60830,13826
8,61273,13769
8,61718,12640
8,62162,12717
8,62607,13596
8,63050,13148
8,63495,13552
8,63938,13459
8,64383,12611
8,64827,13188
8,65272,14001
8,65715,13172
8,66160,12979
8,66603,11892
8,67048,13220
8,67492,12305
8,67937,11326
8,68380,12835
8,68825,12081
8,69268,10805
8,69713,11403
8,70157,12196
8,70602,12323
8,71047,12355
8,71490,12851
8,71935,15814
8,72378,20769
8,72823,31070
8,73267,49036
8,73712,77114
8,74155,115051
8,74600,169387
8,75043,227601
8,75488,292515
8,75932,353264
8,76377,402406
8,76820,438707
8,77265,456180
8,77708,463236
8,78153,463605
8,78597,438086
8,79042,417725
8,79485,391909
8,79930,363430
8,80373,334621
8,80818,302396
8,81262,267238
8,81707,237563
8,82150,215803
8,82595,190379
8,83040,160906
8,83483,140012
8,83928,118416
8,84372,102390
8,84817,85856
8,85260,75663
8,85705,64215
8,86148,53766
8,86593,46818
8,87037,42176
8,87482,35936
8,87925,31331
8,88370,28035
8,88813,24901
8,89258,24010
8,89702,22858
8,90147,21349
8,90590,19473
8,91035,17689
8,91478,16544
8,91923,16952
8,92367,16141
8,92812,16846
8,93255,15163
8,93700,17902
8,94143,22398
8,94588,32441
8,95033,49242
8,95477,75092
8,95922,113324
8,96365,169380
8,96810,237462
8,97253,307630
8,97698,374771
8,98142,437622
8,98587,477629
8,99030,521860
8,99475,537311
8,99918,532586
9,00363,520210
9,00807,494410
9,01252,458804
9,01695,422978
9,02140,381395
9,02583,339596
9,03028,299575
9,03472,261968
9,03917,226378
9,04360,197412
9,04805,165567
9,05248,141047
9,05693,118901
9,06137,99992
9,06582,83882
9,07025,70871
9,07470,58240
9,07915,50447
9,08358,44688
9,08803,38227
9,09247,34180
9,09692,31779
9,10135,27306
9,10580,24534
9,11023,23162
9,11468,23070
9,11912,19674
9,12357,19731
9,12800,17893
9,13245,17163
9,13688,16175
9,14133,16243
9,14577,16688
9,15022,15506
9,15465,14641
9,15910,14261
9,16353,13737
9,16798,13400
9,17242,14154
9,17687,14269
9,18130,12498
9,18575,13593
9,19018,12781
9,19463,12495
9,19908,12645
9,20352,11931
9,20797,13254
9,21240,11455
9,21685,11365
9,22128,13240
9,22573,11095
9,23017,11970
9,23462,12111
9,23905,11102
9,24350,12279
9,24793,12190
9,25238,11374
9,25682,12222
9,26127,10859
9,26570,10297
9,27015,10692
9,27458,11441
9,27903,11795
9,28347,10846
9,28792,10567
9,29235,11340
9,29680,11007
9,30123,11288
9,30568,11181
9,31012,11879
9,31457,12231
9,31902,11223
9,32345,12042
9,32790,11879
9,33233,10689
9,33678,11522
9,34122,10975
9,34567,11977
9,35010,10974
9,35455,10474
9,35898,11094
9,36343,10156
9,36787,9999
9,37232,10265
9,37675,10298
9,38120,10773
9,38563,10424
9,39008,10781
9,39452,10790
9,39897,10866
9,40340,9936
9,40785,10776
9,41228,10913
9,41673,10636
9,42117,11327
9,42562,9737
9,43005,10184
9,43450,10648
9,43895,10098
9,44338,10896
9,44783,12055
9,45227,10669
9,45672,10958
9,46115,11681
9,46560,11159
9,47003,9640
9,47448,10947
9,47892,10014
9,48337,9977
9,48780,10650
9,49225,11370
9,49668,11207
9,50113,10180
9,50557,10668
9,51002,11680
9,51445,9633
9,51890,10114
9,52333,11402
9,52778,10117
9,53222,10121
9,53667,10446
9,54110,10324
9,54555,10831
9,54998,10591
9,55443,10365
9,55888,9408
9,56332,11012
9,56777,9671
9,57220,11187
9,57665,10661
9,58108,10615
9,58553,11106
9,58997,10189
9,59442,11175
9,59885,10400
9,60330,11262
9,60773,11357
9,61218,12418
9,61662,16182
9,62107,21272
9,62550,33345
9,62995,52958
9,63438,84031
9,63883,131421
9,64327,186039
9,64772,254212
9,65215,326116
9,65660,400527
9,66103,459431
9,66548,505517
9,66992,532961
9,67437,534544
9,67882,529105
9,68325,511272
9,68770,470949
9,69213,430400
9,69658,390731
9,70102,344759
9,70547,299608
9,70990,252590
9,71435,217408
9,71878,184781
9,72323,152711
9,72767,127060
9,73212,108624
9,73655,88092
9,74100,72883
9,74543,62860
9,74988,51783
9,75432,44278
9,75877,40150
9,76320,33664
9,76765,30465
9,77208,27182
9,77653,24702
9,78097,22222
9,78542,19460
9,78985,18033
9,79430,18168
9,79875,17233
9,80318,16011
9,80763,15150
9,81207,15761
9,81652,14964
9,82095,14579
9,82540,13714
9,82983,13811
9,83428,15479
9,83872,17434
9,84317,24947
9,84760,39478
9,85205,66933
9,85648,123745
9,86093,204110
9,86537,318060
9,86982,486007
9,87425,677822
9,87870,915774
9,88313,1161734
9,88758,1387537
9,89202,1600735
9,89647,1752153
9,90090,1850340
9,90535,1874240
9,90978,1839452
9,91423,1726436
9,91867,1598023
9,92312,1429525
9,92757,1239795
9,93200,1053167
9,93645,869948
9,94088,716691
9,94533,581443
9,94977,465812
9,95422,371356
9,95865,297676
9,96310,244509
9,96753,199360
9,97198,161081
9,97642,133668
9,98087,112689
9,98530,95942
9,98975,81957
9,99418,73457
9,99863,63397
10,00307,54183
10,00752,49826
10,01195,46116
10,01640,42069
10,02083,36802
10,02528,35291
10,02972,32693
10,03417,32077
10,03860,30576
10,04305,26781
10,04750,25408
10,05193,25333
10,05638,24369
10,06082,21534
10,06527,22895
10,06970,20909
10,07415,20759
10,07858,19703
10,08303,18220
10,08747,18217
10,09192,18108
10,09635,17186
10,10080,17523
10,10523,16943
10,10968,16715
10,11412,15076
10,11857,14962
10,12300,14541
10,12745,15351
10,13188,15161
10,13633,13839
10,14077,13848
10,14522,13115
10,14965,12994
10,15410,12785
10,15853,12642
10,16298,13780
10,16743,11945
10,17187,12374
10,17632,11503
10,18075,11716
10,18520,11698
10,18963,12215
10,19408,11861
10,19852,12118
10,20297,11084
10,20740,11691
10,21185,12102
10,21628,11243
10,22073,11189
10,22517,11338
10,22962,10657
10,23405,11466
10,23850,11176
10,24293,10521
10,24738,11786
10,25182,10476
10,25627,11249
10,26070,10626
10,26515,10327
10,26958,10968
10,27403,10333
10,27847,10935
10,28292,11559
10,28737,13050
10,29180,12805
10,29625,13442
10,30068,12540
10,30513,11626
10,30957,11120
10,31402,11008
10,31845,10762
10,32290,10277
10,32733,10118
10,33178,10162
10,33622,9773
10,34067,10468
10,34510,9847
10,34955,10313
10,35398,10856
10,35843,9636
10,36287,9781
10,36732,10770
10,37175,9351
10,37620,11106
10,38063,9570
10,38508,10554
10,38952,10857
10,39397,11563
10,39840,10647
10,40285,10373
10,40730,11194
10,41173,11249
10,41618,11307
10,42062,12696
10,42507,15564
10,42950,19883
10,43395,29655
10,43838,44848
10,44283,74795
10,44727,116237
10,45172,171520
10,45615,238765
10,46060,319212
10,46503,390837
10,46948,470185
10,47392,524918
10,47837,577368
10,48280,590710
10,48725,591944
10,49168,562118
10,49613,524978
10,50057,476670
10,50502,416323
10,50945,360385
10,51390,302328
10,51833,246306
10,52278,208445
10,52723,169010
10,53167,138090
10,53612,107687
10,54055,92552
10,54500,76302
10,54943,61390
10,55388,52429
10,55832,44745
10,56277,40209
10,56720,32732
10,57165,29868
10,57608,27078
10,58053,26042
10,58497,23649
10,58942,23737
10,59385,21778
10,59830,21032
10,60273,19949
10,60718,21048
10,61162,19794
10,61607,18428
10,62050,16986
10,62495,16690
10,62938,14031
10,63383,15098
10,63827,14679
10,64272,14471
10,64715,15378
10,65160,14321
10,65605,14699
10,66048,15427
10,66493,15111
10,66937,16546
10,67382,15984
10,67825,15639
10,68270,16073
10,68713,14818
10,69158,14869
10,69602,15784
10,70047,14455
10,70490,13140
10,70935,14556
10,71378,12046
10,71823,11225
10,72267,11998
10,72712,11767
10,73155,10050
10,73600,10418
10,74043,10768
10,74488,9324
10,74932,10007
10,75377,10674
10,75820,8600
10,76265,10548
10,76708,9366
10,77153,11219
10,77598,11086
10,78042,14594
10,78487,19417
10,78930,27533
10,79375,44291
10,79818,76521
10,80263,123869
10,80707,181607
10,81152,264897
10,81595,352416
10,82040,445991
10,82483,549236
10,82928,615775
10,83372,663193
10,83817,681620
10,84260,670660
10,84705,635378
10,85148,587925
10,85593,512677
10,86037,446319
10,86482,375989
10,86925,306519
10,87370,249825
10,87813,197967
10,88258,163584
10,88702,129980
10,89147,99575
10,89592,84434
10,90035,69145
10,90480,57887
10,90923,49659
10,91368,41846
10,91812,37571
10,92257,32818
10,92700,29627
10,93145,26666
10,93588,22880
10,94033,22864
10,94477,22472
10,94922,19920
10,95365,17478
10,95810,17498
10,96253,17122
10,96698,15554
10,97142,15243
10,97587,15034
10,98030,13536
10,98475,14276
10,98918,12996
10,99363,12067
10,99807,13356
11,00252,11837
11,00695,12191
11,01140,11703
11,01585,11302
11,02028,11633
11,02473,12039
11,02917,11348
11,03362,11142
11,03805,11105
11,04250,10367
11,04693,11658
11,05138,10698
11,05582,10540
11,06027,9882
11,06470,9734
11,06915,10717
11,07358,9878
11,07803,9649
11,08247,10982
11,08692,10643
11,09135,11015
11,09580,11155
11,10023,11055
11,10468,10543
11,10912,10756
11,11357,11150
11,11800,10646
11,12245,9627
11,12688,10202
11,13133,9197
11,13578,9546
11,14022,10162
11,14467,8880
11,14910,8361
11,15355,9345
11,15798,10044
11,16243,9655
11,16687,9212
11,17132,8729
11,17575,9314
11,18020,9319
11,18463,8281
11,18908,8641
11,19352,9761
11,19797,9939
11,20240,9338
11,20685,9157
11,21128,10299
11,21573,9677
11,22017,8917
11,22462,9681
11,22905,8255
11,23350,9004
11,23793,8792
11,24238,9135
11,24682,9313
11,25127,9360
11,25572,9897
11,26015,10126
11,26460,8783
11,26903,8502
11,27348,10550
11,27792,9443
11,28237,10421
11,28680,10376
11,29125,10114
11,29568,9330
11,30013,8084
11,30457,8741
11,30902,10328
11,31345,9207
11,31790,7778
11,32233,9852
11,32678,8367
11,33122,8472
11,33567,9476
11,34010,8721
11,34455,8904
11,34898,8026
11,35343,8957
11,35787,8570
11,36232,10264
11,36675,9983
11,37120,10816
11,37563,13497
11,38008,17962
11,38453,25663
11,38897,45522
11,39342,73005
11,39785,119308
11,40230,179413
11,40673,254514
11,41118,344127
11,41562,436854
11,42007,523432
11,42450,598033
11,42895,649842
11,43338,676400
11,43783,663773
11,44227,632064
11,44672,580753
11,45115,509034
11,45560,433249
11,46003,367406
11,46448,300222
11,46892,243126
11,47337,191111
11,47780,158460
11,48225,122660
11,48668,99663
11,49113,81686
11,49557,66672
11,50002,57254
11,50447,48294
11,50890,40533
11,51335,34485
11,51778,30802
11,52223,27474
11,52667,26287
11,53112,22536
11,53555,21614
11,54000,22135
11,54443,21839
11,54888,18466
11,55332,17261
11,55777,16679
11,56220,14744
11,56665,14513
11,57108,14833
11,57553,13776
11,57997,13347
11,58442,13545
11,58885,12667
11,59330,12910
11,59773,11501
11,60218,12217
11,60662,11151
11,61107,12302
11,61550,11941
11,61995,11629
11,62440,11309
11,62883,10601
11,63328,10093
11,63772,10440
11,64217,10659
11,64660,10525
11,65105,10326
11,65548,9967
11,65993,9034
11,66437,10400
11,66882,9810
11,67325,10143
11,67770,10404
11,68213,9307
11,68658,7935
11,69102,9809
11,69547,9663
11,69990,9996
11,70435,8679
11,70878,9443
11,71323,9600
11,71767,11073
11,72212,10131
11,72655,11825
11,73100,14675
11,73543,21891
11,73988,34257
11,74433,54440
11,74877,95729
11,75322,157044
11,75765,243158
11,76210,368718
11,76653,523998
11,77098,687815
11,77542,889761
11,77987,1082088
11,78430,1281828
11,78875,1438242
11,79318,1518314
11,79763,1542366
11,80207,1498774
11,80652,1385396
11,81095,1210349
11,81540,1012878
11,81983,820555
11,82428,651281
11,82872,513377
11,83317,393771
11,83760,307848
11,84205,240641
11,84648,189834
11,85093,156990
11,85537,126431
11,85982,105977
11,86427,89662
11,86870,75948
11,87315,68636
11,87758,61406
11,88203,54137
11,88647,45890
11,89092,43515
11,89535,39118
11,89980,38008
11,90423,33579
11,90868,31095
11,91312,29001
11,91757,27185
11,92200,27308
11,92645,25413
11,93088,24381
11,93533,22681
11,93977,21342
11,94422,20873
11,94865,20611
11,95310,19800
11,95753,17974
11,96198,19123
11,96642,17483
11,97087,17128
11,97530,16111
11,97975,16059
11,98420,15561
11,98863,14193
11,99308,14982
11,99752,13746
12,00197,15671
12,00640,14767
12,01085,14943
12,01528,13358
12,01973,12016
12,02417,13125
12,02862,12070
12,03305,12118
12,03750,11962
12,04193,12221
12,04638,11960
12,05082,11983
12,05527,11992
12,05970,10981
12,06415,11579
12,06858,11142
12,07303,12653
12,07747,13558
12,08192,18302
12,08635,28901
12,09080,45130
12,09523,75790
12,09968,118868
12,10412,182491
12,10857,265854
12,11302,358516
12,11745,459988
12,12190,562715
12,12633,648608
12,13078,700605
12,13522,731611
12,13967,714324
12,14410,683052
12,14855,613126
12,15298,533499
12,15743,442774
12,16187,364581
12,16632,291121
12,17075,235169
12,17520,184994
12,17963,145655
12,18408,118010
12,18852,93716
12,19297,76826
12,19740,64758
12,20185,57668
12,20628,50341
12,21073,41921
12,21517,35720
12,21962,31465
12,22405,29364
12,22850,27681
12,23295,24729
12,23738,23375
12,24183,21047
12,24627,22330
12,25072,22947
12,25515,27387
12,25960,38671
12,26403,58974
12,26848,96051
12,27292,155415
12,27737,244292
12,28180,361414
12,28625,512766
12,29068,701807
12,29513,893141
12,29957,1096496
12,30402,1269227
12,30845,1395297
12,31290,1451850
12,31733,1444928
12,32178,1370623
12,32622,1229504
12,33067,1045778
12,33510,869804
12,33955,699283
12,34398,555576
12,34843,431883
12,35288,338044
12,35732,265746
12,36177,212940
12,36620,174022
12,37065,142265
12,37508,120229
12,37953,102811
12,38397,88777
12,38842,76020
12,39285,68131
12,39730,59937
12,40173,54826
12,40618,52078
12,41062,46238
12,41507,42190
12,41950,40309
12,42395,35564
12,42838,34884
12,43283,31144
12,43727,30270
12,44172,28420
12,44615,26556
12,45060,24101
12,45503,24822
12,45948,23322
12,46392,22037
12,46837,20272
12,47282,19670
12,47725,19305
12,48170,17563
12,48613,16257
12,49058,17030
12,49502,16533
12,49947,17487
12,50390,17609
12,50835,13721
12,51278,14304
12,51723,14316
12,52167,13324
12,52612,13686
12,53055,12703
12,53500,12805
12,53943,13165
12,54388,11415
12,54832,12768
12,55277,12156
12,55720,12930
12,56165,13413
12,56608,12378
12,57053,11733
12,57497,11515
12,57942,10990
12,58385,11723
12,58830,11692
12,59275,11960
12,59718,11368
12,60163,11831
12,60607,10490
12,61052,10103
12,61495,10764
12,61940,10549
12,62383,9833
12,62828,11209
12,63272,8657
12,63717,10548
12,64160,11964
12,64605,17287
12,65048,21288
12,65493,37627
12,65937,58920
12,66382,97993
12,66825,152856
12,67270,229214
12,67713,318343
12,68158,414841
12,68602,514508
12,69047,597042
12,69490,652080
12,69935,681728
12,70378,676034
12,70823,631536
12,71267,568486
12,71712,487475
12,72157,410901
12,72600,335379
12,73045,273240
12,73488,217571
12,73933,172153
12,74377,138469
12,74822,111656
12,75265,88914
12,75710,75958
12,76153,63748
12,76598,53739
12,77042,48016
12,77487,39440
12,77930,36778
12,78375,31885
12,78818,30154
12,79263,27260
12,79707,26071
12,80152,23240
12,80595,22261
12,81040,22025
12,81483,20251
12,81928,19599
12,82372,18389
12,82817,18327
12,83260,16116
12,83705,16901
12,84150,15395
12,84593,16848
12,85038,14482
12,85482,14472
12,85927,14896
12,86370,13254
12,86815,14122
12,87258,12774
12,87703,12198
12,88147,12959
12,88592,11996
12,89035,12583
12,89480,12622
12,89923,13016
12,90368,12208
12,90812,13360
12,91257,12983
12,91700,13640
12,92145,13350
12,92588,11223
12,93033,12691
12,93477,12343
12,93922,11414
12,94365,11801
12,94810,11447
12,95253,10665
12,95698,11321
12,96143,10761
12,96587,12232
12,97032,10344
12,97475,11053
12,97920,11756
12,98363,10132
12,98808,10546
12,99252,11939
12,99697,11146
13,00140,10037
13,00585,10669
13,01028,9160
13,01473,9799
13,01917,9589
13,02362,10005
13,02805,9470
13,03250,9705
13,03693,9181
13,04138,10132
13,04582,13330
13,05027,16350
13,05470,22802
13,05915,36473
13,06358,55358
13,06803,91485
13,07247,143073
13,07692,213256
13,08137,305243
13,08580,398697
13,09025,481454
13,09468,578311
13,09913,636960
13,10357,661251
13,10802,652175
13,11245,617300
13,11690,555157
13,12133,480613
13,12578,395519
13,13022,322829
13,13467,258751
13,13910,204294
13,14355,165326
13,14798,131128
13,15243,106546
13,15687,83977
13,16132,71642
13,16575,60626
13,17020,51545
13,17463,43950
13,17908,39582
13,18352,34648
13,18797,33042
13,19240,29591
13,19685,27815
13,20130,26319
13,20573,22653
13,21018,21530
13,21462,21936
13,21907,19296
13,22350,19474
13,22795,17674
13,23238,17543
13,23683,18067
13,24127,16105
13,24572,16408
13,25015,16989
13,25460,16032
13,25903,16997
13,26348,15215
13,26792,14472
13,27237,13493
13,27680,13114
13,28125,13720
13,28568,12858
13,29013,13815
13,29457,12232
13,29902,11394
13,30345,12494
13,30790,12157
13,31233,11205
13,31678,11817
13,32123,10961
13,32567,10955
13,33012,10057
13,33455,10590
13,33900,10185
13,34343,12482
13,34788,10876
13,35232,9702
13,35677,9763
13,36120,10236
13,36565,10584
13,37008,11178
13,37453,10747
13,37897,10555
13,38342,10570
13,38785,9475
13,39230,10585
13,39673,11467
13,40118,10382
13,40562,10798
13,41007,10026
13,41450,11138
13,41895,8973
13,42338,10229
13,42783,9303
13,43227,9306
13,43672,9701
13,44117,10015
13,44560,9496
13,45005,9958
13,45448,9645
13,45893,10272
13,46337,9567
13,46782,8836
13,47225,8461
13,47670,9719
13,48113,10890
13,48558,8346
13,49002,8816
13,49447,8505
13,49890,9599
13,50335,9060
13,50778,9867
13,51223,9487
13,51667,9108
13,52112,10656
13,52555,8548
13,53000,9660
13,53443,8174
13,53888,9810
13,54332,9529
13,54777,9039
13,55220,8635
13,55665,9203
13,56108,7407
13,56553,9108
13,56998,8753
13,57442,9549
13,57887,8515
13,58330,9827
13,58775,8408
13,59218,9367
13,59663,9699
13,60107,8522
13,60552,9014
13,60995,10437
13,61440,12656
13,61883,15313
13,62328,27152
13,62772,42745
13,63217,71574
13,63660,117901
13,64105,187239
13,64548,281891
13,64993,409956
13,65437,561615
13,65882,741998
13,66325,935506
13,66770,1128076
13,67213,1324380
13,67658,1515371
13,68102,1697493
13,68547,1832686
13,68992,1956939
13,69435,2004442
13,69880,1987854
13,70323,1885703
13,70768,1694952
13,71212,1452212
13,71657,1184655
13,72100,940898
13,72545,742202
13,72988,562649
13,73433,435660
13,73877,347169
13,74322,272504
13,74765,224926
13,75210,186455
13,75653,157883
13,76098,133103
13,76542,113698
13,76987,102363
13,77430,88813
13,77875,79988
13,78318,71289
13,78763,65469
13,79207,58283
13,79652,53950
13,80095,50876
13,80540,49631
13,80985,41204
13,81428,41154
13,81873,39616
13,82317,37669
13,82762,34480
13,83205,32429
13,83650,31903
13,84093,30798
13,84538,29029
13,84982,27406
13,85427,27593
13,85870,27237
13,86315,27558
13,86758,29075
13,87203,28882
13,87647,30699
13,88092,30419
13,88535,27685
13,88980,28887
13,89423,27424
13,89868,25928
13,90312,24069
13,90757,24990
13,91200,22216
13,91645,21550
13,92088,19345
13,92533,20435
13,92978,18117
13,93422,17177
13,93867,18153
13,94310,15318
13,94755,14613
13,95198,15819
13,95643,15871
13,96087,14503
13,96532,15689
13,96975,17197
13,97420,21648
13,97863,28692
13,98308,41782
13,98752,63117
13,99197,101267
13,99640,150000
14,00085,210399
14,00528,292948
14,00973,380583
14,01417,467820
14,01862,528857
14,02305,571518
14,02750,592848
14,03193,578585
14,03638,532642
14,04082,476522
14,04527,410852
14,04972,337548
14,05415,272333
14,05860,218543
14,06303,175151
14,06748,141403
14,07192,112009
14,07637,90975
14,08080,77752
14,08525,64201
14,08968,54849
14,09413,46389
14,09857,41912
14,10302,35275
14,10745,33685
14,11190,32688
14,11633,28874
14,12078,26533
14,12522,27011
14,12967,24923
14,13410,24378
14,13855,24855
14,14298,28070
14,14743,37562
14,15187,51620
14,15632,75295
14,16075,115262
14,16520,176825
14,16963,247096
14,17408,352102
14,17853,453437
14,18297,563418
14,18742,663642
14,19185,748866
14,19630,782467
14,20073,781308
14,20518,722468
14,20962,653981
14,21407,562272
14,21850,471407
14,22295,380530
14,22738,305254
14,23183,234429
14,23627,188921
14,24072,154960
14,24515,121793
14,24960,98451
14,25403,86442
14,25848,71956
14,26292,63728
14,26737,58456
14,27180,49530
14,27625,46416
14,28068,42052
14,28513,36871
14,28957,36192
14,29402,31733
14,29847,29344
14,30290,27869
14,30735,27411
14,31178,25041
14,31623,23733
14,32067,23095
14,32512,21173
14,32955,20443
14,33400,20641
14,33843,19939
14,34288,19101
14,34732,19862
14,35177,18368
14,35620,17467
14,36065,18352
14,36508,17695
14,36953,16574
14,37397,16050
14,37842,17134
14,38285,15524
14,38730,15648
14,39173,16017
14,39618,16198
14,40062,14587
14,40507,13546
14,40950,13334
14,41395,14534
14,41840,13080
14,42283,13583
14,42728,13636
14,43172,13704
14,43617,13520
14,44060,13325
14,44505,12779
14,44948,13441
14,45393,14608
14,45837,12999
14,46282,12875
14,46725,14499
14,47170,15238
14,47613,14553
14,48058,16208
14,48502,15854
14,48947,16598
14,49390,14211
14,49835,13942
14,50278,12942
14,50723,11938
14,51167,12640
14,51612,9963
14,52055,10872
14,52500,11946
14,52943,10536
14,53388,10511
14,53833,10636
14,54277,11892
14,54722,11107
14,55165,10443
14,55610,12353
14,56053,14031
14,56498,15094
14,56942,20288
14,57387,30201
14,57830,49368
14,58275,82409
14,58718,134421
14,59163,207189
14,59607,300505
14,60052,405836
14,60495,531191
14,60940,657320
14,61383,761109
14,61828,853382
14,62272,884899
14,62717,865943
14,63160,799392
14,63605,700592
14,64048,582583
14,64493,470725
14,64937,374771
14,65382,288968
14,65827,230729
14,66270,180972
14,66715,144877
14,67158,118207
14,67603,96638
14,68047,83683
14,68492,75441
14,68935,64530
14,69380,56627
14,69823,49940
14,70268,45970
14,70712,41647
14,71157,39656
14,71600,36487
14,72045,34597
14,72488,32227
14,72933,29293
14,73377,27715
14,73822,26585
14,74265,24716
14,74710,23363
14,75153,22764
14,75598,23794
14,76042,22331
14,76487,21770
14,76930,21566
14,77375,20826
14,77820,21361
14,78263,18982
14,78708,19141
14,79152,19213
14,79597,18213
14,80040,17661
14,80485,17042
14,80928,17094
14,81373,16589
14,81817,14820
14,82262,16384
14,82705,15891
14,83150,15857
14,83593,14539
14,84038,14935
14,84482,13792
14,84927,12683
14,85370,13499
14,85815,13986
14,86258,13733
14,86703,14560
14,87147,15119
14,87592,12821
14,88035,13363
14,88480,13323
14,88923,13203
14,89368,13241
14,89813,14038
14,90257,12163
14,90702,14209
14,91145,12663
14,91590,13580
14,92033,17607
14,92478,20037
14,92922,29750
14,93367,47045
14,93810,74349
14,94255,115882
14,94698,180850
14,95143,259810
14,95587,348527
14,96032,449011
14,96475,542451
14,96920,628094
14,97363,676519
14,97808,695832
14,98252,665205
14,98697,609519
14,99140,532977
14,99585,450164
15,00028,371483
15,00473,303864
15,00917,239891
15,01362,187979
15,01805,152050
15,02250,123488
15,02695,101104
15,03138,85533
15,03583,68767
15,04027,59259
15,04472,54780
15,04915,49285
15,05360,42890
15,05803,38912
15,06248,36151
15,06692,35220
15,07137,30701
15,07580,29215
15,08025,27176
15,08468,25050
15,08913,24568
15,09357,24202
15,09802,22340
15,10245,20956
15,10690,19356
15,11133,20012
15,11578,19809
15,12022,19549
15,12467,18847
15,12910,17383
15,13355,17642
15,13798,15837
15,14243,17006
15,14688,16208
15,15132,16080
15,15577,15928
15,16020,16187
15,16465,15565
15,16908,14904
15,17353,14530
15,17797,14739
15,18242,14879
15,18685,15027
15,19130,15716
15,19573,14290
15,20018,12797
15,20462,12321
15,20907,12693
15,21350,14610
15,21795,12467
15,22238,13355
15,22683,12531
15,23127,12797
15,23572,13838
15,24015,12483
15,24460,14304
15,24903,13575
15,25348,11932
15,25792,12637
15,26237,12870
15,26682,13248
15,27125,12237
15,27570,12876
15,28013,13002
15,28458,13372
15,28902,12860
15,29347,14045
15,29790,11669
15,30235,12862
15,30678,13117
15,31123,12621
15,31567,11933
15,32012,11967
15,32455,12750
15,32900,11675
15,33343,12584
15,33788,11345
15,34232,11674
15,34677,13068
15,35120,13166
15,35565,12871
15,36008,12147
15,36453,14517
15,36897,11840
15,37342,12297
15,37785,12429
15,38230,13759
15,38675,12041
15,39118,11646
15,39563,11973
15,40007,11156
15,40452,12030
15,40895,11456
15,41340,11231
15,41783,11014
15,42228,12449
15,42672,11872
15,43117,11517
15,43560,11991
15,44005,12225
15,44448,11418
15,44893,12430
15,45337,12461
15,45782,12712
15,46225,13022
15,46670,15001
15,47113,18159
15,47558,26010
15,48002,43444
15,48447,73610
15,48890,125479
15,49335,208218
15,49778,321248
15,50223,480927
15,50668,674278
15,51112,899576
15,51557,1151206
15,52000,1405884
15,52445,1649508
15,52888,1873314
15,53333,2047189
15,53777,2165174
15,54222,2220800
15,54665,2165845
15,55110,2018995
15,55553,1790194
15,55998,1514032
15,56442,1210206
15,56887,952833
15,57330,746230
15,57775,585552
15,58218,463687
15,58663,370630
15,59107,301870
15,59552,248953
15,59995,215444
15,60440,182098
15,60883,162374
15,61328,140514
15,61772,124700
15,62217,114155
15,62662,100698
15,63105,91732
15,63550,84775
15,63993,78464
15,64438,73350
15,64882,67506
15,65327,61493
15,65770,56849
15,66215,53757
15,66658,52795
15,67103,48054
15,67547,46905
15,67992,42280
15,68435,41476
15,68880,39189
15,69323,39040
15,69768,38895
15,70212,36051
15,70657,34933
15,71100,34790
15,71545,32934
15,71988,30480
15,72433,29386
15,72877,29575
15,73322,28947
15,73765,30895
15,74210,27281
15,74653,25649
15,75098,26730
15,75543,25218
15,75987,25478
15,76432,24002
15,76875,24883
15,77320,22896
15,77763,21953
15,78208,21838
15,78652,20270
15,79097,20552
15,79540,19677
15,79985,20127
15,80428,20558
15,80873,22256
15,81317,25366
15,81762,28669
15,82205,37251
15,82650,55124
15,83093,80426
15,83538,124496
15,83982,181465
15,84427,259039
15,84870,347421
15,85315,438313
15,85758,524534
15,86203,600213
15,86647,639545
15,87092,643245
15,87537,622375
15,87980,564041
15,88425,501376
15,88868,440204
15,89313,377944
15,89757,342181
15,90202,327355
15,90645,334868
15,91090,366528
15,91533,418053
15,91978,482479
15,92422,548575
15,92867,588163
15,93310,620581
15,93755,633580
15,94198,599409
15,94643,552707
15,95087,489362
15,95532,424469
15,95975,358922
15,96420,299920
15,96863,254463
15,97308,223136
15,97752,206505
15,98197,219435
15,98640,249518
15,99085,303541
15,99530,380364
15,99973,471572
16,00418,572117
16,00862,675911
16,01307,761182
16,01750,814982
16,02195,831088
16,02638,812653
16,03083,750046
16,03527,651989
16,03972,555396
16,04415,463148
16,04860,373510
16,05303,307040
16,05748,247028
16,06192,199791
16,06637,167774
16,07080,141734
16,07525,122976
16,07968,103904
16,08413,90783
16,08857,84726
16,09302,75312
16,09745,68175
16,10190,63825
16,10633,60447
16,11078,55388
16,11523,52573
16,11967,47230
16,12412,44742
16,12855,43253
16,13300,42520
16,13743,37478
16,14188,37132
16,14632,33041
16,15077,31663
16,15520,33203
16,15965,31373
16,16408,29593
16,16853,28496
16,17297,26244
16,17742,26984
16,18185,26732
16,18630,26284
16,19073,25399
16,19518,24778
16,19962,24480
16,20407,23129
16,20850,24479
16,21295,23360
16,21738,24012
16,22183,21364
16,22627,21646
16,23072,21411
16,23517,22078
16,23960,19911
16,24405,21172
16,24848,20245
16,25293,19257
16,25737,19213
16,26182,20331
16,26625,18827
16,27070,19966
16,27513,18354
16,27958,19742
16,28402,20942
16,28847,18286
16,29290,18964
16,29735,19153
16,30178,19823
16,30623,17980
16,31067,17846
16,31512,19627
16,31955,18613
16,32400,16987
16,32843,16600
16,33288,19811
16,33732,16886
16,34177,17558
16,34620,17394
16,35065,16772
16,35510,18165
16,35953,20384
16,36398,25219
16,36842,33315
16,37287,48965
16,37730,74090
16,38175,113602
16,38618,171637
16,39063,245464
16,39507,344228
16,39952,457741
16,40395,580503
16,40840,708115
16,41283,812429
16,41728,878548
16,42172,906672
16,42617,874179
16,43060,781210
16,43505,673748
16,43948,564100
16,44393,453949
16,44837,362260
16,45282,287347
16,45725,235482
16,46170,191708
16,46613,164194
16,47058,136188
16,47502,116726
16,47947,104539
16,48392,95878
16,48835,85161
16,49280,76286
16,49723,67223
16,50168,61912
16,50612,57979
16,51057,51667
16,51500,50392
16,51945,45214
16,52388,43115
16,52833,41461
16,53277,41328
16,53722,39540
16,54165,36517
16,54610,35475
16,55053,33156
16,55498,33392
16,55942,33371
16,56387,32432
16,56830,31564
16,57275,30100
16,57718,29255
16,58163,28883
16,58607,27373
16,59052,27709
16,59495,27389
16,59940,27208
16,60385,25151
16,60828,24626
16,61273,25962
16,61717,24334
16,62162,23502
16,62605,22590
16,63050,23673
16,63493,24165
16,63938,25109
16,64382,24024
16,64827,24181
16,65270,23761
16,65715,22717
16,66158,24203
16,66603,23192
16,67047,23113
16,67492,21850
16,67935,20922
16,68380,21163
16,68823,21352
16,69268,20818
16,69712,20042
16,70157,20307
16,70600,20672
16,71045,24205
16,71488,26753
16,71933,35654
16,72378,50713
16,72822,76164
16,73267,112906
16,73710,166706
16,74155,242790
16,74598,339862
16,75043,446964
16,75487,552572
16,75932,649556
16,76375,714029
16,76820,731331
16,77263,717135
16,77708,650657
16,78152,570153
16,78597,484789
16,79040,402244
16,79485,329140
16,79928,268837
16,80373,228766
16,80817,208167
16,81262,201992
16,81705,210217
16,82150,242706
16,82593,291052
16,83038,349302
16,83482,418570
16,83927,482134
16,84372,538168
16,84815,567780
16,85260,568479
16,85703,544230
16,86148,503045
16,86592,447254
16,87037,380789
16,87480,321580
16,87925,265811
16,88368,221593
16,88813,180853
16,89257,148786
16,89702,124714
16,90145,106402
16,90590,89585
16,91033,81443
16,91478,71865
16,91922,64106
16,92367,59011
16,92810,52224
16,93255,48373
16,93698,46334
16,94143,43523
16,94587,39506
16,95032,39302
16,95475,36809
16,95920,32924
16,96365,35520
16,96808,32127
16,97253,32484
16,97697,30760
16,98142,29650
16,98585,27649
16,99030,28053
16,99473,27736
16,99918,26944
17,00362,25771
17,00807,24578
17,01250,24728
17,01695,24743
17,02138,24506
17,02583,23511
17,03027,22609
17,03472,23361
17,03915,23337
17,04360,21378
17,04803,22769
17,05248,22114
17,05692,22469
17,06137,20802
17,06580,21527
17,07025,20315
17,07468,20253
17,07913,19719
17,08358,23108
17,08802,20250
17,09247,20558
17,09690,21174
17,10135,21086
17,10578,20869
17,11023,20043
17,11467,19338
17,11912,20685
17,12355,19016
17,12800,18517
17,13243,19804
17,13688,18381
17,14132,19010
17,14577,19674
17,15020,18444
17,15465,19387
17,15908,19197
17,16353,18749
17,16797,19172
17,17242,18837
17,17685,17411
17,18130,18651
17,18573,18969
17,19018,18196
17,19462,18235
17,19907,20003
17,20350,18046
17,20795,18434
17,21240,18873
17,21683,18590
17,22128,20378
17,22572,20893
17,23017,26055
17,23460,34850
17,23905,48919
17,24348,74784
17,24793,110990
17,25237,164726
17,25682,233594
17,26125,337002
17,26570,462519
17,27013,600325
17,27458,762416
17,27902,937757
17,28347,1122416
17,28790,1322752
17,29235,1506210
17,29678,1642494
17,30123,1722731
17,30567,1691895
17,31012,1572316
17,31455,1370317
17,31900,1123204
17,32343,906272
17,32788,695630
17,33233,549782
17,33677,439477
17,34122,358826
17,34565,298466
17,35010,247478
17,35453,210116
17,35898,190983
17,36342,161035
17,36787,148804
17,37230,134821
17,37675,119135
17,38118,109920
17,38563,100929
17,39007,94999
17,39452,87849
17,39895,84486
17,40340,78195
17,40783,71982
17,41228,67786
17,41672,65494
17,42117,60154
17,42560,59598
17,43005,58132
17,43448,52719
17,43893,52094
17,44337,51254
17,44782,48607
17,45227,47635
17,45670,43538
17,46115,44138
17,46558,43238
17,47003,41944
17,47447,39660
17,47892,42243
17,48335,39183
17,48780,38798
17,49223,38171
17,49668,37208
17,50112,34938
17,50557,34966
17,51000,34347
17,51445,33964
17,51888,34414
17,52333,30535
17,52777,29492
17,53222,33134
17,53665,28488
17,54110,31155
17,54553,29278
17,54998,30169
17,55442,27306
17,55887,29944
17,56330,28500
17,56775,28397
17,57220,29288
17,57663,27981
17,58108,28095
17,58552,26811
17,58997,27242
17,59440,29155
17,59885,26424
17,60328,26457
17,60773,26758
17,61217,28008
17,61662,27439
17,62105,28598
17,62550,25692
17,62993,27767
17,63438,25796
17,63882,26425
17,64327,26535
17,64770,25746
17,65215,25946
17,65658,25689
17,66103,23938
17,66547,24777
17,66992,23458
17,67435,24006
17,67880,24195
17,68323,24238
17,68768,24120
17,69213,27898
17,69657,33312
17,70102,43503
17,70545,63323
17,70990,92374
17,71433,132515
17,71878,192948
17,72322,272808
17,72767,367375
17,73210,478433
17,73655,584357
17,74098,685101
17,74543,769587
17,74987,817777
17,75432,822779
17,75875,781613
17,76320,707907
17,76763,617069
17,77208,517785
17,77652,430111
17,78097,348122
17,78540,285777
17,78985,231257
17,79428,194242
17,79873,165697
17,80317,144269
17,80762,124920
17,81207,110333
17,81650,99912
17,82095,89764
17,82538,81021
17,82983,75133
17,83427,69040
17,83872,63708
17,84315,59890
17,84760,60649
17,85203,54665
17,85648,52327
17,86092,47606
17,86537,46637
17,86980,43326
17,87425,41321
17,87868,42194
17,88313,38960
17,88757,40011
17,89202,38201
17,89645,34260
17,90090,35275
17,90533,36285
17,90978,33876
17,91422,33821
17,91867,32417
17,92310,32509
17,92755,30698
17,93198,31043
17,93643,32827
17,94088,32125
17,94532,31380
17,94977,29827
17,95420,29442
17,95865,29858
17,96308,28761
17,96753,29120
17,97197,27463
17,97642,27774
17,98085,26684
17,98530,26409
17,98973,27272
17,99418,25079
17,99862,23589
18,00307,25097
18,00750,24960
18,01195,27072
18,01638,25660
18,02083,23584
18,02527,24863
18,02972,25331
18,03415,23923
18,03860,24090
18,04303,23562
18,04748,23922
18,05192,24903
18,05637,26524
18,06082,24017
18,06525,25393
18,06970,26609
18,07413,24652
18,07858,26217
18,08302,25219
18,08747,25557
18,09190,25555
18,09635,26829
18,10078,25829
18,10523,24728
18,10967,25536
18,11412,24567
18,11855,25229
18,12300,26268
18,12743,24313
18,13188,23890
18,13632,24755
18,14077,22823
18,14520,24611
18,14965,22351
18,15408,23065
18,15853,23477
18,16297,23168
18,16742,23036
18,17185,22726
18,17630,23235
18,18075,21783
18,18518,21577
18,18963,21651
18,19407,22478
18,19852,22283
18,20295,22326
18,20740,22444
18,21183,20255
18,21628,20227
18,22072,20497
18,22517,21702
18,22960,23385
18,23405,20650
18,23848,21183
18,24293,22270
18,24737,22333
18,25182,21572
18,25625,22932
18,26070,22208
18,26513,22645
18,26958,24418
18,27402,20971
18,27847,23282
18,28290,21369
18,28735,22790
18,29178,22268
18,29623,22455
18,30068,22582
18,30512,21590
18,30957,21334
18,31400,21591
18,31845,22650
18,32288,23346
18,32733,22787
18,33177,23239
18,33622,21133
18,34065,23775
18,34510,22933
18,34953,21506
18,35398,24082
18,35842,23097
18,36287,24436
18,36730,24028
18,37175,24876
18,37618,22994
18,38063,25497
18,38507,26206
18,38952,25906
18,39395,24773
18,39840,22880
18,40283,22170
18,40728,22188
18,41172,22785
18,41617,22688
18,42062,20521
18,42505,20993
18,42950,22180
18,43393,20729
18,43838,21776
18,44282,20800
18,44727,21308
18,45170,21131
18,45615,22588
18,46058,22093
18,46503,20759
18,46947,21938
18,47392,23286
18,47835,20515
18,48280,22478
18,48723,21258
18,49168,20904
18,49612,21849
18,50057,22742
18,50500,20695
18,50945,21088
18,51388,22778
18,51833,24593
18,52277,21937
18,52722,23948
18,53165,22914
18,53610,21364
18,54055,22630
18,54498,22122
18,54943,21598
18,55387,22601
18,55832,22043
18,56275,21187
18,56720,22295
18,57163,23448
18,57608,23282
18,58052,21406
18,58497,23427
18,58940,24016
18,59385,23448
18,59828,24480
18,60273,23259
18,60717,22978
18,61162,22883
18,61605,22912
18,62050,21814
18,62493,23833
18,62938,22173
18,63382,23078
18,63827,23186
18,64270,22869
18,64715,21629
18,65158,21602
18,65603,22701
18,66047,22593
18,66492,21030
18,66937,22884
18,67380,22066
18,67825,23888
18,68268,21303
18,68713,23586
18,69157,21192
18,69602,22286
18,70045,22979
18,70490,22673
18,70933,22419
18,71378,21373
18,71822,20696
18,72267,22360
18,72710,21809
18,73155,20852
18,73598,20869
18,74043,22979
18,74487,22968
18,74932,22434
18,75375,22828
18,75820,20609
18,76263,22799
18,76708,22860
18,77152,23998
18,77597,21213
18,78040,22739
18,78485,21740
18,78930,22803
18,79373,22851
18,79818,22315
18,80262,23233
18,80707,23011
18,81150,21034
18,81595,21647
18,82038,23051
18,82483,22666
18,82927,23384
18,83372,22739
18,83815,21447
18,84260,23126
18,84703,22770
18,85148,22577
18,85592,22277
18,86037,21764
18,86480,23885
18,86925,22559
18,87368,24131
18,87813,24359
18,88257,22415
18,88702,23016
18,89145,22751
18,89590,21573
18,90033,21603
18,90478,22217
18,90923,22647
18,91367,22212
18,91812,22326
18,92255,23086
18,92700,23212
18,93143,24072
18,93588,22833
18,94032,23316
18,94477,22610
18,94920,22992
18,95365,24142
18,95808,26958
18,96253,29201
18,96697,36101
18,97142,47950
18,97585,66131
18,98030,94988
18,98473,135677
18,98918,181354
18,99362,239942
18,99807,301179
19,00250,369944
19,00695,416817
19,01138,457192
19,01583,475292
19,02027,469375
19,02472,455756
19,02917,411609
19,03360,366405
19,03805,322429
19,04248,270219
19,04693,226861
19,05137,189707
19,05582,160617
19,06025,139438
19,06470,116305
19,06913,100477
19,07358,87041
19,07802,75832
19,08247,70758
19,08690,66422
19,09135,61048
19,09578,56898
19,10023,51736
19,10467,52119
19,10912,45877
19,11355,43578
19,11800,40593
19,12243,39664
19,12688,38893
19,13132,38402
19,13577,36559
19,14020,36173
19,14465,33864
19,14910,35019
19,15353,33598
19,15798,35511
19,16242,33537
19,16687,32338
19,17130,32224
19,17575,31546
19,18018,29810
19,18463,29176
19,18907,28932
19,19352,29735
19,19795,28392
19,20240,29651
19,20683,28227
19,21128,30184
19,21572,27484
19,22017,29136
19,22460,25798
19,22905,28362
19,23348,27530
19,23793,26523
19,24237,26273
19,24682,26521
19,25125,25265
19,25570,27007
19,26013,26374
19,26458,27289
19,26903,25854
19,27347,24625
19,27792,26840
19,28235,23903
19,28680,25120
19,29123,26285
19,29568,24636
19,30012,24909
19,30457,25257
19,30900,25997
19,31345,25682
19,31788,24919
19,32233,25244
19,32677,24940
19,33122,25607
19,33565,22327
19,34010,24026
19,34453,24190
19,34898,23551
19,35342,23534
19,35787,24595
19,36230,24361
19,36675,24213
19,37118,25389
19,37563,24143
19,38007,23891
19,38452,22838
19,38895,24650
19,39340,26207
19,39785,24322
19,40228,24061
19,40673,26543
19,41117,25047
19,41562,25608
19,42005,24860
19,42450,25076
19,42893,24834
19,43338,24146
19,43782,25117
19,44227,24740
19,44670,25229
19,45115,24655
19,45558,26081
19,46003,25239
19,46447,24853
19,46892,24508
19,47335,25231
19,47780,25057
19,48223,25571
19,48668,24887
19,49112,24084
19,49557,25353
19,50000,23897
19,50445,23168
19,50888,23900
19,51333,24253
19,51778,24947
19,52222,22618
19,52667,22758
19,53110,23650
19,53555,23002
19,53998,23189
19,54443,25025
