D:\MassHunter\GCMS\1\data\Amal\Constant flow\60C\60C_1ml-min_7C-min_1.D Wed Aug 07 16:26:47 2024
Start of data points
6,59092	16781
6,59503	15630
6,59917	14895
6,60328	16240
6,60740	15121
6,61153	15418
6,61565	15846
6,61977	15661
6,62390	16379
6,62802	15467
6,63213	14702
6,63627	15745
6,64038	15367
6,64450	15693
6,64862	14711
6,65275	16282
6,65687	16024
6,66098	14388
6,66512	15095
6,66923	16295
6,67335	16362
6,67748	15095
6,68160	14692
6,68572	14859
6,68985	14719
6,69397	13838
6,69808	14050
6,70222	14019
6,70633	13574
6,71045	14198
6,71458	13845
6,71870	14069
6,72282	13880
6,72695	14112
6,73107	14181
6,73518	13728
6,73930	14833
6,74343	13857
6,74755	14190
6,75167	12967
6,75580	12507
6,75992	13612
6,76403	13389
6,76817	11636
6,77228	14184
6,77640	13639
6,78053	13299
6,78465	14478
6,78877	14162
6,79290	13393
6,79702	12247
6,80113	14395
6,80527	13008
6,80938	12936
6,81350	13126
6,81763	13312
6,82175	12350
6,82587	12446
6,82998	12070
6,83412	11737
6,83823	12817
6,84235	12194
6,84648	12398
6,85060	12427
6,85472	12740
6,85885	12264
6,86297	12021
6,86708	12530
6,87122	12764
6,87533	12050
6,87945	12582
6,88358	11756
6,88770	12258
6,89182	13181
6,89595	12248
6,90007	13502
6,90418	11875
6,90832	11651
6,91243	11727
6,91655	12505
6,92067	11283
6,92480	12061
6,92892	11442
6,93303	11627
6,93717	12445
6,94128	12071
6,94540	11190
6,94953	11297
6,95365	12010
6,95777	11056
6,96190	11561
6,96602	10830
6,97013	11151
6,97427	10217
6,97838	11480
6,98250	11104
6,98663	10653
6,99075	10595
6,99487	10600
6,99900	9863
7,00312	10869
7,00723	10891
7,01135	9567
7,01548	10957
7,01960	10168
7,02372	10534
7,02785	10018
7,03197	9679
7,03608	10027
7,04022	10575
7,04433	10687
7,04845	10401
7,05258	9887
7,05670	9258
7,06082	10332
7,06495	9677
7,06907	10467
7,07318	9716
7,07732	10054
7,08143	10800
7,08555	10206
7,08968	9568
7,09380	10043
7,09792	10396
7,10203	9884
7,10617	9563
7,11028	10027
7,11440	9621
7,11853	9698
7,12265	10388
7,12677	9904
7,13090	9506
7,13502	8994
7,13913	9585
7,14327	9489
7,14738	9038
7,15150	10354
7,15563	9038
7,15975	9625
7,16387	10192
7,16800	9334
7,17212	9292
7,17623	9360
7,18037	9696
7,18448	10558
7,18860	10796
7,19272	9987
7,19685	9598
7,20097	10283
7,20508	10680
7,20922	11723
7,21333	11933
7,21745	12330
7,22158	13951
7,22570	14997
7,22982	14907
7,23395	15672
7,23807	16474
7,24218	17434
7,24632	16284
7,25043	16593
7,25455	16402
7,25868	16759
7,26280	16435
7,26692	16381
7,27105	15041
7,27517	15053
7,27928	15024
7,28340	14185
7,28753	13812
7,29165	12782
7,29577	13475
7,29990	14081
7,30402	13414
7,30813	11425
7,31227	11886
7,31638	11227
7,32050	11792
7,32463	11283
7,32875	10187
7,33287	10231
7,33700	10126
7,34112	9978
7,34523	9780
7,34937	9439
7,35348	9651
7,35760	8669
7,36173	7918
7,36585	9288
7,36997	8838
7,37408	8983
7,37822	8791
7,38233	8954
7,38645	9970
7,39058	9776
7,39470	8668
7,39882	9598
7,40295	9222
7,40707	9028
7,41118	9626
7,41532	8748
7,41943	9173
7,42355	9382
7,42768	8706
7,43180	8391
7,43592	7555
7,44005	8093
7,44417	7953
7,44828	8091
7,45242	6996
7,45653	7846
7,46065	7911
7,46477	7545
7,46890	7822
7,47302	7645
7,47713	8066
7,48127	8717
7,48538	7574
7,48950	8615
7,49363	7615
7,49775	6955
7,50187	7418
7,50600	6894
7,51012	8148
7,51423	8520
7,51837	7186
7,52248	7321
7,52660	7903
7,53073	7524
7,53485	7780
7,53897	7753
7,54310	7517
7,54722	7116
7,55133	7157
7,55545	7569
7,55958	7287
7,56370	7156
7,56782	7181
7,57195	8163
7,57607	8309
7,58018	7970
7,58432	8885
7,58843	8685
7,59255	7723
7,59668	6900
7,60080	7963
7,60492	8187
7,60905	7431
7,61317	7379
7,61728	8147
7,62142	8526
7,62553	7502
7,62965	8862
7,63378	6645
7,63790	7766
7,64202	7762
7,64615	7498
7,65027	7909
7,65438	7055
7,65850	7270
7,66263	6928
7,66675	7184
7,67087	6823
7,67500	7108
7,67912	6769
7,68323	7279
7,68737	6541
7,69148	6238
7,69560	6235
7,69973	6649
7,70385	6355
7,70797	6636
7,71210	6804
7,71622	6416
7,72033	7492
7,72447	6719
7,72858	7008
7,73270	6949
7,73683	7279
7,74095	7430
7,74507	7834
7,74918	7816
7,75332	7520
7,75743	6989
7,76155	7832
7,76568	8124
7,76980	8466
7,77392	7810
7,77805	6890
7,78217	7699
7,78628	7318
7,79042	7179
7,79453	6687
7,79865	7263
7,80278	7720
7,80690	8443
7,81102	10613
7,81515	14595
7,81927	20481
7,82338	30013
7,82752	43897
7,83163	64895
7,83575	88123
7,83987	125171
7,84400	164304
7,84812	218826
7,85223	266619
7,85637	323666
7,86048	367580
7,86460	424807
7,86873	456615
7,87285	481594
7,87697	501249
7,88110	518987
7,88522	501441
7,88933	496963
7,89347	472616
7,89758	449078
7,90170	430296
7,90583	400589
7,90995	360823
7,91407	329873
7,91820	302172
7,92232	283497
7,92643	253057
7,93055	228162
7,93468	206400
7,93880	187430
7,94292	163699
7,94705	146821
7,95117	133979
7,95528	119017
7,95942	107702
7,96353	92771
7,96765	83163
7,97178	76060
7,97590	66990
7,98002	59490
7,98415	51889
7,98827	45685
7,99238	42121
7,99652	38278
8,00063	34683
8,00475	31217
8,00888	28371
8,01300	27823
8,01712	23052
8,02123	21787
8,02537	21153
8,02948	18882
8,03360	17317
8,03773	16555
8,04185	16530
8,04597	16577
8,05010	14748
8,05422	14089
8,05833	13788
8,06247	12661
8,06658	13343
8,07070	11050
8,07483	11574
8,07895	11161
8,08307	9749
8,08720	11609
8,09132	10245
8,09543	10012
8,09957	9930
8,10368	9024
8,10780	9448
8,11192	8941
8,11605	8426
8,12017	9542
8,12428	8651
8,12842	8001
8,13253	8170
8,13665	8495
8,14078	8313
8,14490	7828
8,14902	7459
8,15315	7533
8,15727	8433
8,16138	7033
8,16552	7711
8,16963	7517
8,17375	7508
8,17788	7828
8,18200	7498
8,18612	6521
8,19025	6742
8,19437	6855
8,19848	6747
8,20260	6723
8,20673	6910
8,21085	6980
8,21497	7629
8,21910	6444
8,22322	6641
8,22733	6662
8,23147	6549
8,23558	6732
8,23970	6731
8,24383	6168
8,24795	6281
8,25207	6285
8,25620	6270
8,26032	6094
8,26443	7015
8,26857	6723
8,27268	6175
8,27680	6534
8,28093	6543
8,28505	5973
8,28917	6181
8,29328	5881
8,29742	5947
8,30153	5799
8,30565	5358
8,30978	5753
8,31390	5569
8,31802	6381
8,32215	5666
8,32627	5779
8,33038	5921
8,33452	5984
8,33863	5907
8,34275	6293
8,34688	5791
8,35100	5375
8,35512	6005
8,35925	5340
8,36337	4986
8,36748	4786
8,37162	5714
8,37573	5646
8,37985	5183
8,38397	5633
8,38810	5168
8,39222	5164
8,39633	6429
8,40047	5239
8,40458	5168
8,40870	5921
8,41283	5045
8,41695	6521
8,42107	5700
8,42520	5163
8,42932	4559
8,43343	5365
8,43757	5812
8,44168	4851
8,44580	4339
8,44993	5300
8,45405	5223
8,45817	4840
8,46230	5133
8,46642	5302
8,47053	5034
8,47465	5298
8,47878	5974
8,48290	5371
8,48702	5291
8,49115	4506
8,49527	5190
8,49938	4540
8,50352	5210
8,50763	4824
8,51175	5210
8,51588	4994
8,52000	5035
8,52412	5824
8,52825	5245
8,53237	5118
8,53648	5658
8,54062	4287
8,54473	5019
8,54885	5271
8,55298	4780
8,55710	5902
8,56122	5748
8,56533	6160
8,56947	7014
8,57358	7231
8,57770	8508
8,58183	8473
8,58595	8638
8,59007	8824
8,59420	9062
8,59832	8850
8,60243	8041
8,60657	7784
8,61068	7507
8,61480	6932
8,61893	6803
8,62305	5515
8,62717	6470
8,63130	5878
8,63542	5275
8,63953	4317
8,64367	4359
8,64778	4374
8,65190	4966
8,65602	5221
8,66015	5434
8,66427	4513
8,66838	4547
8,67252	4798
8,67663	4362
8,68075	4534
8,68488	4748
8,68900	4354
8,69312	4835
8,69725	4808
8,70137	4230
8,70548	4550
8,70962	4685
8,71373	4772
8,71785	4782
8,72198	4546
8,72610	4185
8,73022	5099
8,73435	5128
8,73847	4631
8,74258	4857
8,74670	4680
8,75083	4512
8,75495	4318
8,75907	4919
8,76320	4451
8,76732	4943
8,77143	4915
8,77557	4265
8,77968	4255
8,78380	4366
8,78793	3602
8,79205	4436
8,79617	3640
8,80030	4817
8,80442	4181
8,80853	4680
8,81267	4123
8,81678	4292
8,82090	4048
8,82503	4831
8,82915	4079
8,83327	4374
8,83738	3940
8,84152	4035
8,84563	3590
8,84975	4139
8,85388	4440
8,85800	4421
8,86212	5335
8,86625	4103
8,87037	4719
8,87448	4011
8,87862	4453
8,88273	4558
8,88685	4467
8,89098	4599
8,89510	4389
8,89922	4349
8,90335	4308
8,90747	4737
8,91158	4008
8,91572	3756
8,91983	4335
8,92395	3875
8,92807	4055
8,93220	4200
8,93632	4014
8,94043	3931
8,94457	4299
8,94868	4243
8,95280	4024
8,95693	3925
8,96105	4035
8,96517	4268
8,96930	4219
8,97342	4591
8,97753	3679
8,98167	4221
8,98578	3903
8,98990	3652
8,99403	4149
8,99815	3898
9,00227	3717
9,00640	4293
9,01052	4398
9,01463	3875
9,01875	3867
9,02288	4458
9,02700	3577
9,03112	3982
9,03525	3840
9,03937	4393
9,04348	4614
9,04762	4095
9,05173	3807
9,05585	4483
9,05998	4324
9,06410	4307
9,06822	4461
9,07235	4403
9,07647	4068
9,08058	5102
9,08472	4541
9,08883	4202
9,09295	4618
9,09708	4624
9,10120	4140
9,10532	4176
9,10945	4319
9,11357	4013
9,11768	4004
9,12180	3771
9,12593	3908
9,13005	4119
9,13417	4036
9,13830	4443
9,14242	3599
9,14653	4414
9,15067	4192
9,15478	4229
9,15890	3740
9,16303	4375
9,16715	3537
9,17127	4000
9,17540	3750
9,17952	4049
9,18363	4089
9,18777	3688
9,19188	3811
9,19600	3675
9,20013	3400
9,20425	4025
9,20837	3721
9,21248	3565
9,21662	4063
9,22073	3897
9,22485	4142
9,22898	3767
9,23310	3570
9,23722	3902
9,24135	3787
9,24547	3500
9,24958	3857
9,25372	3541
9,25783	4062
9,26195	3344
9,26608	3973
9,27020	3623
9,27432	3651
9,27845	3690
9,28257	3941
9,28668	3627
9,29082	4392
9,29493	4125
9,29905	3688
9,30317	4097
9,30730	4318
9,31142	3380
9,31553	3727
9,31967	3613
9,32378	3643
9,32790	3318
9,33203	3470
9,33615	3735
9,34027	3572
9,34440	3659
9,34852	3778
9,35263	3378
9,35677	3402
9,36088	3369
9,36500	3508
9,36913	3750
9,37325	3607
9,37737	3447
9,38150	3717
9,38562	3522
9,38973	3837
9,39385	3312
9,39798	3731
9,40210	4025
9,40622	3915
9,41035	3471
9,41447	3464
9,41858	3467
9,42272	3914
9,42683	3391
9,43095	4259
9,43508	3802
9,43920	3776
9,44332	2941
9,44745	3175
9,45157	3571
9,45568	3663
9,45982	3374
9,46393	3223
9,46805	3473
9,47218	3932
9,47630	3501
9,48042	3940
9,48453	3756
9,48867	3390
9,49278	4261
9,49690	3676
9,50103	3556
9,50515	3363
9,50927	3940
9,51340	3481
9,51752	3980
9,52163	3662
9,52577	3730
9,52988	3893
9,53400	3711
9,53813	3655
9,54225	3285
9,54637	3406
9,55050	3477
9,55462	3902
9,55873	3170
9,56287	3352
9,56698	3426
9,57110	3723
9,57522	3570
9,57935	3789
9,58347	3691
9,58758	3670
9,59172	3666
9,59583	3657
9,59995	3615
9,60408	3742
9,60820	3436
9,61232	3347
9,61645	3583
9,62057	3063
9,62468	3039
9,62882	3109
9,63293	3179
9,63705	3331
9,64118	3412
9,64530	3647
9,64942	3281
9,65355	3943
9,65767	3352
9,66178	3855
9,66590	3195
9,67003	3197
9,67415	3271
9,67827	3575
9,68240	3417
9,68652	3437
9,69063	2918
9,69477	3460
9,69888	2806
9,70300	3289
9,70713	3266
9,71125	3161
9,71537	3125
9,71950	3394
9,72362	3612
9,72773	3272
9,73187	3143
9,73598	3467
9,74010	3366
9,74423	3272
9,74835	3348
9,75247	3186
9,75658	3284
9,76072	3163
9,76483	2901
9,76895	3158
9,77308	3259
9,77720	3129
9,78132	3659
9,78545	3421
9,78957	3728
9,79368	2939
9,79782	2889
9,80193	3359
9,80605	3842
9,81018	3005
9,81430	4364
9,81842	4545
9,82255	5443
9,82667	4796
9,83078	4474
9,83492	4550
9,83903	5019
9,84315	5354
9,84727	4968
9,85140	4898
9,85552	3958
9,85963	4271
9,86377	3629
9,86788	3517
9,87200	3924
9,87613	3339
9,88025	2956
9,88437	3846
9,88850	3473
9,89262	3444
9,89673	3725
9,90087	3438
9,90498	3066
9,90910	3195
9,91323	3311
9,91735	3301
9,92147	3322
9,92560	2617
9,92972	3204
9,93383	2680
9,93795	2753
9,94208	3193
9,94620	3197
9,95032	3029
9,95445	3105
9,95857	3277
9,96268	3720
9,96682	3246
9,97093	3577
9,97505	3260
9,97918	3202
9,98330	3089
9,98742	2949
9,99155	3791
9,99567	3109
9,99978	3119
10,00392	2813
10,00803	3346
10,01215	2811
10,01628	3428
10,02040	3266
10,02452	3328
10,02863	3284
10,03277	3063
10,03688	3369
10,04100	2885
10,04513	3074
10,04925	3135
10,05337	2471
10,05750	3149
10,06162	2929
10,06573	2701
10,06987	3200
10,07398	3359
10,07810	2737
10,08223	3292
10,08635	3047
10,09047	3340
10,09460	2801
10,09872	3234
10,10283	3029
10,10697	3279
10,11108	2716
10,11520	2997
10,11932	2475
10,12345	3262
10,12757	2787
10,13168	2759
10,13582	3073
10,13993	2684
10,14405	3309
10,14818	2877
10,15230	2982
10,15642	3297
10,16055	3068
10,16467	2678
10,16878	3293
10,17292	2545
10,17703	2647
10,18115	3001
10,18528	3158
10,18940	3846
10,19352	3074
10,19765	2989
10,20177	3091
10,20588	2924
10,21000	2647
10,21413	3130
10,21825	3154
10,22237	3338
10,22650	2801
10,23062	3028
10,23473	2717
10,23887	2678
10,24298	3329
10,24710	3068
10,25123	2926
10,25535	2889
10,25947	2863
10,26360	3006
10,26772	2373
10,27183	3300
10,27597	2625
10,28008	2935
10,28420	2978
10,28833	2914
10,29245	2911
10,29657	2678
10,30068	3224
10,30482	2618
10,30893	2753
10,31305	2663
10,31718	2327
10,32130	2455
10,32542	3043
10,32955	2493
10,33367	2540
10,33778	2740
10,34192	3483
10,34603	3063
10,35015	3200
10,35428	4271
10,35840	6775
10,36252	9262
10,36665	14265
10,37077	21595
10,37488	30689
10,37902	43846
10,38313	60800
10,38725	82316
10,39137	103174
10,39550	125097
10,39962	146066
10,40373	161231
10,40787	170961
10,41198	177767
10,41610	180805
10,42023	173064
10,42435	163707
10,42847	149821
10,43260	132944
10,43672	116167
10,44083	103405
10,44497	87025
10,44908	70470
10,45320	60589
10,45733	51541
10,46145	42434
10,46557	36920
10,46970	30846
10,47382	28260
10,47793	22955
10,48205	20150
10,48618	16577
10,49030	15627
10,49442	13855
10,49855	13459
10,50267	11386
10,50678	10134
10,51092	9235
10,51503	8174
10,51915	8780
10,52328	8548
10,52740	7805
10,53152	6570
10,53565	7129
10,53977	7147
10,54388	6748
10,54802	6255
10,55213	5645
10,55625	5409
10,56038	5347
10,56450	4616
10,56862	4918
10,57273	4513
10,57687	5098
10,58098	4332
10,58510	4179
10,58923	4792
10,59335	4586
10,59747	4521
10,60160	4023
10,60572	3410
10,60983	4470
10,61397	3527
10,61808	3851
10,62220	3083
10,62633	3516
10,63045	4088
10,63457	2996
10,63870	3527
10,64282	3541
10,64693	2901
10,65107	3820
10,65518	3277
10,65930	3472
10,66343	3217
10,66755	3163
10,67167	3678
10,67578	3040
10,67992	3304
10,68403	3365
10,68815	3585
10,69228	2685
10,69640	2818
10,70052	2990
10,70465	2979
10,70877	2971
10,71288	2962
10,71702	3595
10,72113	2902
10,72525	3110
10,72938	2719
10,73350	2716
10,73762	2716
10,74175	3131
10,74587	2353
10,74998	2668
10,75412	3097
10,75823	3074
10,76235	3019
10,76647	2985
10,77060	3287
10,77472	3045
10,77883	2487
10,78297	2617
10,78708	2789
10,79120	2699
10,79533	2773
10,79945	2223
10,80357	2433
10,80770	2721
10,81182	2761
10,81593	2424
10,82007	2788
10,82418	2692
10,82830	2651
10,83243	2154
10,83655	2504
10,84067	3107
10,84480	2672
10,84892	2705
10,85303	2708
10,85715	2721
10,86128	2436
10,86540	2941
10,86952	2075
10,87365	2718
10,87777	2622
10,88188	2438
10,88602	2329
10,89013	2351
10,89425	3029
10,89838	2325
10,90250	2724
10,90662	2207
10,91075	2599
10,91487	2409
10,91898	2991
10,92312	2263
10,92723	2452
10,93135	2699
10,93548	2326
10,93960	2365
10,94372	2229
10,94783	2553
10,95197	2636
10,95608	3021
10,96020	2087
10,96433	3055
10,96845	3194
10,97257	2865
10,97670	2621
10,98082	3761
10,98493	2910
10,98907	3384
10,99318	3170
10,99730	3447
11,00143	3934
11,00555	3380
11,00967	2617
11,01380	3233
11,01792	3430
11,02203	2579
11,02617	2750
11,03028	3684
11,03440	2570
11,03852	2849
11,04265	2835
11,04677	2808
11,05088	2898
11,05502	2168
11,05913	2250
11,06325	2748
11,06738	2343
11,07150	2484
11,07562	2457
11,07975	2612
11,08387	2151
11,08798	2746
11,09212	2374
11,09623	2641
11,10035	2423
11,10448	2485
11,10860	2867
11,11272	2526
11,11685	1930
11,12097	3074
11,12508	2355
11,12920	2561
11,13333	2361
11,13745	2825
11,14157	2882
11,14570	2288
11,14982	2640
11,15393	2942
11,15807	1759
11,16218	2706
11,16630	2066
11,17043	2268
11,17455	2418
11,17867	2409
11,18280	2545
11,18692	2103
11,19103	2462
11,19517	2639
11,19928	2728
11,20340	2295
11,20753	2239
11,21165	2572
11,21577	2340
11,21988	2223
11,22402	2421
11,22813	2414
11,23225	1937
11,23638	1895
11,24050	2201
11,24462	2562
11,24875	1821
11,25287	2672
11,25698	2468
11,26112	2845
11,26523	2714
11,26935	2567
11,27348	2912
11,27760	2733
11,28172	2455
11,28585	2482
11,28997	2805
11,29408	2912
11,29822	3085
11,30233	2613
11,30645	2616
11,31057	2861
11,31470	2789
11,31882	2657
11,32293	2616
11,32707	2657
11,33118	2683
11,33530	2317
11,33943	2735
11,34355	2778
11,34767	3510
11,35180	4563
11,35592	4206
11,36003	5658
11,36417	6003
11,36828	6505
11,37240	6280
11,37653	5798
11,38065	4950
11,38477	4768
11,38890	4288
11,39302	3322
11,39713	2508
11,40125	2581
11,40538	3058
11,40950	3003
11,41362	2249
11,41775	3164
11,42187	3058
11,42598	2730
11,43012	2499
11,43423	2695
11,43835	2185
11,44248	2649
11,44660	2672
11,45072	2326
11,45485	2758
11,45897	2826
11,46308	2563
11,46722	2578
11,47133	2256
11,47545	2571
11,47958	2399
11,48370	2755
11,48782	2533
11,49193	2483
11,49607	2150
11,50018	2149
11,50430	2176
11,50843	2530
11,51255	2067
11,51667	2246
11,52080	2568
11,52492	2448
11,52903	2392
11,53317	1871
11,53728	2393
11,54140	2054
11,54553	2397
11,54965	2668
11,55377	1889
11,55790	2225
11,56202	2119
11,56613	2528
11,57027	2759
11,57438	2102
11,57850	2385
11,58262	2712
11,58675	2292
11,59087	2574
11,59498	2170
11,59912	2741
11,60323	1836
11,60735	2315
11,61148	2220
11,61560	2719
11,61972	2352
11,62385	2812
11,62797	1908
11,63208	2164
11,63622	2129
11,64033	2454
11,64445	2516
11,64858	2903
11,65270	2534
11,65682	2504
11,66095	2841
11,66507	3344
11,66918	2106
11,67330	2483
11,67743	2508
11,68155	2995
11,68567	2638
11,68980	2078
11,69392	2439
11,69803	2660
11,70217	2464
11,70628	2460
11,71040	2176
11,71453	2264
11,71865	2509
11,72277	2226
11,72690	2209
11,73102	3135
11,73513	1942
11,73927	2301
11,74338	2709
11,74750	2941
11,75163	2378
11,75575	2605
11,75987	2337
11,76398	3120
11,76812	3205
11,77223	3248
11,77635	3142
11,78048	4174
11,78460	3764
11,78872	4978
11,79285	5614
11,79697	5520
11,80108	5703
11,80522	6225
11,80933	7090
11,81345	6793
11,81758	6222
11,82170	7580
11,82582	5887
11,82995	5850
11,83407	5231
11,83818	4619
11,84232	4793
11,84643	3938
11,85055	4369
11,85467	3610
11,85880	2341
11,86292	3300
11,86703	3457
11,87117	2722
11,87528	2713
11,87940	2319
11,88353	2509
11,88765	2298
11,89177	2573
11,89590	2291
11,90002	2154
11,90413	1986
11,90827	2668
11,91238	2247
11,91650	1740
11,92063	2262
11,92475	2167
11,92887	2037
11,93300	2450
11,93712	2052
11,94123	2660
11,94535	2042
11,94948	2459
11,95360	2425
11,95772	2172
11,96185	1992
11,96597	2151
11,97008	2094
11,97422	2221
11,97833	2237
11,98245	2342
11,98658	1995
11,99070	1928
11,99482	2188
11,99895	2488
12,00307	2625
12,00718	2361
12,01132	2528
12,01543	2903
12,01955	2489
12,02368	1974
12,02780	1941
12,03192	2168
12,03603	2038
12,04017	2293
12,04428	1711
12,04840	2168
12,05253	1988
12,05665	2103
12,06077	2058
12,06490	2441
12,06902	1838
12,07313	2267
12,07727	2400
12,08138	2041
12,08550	2171
12,08963	2252
12,09375	2026
12,09787	2366
12,10200	2067
12,10612	2127
12,11023	2212
12,11437	1976
12,11848	2312
12,12260	2364
12,12672	2234
12,13085	1685
12,13497	2605
12,13908	2438
12,14322	1930
12,14733	1856
12,15145	2239
12,15558	2243
12,15970	2124
12,16382	2651
12,16795	2521
12,17207	2264
12,17618	3071
12,18032	2796
12,18443	2714
12,18855	2876
12,19268	2782
12,19680	2758
12,20092	2944
12,20505	3168
12,20917	3303
12,21328	2331
12,21742	2680
12,22153	2076
12,22565	2405
12,22977	2862
12,23390	1788
12,23802	2596
12,24213	1936
12,24627	2279
12,25038	2042
12,25450	2705
12,25863	2000
12,26275	1911
12,26687	2894
12,27100	1960
12,27512	1634
12,27923	2046
12,28337	1716
12,28748	2038
12,29160	2170
12,29573	1788
12,29985	1838
12,30397	2016
12,30810	1946
12,31222	2243
12,31633	1966
12,32045	2254
12,32458	1997
12,32870	1841
12,33282	2330
12,33695	2145
12,34107	2404
12,34518	1972
12,34932	2346
12,35343	2115
12,35755	2508
12,36168	2118
12,36580	2273
12,36992	2541
12,37405	2223
12,37817	2090
12,38228	2483
12,38642	2639
12,39053	2111
12,39465	1908
12,39878	1615
12,40290	1989
12,40702	1805
12,41113	2044
12,41527	2086
12,41938	1993
12,42350	1986
12,42763	1857
12,43175	2057
12,43587	2192
12,44000	2139
12,44412	2291
12,44823	2554
12,45237	2190
12,45648	2426
12,46060	2194
12,46473	2153
12,46885	2839
12,47297	2326
12,47710	2208
12,48122	2658
12,48533	2638
12,48947	2387
12,49358	2494
12,49770	3344
12,50182	2968
12,50595	2647
12,51007	2974
12,51418	3374
12,51832	3528
12,52243	2863
12,52655	3652
12,53068	3129
12,53480	3328
12,53892	2392
12,54305	2728
12,54717	3771
12,55128	2922
12,55542	1997
12,55953	2441
12,56365	1988
12,56778	2184
12,57190	2310
12,57602	1371
12,58015	2716
12,58427	2818
12,58838	2826
12,59250	1990
12,59663	2597
12,60075	2231
12,60487	2733
12,60900	2060
12,61312	2322
12,61723	2102
12,62137	1820
12,62548	2261
12,62960	2168
12,63373	2298
12,63785	2279
12,64197	2233
12,64610	2379
12,65022	2077
12,65433	2349
12,65847	1847
12,66258	2201
12,66670	2038
12,67083	1789
12,67495	2594
12,67907	1545
12,68318	1882
12,68732	1932
12,69143	2084
12,69555	2215
12,69968	2072
12,70380	2284
12,70792	1948
12,71205	2053
12,71617	2269
12,72028	1886
12,72442	2544
12,72853	2232
12,73265	2573
12,73678	1907
12,74090	2410
12,74502	2364
12,74915	2959
12,75327	2468
12,75738	2100
12,76152	2514
12,76563	2388
12,76975	2099
12,77387	2742
12,77800	2138
12,78212	3226
12,78623	2994
12,79037	2799
12,79448	2734
12,79860	2680
12,80273	2803
12,80685	3313
12,81097	2354
12,81510	2468
12,81922	2503
12,82333	2248
12,82747	3040
12,83158	2304
12,83570	2568
12,83983	3094
12,84395	3085
12,84807	2619
12,85220	2551
12,85632	2098
12,86043	1926
12,86455	2065
12,86868	2472
12,87280	2179
12,87692	1592
12,88105	1953
12,88517	2185
12,88928	2407
12,89342	2425
12,89753	2012
12,90165	2242
12,90578	2349
12,90990	2212
12,91402	2140
12,91815	2188
12,92227	1987
12,92638	1829
12,93052	2049
12,93463	2223
12,93875	2211
12,94288	2038
12,94700	2350
12,95112	2147
12,95523	2193
12,95937	1936
12,96348	2345
12,96760	1938
12,97173	2295
12,97585	2224
12,97997	2073
12,98410	2001
12,98822	2266
12,99233	1768
12,99647	1958
13,00058	1829
13,00470	2640
13,00883	1787
13,01295	2136
13,01707	2595
13,02120	1928
13,02532	1940
13,02943	1917
13,03357	1700
13,03768	1964
13,04180	2022
13,04592	1810
13,05005	1805
13,05417	1944
13,05828	2505
13,06242	2053
13,06653	1813
13,07065	2028
13,07478	2507
13,07890	3257
13,08302	4160
13,08715	5912
13,09127	10368
13,09538	20414
13,09952	37440
13,10363	62968
13,10775	108147
13,11188	170437
13,11600	251568
13,12012	348577
13,12425	470732
13,12837	582134
13,13248	701574
13,13660	799748
13,14073	862603
13,14485	877843
13,14897	871803
13,15310	822542
13,15722	751436
13,16133	663577
13,16547	573997
13,16958	474371
13,17370	388181
13,17783	317587
13,18195	259081
13,18607	209239
13,19020	170399
13,19432	139696
13,19843	116098
13,20257	97467
13,20668	79751
13,21080	68658
13,21493	59829
13,21905	51873
13,22317	44868
13,22728	41230
13,23142	37692
13,23553	34056
13,23965	29349
13,24378	26923
13,24790	23977
13,25202	22350
13,25615	19777
13,26027	19099
13,26438	18755
13,26852	16761
13,27263	17156
13,27675	14386
13,28088	12576
13,28500	12472
13,28912	11768
13,29325	10587
13,29737	10230
13,30148	9868
13,30562	10192
13,30973	8877
13,31385	8036
13,31797	9338
13,32210	8534
13,32622	8122
13,33033	8744
13,33447	7503
13,33858	7122
13,34270	6520
13,34683	7313
13,35095	6420
13,35507	6604
13,35920	5942
13,36332	5856
13,36743	6427
13,37157	5579
13,37568	5385
13,37980	4514
13,38393	5200
13,38805	5804
13,39217	4791
13,39630	4673
13,40042	4128
13,40453	4713
13,40865	5539
13,41278	4531
13,41690	4571
13,42102	4165
13,42515	4408
13,42927	3677
13,43338	4148
13,43752	3597
13,44163	3281
13,44575	4260
13,44988	3977
13,45400	3974
13,45812	3358
13,46225	2965
13,46637	3430
13,47048	3349
13,47462	4215
13,47873	3438
13,48285	3087
13,48698	3371
13,49110	3289
13,49522	3411
13,49933	2779
13,50347	2757
13,50758	2898
13,51170	3055
13,51583	2693
13,51995	2751
13,52407	2060
13,52820	2912
13,53232	3233
13,53643	3325
13,54057	2403
13,54468	3234
13,54880	2864
13,55293	2349
13,55705	3218
13,56117	2467
13,56530	2543
13,56942	2572
13,57353	2128
13,57767	1964
13,58178	2889
13,58590	2339
13,59002	2605
13,59415	2383
13,59827	2627
13,60238	2437
13,60652	3017
13,61063	2281
13,61475	2843
13,61888	2419
13,62300	2366
13,62712	3082
13,63125	2763
13,63537	3150
13,63948	2979
13,64362	2493
13,64773	2820
13,65185	2684
13,65598	2457
13,66010	2816
13,66422	3182
13,66835	2512
13,67247	2309
13,67658	2922
13,68070	2945
13,68483	3298
13,68895	2995
13,69307	2998
13,69720	3171
13,70132	3155
13,70543	3178
13,70957	2840
13,71368	3110
13,71780	2492
13,72193	2286
13,72605	2381
13,73017	1959
13,73430	2431
13,73842	2251
13,74253	2420
13,74667	2536
13,75078	2204
13,75490	2909
13,75903	2785
13,76315	1655
13,76727	2431
13,77138	1876
13,77552	2066
13,77963	1869
13,78375	2038
13,78788	2351
13,79200	2308
13,79612	1940
13,80025	2375
13,80437	2125
13,80848	1838
13,81262	1843
13,81673	2615
13,82085	2221
13,82498	2766
13,82910	3094
13,83322	2704
13,83735	3228
13,84147	1834
13,84558	3703
13,84972	2591
13,85383	2375
13,85795	2425
13,86208	1764
13,86620	2496
13,87032	2544
13,87443	2474
13,87857	2267
13,88268	3094
13,88680	2149
13,89093	1539
13,89505	2317
13,89917	2449
13,90330	2055
13,90742	1969
13,91153	1976
13,91567	2427
13,91978	1853
13,92390	1977
13,92803	2257
13,93215	2645
13,93627	1912
13,94040	1932
13,94452	1540
13,94863	1872
13,95277	2153
13,95688	1777
13,96100	1642
13,96512	1894
13,96925	2112
13,97337	1783
13,97748	1544
13,98162	1602
13,98573	2247
13,98985	2345
13,99398	2058
13,99810	1896
14,00222	2008
14,00635	2504
14,01047	1796
14,01458	1987
14,01872	2286
14,02283	2348
14,02695	2140
14,03108	2398
14,03520	1822
14,03932	1896
14,04345	2454
14,04757	3454
14,05168	3215
14,05580	4205
14,05993	5604
14,06405	5670
14,06817	7051
14,07230	5867
14,07642	5038
14,08053	4354
14,08467	3146
14,08878	2539
14,09290	2090
14,09703	2227
14,10115	2374
14,10527	2050
14,10940	2560
14,11352	2081
14,11763	1748
14,12177	2187
14,12588	1995
14,13000	2027
14,13413	1912
14,13825	3013
14,14237	3016
14,14648	1584
14,15062	2050
14,15473	2193
14,15885	2079
14,16298	1967
14,16710	2324
14,17122	2515
14,17535	2319
14,17947	2418
14,18358	2482
14,18772	1990
14,19183	2086
14,19595	1416
14,20008	2662
14,20420	1977
14,20832	1649
14,21245	2223
14,21657	1743
14,22068	2350
14,22482	1861
14,22893	2334
14,23305	2115
14,23717	2007
14,24130	2453
14,24542	1597
14,24953	1912
14,25367	2247
14,25778	2115
14,26190	1832
14,26603	3052
14,27015	2040
14,27427	1814
14,27840	1824
14,28252	1595
14,28663	2425
14,29077	1605
14,29488	2648
14,29900	3338
14,30313	3247
14,30725	3433
14,31137	4285
14,31550	5224
14,31962	5583
14,32373	5956
14,32785	7134
14,33198	6337
14,33610	6469
14,34022	6485
14,34435	6586
14,34847	6278
14,35258	5480
14,35672	5462
14,36083	4866
14,36495	4199
14,36908	3212
14,37320	3561
14,37732	3612
14,38145	2892
14,38557	2751
14,38968	2298
14,39382	2798
14,39793	3037
14,40205	4630
14,40618	5700
14,41030	11954
14,41442	20226
14,41853	34827
14,42267	60831
14,42678	99122
14,43090	150709
14,43503	221407
14,43915	297974
14,44327	376770
14,44740	450069
14,45152	507066
14,45563	549892
14,45977	565554
14,46388	548614
14,46800	524638
14,47213	461138
14,47625	399756
14,48037	337616
14,48450	285400
14,48862	225169
14,49273	188342
14,49687	151931
14,50098	116629
14,50510	96143
14,50922	78740
14,51335	66297
14,51747	53737
14,52158	48054
14,52572	41055
14,52983	34468
14,53395	30635
14,53808	26501
14,54220	23629
14,54632	20779
14,55045	19845
14,55457	17242
14,55868	16658
14,56282	14588
14,56693	12969
14,57105	12665
14,57518	12400
14,57930	11125
14,58342	10561
14,58755	9697
14,59167	9437
14,59578	8811
14,59990	8162
14,60403	8738
14,60815	8110
14,61227	6701
14,61640	5935
14,62052	7194
14,62463	5373
14,62877	5499
14,63288	5878
14,63700	4499
14,64113	5525
14,64525	5507
14,64937	4886
14,65350	4257
14,65762	4032
14,66173	4452
14,66587	4031
14,66998	4035
14,67410	4468
14,67823	3391
14,68235	3744
14,68647	4954
14,69058	3201
14,69472	3982
14,69883	3196
14,70295	3413
14,70708	3353
14,71120	3476
14,71532	3346
14,71945	2977
14,72357	3631
14,72768	3040
14,73182	3033
14,73593	3428
14,74005	2699
14,74418	2577
14,74830	2502
14,75242	3085
14,75655	2483
14,76067	3407
14,76478	2271
14,76892	3073
14,77303	2866
14,77715	2565
14,78127	2383
14,78540	2442
14,78952	2821
14,79363	2089
14,79777	2211
14,80188	2659
14,80600	2081
14,81013	2583
14,81425	2855
14,81837	2944
14,82250	2645
14,82662	2019
14,83073	2356
14,83487	2327
14,83898	2291
14,84310	2304
14,84723	2174
14,85135	2851
14,85547	2117
14,85960	2087
14,86372	2824
14,86783	1792
14,87195	2148
14,87608	2455
14,88020	2416
14,88432	1896
14,88845	2211
14,89257	2629
14,89668	1791
14,90082	1903
14,90493	1497
14,90905	1902
14,91318	2269
14,91730	2297
14,92142	2316
14,92555	2324
14,92967	2812
14,93378	2943
14,93792	3173
14,94203	2455
14,94615	3052
14,95028	3317
14,95440	3562
14,95852	4105
14,96263	4030
14,96677	3696
14,97088	4212
14,97500	4255
14,97913	3624
14,98325	3038
14,98737	2519
14,99150	2887
14,99562	3289
14,99973	1932
15,00387	2373
15,00798	2328
15,01210	2267
15,01623	1704
15,02035	1889
15,02447	1468
15,02860	1267
15,03272	1796
15,03683	1973
15,04097	1639
15,04508	2115
15,04920	1694
15,05332	1750
15,05745	2022
15,06157	1653
15,06568	1732
15,06982	1365
15,07393	2104
15,07805	1680
15,08218	1854
15,08630	1812
15,09042	2183
15,09455	1796
15,09867	2328
15,10278	1551
15,10692	1759
15,11103	1728
15,11515	1423
15,11928	1357
15,12340	1613
15,12752	2017
15,13165	1432
15,13577	1716
15,13988	2048
15,14400	1924
15,14813	2151
15,15225	1681
15,15637	2049
15,16050	1895
15,16462	1476
15,16873	1975
15,17287	2614
15,17698	1753
15,18110	1713
15,18523	1683
15,18935	2181
15,19347	1975
15,19760	1996
15,20172	1371
15,20583	1449
15,20997	1481
15,21408	1503
15,21820	1389
15,22233	1680
15,22645	1238
15,23057	1565
15,23468	1917
15,23882	1542
15,24293	1324
15,24705	1475
15,25118	1909
15,25530	1827
15,25942	1906
15,26355	1490
15,26767	1908
15,27178	1946
15,27592	1911
15,28003	1684
15,28415	1387
15,28828	1512
15,29240	1729
15,29652	1482
15,30065	1724
15,30477	1501
15,30888	1346
15,31302	1746
15,31713	1572
15,32125	1993
15,32537	1719
15,32950	1366
15,33362	1582
15,33773	1529
15,34187	2083
15,34598	2282
15,35010	1836
15,35423	1665
15,35835	1626
15,36247	1852
15,36660	2143
15,37072	1681
15,37483	1585
15,37897	1987
15,38308	1925
15,38720	1504
15,39133	2347
15,39545	1661
15,39957	2342
15,40370	2200
15,40782	2208
15,41193	2820
15,41605	2639
15,42018	2497
15,42430	2621
15,42842	2138
15,43255	2155
15,43667	3106
15,44078	2204
15,44492	2051
15,44903	3163
15,45315	3137
15,45728	2838
15,46140	2566
15,46552	2383
15,46965	2663
15,47377	1789
15,47788	1800
15,48202	2128
15,48613	2030
15,49025	2267
15,49438	1942
15,49850	1845
15,50262	2457
15,50675	1726
15,51087	1876
15,51498	1389
15,51910	1598
15,52323	1767
15,52735	1652
15,53147	1470
15,53560	1798
15,53972	1665
15,54383	1542
15,54797	1950
15,55208	1460
15,55620	1657
15,56033	1833
15,56445	1395
15,56857	1883
15,57270	2111
15,57682	1314
15,58093	1374
15,58507	1714
15,58918	1848
15,59330	1584
15,59743	1562
15,60155	1424
15,60567	1348
15,60978	1148
15,61392	1295
15,61803	1337
15,62215	1886
15,62628	1648
15,63040	1475
15,63452	1327
15,63865	1637
15,64277	1863
15,64688	1527
15,65102	1823
15,65513	1926
15,65925	3462
15,66338	6608
15,66750	12413
15,67162	25379
15,67575	47926
15,67987	90280
15,68398	157499
15,68812	247908
15,69223	377762
15,69635	543260
15,70047	726389
15,70460	922080
15,70872	1110552
15,71283	1249573
15,71697	1328947
15,72108	1373848
15,72520	1328088
15,72933	1216287
15,73345	1067205
15,73757	906028
15,74170	739983
15,74582	595504
15,74993	473899
15,75407	371400
15,75818	299919
15,76230	232185
15,76643	189520
15,77055	155348
15,77467	127411
15,77880	107379
15,78292	88348
15,78703	73738
15,79115	64614
15,79528	56802
15,79940	51515
15,80352	45040
15,80765	40234
15,81177	34732
15,81588	31424
15,82002	27970
15,82413	27065
15,82825	24315
15,83238	22538
15,83650	20355
15,84062	18405
15,84475	17813
15,84887	15826
15,85298	16145
15,85712	14410
15,86123	13517
15,86535	11667
15,86948	10931
15,87360	12132
15,87772	10011
15,88183	9554
15,88597	10277
15,89008	8370
15,89420	8930
15,89833	8655
15,90245	7437
15,90657	7334
15,91070	7605
15,91482	6678
15,91893	7278
15,92307	5407
15,92718	6210
15,93130	5548
15,93543	5445
15,93955	7213
15,94367	5519
15,94780	5207
15,95192	5000
15,95603	4540
15,96017	4918
15,96428	4784
15,96840	4161
15,97252	4225
15,97665	4707
15,98077	3841
15,98488	3951
15,98902	4749
15,99313	3071
15,99725	3634
16,00138	3537
16,00550	3985
16,00962	3466
16,01375	3815
16,01787	3409
16,02198	3580
16,02612	3823
16,03023	3654
16,03435	3391
16,03848	2976
16,04260	3208
16,04672	3276
16,05085	2709
16,05497	3237
16,05908	3168
16,06320	2987
16,06733	3219
16,07145	2746
16,07557	2815
16,07970	2263
16,08382	2784
16,08793	2097
16,09207	2614
16,09618	2857
16,10030	2792
16,10443	2589
16,10855	2497
16,11267	3073
16,11680	1849
16,12092	2604
16,12503	2444
16,12917	2708
16,13328	2227
16,13740	2611
16,14153	2251
16,14565	2363
16,14977	2280
16,15388	2911
16,15802	2947
16,16213	2864
16,16625	2649
16,17038	3305
16,17450	2828
16,17862	3344
16,18275	5085
16,18687	5550
16,19098	6193
16,19512	6986
16,19923	8313
16,20335	9781
16,20748	10701
16,21160	12129
16,21572	12340
16,21985	13573
16,22397	12758
16,22808	13425
16,23222	12944
16,23633	9928
16,24045	11175
16,24457	8997
16,24870	7841
16,25282	7173
16,25693	6157
16,26107	5199
16,26518	4118
16,26930	4427
16,27343	4264
16,27755	4066
16,28167	3377
16,28580	3553
16,28992	3524
16,29403	3022
16,29817	3057
16,30228	2362
16,30640	1855
16,31053	2152
16,31465	2344
16,31877	2623
16,32290	1507
16,32702	2081
16,33113	1806
16,33525	1999
16,33938	1789
16,34350	2017
16,34762	2157
16,35175	2293
16,35587	2174
16,35998	964
16,36412	1767
16,36823	1740
16,37235	1979
16,37648	1894
16,38060	1943
16,38472	1980
16,38885	1217
16,39297	1240
16,39708	1528
16,40122	1641
16,40533	1444
16,40945	2084
16,41358	1985
16,41770	1705
16,42182	1848
16,42593	1343
16,43007	1748
16,43418	1234
16,43830	1552
16,44243	1223
16,44655	1692
16,45067	1476
16,45480	1683
16,45892	1764
16,46303	1329
16,46717	1493
16,47128	1451
16,47540	1144
16,47953	1495
16,48365	2125
16,48777	1544
16,49190	1397
16,49602	1797
16,50013	1644
16,50427	2363
16,50838	2732
16,51250	2986
16,51662	4708
16,52075	4596
16,52487	4313
16,52898	4039
16,53312	3016
16,53723	3218
16,54135	2111
16,54548	1773
16,54960	1633
16,55372	2020
16,55785	1566
16,56197	1160
16,56608	1251
16,57022	1782
16,57433	1588
16,57845	1350
16,58258	1414
16,58670	1401
16,59082	1425
16,59495	1456
16,59907	1318
16,60318	1717
16,60730	1945
16,61143	857
16,61555	1585
16,61967	1575
16,62380	1344
16,62792	1529
16,63203	1120
16,63617	1832
16,64028	1691
16,64440	1606
16,64853	1650
16,65265	966
16,65677	1862
16,66090	1686
16,66502	1503
16,66913	1794
16,67327	1563
16,67738	1882
16,68150	1219
16,68563	1990
16,68975	1394
16,69387	1264
16,69798	1186
16,70212	1332
16,70623	1379
16,71035	1420
16,71448	1287
16,71860	1300
16,72272	1166
16,72685	2128
16,73097	1784
16,73508	1590
16,73922	2120
16,74333	1172
16,74745	1435
16,75158	1871
16,75570	1158
16,75982	2196
16,76395	1783
16,76807	2021
16,77218	2259
16,77632	1699
16,78043	1843
16,78455	2140
16,78867	1509
16,79280	2109
16,79692	1178
16,80103	1920
16,80517	1607
16,80928	1502
16,81340	1100
16,81753	1419
16,82165	1045
16,82577	1271
16,82990	1250
16,83402	1172
16,83813	1197
16,84227	1507
16,84638	1311
16,85050	1233
16,85463	1815
16,85875	2548
16,86287	3782
16,86700	5830
16,87112	14070
16,87523	25345
16,87935	50970
16,88348	87341
16,88760	141215
16,89172	219553
16,89585	316172
16,89997	421924
16,90408	541206
16,90822	635560
16,91233	720392
16,91645	754866
16,92058	752580
16,92470	716354
16,92882	657807
16,93295	563667
16,93707	481808
16,94118	392029
16,94532	310683
16,94943	245055
16,95355	189632
16,95768	151359
16,96180	119240
16,96592	95690
16,97003	78875
16,97417	62274
16,97828	52750
16,98240	44996
16,98653	39212
16,99065	33985
16,99477	26478
16,99890	25579
17,00302	20730
17,00713	20372
17,01127	17462
17,01538	15383
17,01950	14864
17,02363	13018
17,02775	12212
17,03187	11743
17,03600	10250
17,04012	10206
17,04423	8945
17,04837	8166
17,05248	7607
17,05660	6390
17,06072	7566
17,06485	6499
17,06897	6263
17,07308	7031
17,07722	6019
17,08133	5206
17,08545	5607
17,08958	4637
17,09370	4742
17,09782	4346
17,10195	5242
17,10607	3837
17,11018	3923
17,11432	3602
17,11843	3485
17,12255	3469
17,12668	3536
17,13080	2665
17,13492	2761
17,13905	2663
17,14317	2555
17,14728	3187
17,15142	3343
17,15553	3023
17,15965	2964
17,16377	2760
17,16790	2307
17,17202	2386
17,17613	2703
17,18027	2764
17,18438	2290
17,18850	1902
17,19263	1693
17,19675	1731
17,20087	1751
17,20500	1763
17,20912	2529
17,21323	2025
17,21737	1728
17,22148	2045
17,22560	1815
17,22973	2114
17,23385	1873
17,23797	1409
17,24210	1577
17,24622	1471
17,25033	1250
17,25445	1599
17,25858	1854
17,26270	1963
17,26682	1929
17,27095	1110
17,27507	1763
17,27918	1405
17,28332	1484
17,28743	1712
17,29155	1445
17,29568	1459
17,29980	1255
17,30392	1758
17,30805	1814
17,31217	1534
17,31628	1369
17,32042	1387
17,32453	1264
17,32865	1369
17,33278	1340
17,33690	1597
17,34102	1273
17,34513	1263
17,34927	1224
17,35338	1486
17,35750	1503
17,36163	1036
17,36575	1459
17,36987	1191
17,37400	1214
17,37812	1472
17,38223	1232
17,38637	1590
17,39048	1334
17,39460	1121
17,39873	846
17,40285	1562
17,40697	1726
17,41110	890
17,41522	1350
17,41933	1195
17,42347	1291
17,42758	1231
17,43170	1570
17,43582	1224
17,43995	1268
17,44407	1160
17,44818	1216
17,45232	1246
17,45643	1727
17,46055	1089
17,46468	1687
17,46880	1533
17,47292	2242
17,47705	2369
17,48117	3054
17,48528	2950
17,48942	4548
17,49353	4715
17,49765	6187
17,50178	5926
17,50590	6547
17,51002	6690
17,51415	5528
17,51827	5836
17,52238	4413
17,52650	4601
17,53063	3626
17,53475	3740
17,53887	3875
17,54300	3123
17,54712	2783
17,55123	2511
17,55537	2288
17,55948	2679
17,56360	2579
17,56773	1687
17,57185	1008
17,57597	2182
17,58010	2081
17,58422	1553
17,58833	1281
17,59247	2698
17,59658	1401
17,60070	1372
17,60483	1357
17,60895	1515
17,61307	1811
17,61718	1421
17,62132	1538
17,62543	1466
17,62955	1346
17,63368	1367
17,63780	960
17,64192	1447
17,64605	1176
17,65017	1176
17,65428	1332
17,65842	913
17,66253	1066
17,66665	1122
17,67078	1399
17,67490	1081
17,67902	1026
17,68315	1510
17,68727	949
17,69138	963
17,69552	1522
17,69963	1171
17,70375	597
17,70787	1633
17,71200	1595
17,71612	1245
17,72023	928
17,72437	995
17,72848	1359
17,73260	940
17,73673	1448
17,74085	1234
17,74497	1192
17,74910	769
17,75322	1050
17,75733	1359
17,76147	1257
17,76558	1389
17,76970	1417
17,77383	816
17,77795	1161
17,78207	1103
17,78620	943
17,79032	1663
17,79443	1655
17,79855	1880
17,80268	1424
17,80680	1107
17,81092	525
17,81505	1069
17,81917	1096
17,82328	1274
17,82742	1316
17,83153	939
17,83565	1187
17,83978	1102
17,84390	2093
17,84802	1518
17,85215	1209
17,85627	1115
17,86038	1560
17,86452	1031
17,86863	1234
17,87275	1277
17,87688	1408
17,88100	1406
17,88512	1201
17,88923	1695
17,89337	1323
17,89748	1767
17,90160	1698
17,90573	2962
17,90985	3344
17,91397	3974
17,91810	4494
17,92222	6493
17,92633	7276
17,93047	6622
17,93458	7089
17,93870	7372
17,94283	7575
17,94695	7307
17,95107	5488
17,95520	4570
17,95932	4780
17,96343	3840
17,96757	2677
17,97168	3005
17,97580	2335
17,97992	2280
17,98405	2085
17,98817	1927
17,99228	1171
17,99642	2243
18,00053	2469
18,00465	3589
18,00878	8053
18,01290	16940
18,01702	33046
18,02115	65533
18,02527	120606
18,02938	202543
18,03352	330247
18,03763	498034
18,04175	706511
18,04588	937922
18,05000	1180761
18,05412	1405606
18,05825	1591190
18,06237	1711863
18,06648	1717737
18,07060	1630227
18,07473	1483290
18,07885	1274996
18,08297	1052619
18,08710	837124
18,09122	669010
18,09533	515842
18,09947	395662
18,10358	311935
18,10770	243060
18,11183	199504
18,11595	159506
18,12007	133771
18,12420	110516
18,12832	91416
18,13243	78800
18,13657	66599
18,14068	58794
18,14480	50724
18,14893	45322
18,15305	41377
18,15717	35262
18,16128	32648
18,16542	28420
18,16953	27979
18,17365	24969
18,17778	23225
18,18190	21022
18,18602	19457
18,19015	18245
18,19427	16416
18,19838	15352
18,20252	13859
18,20663	14219
18,21075	14020
18,21488	11808
18,21900	10552
18,22312	10497
18,22725	10024
18,23137	10570
18,23548	8581
18,23962	8948
18,24373	8647
18,24785	8896
18,25197	7051
18,25610	6456
18,26022	6472
18,26433	6365
18,26847	5626
18,27258	5953
18,27670	5682
18,28083	5340
18,28495	5027
18,28907	4878
18,29320	5566
18,29732	5454
18,30143	4207
18,30557	3664
18,30968	4585
18,31380	4362
18,31793	3598
18,32205	3201
18,32617	3880
18,33030	3418
18,33442	3559
18,33853	3390
18,34265	3276
18,34678	3500
18,35090	2746
18,35502	2889
18,35915	3199
18,36327	2812
18,36738	2431
18,37152	2703
18,37563	2784
18,37975	2498
18,38388	2170
18,38800	2898
18,39212	1806
18,39625	1733
18,40037	2728
18,40448	1670
18,40862	1732
18,41273	2093
18,41685	2081
18,42098	1164
18,42510	1842
18,42922	1853
18,43333	1817
18,43747	1437
18,44158	1899
18,44570	1690
18,44983	987
18,45395	1269
18,45807	1147
18,46220	1456
18,46632	1550
18,47043	1627
18,47457	1688
18,47868	1704
18,48280	1086
18,48693	1278
18,49105	1165
18,49517	1493
18,49930	1674
18,50342	1340
18,50753	1241
18,51167	1576
18,51578	1744
18,51990	1556
18,52402	1421
18,52815	1690
18,53227	1349
18,53638	798
18,54052	1565
18,54463	1168
18,54875	1163
18,55288	1127
18,55700	1639
18,56112	1889
18,56525	1124
18,56937	1575
18,57348	1422
18,57762	1303
18,58173	1429
18,58585	1798
18,58998	1820
18,59410	2609
18,59822	2263
18,60235	2951
18,60647	3286
18,61058	3193
18,61470	4128
18,61883	3504
18,62295	2799
18,62707	3263
18,63120	2759
18,63532	1987
18,63943	2132
18,64357	1582
18,64768	2139
18,65180	1350
18,65593	2007
18,66005	2012
18,66417	1475
18,66830	1356
18,67242	733
18,67653	798
18,68067	1201
18,68478	1347
18,68890	1607
18,69303	1179
18,69715	1039
18,70127	1188
18,70540	736
18,70952	1104
18,71363	2047
18,71775	3472
18,72188	4275
18,72600	3712
18,73012	4160
18,73425	4659
18,73837	2828
18,74248	2326
18,74662	1556
18,75073	1429
18,75485	888
18,75898	1263
18,76310	1377
18,76722	2593
18,77135	5132
18,77547	11261
18,77958	23842
18,78372	46777
18,78783	81682
18,79195	131035
18,79608	213275
18,80020	307049
18,80432	419448
18,80843	533658
18,81257	644568
18,81668	724533
18,82080	788897
18,82493	777790
18,82905	750964
18,83317	689937
18,83730	590671
18,84142	505096
18,84553	415998
18,84967	330024
18,85378	264085
18,85790	206386
18,86203	161258
18,86615	126379
18,87027	101892
18,87440	80687
18,87852	67721
18,88263	56382
18,88677	46999
18,89088	42339
18,89500	34943
18,89912	30414
18,90325	25999
18,90737	25322
18,91148	22447
18,91562	19041
18,91973	18200
18,92385	15113
18,92798	14662
18,93210	12167
18,93622	11645
18,94035	10446
18,94447	10448
18,94858	9881
18,95272	8179
18,95683	8041
18,96095	5756
18,96508	7590
18,96920	7036
18,97332	6426
18,97745	5130
18,98157	5718
18,98568	5640
18,98980	4530
18,99393	4576
18,99805	3215
19,00217	4560
19,00630	3518
19,01042	3197
19,01453	2270
19,01867	3221
19,02278	3024
19,02690	2517
19,03103	2528
19,03515	2733
19,03927	2529
19,04340	2130
19,04752	2666
19,05163	2182
19,05577	1790
19,05988	2129
19,06400	1881
19,06813	2583
19,07225	1708
19,07637	1550
19,08048	1593
19,08462	1650
19,08873	2365
19,09285	4661
19,09698	5089
19,10110	10894
19,10522	22596
19,10935	43302
19,11347	76791
19,11758	130820
19,12172	209609
19,12583	315945
19,12995	442689
19,13408	576781
19,13820	714172
19,14232	823514
19,14645	903968
19,15057	910880
19,15468	872527
19,15882	795572
19,16293	697153
19,16705	569111
19,17117	464909
19,17530	362342
19,17942	279160
19,18353	219712
19,18767	168491
19,19178	131309
19,19590	104313
19,20003	86892
19,20415	70300
19,20827	57981
19,21240	48642
19,21652	41949
19,22063	34251
19,22477	31133
19,22888	27906
19,23300	23249
19,23713	21656
19,24125	20321
19,24537	18156
19,24950	16282
19,25362	15332
19,25773	13543
19,26185	12871
19,26598	10849
19,27010	11116
19,27422	10688
19,27835	8280
19,28247	8177
19,28658	7671
19,29072	7607
19,29483	6580
19,29895	6003
19,30308	6390
19,30720	5459
19,31132	5630
19,31545	5053
19,31957	5562
19,32368	4865
19,32782	4098
19,33193	4654
19,33605	4818
19,34018	3974
19,34430	3544
19,34842	3437
19,35253	3265
19,35667	3631
19,36078	3701
19,36490	3190
19,36903	2671
19,37315	2940
19,37727	2911
19,38140	2846
19,38552	2607
19,38963	1833
19,39377	2250
19,39788	2579
19,40200	2302
19,40613	2733
19,41025	2360
19,41437	2318
19,41850	2704
19,42262	2712
19,42673	1985
19,43087	2163
19,43498	2441
19,43910	2711
19,44322	2611
19,44735	2573
19,45147	2477
19,45558	3056
19,45972	2309
19,46383	2920
19,46795	3317
19,47208	3186
19,47620	2523
19,48032	3592
19,48445	3000
19,48857	2207
19,49268	2860
19,49682	1838
19,50093	1804
19,50505	1700
19,50918	2309
19,51330	2498
19,51742	2337
19,52155	1907
19,52567	2062
19,52978	1587
19,53390	1465
19,53803	1977
19,54215	1899
19,54627	1919
19,55040	1612
19,55452	1730
19,55863	1990
19,56277	2051
19,56688	1439
19,57100	2472
19,57513	2300
19,57925	2893
19,58337	2416
19,58750	2297
19,59162	2226
19,59573	1813
19,59987	2026
19,60398	1931
19,60810	1694
19,61223	1800
19,61635	1454
19,62047	1550
19,62458	1985
19,62872	2182
19,63283	2294
19,63695	2076
19,64108	2263
19,64520	1393
19,64932	1657
19,65345	1693
19,65757	1941
19,66168	1629
19,66582	995
19,66993	992
19,67405	1283
19,67818	1378
19,68230	1366
19,68642	1457
19,69055	1674
19,69467	1337
19,69878	1419
19,70292	1662
19,70703	1380
19,71115	951
19,71527	1510
19,71940	2286
19,72352	1199
19,72763	1406
19,73177	1240
19,73588	1629
19,74000	1406
19,74413	1425
19,74825	1628
19,75237	709
19,75650	1510
19,76062	947
19,76473	1433
19,76887	892
19,77298	1292
19,77710	1125
19,78123	981
19,78535	804
19,78947	872
19,79360	1293
19,79772	1193
19,80183	1175
19,80595	1134
19,81008	419
19,81420	1079
19,81832	865
19,82245	958
19,82657	1403
19,83068	1539
19,83482	3805
19,83893	6779
19,84305	14088
19,84718	25793
19,85130	50383
19,85542	89703
19,85955	152761
19,86367	235336
19,86778	338100
19,87192	465402
19,87603	588129
19,88015	713533
19,88428	808986
19,88840	841262
19,89252	860385
19,89663	807448
19,90077	737030
19,90488	631505
19,90900	520389
19,91313	424112
19,91725	336481
19,92137	266055
19,92550	201600
19,92962	159361
19,93373	127178
19,93787	101478
19,94198	83977
19,94610	68283
19,95023	55727
19,95435	48088
19,95847	41690
19,96260	35041
19,96672	31754
19,97083	26365
19,97497	23740
19,97908	21081
19,98320	18461
19,98732	16418
19,99145	16579
19,99557	13671
19,99968	13133
20,00382	12560
20,00793	10215
20,01205	10620
20,01618	10104
20,02030	8781
20,02442	8301
20,02855	8278
20,03267	6052
20,03678	6934
20,04092	6386
20,04503	5627
20,04915	4808
20,05328	4601
20,05740	4631
20,06152	3121
20,06565	4124
20,06977	4476
20,07388	3368
20,07800	3404
20,08213	4255
20,08625	2979
20,09037	2963
20,09450	2615
20,09862	2857
20,10273	2404
20,10687	2914
20,11098	3205
20,11510	1443
20,11923	2582
20,12335	3211
20,12747	3940
20,13160	4636
20,13572	9268
20,13983	17666
20,14397	36209
20,14808	69471
20,15220	122343
20,15633	218168
20,16045	344727
20,16457	534987
20,16868	774330
20,17282	1066933
20,17693	1397956
20,18105	1759004
20,18518	2139500
20,18930	2486034
20,19342	2708890
20,19755	2832334
20,20167	2781076
20,20578	2578943
20,20992	2262594
20,21403	1873572
20,21815	1488144
20,22228	1157676
20,22640	874327
20,23052	666243
20,23465	511403
20,23877	387957
20,24288	304667
20,24702	245972
20,25113	202042
20,25525	169971
20,25937	142642
20,26350	122798
20,26762	109943
20,27173	94887
20,27587	81279
20,27998	72927
20,28410	63915
20,28823	58127
20,29235	54047
20,29647	48988
20,30060	44994
20,30472	40450
20,30883	39031
20,31297	36878
20,31708	30605
20,32120	28352
20,32533	29021
20,32945	26109
20,33357	25477
20,33770	24108
20,34182	20700
20,34593	19730
20,35005	17516
20,35418	18531
20,35830	17238
20,36242	16250
20,36655	15407
20,37067	13015
20,37478	12277
20,37892	11846
20,38303	10829
20,38715	11203
20,39128	10917
20,39540	10714
20,39952	9168
20,40365	9070
20,40777	8639
20,41188	7366
20,41602	8039
20,42013	7750
20,42425	6867
20,42838	7323
20,43250	7113
20,43662	6833
20,44075	7297
20,44487	5332
20,44898	4744
20,45310	5841
20,45723	4738
20,46135	4904
20,46547	4230
20,46960	4132
20,47372	4267
20,47783	4323
20,48197	4361
20,48608	3448
20,49020	3354
20,49433	3934
20,49845	3609
20,50257	3971
20,50670	3479
20,51082	3319
20,51493	3081
20,51907	2916
20,52318	2991
20,52730	3304
20,53143	2409
20,53555	2607
20,53967	2811
20,54378	2662
20,54792	2810
20,55203	3471
20,55615	3283
20,56028	2770
20,56440	4102
20,56852	3262
20,57265	4024
20,57677	3335
20,58088	3120
20,58502	3894
20,58913	3499
20,59325	2394
20,59738	2530
20,60150	2839
20,60562	2643
20,60975	2289
20,61387	2920
20,61798	2388
20,62212	2488
20,62623	2017
20,63035	1892
20,63447	2046
20,63860	2062
20,64272	1991
20,64683	2149
20,65097	1730
20,65508	2112
20,65920	2611
20,66333	3317
20,66745	4001
20,67157	2911
20,67570	3445
20,67982	3682
20,68393	3587
20,68807	3011
20,69218	3582
20,69630	3618
20,70043	2300
20,70455	1989
20,70867	3017
20,71280	2900
20,71692	3293
20,72103	4274
20,72515	8145
20,72928	17558
20,73340	31164
20,73752	56838
20,74165	98821
20,74577	163423
20,74988	245497
20,75402	364013
20,75813	478285
20,76225	611966
20,76638	741342
20,77050	838296
20,77462	878698
20,77875	894398
20,78287	851378
20,78698	768015
20,79112	665258
20,79523	551365
20,79935	439243
20,80348	346600
20,80760	274590
20,81172	209050
20,81583	165273
20,81997	132344
20,82408	104711
20,82820	86033
20,83233	69895
20,83645	58033
20,84057	50246
20,84470	43005
20,84882	38184
20,85293	33665
20,85707	27728
20,86118	25724
20,86530	21486
20,86943	19942
20,87355	20017
20,87767	18089
20,88180	17201
20,88592	18405
20,89003	17850
20,89417	16399
20,89828	15809
20,90240	15148
20,90652	15725
20,91065	15635
20,91477	13669
20,91888	13374
20,92302	12380
20,92713	12159
20,93125	10641
20,93538	10168
20,93950	8507
20,94362	8585
20,94775	7692
20,95187	7070
20,95598	7466
20,96012	6511
20,96423	6387
20,96835	5854
20,97248	5734
20,97660	5702
20,98072	5103
20,98485	4209
20,98897	4023
20,99308	5045
20,99720	3448
21,00133	3669
21,00545	3741
21,00957	3711
21,01370	2844
21,01782	3753
21,02193	2961
21,02607	3193
21,03018	3233
21,03430	2604
21,03843	3560
21,04255	3542
21,04667	3258
21,05080	3365
21,05492	2670
21,05903	2825
21,06317	2648
21,06728	3042
21,07140	2425
21,07553	2497
21,07965	2498
21,08377	1992
21,08788	2555
21,09202	1992
21,09613	1892
21,10025	1894
21,10438	2019
21,10850	2779
21,11262	2530
21,11675	3095
21,12087	3662
21,12498	5441
21,12912	10555
21,13323	19710
21,13735	37721
21,14148	74645
21,14560	128103
21,14972	203491
21,15385	313898
21,15797	440588
21,16208	582409
21,16622	730663
21,17033	868425
21,17445	962046
21,17857	995922
21,18270	968836
21,18682	889686
21,19093	803548
21,19507	677134
21,19918	542126
21,20330	423796
21,20743	330773
21,21155	255313
21,21567	197977
21,21980	153625
21,22392	120936
21,22803	97340
21,23217	77241
21,23628	67376
21,24040	56879
21,24453	46897
21,24865	41973
21,25277	36291
21,25690	32285
21,26102	27707
21,26513	23346
21,26925	23073
21,27338	21811
21,27750	18599
21,28162	17041
21,28575	14192
21,28987	14739
21,29398	15165
21,29812	12710
21,30223	12327
21,30635	11851
21,31048	11152
21,31460	12261
21,31872	10900
21,32285	11335
21,32697	10063
21,33108	9260
21,33522	9325
21,33933	9942
21,34345	9376
21,34758	7873
21,35170	6588
21,35582	7161
21,35993	7256
21,36407	7416
21,36818	6728
21,37230	6428
21,37643	5950
21,38055	5048
21,38467	5461
21,38880	5077
21,39292	5678
21,39703	4795
21,40117	4505
21,40528	5085
21,40940	5081
21,41353	4914
21,41765	4359
21,42177	4082
21,42590	4375
21,43002	3909
21,43413	4928
21,43827	3108
21,44238	3708
21,44650	3241
21,45062	3577
21,45475	2826
21,45887	3461
21,46298	4031
21,46712	3872
21,47123	3437
21,47535	4573
21,47948	2974
21,48360	2860
21,48772	3150
21,49185	3274
21,49597	2431
21,50008	3295
21,50422	2470
21,50833	2677
21,51245	2559
21,51658	1920
21,52070	2904
21,52482	2078
21,52895	2360
21,53307	1882
21,53718	2460
21,54130	2426
21,54543	1770
21,54955	1772
21,55367	2162
21,55780	2673
21,56192	1361
21,56603	1613
21,57017	2259
21,57428	2133
21,57840	2528
21,58253	2383
21,58665	2677
21,59077	1786
21,59490	2879
21,59902	2481
21,60313	2582
21,60727	2589
21,61138	2280
21,61550	2608
21,61963	2342
21,62375	2235
21,62787	2292
21,63198	1697
21,63612	2383
21,64023	2606
21,64435	1853
21,64848	2284
21,65260	2085
21,65672	1406
21,66085	1697
21,66497	1538
21,66908	1979
21,67322	2212
21,67733	1892
21,68145	1850
21,68558	2441
21,68970	3127
21,69382	5529
21,69795	8328
21,70207	15877
21,70618	30914
21,71032	58099
21,71443	102797
21,71855	165331
21,72267	258039
21,72680	369293
21,73092	494989
21,73503	638069
21,73917	767863
21,74328	869064
21,74740	921817
21,75153	940339
21,75565	907173
21,75977	821672
21,76390	702071
21,76802	584765
21,77213	467387
21,77627	369346
21,78038	288844
21,78450	220941
21,78863	180796
21,79275	138830
21,79687	107889
21,80100	89427
21,80512	75134
21,80923	64994
21,81335	52925
21,81748	47475
21,82160	40778
21,82572	36883
21,82985	31482
21,83397	27298
21,83808	26100
21,84222	23127
21,84633	20839
21,85045	18418
21,85458	17724
21,85870	16734
21,86282	17020
21,86695	14852
21,87107	13162
21,87518	13442
21,87932	12545
21,88343	10949
21,88755	11388
21,89168	12683
21,89580	13036
21,89992	14745
21,90403	16542
21,90817	19008
21,91228	22003
21,91640	25523
21,92053	27766
21,92465	31349
21,92877	34275
21,93290	33073
21,93702	32053
21,94113	29713
21,94527	29366
21,94938	24312
21,95350	23071
21,95763	19173
21,96175	16473
21,96587	13713
21,97000	13452
21,97412	11259
21,97823	10045
21,98237	9219
21,98648	8482
21,99060	6934
21,99473	6326
21,99885	6247
22,00297	6366
22,00708	4481
22,01122	4473
22,01533	3631
22,01945	4827
22,02358	3861
22,02770	4459
22,03182	4555
22,03595	3983
22,04007	2427
22,04418	4067
22,04832	3178
22,05243	2727
22,05655	2594
22,06068	3734
22,06480	3744
22,06892	3281
22,07305	4461
22,07717	7283
22,08128	12373
22,08542	23489
22,08953	44237
22,09365	81641
22,09777	141200
22,10190	224006
22,10602	350087
22,11013	513772
22,11427	724458
22,11838	951856
22,12250	1220371
22,12663	1498310
22,13075	1743002
22,13487	1967537
22,13900	2123585
22,14312	2128273
22,14723	1986443
22,15137	1764353
22,15548	1474249
22,15960	1174876
22,16373	913777
22,16785	705067
22,17197	531391
22,17610	415649
22,18022	317095
22,18433	249527
22,18845	204904
22,19258	167523
22,19670	138702
22,20082	123199
22,20495	103064
22,20907	91272
22,21318	79615
22,21732	71214
22,22143	61640
22,22555	54651
22,22968	50295
22,23380	45107
22,23792	41332
22,24205	37576
22,24617	35586
22,25028	33909
22,25442	30842
22,25853	29602
22,26265	26715
22,26678	24006
22,27090	23139
22,27502	22914
22,27913	19722
22,28327	18923
22,28738	18495
22,29150	16633
22,29563	15713
22,29975	15035
22,30387	14517
22,30800	12808
22,31212	13152
22,31623	13200
22,32037	10817
22,32448	11394
22,32860	10256
22,33273	10537
22,33685	9910
22,34097	9910
22,34510	10044
22,34922	8548
22,35333	8306
22,35747	7753
22,36158	7833
22,36570	8046
22,36982	7589
22,37395	7109
22,37807	7283
22,38218	7098
22,38632	7406
22,39043	9059
22,39455	12926
22,39868	18775
22,40280	32844
22,40692	56690
22,41105	95371
22,41517	150775
22,41928	233755
22,42342	330988
22,42753	460570
22,43165	596079
22,43578	727477
22,43990	852645
22,44402	927629
22,44815	975810
22,45227	966660
22,45638	906673
22,46050	806605
22,46463	689944
22,46875	577364
22,47287	462868
22,47700	360670
22,48112	285833
22,48523	219971
22,48937	177363
22,49348	139385
22,49760	111708
22,50173	92762
22,50585	77780
22,50997	66655
22,51410	57403
22,51822	49827
22,52233	41653
22,52647	39040
22,53058	35154
22,53470	32742
22,53883	29918
22,54295	26516
22,54707	25775
22,55118	28005
22,55532	29744
22,55943	41451
22,56355	59693
22,56768	95025
22,57180	152744
22,57592	246207
22,58005	369802
22,58417	543600
22,58828	768046
22,59242	1017696
22,59653	1289554
22,60065	1541282
22,60478	1751078
22,60890	1891662
22,61302	1927931
22,61715	1900157
22,62127	1745742
22,62538	1509689
22,62952	1268645
22,63363	1005775
22,63775	781071
22,64187	607163
22,64600	467315
22,65012	365135
22,65423	285565
22,65837	228844
22,66248	190366
22,66660	157706
22,67073	134586
22,67485	115075
22,67897	101709
22,68310	89527
22,68722	78013
22,69133	69574
22,69547	63301
22,69958	58031
22,70370	50006
22,70783	47423
22,71195	45421
22,71607	42585
22,72020	37952
22,72432	36968
22,72843	33672
22,73255	33802
22,73668	33908
22,74080	30304
22,74492	29073
22,74905	27092
22,75317	23481
22,75728	22603
22,76142	21123
22,76553	20760
22,76965	17352
22,77378	17479
22,77790	14735
22,78202	14737
22,78615	14188
22,79027	13888
22,79438	13745
22,79852	13305
22,80263	12741
22,80675	11710
22,81088	11802
22,81500	11251
22,81912	11747
22,82323	9435
22,82737	10549
22,83148	10037
22,83560	9675
22,83973	9604
22,84385	9032
22,84797	9148
22,85210	7111
22,85622	7651
22,86033	7181
22,86447	7703
22,86858	7041
22,87270	6930
22,87683	6641
22,88095	6232
22,88507	5981
22,88920	6781
22,89332	6506
22,89743	6244
22,90157	6841
22,90568	5709
22,90980	6916
22,91392	6170
22,91805	7496
22,92217	9139
22,92628	11850
22,93042	19688
22,93453	37981
22,93865	65679
22,94278	107988
22,94690	179450
22,95102	275393
22,95515	388323
22,95927	521869
22,96338	668290
22,96752	788479
22,97163	873593
22,97575	903516
22,97988	901447
22,98400	839197
22,98812	746748
22,99225	632050
22,99637	514440
23,00048	410986
23,00460	330330
23,00873	258618
23,01285	201400
23,01697	165136
23,02110	135393
23,02522	109453
23,02933	91684
23,03347	77567
23,03758	66957
23,04170	58957
23,04583	51549
23,04995	44053
23,05407	41864
23,05820	34644
23,06232	31904
23,06643	29211
23,07057	26906
23,07468	24798
23,07880	23018
23,08293	20597
23,08705	18773
23,09117	18421
23,09528	15908
23,09942	15247
23,10353	15414
23,10765	13660
23,11178	13141
23,11590	12198
23,12002	11658
23,12415	11545
23,12827	10040
23,13238	10758
23,13652	10091
23,14063	9534
23,14475	9342
23,14888	11082
23,15300	10318
23,15712	9785
23,16125	9741
23,16537	9718
23,16948	8921
23,17362	9244
23,17773	9324
23,18185	8613
23,18597	7897
23,19010	7993
23,19422	6429
23,19833	6617
23,20247	8074
23,20658	7816
23,21070	6569
23,21483	7180
23,21895	7268
23,22307	7614
23,22720	6441
23,23132	7280
23,23543	7379
23,23957	7669
23,24368	7452
23,24780	7379
23,25193	6237
23,25605	6499
23,26017	5721
23,26430	5037
23,26842	5302
23,27253	4992
23,27665	5741
23,28078	5626
23,28490	6227
23,28902	7021
23,29315	11847
23,29727	18848
23,30138	30649
23,30552	56399
23,30963	92718
23,31375	153875
23,31788	240934
23,32200	344138
23,32612	463343
23,33025	583883
23,33437	713451
23,33848	800753
23,34262	855040
23,34673	849633
23,35085	811486
23,35498	737850
23,35910	634628
23,36322	516006
23,36733	425550
23,37147	333553
23,37558	264052
23,37970	207093
23,38383	162982
23,38795	133535
23,39207	107006
23,39620	88592
23,40032	71417
23,40443	60116
23,40857	51322
23,41268	48264
23,41680	40552
23,42093	34996
23,42505	31938
23,42917	29223
23,43330	27762
23,43742	27228
23,44153	23630
23,44567	24111
23,44978	20550
23,45390	19538
23,45802	16314
23,46215	16709
23,46627	16359
23,47038	15895
23,47452	14017
23,47863	15869
23,48275	13696
23,48688	13315
23,49100	11758
23,49512	11774
23,49925	11896
23,50337	11051
23,50748	10541
23,51162	10046
23,51573	10592
23,51985	10085
23,52398	10893
23,52810	8676
23,53222	9437
23,53635	7742
23,54047	7213
23,54458	7701
23,54870	6913
23,55283	6947
23,55695	5651
23,56107	6976
23,56520	5576
23,56932	6266
23,57343	4987
23,57757	5128
23,58168	4908
23,58580	5177
23,58993	4396
23,59405	4720
23,59817	5535
23,60230	5378
23,60642	4803
23,61053	4300
23,61467	4333
23,61878	4803
23,62290	4670
23,62703	5256
23,63115	4074
23,63527	4561
23,63940	4848
23,64352	4603
23,64763	3892
23,65175	4172
23,65588	4559
23,66000	4258
23,66412	3491
23,66825	4323
23,67237	3997
23,67648	4265
23,68062	4591
23,68473	5365
23,68885	4299
23,69298	4796
23,69710	4495
23,70122	4554
23,70535	3805
23,70947	4097
23,71358	5245
23,71772	4672
23,72183	4368
23,72595	4559
23,73008	4137
23,73420	4109
23,73832	4144
23,74243	3868
23,74657	4693
23,75068	4893
23,75480	4169
23,75893	3972
23,76305	3359
23,76717	4151
23,77130	4007
23,77542	4390
23,77953	3131
23,78367	4227
23,78778	4362
23,79190	4551
23,79603	3137
23,80015	3886
23,80427	6119
23,80840	8352
23,81252	11622
23,81663	20897
23,82077	35001
23,82488	64931
23,82900	108720
23,83312	168979
23,83725	250934
23,84137	353608
23,84548	477577
23,84962	573575
23,85373	673580
23,85785	744680
23,86198	774315
23,86610	790425
23,87022	783121
23,87435	758968
23,87847	765038
23,88258	799034
23,88672	888955
23,89083	1019771
23,89495	1187092
23,89908	1409912
23,90320	1660188
23,90732	1921430
23,91145	2131370
23,91557	2281388
23,91968	2328054
23,92380	2243894
23,92793	2039670
23,93205	1729469
23,93617	1392532
23,94030	1103995
23,94442	852350
23,94853	659827
23,95267	512145
23,95678	396372
23,96090	319033
23,96503	263743
23,96915	220394
23,97327	188968
23,97740	166765
23,98152	143490
23,98563	128759
23,98977	114750
23,99388	109120
23,99800	102865
24,00213	96818
24,00625	94824
24,01037	87541
24,01448	86504
24,01862	82472
24,02273	79329
24,02685	75768
24,03098	70751
24,03510	63366
24,03922	58213
24,04335	52672
24,04747	50176
24,05158	43273
24,05572	40773
24,05983	38456
24,06395	34797
24,06808	32995
24,07220	29746
24,07632	28327
24,08045	27503
24,08457	26402
24,08868	24605
24,09282	23238
24,09693	22829
24,10105	22409
24,10517	20055
24,10930	19526
24,11342	18257
24,11753	17411
24,12167	16315
24,12578	17163
24,12990	17403
24,13403	18841
24,13815	22041
24,14227	27779
24,14640	39646
24,15052	59422
24,15463	96724
24,15877	144992
24,16288	216458
24,16700	311835
24,17113	411917
24,17525	525420
24,17937	624590
24,18350	686321
24,18762	733358
24,19173	726603
24,19585	692674
24,19998	611098
24,20410	532194
24,20822	438187
24,21235	359888
24,21647	289458
24,22058	224366
24,22472	179369
24,22883	144130
24,23295	117305
24,23708	94830
24,24120	81153
24,24532	67739
24,24945	60413
24,25357	53852
24,25768	46151
24,26182	40910
24,26593	36001
24,27005	32718
24,27418	30492
24,27830	30088
24,28242	30165
24,28653	27668
24,29067	24803
24,29478	25423
24,29890	25333
24,30303	29298
24,30715	37950
24,31127	53141
24,31540	84874
24,31952	126532
24,32363	198888
24,32777	288240
24,33188	411419
24,33600	544586
24,34013	705234
24,34425	849079
24,34837	975060
24,35250	1037214
24,35662	1047818
24,36073	1011298
24,36487	917906
24,36898	797631
24,37310	664188
24,37722	528436
24,38135	422825
24,38547	334326
24,38958	267912
24,39372	214607
24,39783	176336
24,40195	142674
24,40608	120502
24,41020	102524
24,41432	86065
24,41845	74241
24,42257	66852
24,42668	62155
24,43082	53912
24,43493	49052
24,43905	44548
24,44318	41495
24,44730	38282
24,45142	37150
24,45555	33403
24,45967	32336
24,46378	28582
24,46790	27143
24,47203	26979
24,47615	25562
24,48027	23562
24,48440	24985
24,48852	24904
24,49263	22177
24,49677	22845
24,50088	19765
24,50500	19469
24,50913	20118
24,51325	18796
24,51737	17055
24,52150	16556
24,52562	16607
24,52973	14920
24,53387	15192
24,53798	14325
24,54210	14776
24,54623	13853
24,55035	17128
24,55447	16716
24,55858	19244
24,56272	19389
24,56683	16425
24,57095	16529
24,57508	14565
24,57920	13130
24,58332	12816
24,58745	12725
24,59157	10288
24,59568	10424
24,59982	10194
24,60393	10621
24,60805	10711
24,61218	9298
24,61630	8067
24,62042	10356
24,62455	9770
24,62867	10313
24,63278	9316
24,63692	8813
24,64103	9341
24,64515	9699
24,64927	8752
24,65340	8532
24,65752	7798
24,66163	8436
24,66577	8794
24,66988	9589
24,67400	7714
24,67813	9389
24,68225	10281
24,68637	12203
24,69050	18763
24,69462	28667
24,69873	46530
24,70287	77528
24,70698	128420
24,71110	206642
24,71523	307191
24,71935	443953
24,72347	589658
24,72760	761420
24,73172	924931
24,73583	1063592
24,73995	1158241
24,74408	1185780
24,74820	1143280
24,75232	1043438
24,75645	894288
24,76057	750316
24,76468	596587
24,76882	471870
24,77293	369216
24,77705	289655
24,78118	227666
24,78530	190181
24,78942	150434
24,79355	130592
24,79767	110796
24,80178	96805
24,80592	83248
24,81003	73329
24,81415	68538
24,81828	61888
24,82240	57390
24,82652	51801
24,83063	50308
24,83477	45245
24,83888	42159
24,84300	38878
24,84713	35966
24,85125	35989
24,85537	33546
24,85950	32179
24,86362	32424
24,86773	29622
24,87187	27719
24,87598	26943
24,88010	27436
24,88423	24756
24,88835	23485
24,89247	22787
24,89660	20514
24,90072	20972
24,90483	17957
24,90897	16662
24,91308	16313
24,91720	18106
24,92132	17875
24,92545	14465
24,92957	15396
24,93368	15634
24,93782	14803
24,94193	11927
24,94605	14017
24,95018	14870
24,95430	13326
24,95842	12797
24,96255	14093
24,96667	12564
24,97078	11799
24,97492	11661
24,97903	12418
24,98315	12003
24,98728	12723
24,99140	13216
24,99552	12825
24,99965	15152
25,00377	20459
25,00788	32738
25,01200	50751
25,01613	84792
25,02025	136035
25,02437	209407
25,02850	307618
25,03262	426391
25,03673	566857
25,04087	710357
25,04498	822810
25,04910	894558
25,05323	910991
25,05735	875782
25,06147	810987
25,06560	699821
25,06972	603222
25,07383	492656
25,07797	389707
25,08208	312194
25,08620	247528
25,09033	200349
25,09445	161966
25,09857	133852
25,10268	106673
25,10682	93344
25,11093	81274
25,11505	73357
25,11918	62965
25,12330	57654
25,12742	50556
25,13155	47706
25,13567	42492
25,13978	40101
25,14392	36238
25,14803	34085
25,15215	31889
25,15628	29959
25,16040	27369
25,16452	27586
25,16865	24721
25,17277	23000
25,17688	24549
25,18102	23098
25,18513	22192
25,18925	21105
25,19338	19679
25,19750	19713
25,20162	17521
25,20573	16638
25,20987	17139
25,21398	16504
25,21810	15744
25,22223	17767
25,22635	17202
25,23047	14579
25,23460	14751
25,23872	14536
25,24283	13325
25,24697	13957
25,25108	12968
25,25520	13408
25,25933	12729
25,26345	12583
25,26757	11937
25,27170	11020
25,27582	12012
25,27993	11524
25,28407	12750
25,28818	11683
25,29230	10461
25,29642	10027
25,30055	11598
25,30467	11630
25,30878	10172
25,31292	11322
25,31703	11062
25,32115	9934
25,32528	10169
25,32940	8100
25,33352	9405
25,33765	9081
25,34177	9321
25,34588	10262
25,35002	9926
25,35413	8818
25,35825	9075
25,36238	9492
25,36650	10573
25,37062	11006
25,37475	11510
25,37887	11216
25,38298	13062
25,38710	12956
25,39123	12831
25,39535	12122
25,39947	12446
25,40360	11769
25,40772	10738
25,41183	10033
25,41597	10718
25,42008	9004
25,42420	9995
25,42833	9062
25,43245	8401
25,43657	8352
25,44070	8347
25,44482	9320
25,44893	8756
25,45307	9512
25,45718	8675
25,46130	8928
25,46543	9166
25,46955	8331
25,47367	8950
25,47778	8579
25,48192	8357
25,48603	12491
25,49015	17585
25,49428	27304
25,49840	47136
25,50252	81316
25,50665	142656
25,51077	224627
25,51488	361143
25,51902	537364
25,52313	755228
25,52725	988252
25,53138	1280129
25,53550	1522925
25,53962	1779828
25,54375	1996779
25,54787	2197156
25,55198	2383926
25,55612	2549434
25,56023	2662535
25,56435	2719764
25,56847	2648431
25,57260	2470714
25,57672	2173795
25,58083	1817380
25,58497	1467794
25,58908	1160777
25,59320	898992
25,59733	711992
25,60145	559174
25,60557	455948
25,60970	372751
25,61382	316745
25,61793	271461
25,62207	236463
25,62618	205362
25,63030	183141
25,63443	168205
25,63855	150347
25,64267	136705
25,64680	126875
25,65092	113450
25,65503	106944
25,65915	97734
25,66328	91262
25,66740	86110
25,67152	79205
25,67565	74528
25,67977	70175
25,68388	65047
25,68802	63049
25,69213	60473
25,69625	60786
25,70038	54038
25,70450	50694
25,70862	51262
25,71275	48832
25,71687	50260
25,72098	45181
25,72512	44753
25,72923	40825
25,73335	38217
25,73748	36980
25,74160	35908
25,74572	33445
25,74983	31252
25,75397	31721
25,75808	32153
25,76220	29412
25,76633	30820
25,77045	30102
25,77457	27939
25,77870	26747
25,78282	28240
25,78693	28343
25,79107	32720
25,79518	39050
25,79930	50755
25,80343	75712
25,80755	115410
25,81167	172742
25,81580	252312
25,81992	353439
25,82403	471135
25,82817	592286
25,83228	692825
25,83640	762333
25,84052	807305
25,84465	803555
25,84877	768995
25,85288	687217
25,85702	611902
25,86113	527602
25,86525	471936
25,86938	437705
25,87350	426220
25,87762	463298
25,88175	523907
25,88587	590976
25,88998	662892
25,89412	729353
25,89823	768969
25,90235	776310
25,90648	747802
25,91060	699059
25,91472	632800
25,91885	543738
25,92297	457414
25,92708	388510
25,93120	334567
25,93533	313308
25,93945	313795
25,94357	349406
25,94770	417184
25,95182	517608
25,95593	635508
25,96007	784624
25,96418	915597
25,96830	1051481
25,97243	1122591
25,97655	1154264
25,98067	1119115
25,98480	1023656
25,98892	904393
25,99303	772168
25,99717	638844
26,00128	514485
26,00540	416812
26,00953	341776
26,01365	280912
26,01777	237701
26,02188	197283
26,02602	171219
26,03013	147433
26,03425	131681
26,03838	122121
26,04250	109259
26,04662	98841
26,05075	89969
26,05487	84910
26,05898	79281
26,06312	71550
26,06723	64947
26,07135	60532
26,07548	58080
26,07960	55639
26,08372	51570
26,08785	48400
26,09197	47394
26,09608	44195
26,10022	41802
26,10433	40051
26,10845	36509
26,11257	36459
26,11670	33966
26,12082	35194
26,12493	32088
26,12907	30813
26,13318	31414
26,13730	28364
26,14143	28236
26,14555	28524
26,14967	26406
26,15380	26679
26,15792	26739
26,16203	26202
26,16617	24205
26,17028	23399
26,17440	25134
26,17853	23831
26,18265	22692
26,18677	23985
26,19090	25161
26,19502	23783
26,19913	23844
26,20325	22942
26,20738	23676
26,21150	24805
26,21562	22108
26,21975	21071
26,22387	20027
26,22798	22287
26,23212	21051
26,23623	20145
26,24035	18129
26,24448	19134
26,24860	18504
26,25272	17689
26,25685	17097
26,26097	18171
26,26508	20588
26,26922	24593
26,27333	31618
26,27745	47155
26,28158	69833
26,28570	104807
26,28982	161286
26,29393	237167
26,29807	337970
26,30218	470441
26,30630	623023
26,31043	791199
26,31455	944851
26,31867	1092435
26,32280	1203244
26,32692	1239896
26,33103	1196168
26,33517	1081573
26,33928	936253
26,34340	779005
26,34753	622335
26,35165	496772
26,35577	397726
26,35990	322918
26,36402	262590
26,36813	223862
26,37227	189698
26,37638	167928
26,38050	138033
26,38462	124121
26,38875	112456
26,39287	104216
26,39698	94242
26,40112	87059
26,40523	81144
26,40935	73515
26,41348	70031
26,41760	67109
26,42172	64420
26,42585	60605
26,42997	55775
26,43408	53497
26,43822	50835
26,44233	51402
26,44645	50803
26,45058	48406
26,45470	45363
26,45882	44110
26,46295	44072
26,46707	41611
26,47118	40688
26,47530	38521
26,47943	39705
26,48355	37594
26,48767	35576
26,49180	33390
26,49592	33893
26,50003	33001
26,50417	31291
26,50828	30947
26,51240	30725
26,51653	30279
26,52065	29299
26,52477	27994
26,52890	29878
26,53302	28628
26,53713	30041
26,54127	29783
26,54538	30561
26,54950	28052
26,55363	27511
26,55775	26149
26,56187	27079
26,56598	26403
26,57012	25737
26,57423	24738
26,57835	27558
26,58248	33468
26,58660	43269
26,59072	67146
26,59485	101587
26,59897	159572
26,60308	241078
26,60722	340387
26,61133	466152
26,61545	604283
26,61958	736822
26,62370	853723
26,62782	922699
26,63195	944904
26,63607	927546
26,64018	859098
26,64432	748193
26,64843	634948
26,65255	530359
26,65667	431859
26,66080	359798
26,66492	309819
26,66903	272785
26,67317	266537
26,67728	276143
26,68140	313045
26,68553	371895
26,68965	434289
26,69377	515398
26,69790	595577
26,70202	654509
26,70613	683450
26,71027	682464
26,71438	657814
26,71850	593176
26,72263	517016
26,72675	450633
26,73087	377094
26,73500	308453
26,73912	254105
26,74323	212632
26,74735	177686
26,75148	150136
26,75560	129967
26,75972	113531
26,76385	97507
26,76797	91667
26,77208	83322
26,77622	74036
26,78033	66967
26,78445	61777
26,78858	57534
26,79270	55264
26,79682	52858
26,80095	48624
26,80507	46119
26,80918	41829
26,81332	43001
26,81743	39728
26,82155	37372
26,82568	37335
26,82980	35797
26,83392	33143
26,83805	31852
26,84217	33182
26,84628	31531
26,85040	29541
26,85453	29043
26,85865	29098
26,86277	25299
26,86690	27268
26,87102	26805
26,87513	26934
26,87927	24339
26,88338	25232
26,88750	22488
26,89163	22950
26,89575	22778
26,89987	23106
26,90400	22441
26,90812	22363
26,91223	23722
26,91637	22552
26,92048	21360
26,92460	21552
26,92873	22500
26,93285	21305
26,93697	21594
26,94108	21395
26,94522	20701
26,94933	19419
26,95345	18460
26,95758	19273
26,96170	19016
26,96582	18942
26,96995	18349
26,97407	17218
26,97818	18004
26,98232	18767
26,98643	16371
26,99055	16894
26,99468	17659
26,99880	19122
27,00292	18381
27,00705	19406
27,01117	19739
27,01528	21237
27,01942	24631
27,02353	26359
27,02765	34114
27,03177	46077
27,03590	68339
27,04002	98131
27,04413	154002
27,04827	226595
27,05238	322042
27,05650	448650
27,06063	595139
27,06475	765876
27,06887	965218
27,07300	1187112
27,07712	1436267
27,08123	1685033
27,08537	1940137
27,08948	2122179
27,09360	2256646
27,09773	2302683
27,10185	2213073
27,10597	1987435
27,11010	1659497
27,11422	1356751
27,11833	1074481
27,12245	839696
27,12658	665372
27,13070	534970
27,13482	447120
27,13895	370972
27,14307	322085
27,14718	283789
27,15132	246017
27,15543	218448
27,15955	195165
27,16368	177824
27,16780	163592
27,17192	150835
27,17605	137403
27,18017	130242
27,18428	121233
27,18842	111477
27,19253	107319
27,19665	99786
27,20078	93388
27,20490	87713
27,20902	82544
27,21313	81643
27,21727	76336
27,22138	72625
27,22550	70482
27,22963	66877
27,23375	65986
27,23787	63123
27,24200	58116
27,24612	59062
27,25023	55468
27,25437	53751
27,25848	53410
27,26260	51758
27,26673	49947
27,27085	50599
27,27497	48550
27,27910	48497
27,28322	45425
27,28733	45577
27,29147	44448
27,29558	43082
27,29970	44762
27,30382	41608
27,30795	38894
27,31207	40333
27,31618	37488
27,32032	36448
27,32443	35833
27,32855	35244
27,33268	34602
27,33680	34538
27,34092	32169
27,34505	34154
27,34917	32818
27,35328	33046
27,35742	32771
27,36153	32992
27,36565	30905
27,36978	29432
27,37390	30767
27,37802	27969
27,38215	31033
27,38627	30486
27,39038	30213
27,39450	29654
27,39863	29457
27,40275	30765
27,40687	29477
27,41100	28795
27,41512	29600
27,41923	29227
27,42337	30799
27,42748	32947
27,43160	36908
27,43573	42562
27,43985	54561
27,44397	73676
27,44810	106812
27,45222	155333
27,45633	222523
27,46047	316636
27,46458	435618
27,46870	573316
27,47283	717858
27,47695	844919
27,48107	972093
27,48518	1059976
27,48932	1108407
27,49343	1090457
27,49755	1016732
27,50168	907413
27,50580	780033
27,50992	661007
27,51405	544991
27,51817	450955
27,52228	365841
27,52642	308237
27,53053	261801
27,53465	226076
27,53878	198318
27,54290	169197
27,54702	155591
27,55115	138140
27,55527	121867
27,55938	116440
27,56352	104833
27,56763	97651
27,57175	87193
27,57587	84712
27,58000	78954
27,58412	76121
27,58823	70109
27,59237	66644
27,59648	63627
27,60060	59753
27,60473	60650
27,60885	55384
27,61297	53561
27,61710	52021
27,62122	50179
27,62533	48304
27,62947	46822
27,63358	44367
27,63770	42239
27,64183	42147
27,64595	43166
27,65007	40616
27,65420	40133
27,65832	37782
27,66243	37865
27,66655	37118
27,67068	37394
27,67480	36097
27,67892	33458
27,68305	34726
27,68717	35147
27,69128	34648
27,69542	34162
27,69953	32960
27,70365	34080
27,70778	32209
27,71190	32105
27,71602	31141
27,72015	29675
27,72427	28820
27,72838	30168
27,73252	30542
27,73663	29325
27,74075	26413
27,74488	27131
27,74900	26680
27,75312	28413
27,75723	26937
27,76137	27044
27,76548	29826
27,76960	29326
27,77373	32634
27,77785	34896
27,78197	33879
27,78610	36482
27,79022	37275
27,79433	37391
27,79847	37504
27,80258	37570
27,80670	36131
27,81083	34587
27,81495	33141
27,81907	29304
27,82320	29849
27,82732	26960
27,83143	29258
27,83557	27243
27,83968	24832
27,84380	26314
27,84792	24450
27,85205	23224
27,85617	23118
27,86028	23338
27,86442	24204
27,86853	22910
27,87265	24765
27,87678	23569
27,88090	23572
27,88502	22890
27,88915	23347
27,89327	24108
27,89738	22685
27,90152	22242
27,90563	20259
27,90975	19202
27,91388	21661
27,91800	20859
27,92212	18987
27,92625	21246
27,93037	21546
27,93448	21101
27,93860	21592
27,94273	25393
27,94685	24529
27,95097	28021
27,95510	28116
27,95922	27920
27,96333	25857
27,96747	26597
27,97158	25558
27,97570	25307
27,97983	24782
27,98395	24286
27,98807	24756
27,99220	24670
27,99632	23475
28,00043	23717
28,00457	25202
28,00868	23683
28,01280	25443
28,01693	22938
28,02105	24183
28,02517	26102
28,02928	24690
28,03342	27842
28,03753	27224
28,04165	26226
28,04578	26542
28,04990	26552
28,05402	26061
28,05815	28687
28,06227	28341
28,06638	26016
28,07052	25480
28,07463	25211
28,07875	25378
28,08288	23374
28,08700	19730
28,09112	20268
28,09525	20971
28,09937	20490
28,10348	19308
28,10762	19380
28,11173	20142
28,11585	19664
28,11997	20427
28,12410	18429
28,12822	19049
28,13233	18156
28,13647	17987
28,14058	19239
28,14470	20016
28,14883	20576
28,15295	19853
28,15707	21538
28,16120	18469
28,16532	20521
28,16943	19877
28,17357	18931
28,17768	19089
28,18180	18893
28,18593	19803
28,19005	19548
28,19417	18603
28,19830	18080
28,20242	18078
28,20653	19162
28,21065	18735
28,21478	18311
28,21890	17136
28,22302	17771
28,22715	17473
28,23127	18061
28,23538	16965
28,23952	18429
28,24363	18237
28,24775	17719
28,25188	19115
28,25600	16874
28,26012	17811
28,26425	18872
28,26837	17046
28,27248	19104
28,27662	19046
28,28073	18505
28,28485	18927
28,28898	18039
28,29310	17801
28,29722	19330
28,30133	17988
28,30547	18552
28,30958	19132
28,31370	19516
28,31783	20115
28,32195	18302
28,32607	20644
28,33020	19402
28,33432	20837
28,33843	19736
28,34257	18147
28,34668	19756
28,35080	19028
28,35493	17929
28,35905	17954
28,36317	18536
28,36730	17300
28,37142	17287
28,37553	15569
28,37967	15576
28,38378	16556
28,38790	15310
28,39202	17000
28,39615	14906
28,40027	17574
28,40438	16089
28,40852	16629
28,41263	17021
28,41675	15903
28,42088	15847
28,42500	16782
28,42912	16108
28,43325	15780
28,43737	17426
28,44148	16605
28,44562	16228
28,44973	16807
28,45385	16771
28,45798	14275
28,46210	15086
28,46622	16564
28,47035	16565
28,47447	15950
28,47858	16487
28,48270	18544
28,48683	15783
28,49095	13736
28,49507	17066
28,49920	15675
28,50332	16170
28,50743	15041
28,51157	16497
28,51568	17540
28,51980	18837
28,52393	19014
28,52805	16984
28,53217	17976
28,53630	18132
28,54042	17628
28,54453	17830
28,54867	17389
28,55278	18263
28,55690	18079
28,56103	15678
28,56515	17714
28,56927	16246
28,57340	16827
28,57752	16605
28,58163	15912
28,58575	18928
28,58988	17615
28,59400	18701
28,59812	18986
28,60225	18832
28,60637	18876
28,61048	20477
28,61462	20197
28,61873	23151
28,62285	26028
28,62698	29536
28,63110	41103
28,63522	49922
28,63935	74223
28,64347	102660
28,64758	144180
28,65172	193092
28,65583	251557
28,65995	313124
28,66408	370178
28,66820	425423
28,67232	467360
28,67643	495777
28,68057	498344
28,68468	482528
28,68880	463248
28,69293	420222
28,69705	375691
28,70117	327426
28,70530	288623
28,70942	244952
28,71353	210054
28,71767	178167
28,72178	156391
28,72590	131862
28,73003	120578
28,73415	103262
28,73827	93036
28,74240	84828
28,74652	77295
28,75063	68403
28,75477	66396
28,75888	60341
28,76300	55623
28,76712	50929
28,77125	50550
28,77537	48674
28,77948	48100
28,78362	43667
28,78773	42286
28,79185	41143
28,79598	40094
28,80010	38761
28,80422	35297
28,80835	35836
28,81247	33190
28,81658	31700
28,82072	32899
28,82483	31739
28,82895	31020
28,83308	30342
28,83720	29980
28,84132	29857
28,84545	29327
28,84957	29687
28,85368	28804
28,85780	27924
28,86193	27521
28,86605	26309
28,87017	25118
28,87430	27113
28,87842	26644
28,88253	25546
28,88667	26851
28,89078	25571
28,89490	25846
28,89903	24006
28,90315	23369
28,90727	24943
28,91140	23129
28,91552	23368
28,91963	24292
28,92377	23252
28,92788	22393
28,93200	23262
28,93613	22839
28,94025	24001
28,94437	23837
28,94848	23139
28,95262	21918
28,95673	22002
28,96085	23384
28,96498	21488
28,96910	21042
28,97322	20091
28,97735	21986
28,98147	20862
28,98558	20427
28,98972	19087
28,99383	20349
28,99795	21990
29,00208	17849
29,00620	19012
29,01032	19192
29,01445	18570
29,01857	20056
29,02268	19174
29,02682	19538
29,03093	18533
29,03505	20173
29,03917	19125
29,04330	18106
29,04742	18643
29,05153	17625
29,05567	18487
29,05978	18665
29,06390	18442
29,06803	19741
