D:\MassHunter\GCMS\1\data\Amal\Constant flow\90C\90C_1ml-min_5C-min_3.D Thu Sep 19 16:11:12 2024
Start of data points
5,89098,104772
5,89510,104986
5,89923,102384
5,90335,101527
5,90747,100831
5,91160,98950
5,91572,102197
5,91983,100070
5,92397,97964
5,92808,99748
5,93220,95730
5,93633,96980
5,94045,93711
5,94457,92960
5,94870,94117
5,95282,92352
5,95693,92497
5,96107,92187
5,96518,90626
5,96930,90157
5,97343,91572
5,97755,89562
5,98167,88849
5,98578,87517
5,98992,88362
5,99403,89828
5,99815,89433
6,00228,94216
6,00640,98161
6,01052,105742
6,01465,121569
6,01877,147689
6,02288,187571
6,02702,238134
6,03113,300908
6,03525,371581
6,03938,431754
6,04350,487871
6,04762,531636
6,05175,568788
6,05587,579298
6,05998,587142
6,06412,582173
6,06823,572837
6,07235,555907
6,07647,537018
6,08060,510689
6,08472,489600
6,08883,465031
6,09297,447024
6,09708,431514
6,10120,409907
6,10533,393250
6,10945,375740
6,11357,366684
6,11770,350849
6,12182,341162
6,12593,329109
6,13007,320473
6,13418,313530
6,13830,308206
6,14243,303425
6,14655,291449
6,15067,286757
6,15480,277440
6,15892,270508
6,16303,261932
6,16715,251586
6,17128,248175
6,17540,227828
6,17952,227661
6,18365,215078
6,18777,209069
6,19188,200805
6,19602,191665
6,20013,181942
6,20425,176929
6,20838,164454
6,21250,160150
6,21662,152385
6,22075,147008
6,22487,143634
6,22898,132536
6,23312,131642
6,23723,124607
6,24135,120184
6,24548,116317
6,24960,114755
6,25372,110445
6,25783,106491
6,26197,103966
6,26608,98678
6,27020,96268
6,27433,93772
6,27845,92245
6,28257,94642
6,28670,90071
6,29082,87134
6,29493,84579
6,29907,82811
6,30318,82164
6,30730,80439
6,31143,79611
6,31555,77196
6,31967,74951
6,32380,75297
6,32792,75615
6,33203,73166
6,33617,70868
6,34028,72759
6,34440,70779
6,34852,67979
6,35265,68921
6,35677,70184
6,36088,67531
6,36502,66163
6,36913,66158
6,37325,65860
6,37738,65090
6,38150,64219
6,38562,62033
6,38975,64570
6,39387,65127
6,39798,62521
6,40212,62524
6,40623,63396
6,41035,61957
6,41448,62145
6,41860,62246
6,42272,60594
6,42685,58533
6,43097,60472
6,43508,59551
6,43920,57425
6,44333,57041
6,44745,55514
6,45157,53884
6,45570,55634
6,45982,52314
6,46393,54432
6,46807,52945
6,47218,52184
6,47630,51508
6,48043,53548
6,48455,51419
6,48867,50456
6,49280,51169
6,49692,52044
6,50103,51515
6,50517,51423
6,50928,51111
6,51340,52556
6,51753,51288
6,52165,51160
6,52577,51933
6,52988,50422
6,53402,51330
6,53813,50814
6,54225,48216
6,54638,50390
6,55050,49453
6,55462,48414
6,55875,48909
6,56287,47184
6,56698,47708
6,57112,46987
6,57523,48928
6,57935,50717
6,58348,48697
6,58760,49192
6,59172,46354
6,59585,48153
6,59997,46555
6,60408,47961
6,60822,46769
6,61233,46975
6,61645,47685
6,62057,47649
6,62470,45120
6,62882,45279
6,63293,47686
6,63707,47021
6,64118,46026
6,64530,44281
6,64943,46554
6,65355,44361
6,65767,45127
6,66180,42729
6,66592,43623
6,67003,43998
6,67417,43493
6,67828,43934
6,68240,43870
6,68653,45263
6,69065,44554
6,69477,42526
6,69890,43635
6,70302,42721
6,70713,43015
6,71125,41431
6,71538,42549
6,71950,41557
6,72362,43217
6,72775,42197
6,73187,42085
6,73598,42999
6,74012,43191
6,74423,41660
6,74835,41563
6,75248,43082
6,75660,42536
6,76072,43095
6,76485,41246
6,76897,41970
6,77308,40396
6,77722,44075
6,78133,40447
6,78545,41089
6,78958,40863
6,79370,39329
6,79782,41169
6,80193,40999
6,80607,39825
6,81018,40550
6,81430,40211
6,81843,39713
6,82255,38235
6,82667,38599
6,83080,38472
6,83492,38616
6,83903,37617
6,84317,39301
6,84728,38907
6,85140,40334
6,85553,41574
6,85965,38697
6,86377,37436
6,86790,39701
6,87202,39250
6,87613,40714
6,88027,40257
6,88438,38721
6,88850,38934
6,89263,40036
6,89675,39937
6,90087,38479
6,90498,37751
6,90912,37092
6,91323,38111
6,91735,38050
6,92148,37829
6,92560,37281
6,92972,40049
6,93385,38343
6,93797,35984
6,94208,36128
6,94622,37676
6,95033,37435
6,95445,36728
6,95858,35574
6,96270,37685
6,96682,37390
6,97095,36031
6,97507,35751
6,97918,35952
6,98332,35821
6,98743,35139
6,99155,35801
6,99567,36030
6,99980,35854
7,00392,35562
7,00803,37139
7,01217,34824
7,01628,36121
7,02040,37488
7,02453,34818
7,02865,37193
7,03277,35697
7,03690,34540
7,04102,34979
7,04513,34773
7,04927,35219
7,05338,34555
7,05750,35902
7,06163,34042
7,06575,34078
7,06987,33621
7,07400,36592
7,07812,33192
7,08223,31980
7,08635,33416
7,09048,34441
7,09460,33406
7,09872,32002
7,10285,31499
7,10697,31704
7,11108,33175
7,11522,34539
7,11933,33284
7,12345,33521
7,12758,35185
7,13170,33770
7,13582,33852
7,13995,32431
7,14407,31715
7,14818,32304
7,15232,34187
7,15643,32640
7,16055,33410
7,16468,32403
7,16880,33383
7,17292,32381
7,17703,32885
7,18117,34046
7,18528,34039
7,18940,34588
7,19353,34580
7,19765,35883
7,20177,36585
7,20590,36302
7,21002,37095
7,21413,37374
7,21827,36311
7,22238,39483
7,22650,37550
7,23063,37598
7,23475,37029
7,23887,38147
7,24300,38209
7,24712,37399
7,25123,36425
7,25537,39162
7,25948,39433
7,26360,36836
7,26772,36708
7,27185,39047
7,27597,38142
7,28008,39481
7,28422,40687
7,28833,40244
7,29245,40999
7,29658,40216
7,30070,42080
7,30482,41825
7,30895,44495
7,31307,41199
7,31718,42475
7,32132,40533
7,32543,43326
7,32955,43674
7,33368,42528
7,33780,42796
7,34192,42871
7,34605,40548
7,35017,39610
7,35428,40507
7,35840,40852
7,36253,39729
7,36665,40921
7,37077,39480
7,37490,41103
7,37902,39346
7,38313,39979
7,38727,36822
7,39138,37592
7,39550,37920
7,39963,37360
7,40375,37591
7,40787,34676
7,41200,34685
7,41612,35455
7,42023,34959
7,42437,35330
7,42848,34114
7,43260,34516
7,43673,33588
7,44085,35275
7,44497,34556
7,44908,32409
7,45322,33330
7,45733,31404
7,46145,33234
7,46558,34151
7,46970,30834
7,47382,32449
7,47795,32478
7,48207,32213
7,48618,32017
7,49032,33201
7,49443,30841
7,49855,31858
7,50268,29546
7,50680,30781
7,51092,30345
7,51505,32049
7,51917,31079
7,52328,30000
7,52742,32015
7,53153,31444
7,53565,30145
7,53977,28391
7,54390,30071
7,54802,31431
7,55213,30434
7,55627,30122
7,56038,31877
7,56450,29885
7,56863,30107
7,57275,29881
7,57687,30656
7,58100,30191
7,58512,31246
7,58923,28837
7,59337,28743
7,59748,29048
7,60160,28018
7,60573,29823
7,60985,28743
7,61397,28213
7,61810,29192
7,62222,28729
7,62633,30019
7,63045,28959
7,63458,28099
7,63870,29088
7,64282,29562
7,64695,29811
7,65107,29862
7,65518,28171
7,65932,28483
7,66343,28866
7,66755,30234
7,67168,29787
7,67580,28580
7,67992,29133
7,68405,29888
7,68817,28345
7,69228,28415
7,69642,27321
7,70053,28619
7,70465,27779
7,70878,27962
7,71290,26454
7,71702,27983
7,72113,27322
7,72527,28826
7,72938,28416
7,73350,26517
7,73763,28078
7,74175,27273
7,74587,27832
7,75000,26589
7,75412,27223
7,75823,27308
7,76237,26990
7,76648,28045
7,77060,28278
7,77473,26543
7,77885,27941
7,78297,25928
7,78710,26935
7,79122,26250
7,79533,26565
7,79947,27373
7,80358,28295
7,80770,26502
7,81182,27297
7,81595,25279
7,82007,25677
7,82418,25472
7,82832,25799
7,83243,26669
7,83655,26894
7,84068,26043
7,84480,26928
7,84892,25973
7,85305,28813
7,85717,30234
7,86128,36101
7,86542,42743
7,86953,53347
7,87365,75051
7,87778,103051
7,88190,147169
7,88602,201842
7,89015,272512
7,89427,350608
7,89838,444607
7,90250,534693
7,90663,633891
7,91075,711446
7,91487,776095
7,91900,838455
7,92312,874001
7,92723,896446
7,93137,880484
7,93548,879001
7,93960,862266
7,94373,831458
7,94785,793679
7,95197,748600
7,95610,711517
7,96022,669206
7,96433,626363
7,96847,582904
7,97258,550436
7,97670,516253
7,98083,476519
7,98495,445128
7,98907,416212
7,99318,388320
7,99732,359661
8,00143,328744
8,00555,305197
8,00968,277132
8,01380,262360
8,01792,238801
8,02205,219922
8,02617,202657
8,03028,183180
8,03442,167407
8,03853,151778
8,04265,142687
8,04678,132546
8,05090,120486
8,05502,116315
8,05915,103986
8,06327,94339
8,06738,87710
8,07152,85290
8,07563,77441
8,07975,72259
8,08387,71309
8,08800,63752
8,09212,61367
8,09623,59308
8,10037,55294
8,10448,53192
8,10860,48707
8,11273,48688
8,11685,48588
8,12097,48470
8,12510,45654
8,12922,44456
8,13333,43145
8,13747,41045
8,14158,39547
8,14570,37708
8,14983,37954
8,15395,37506
8,15807,36924
8,16220,38029
8,16632,36515
8,17043,34647
8,17455,35129
8,17868,34955
8,18280,31852
8,18692,34678
8,19105,33087
8,19517,32432
8,19928,30324
8,20342,29851
8,20753,29725
8,21165,31058
8,21578,30504
8,21990,28656
8,22402,29090
8,22815,29017
8,23227,30608
8,23638,27020
8,24052,29029
8,24463,26919
8,24875,27354
8,25288,26917
8,25700,28207
8,26112,24828
8,26523,26876
8,26937,27519
8,27348,26857
8,27760,27529
8,28173,26319
8,28585,26958
8,28997,26103
8,29410,25667
8,29822,26338
8,30233,24400
8,30647,25786
8,31058,24716
8,31470,24880
8,31883,23450
8,32295,24543
8,32707,24726
8,33120,24997
8,33532,24265
8,33943,23382
8,34357,24233
8,34768,23978
8,35180,24621
8,35593,23711
8,36005,25029
8,36417,22820
8,36828,24372
8,37242,23499
8,37653,24400
8,38065,23080
8,38478,23044
8,38890,22795
8,39302,21712
8,39715,23265
8,40127,22332
8,40538,21726
8,40952,23536
8,41363,21991
8,41775,21601
8,42188,22435
8,42600,22766
8,43012,21139
8,43425,22396
8,43837,22311
8,44248,21859
8,44662,20819
8,45073,21543
8,45485,22624
8,45897,21576
8,46310,22164
8,46722,22940
8,47133,20201
8,47547,20850
8,47958,21596
8,48370,22247
8,48783,22698
8,49195,21907
8,49607,20845
8,50020,22459
8,50432,21947
8,50843,21657
8,51257,22707
8,51668,20517
8,52080,20900
8,52493,21589
8,52905,20765
8,53317,21431
8,53730,20378
8,54142,21550
8,54553,20690
8,54965,21005
8,55378,18559
8,55790,20011
8,56202,20289
8,56615,21792
8,57027,20376
8,57438,21667
8,57852,22176
8,58263,21065
8,58675,20991
8,59088,19155
8,59500,20317
8,59912,20788
8,60325,22124
8,60737,20499
8,61148,20716
8,61562,20598
8,61973,20100
8,62385,20570
8,62798,20319
8,63210,20336
8,63622,20991
8,64033,20480
8,64447,19650
8,64858,19921
8,65270,19880
8,65683,20009
8,66095,19145
8,66507,19738
8,66920,19773
8,67332,19505
8,67743,19597
8,68157,19020
8,68568,19090
8,68980,19692
8,69393,19273
8,69805,19377
8,70217,20159
8,70630,20028
8,71042,19657
8,71453,18965
8,71867,19749
8,72278,18074
8,72690,19712
8,73102,18366
8,73515,17891
8,73927,18435
8,74338,18049
8,74752,19281
8,75163,19271
8,75575,18633
8,75988,19296
8,76400,19939
8,76812,19606
8,77225,18833
8,77637,19139
8,78048,18196
8,78462,18486
8,78873,20120
8,79285,18660
8,79698,19092
8,80110,19439
8,80522,20473
8,80935,18565
8,81347,18966
8,81758,19370
8,82170,18395
8,82583,18941
8,82995,18190
8,83407,19495
8,83820,19356
8,84232,18207
8,84643,19083
8,85057,18983
8,85468,18803
8,85880,17845
8,86293,18064
8,86705,19023
8,87117,16537
8,87530,18462
8,87942,17604
8,88353,17910
8,88767,18949
8,89178,18105
8,89590,17689
8,90003,17333
8,90415,18341
8,90827,18146
8,91238,17307
8,91652,17113
8,92063,18328
8,92475,17642
8,92888,17035
8,93300,17975
8,93712,17555
8,94125,16874
8,94537,18127
8,94948,16518
8,95362,17173
8,95773,17596
8,96185,18577
8,96598,17730
8,97010,16409
8,97422,17650
8,97835,17945
8,98247,17614
8,98658,18047
8,99072,16930
8,99483,16954
8,99895,17417
9,00307,19326
9,00720,17020
9,01132,15816
9,01543,18429
9,01957,16896
9,02368,16583
9,02780,17333
9,03193,17460
9,03605,16226
9,04017,17766
9,04430,16456
9,04842,18142
9,05253,17707
9,05667,16221
9,06078,16564
9,06490,17733
9,06903,15736
9,07315,16597
9,07727,16459
9,08140,16413
9,08552,15394
9,08963,15657
9,09375,16374
9,09788,15973
9,10200,16676
9,10612,16844
9,11025,16015
9,11437,15766
9,11848,15325
9,12262,15970
9,12673,15407
9,13085,16161
9,13498,16249
9,13910,16947
9,14322,16613
9,14735,16005
9,15147,17694
9,15558,16454
9,15972,17086
9,16383,16782
9,16795,16102
9,17208,16224
9,17620,18138
9,18032,17492
9,18443,17588
9,18857,16836
9,19268,16157
9,19680,16584
9,20093,16530
9,20505,16762
9,20917,17231
9,21330,17340
9,21742,16597
9,22153,16407
9,22567,17900
9,22978,17454
9,23390,17083
9,23803,17022
9,24215,16107
9,24627,15193
9,25040,16434
9,25452,16132
9,25863,15487
9,26277,15061
9,26688,14869
9,27100,16412
9,27512,17197
9,27925,16461
9,28337,15705
9,28748,16897
9,29162,15875
9,29573,15872
9,29985,15578
9,30398,15764
9,30810,17455
9,31222,16803
9,31635,16638
9,32047,17795
9,32458,19014
9,32872,17275
9,33283,17958
9,33695,17442
9,34108,18127
9,34520,18087
9,34932,16721
9,35345,18042
9,35757,17892
9,36168,18031
9,36580,16233
9,36993,17071
9,37405,17971
9,37817,16109
9,38230,16064
9,38642,16218
9,39053,15601
9,39467,16359
9,39878,15759
9,40290,14405
9,40703,15173
9,41115,15228
9,41527,14800
9,41940,14493
9,42352,15153
9,42763,14449
9,43177,14940
9,43588,14819
9,44000,16344
9,44413,14501
9,44825,13775
9,45237,14271
9,45648,15757
9,46062,14419
9,46473,16214
9,46885,14612
9,47298,15004
9,47710,15319
9,48122,14741
9,48535,16366
9,48947,15337
9,49358,14418
9,49772,15605
9,50183,14120
9,50595,16166
9,51008,15719
9,51420,14112
9,51832,14861
9,52245,15488
9,52657,15217
9,53068,14199
9,53482,15011
9,53893,16159
9,54305,15608
9,54717,13629
9,55130,14763
9,55542,13760
9,55953,15199
9,56367,14161
9,56778,14766
9,57190,14620
9,57603,14088
9,58015,13985
9,58427,13657
9,58840,14086
9,59252,13610
9,59663,14189
9,60077,13907
9,60488,13118
9,60900,14529
9,61313,14616
9,61725,14714
9,62137,13957
9,62550,14730
9,62962,13292
9,63373,13965
9,63785,13830
9,64198,12398
9,64610,13518
9,65022,13244
9,65435,14478
9,65847,13684
9,66258,14344
9,66672,13529
9,67083,13384
9,67495,14260
9,67908,13927
9,68320,13894
9,68732,13010
9,69145,12553
9,69557,14066
9,69968,13911
9,70382,14704
9,70793,13946
9,71205,13763
9,71618,13624
9,72030,13150
9,72442,12870
9,72853,13186
9,73267,13970
9,73678,13083
9,74090,12769
9,74503,12364
9,74915,12868
9,75327,13607
9,75740,13145
9,76152,12382
9,76563,12999
9,76977,13334
9,77388,12744
9,77800,12996
9,78213,13427
9,78625,13742
9,79037,12619
9,79450,13087
9,79862,12471
9,80273,12358
9,80687,12433
9,81098,12904
9,81510,12332
9,81922,13941
9,82335,12998
9,82747,13257
9,83158,13075
9,83572,12668
9,83983,12829
9,84395,12606
9,84808,12388
9,85220,12955
9,85632,12746
9,86045,13275
9,86457,12482
9,86868,11793
9,87282,12734
9,87693,13388
9,88105,11105
9,88518,11893
9,88930,11775
9,89342,12959
9,89755,11943
9,90167,12678
9,90578,12267
9,90990,11715
9,91403,12830
9,91815,12793
9,92227,12240
9,92640,11560
9,93052,13759
9,93463,11741
9,93877,12528
9,94288,13515
9,94700,12545
9,95113,13177
9,95525,13532
9,95937,13106
9,96350,12264
9,96762,12392
9,97173,12905
9,97587,11776
9,97998,11925
9,98410,12375
9,98823,11706
9,99235,12521
9,99647,13136
10,00058,12314
10,00472,13242
10,00883,12385
10,01295,12167
10,01708,13125
10,02120,12698
10,02532,12650
10,02945,13382
10,03357,12658
10,03768,12474
10,04182,12273
10,04593,12473
10,05005,13139
10,05418,12647
10,05830,12585
10,06242,12418
10,06655,11564
10,07067,13424
10,07478,13129
10,07892,13682
10,08303,12934
10,08715,12415
10,09128,13800
10,09540,12795
10,09952,12002
10,10363,11883
10,10777,11668
10,11188,11897
10,11600,11455
10,12013,11897
10,12425,12445
10,12837,12214
10,13250,11147
10,13662,12505
10,14073,11014
10,14487,11047
10,14898,12842
10,15310,10979
10,15723,11850
10,16135,11252
10,16547,12146
10,16960,11674
10,17372,11538
10,17783,11534
10,18197,11849
10,18608,11039
10,19020,12657
10,19432,11932
10,19845,12887
10,20257,11635
10,20668,11940
10,21082,12166
10,21493,12517
10,21905,11817
10,22318,11826
10,22730,10997
10,23142,12048
10,23555,11053
10,23967,11987
10,24378,12137
10,24792,11931
10,25203,11556
10,25615,11831
10,26028,11656
10,26440,12635
10,26852,11806
10,27265,12375
10,27677,11677
10,28088,11262
10,28500,12735
10,28913,11113
10,29325,12700
10,29737,12436
10,30150,11422
10,30562,11076
10,30973,10796
10,31387,10917
10,31798,10899
10,32210,11436
10,32623,11590
10,33035,10912
10,33447,11805
10,33860,11238
10,34272,10889
10,34683,11858
10,35097,10594
10,35508,12121
10,35920,11079
10,36333,11524
10,36745,10544
10,37157,10617
10,37568,12244
10,37982,11821
10,38393,11225
10,38805,11421
10,39218,12058
10,39630,12925
10,40042,12774
10,40455,11267
10,40867,12369
10,41278,13071
10,41692,11941
10,42103,12526
10,42515,12429
10,42928,12773
10,43340,12158
10,43752,12781
10,44165,10714
10,44577,11550
10,44988,12238
10,45402,12927
10,45813,12104
10,46225,11290
10,46637,11789
10,47050,11532
10,47462,11254
10,47873,11060
10,48287,12356
10,48698,12210
10,49110,11605
10,49523,10981
10,49935,10981
10,50347,11797
10,50760,10930
10,51172,10870
10,51583,11474
10,51997,12058
10,52408,11514
10,52820,10963
10,53233,10885
10,53645,10876
10,54057,11089
10,54470,12436
10,54882,14453
10,55293,17246
10,55705,21062
10,56118,29700
10,56530,45176
10,56942,64204
10,57355,96941
10,57767,143276
10,58178,206406
10,58592,293057
10,59003,396079
10,59415,515023
10,59828,643642
10,60240,777843
10,60652,904463
10,61065,1027929
10,61477,1123500
10,61888,1191920
10,62302,1250078
10,62713,1268340
10,63125,1280387
10,63538,1238771
10,63950,1183537
10,64362,1129496
10,64773,1057339
10,65187,982243
10,65598,887823
10,66010,809513
10,66423,728811
10,66835,645836
10,67247,584157
10,67660,507899
10,68072,455367
10,68483,400093
10,68897,361314
10,69308,317196
10,69720,284094
10,70133,250458
10,70545,217723
10,70957,202552
10,71370,179659
10,71782,159736
10,72193,146695
10,72607,130798
10,73018,124091
10,73430,113910
10,73842,100675
10,74255,91238
10,74667,86563
10,75078,82006
10,75492,75457
10,75903,73399
10,76315,68895
10,76728,65017
10,77140,60322
10,77552,56738
10,77965,55361
10,78377,53401
10,78788,47984
10,79202,46713
10,79613,44206
10,80025,41523
10,80438,40865
10,80850,39316
10,81262,37378
10,81675,37542
10,82087,36535
10,82498,34095
10,82910,34035
10,83323,32003
10,83735,30259
10,84147,29380
10,84560,28690
10,84972,28849
10,85383,27015
10,85797,26288
10,86208,24992
10,86620,25301
10,87033,24636
10,87445,25111
10,87857,24100
10,88270,23294
10,88682,23090
10,89093,21988
10,89507,22081
10,89918,21081
10,90330,21157
10,90743,20943
10,91155,20529
10,91567,19495
10,91978,20564
10,92392,19418
10,92803,19684
10,93215,19344
10,93628,18933
10,94040,18608
10,94452,19364
10,94865,18401
10,95277,18747
10,95688,18478
10,96102,18055
10,96513,17671
10,96925,16697
10,97338,17578
10,97750,16694
10,98162,17079
10,98575,17738
10,98987,14863
10,99398,15634
10,99812,15661
11,00223,16885
11,00635,16101
11,01047,15730
11,01460,15560
11,01872,16275
11,02283,14133
11,02697,14803
11,03108,14874
11,03520,13720
11,03933,12953
11,04345,13883
11,04757,13313
11,05170,13763
11,05582,13942
11,05993,13312
11,06407,12762
11,06818,14432
11,07230,13881
11,07643,12899
11,08055,12267
11,08467,12954
11,08880,12552
11,09292,11467
11,09703,11422
11,10115,12674
11,10528,11292
11,10940,12849
11,11352,12247
11,11765,11869
11,12177,11656
11,12588,12375
11,13002,11876
11,13413,12623
11,13825,11385
11,14238,11451
11,14650,11473
11,15062,12965
11,15475,11269
11,15887,11595
11,16298,12224
11,16712,10909
11,17123,12752
11,17535,11173
11,17948,10935
11,18360,11773
11,18772,12332
11,19183,13187
11,19597,11228
11,20008,11188
11,20420,11659
11,20833,10962
11,21245,12100
11,21657,12144
11,22070,10515
11,22482,10926
11,22893,11504
11,23307,11108
11,23718,10431
11,24130,11627
11,24543,11224
11,24955,10299
11,25367,11104
11,25780,11237
11,26192,10985
11,26603,10711
11,27017,10258
11,27428,12637
11,27840,12055
11,28252,11519
11,28665,11178
11,29077,11997
11,29488,11912
11,29902,13014
11,30313,12096
11,30725,12738
11,31138,11252
11,31550,11614
11,31962,10992
11,32375,11608
11,32787,11248
11,33198,12370
11,33612,10802
11,34023,10656
11,34435,10182
11,34848,9207
11,35260,10743
11,35672,11349
11,36085,10041
11,36497,10445
11,36908,11047
11,37320,10549
11,37733,10565
11,38145,9887
11,38557,9916
11,38970,10165
11,39382,10228
11,39793,10689
11,40207,11291
11,40618,11103
11,41030,10105
11,41443,10192
11,41855,10393
11,42267,10441
11,42680,9497
11,43092,9699
11,43503,10067
11,43917,10960
11,44328,9938
11,44740,10467
11,45153,10226
11,45565,10170
11,45977,9693
11,46388,11136
11,46802,10139
11,47213,10475
11,47625,10402
11,48038,10253
11,48450,10648
11,48862,10752
11,49275,11125
11,49687,10356
11,50098,9622
11,50512,11033
11,50923,10754
11,51335,10493
11,51748,10354
11,52160,10670
11,52572,10372
11,52985,10615
11,53397,9231
11,53808,9667
11,54222,9153
11,54633,9974
11,55045,8873
11,55457,9949
11,55870,9032
11,56282,8523
11,56693,9647
11,57107,9488
11,57518,9059
11,57930,8652
11,58343,9059
11,58755,8270
11,59167,8835
11,59580,8180
11,59992,8914
11,60403,8797
11,60817,8220
11,61228,8025
11,61640,8641
11,62053,8365
11,62465,9219
11,62877,9525
11,63290,8046
11,63702,8983
11,64113,8782
11,64527,8345
11,64938,10617
11,65350,9645
11,65762,9912
11,66175,8952
11,66587,9051
11,66998,9097
11,67412,9233
11,67823,10346
11,68235,9611
11,68648,8598
11,69060,9226
11,69472,10104
11,69885,8939
11,70297,8203
11,70708,8956
11,71122,9737
11,71533,9174
11,71945,10105
11,72358,8781
11,72770,10107
11,73182,10297
11,73595,8625
11,74007,9668
11,74418,9253
11,74830,8527
11,75243,9095
11,75655,9392
11,76067,8434
11,76480,9284
11,76892,9565
11,77303,8605
11,77717,7988
11,78128,8908
11,78540,8389
11,78953,9811
11,79365,10195
11,79777,9145
11,80190,9305
11,80602,9573
11,81013,10080
11,81427,8653
11,81838,8984
11,82250,8818
11,82663,9238
11,83075,8537
11,83487,8679
11,83898,8310
11,84312,9263
11,84723,9698
11,85135,8977
11,85548,9021
11,85960,8727
11,86372,9444
11,86785,8918
11,87197,7672
11,87608,8203
11,88022,9167
11,88433,9500
11,88845,8998
11,89258,9452
11,89670,9764
11,90082,8774
11,90495,7741
11,90907,8116
11,91318,9170
11,91732,9816
11,92143,9193
11,92555,9004
11,92967,9088
11,93380,8858
11,93792,8701
11,94203,8644
11,94617,8234
11,95028,8566
11,95440,8982
11,95853,9424
11,96265,7881
11,96677,8227
11,97090,8073
11,97502,8464
11,97913,8822
11,98327,9165
11,98738,8727
11,99150,8724
11,99563,8037
11,99975,8668
12,00387,8156
12,00800,8485
12,01212,9406
12,01623,8518
12,02035,8743
12,02448,8405
12,02860,10044
12,03272,10036
12,03685,10888
12,04097,10475
12,04508,10717
12,04922,10838
12,05333,10461
12,05745,11991
12,06158,12668
12,06570,10835
12,06982,11715
12,07395,12054
12,07807,12924
12,08218,12163
12,08632,16345
12,09043,22161
12,09455,29113
12,09868,41622
12,10280,59796
12,10692,89282
12,11103,124565
12,11517,168938
12,11928,226502
12,12340,296532
12,12753,374815
12,13165,452813
12,13577,531421
12,13990,598201
12,14402,654475
12,14813,691424
12,15227,718462
12,15638,723074
12,16050,721219
12,16463,691431
12,16875,651241
12,17287,601484
12,17700,555222
12,18112,508085
12,18523,450609
12,18937,399436
12,19348,350269
12,19760,310087
12,20172,273202
12,20585,238840
12,20997,213719
12,21408,184112
12,21822,160298
12,22233,143889
12,22645,126407
12,23058,117766
12,23470,101983
12,23882,92249
12,24295,83398
12,24707,77477
12,25118,70476
12,25532,64523
12,25943,58762
12,26355,57800
12,26768,54735
12,27180,49957
12,27592,46521
12,28005,43518
12,28417,41323
12,28828,37126
12,29240,36136
12,29653,34937
12,30065,33340
12,30477,31989
12,30890,29810
12,31302,30862
12,31713,28441
12,32127,26961
12,32538,25592
12,32950,25724
12,33363,25165
12,33775,23802
12,34187,22384
12,34600,21710
12,35012,19875
12,35423,20633
12,35837,19986
12,36248,19253
12,36660,18726
12,37073,17876
12,37485,18023
12,37897,16791
12,38308,17894
12,38722,16905
12,39133,16320
12,39545,15460
12,39958,16502
12,40370,16434
12,40782,14488
12,41195,14822
12,41607,14833
12,42018,14408
12,42432,14271
12,42843,14573
12,43255,14832
12,43668,13685
12,44080,13040
12,44492,12469
12,44905,11801
12,45317,12995
12,45728,12686
12,46142,13526
12,46553,12316
12,46965,12259
12,47377,11163
12,47790,11137
12,48202,10251
12,48613,11159
12,49027,10887
12,49438,10732
12,49850,10318
12,50263,10749
12,50675,11108
12,51087,10345
12,51500,10788
12,51912,11264
12,52323,9736
12,52737,10777
12,53148,9576
12,53560,9379
12,53973,9522
12,54385,10892
12,54797,9853
12,55210,8761
12,55622,8726
12,56033,9867
12,56445,10893
12,56858,10046
12,57270,9540
12,57682,9193
12,58095,9455
12,58507,8504
12,58918,9446
12,59332,9646
12,59743,9191
12,60155,8432
12,60568,8450
12,60980,9898
12,61392,9095
12,61805,8489
12,62217,9070
12,62628,8625
12,63042,8050
12,63453,7834
12,63865,8327
12,64278,8851
12,64690,8870
12,65102,8153
12,65513,8676
12,65927,8465
12,66338,7814
12,66750,7815
12,67163,7674
12,67575,8307
12,67987,7228
12,68400,7997
12,68812,8689
12,69223,8603
12,69637,8571
12,70048,7717
12,70460,7333
12,70873,8479
12,71285,8052
12,71697,7267
12,72110,8338
12,72522,8590
12,72933,8594
12,73347,9855
12,73758,9262
12,74170,8366
12,74582,10786
12,74995,10539
12,75407,10153
12,75818,10383
12,76232,10657
12,76643,10654
12,77055,10209
12,77468,10128
12,77880,10306
12,78292,9324
12,78705,10312
12,79117,11099
12,79528,10260
12,79942,8526
12,80353,9602
12,80765,8742
12,81178,8383
12,81590,8941
12,82002,9215
12,82415,8566
12,82827,8221
12,83238,7982
12,83650,8532
12,84063,7475
12,84475,8853
12,84887,6834
12,85300,7579
12,85712,8263
12,86123,7666
12,86537,7829
12,86948,7805
12,87360,8541
12,87773,8187
12,88185,7762
12,88597,7071
12,89010,7642
12,89422,8446
12,89833,6385
12,90247,7686
12,90658,6541
12,91070,6763
12,91483,7423
12,91895,8212
12,92307,7111
12,92718,6992
12,93132,7213
12,93543,7698
12,93955,7454
12,94368,7092
12,94780,8176
12,95192,7420
12,95605,7807
12,96017,6871
12,96428,7303
12,96842,7385
12,97253,7597
12,97665,7578
12,98078,7780
12,98490,8179
12,98902,7339
12,99315,7039
12,99727,7222
13,00138,6923
13,00552,7658
13,00963,7404
13,01375,7831
13,01787,7041
13,02200,8036
13,02612,6842
13,03023,7642
13,03437,6310
13,03848,6765
13,04260,7398
13,04673,7004
13,05085,7448
13,05497,6806
13,05910,7841
13,06322,7604
13,06733,6646
13,07147,5794
13,07558,6177
13,07970,6901
13,08383,7104
13,08795,6965
13,09207,7246
13,09620,6787
13,10032,6852
13,10443,6557
13,10855,6681
13,11268,6882
13,11680,6988
13,12092,6790
13,12505,7154
13,12917,6533
13,13328,6526
13,13742,6084
13,14153,7678
13,14565,7002
13,14978,6571
13,15390,6635
13,15802,7539
13,16215,6369
13,16627,6386
13,17038,6505
13,17452,6828
13,17863,6835
13,18275,7224
13,18688,7168
13,19100,6667
13,19512,7299
13,19923,6629
13,20337,6722
13,20748,6837
13,21160,6020
13,21573,6307
13,21985,6100
13,22397,6591
13,22810,6966
13,23222,6614
13,23633,7218
13,24047,6071
13,24458,7935
13,24870,7190
13,25283,6810
13,25695,6536
13,26107,6138
13,26520,6125
13,26932,6064
13,27343,6031
13,27757,7183
13,28168,6542
13,28580,7145
13,28993,6892
13,29405,6407
13,29817,7569
13,30228,6539
13,30642,7053
13,31053,7454
13,31465,8022
13,31878,6665
13,32290,7290
13,32702,7980
13,33115,6848
13,33527,6762
13,33938,7661
13,34352,7954
13,34763,7736
13,35175,6400
13,35588,7823
13,36000,7752
13,36412,6927
13,36825,8046
13,37237,7031
13,37648,7052
13,38062,7881
13,38473,7584
13,38885,7008
13,39297,7898
13,39710,7077
13,40122,7301
13,40533,6888
13,40947,8067
13,41358,6948
13,41770,6570
13,42183,7116
13,42595,7247
13,43007,7098
13,43420,7343
13,43832,7241
13,44243,6224
13,44657,6230
13,45068,7336
13,45480,7845
13,45893,6931
13,46305,5924
13,46717,6614
13,47130,5730
13,47542,7438
13,47953,7227
13,48365,6689
13,48778,5915
13,49190,6907
13,49602,6132
13,50015,5918
13,50427,6069
13,50838,5276
13,51252,6709
13,51663,6561
13,52075,6768
13,52488,6214
13,52900,5971
13,53312,6454
13,53725,6887
13,54137,6414
13,54548,6242
13,54962,5893
13,55373,7023
13,55785,5366
13,56198,6408
13,56610,5313
13,57022,6530
13,57433,6045
13,57847,6035
13,58258,7316
13,58670,6793
13,59083,6383
13,59495,5868
13,59907,6379
13,60320,4815
13,60732,5359
13,61143,5994
13,61557,6667
13,61968,5214
13,62380,6378
13,62793,5573
13,63205,6721
13,63617,7231
13,64030,8051
13,64442,9575
13,64853,13817
13,65267,19244
13,65678,26909
13,66090,43028
13,66502,69550
13,66915,113491
13,67327,171396
13,67738,247631
13,68152,352845
13,68563,491092
13,68975,646531
13,69388,826774
13,69800,1004610
13,70212,1181414
13,70625,1340830
13,71037,1488861
13,71448,1570941
13,71862,1642963
13,72273,1658343
13,72685,1617331
13,73098,1538473
13,73510,1428745
13,73922,1316547
13,74335,1177197
13,74747,1048075
13,75158,918232
13,75570,808349
13,75983,695460
13,76395,612912
13,76807,530684
13,77220,457415
13,77632,399861
13,78043,348777
13,78457,304550
13,78868,271356
13,79280,245033
13,79693,214547
13,80105,192163
13,80517,174215
13,80930,160195
13,81342,147164
13,81753,130108
13,82167,124196
13,82578,108173
13,82990,104325
13,83403,96290
13,83815,90948
13,84227,82007
13,84638,76709
13,85052,73491
13,85463,68717
13,85875,62186
13,86288,60396
13,86700,56782
13,87112,53049
13,87525,49525
13,87937,48959
13,88348,45237
13,88762,46296
13,89173,41086
13,89585,40481
13,89998,38006
13,90410,35000
13,90822,35685
13,91235,34465
13,91647,32563
13,92058,33301
13,92472,30338
13,92883,28974
13,93295,27278
13,93707,27858
13,94120,27366
13,94532,23982
13,94943,25406
13,95357,23698
13,95768,22536
13,96180,23338
13,96593,23625
13,97005,20860
13,97417,19529
13,97830,20582
13,98242,19842
13,98653,19752
13,99067,19676
13,99478,19728
13,99890,18984
14,00303,17210
14,00715,18504
14,01127,16560
14,01540,17520
14,01952,15991
14,02363,16059
14,02775,16334
14,03188,15466
14,03600,15359
14,04012,17055
14,04425,14864
14,04837,15476
14,05248,14867
14,05662,14029
14,06073,13404
14,06485,13776
14,06898,12619
14,07310,13739
14,07722,14296
14,08135,12344
14,08547,12865
14,08958,11788
14,09372,13024
14,09783,12186
14,10195,11415
14,10608,11615
14,11020,10709
14,11432,11284
14,11843,11157
14,12257,10725
14,12668,9421
14,13080,10616
14,13493,12160
14,13905,9757
14,14317,11384
14,14730,10378
14,15142,10239
14,15553,8894
14,15967,10219
14,16378,9453
14,16790,9050
14,17203,10122
14,17615,8681
14,18027,9226
14,18440,8559
14,18852,8869
14,19263,8219
14,19677,9093
14,20088,9102
14,20500,8632
14,20912,8208
14,21325,9183
14,21737,8743
14,22148,8599
14,22562,8791
14,22973,8854
14,23385,8410
14,23798,7972
14,24210,8014
14,24622,8568
14,25035,8842
14,25447,9081
14,25858,9334
14,26272,9665
14,26683,10301
14,27095,9787
14,27508,10342
14,27920,10120
14,28332,9216
14,28745,10575
14,29157,11687
14,29568,11366
14,29980,12708
14,30393,13840
14,30805,12577
14,31217,13495
14,31630,15881
14,32042,15799
14,32453,16198
14,32867,16768
14,33278,17261
14,33690,16019
14,34103,16763
14,34515,15843
14,34927,15413
14,35340,14622
14,35752,14049
14,36163,14009
14,36577,11769
14,36988,13087
14,37400,11786
14,37813,10576
14,38225,11137
14,38637,10993
14,39048,11257
14,39462,9670
14,39873,9937
14,40285,9496
14,40698,8621
14,41110,9303
14,41522,7687
14,41935,7833
14,42347,8143
14,42758,9010
14,43172,7774
14,43583,8999
14,43995,7163
14,44408,7867
14,44820,6505
14,45232,7204
14,45645,7565
14,46057,6990
14,46468,6541
14,46882,6347
14,47293,6603
14,47705,6691
14,48117,6355
14,48530,6744
14,48942,7193
14,49353,5727
14,49767,5993
14,50178,7070
14,50590,7482
14,51003,6065
14,51415,6903
14,51827,7222
14,52240,6854
14,52652,6609
14,53063,6237
14,53477,5726
14,53888,5135
14,54300,6810
14,54713,6395
14,55125,6196
14,55537,6896
14,55950,6077
14,56362,5742
14,56773,5882
14,57185,6691
14,57598,5747
14,58010,6215
14,58422,6227
14,58835,5850
14,59247,6125
14,59658,6622
14,60072,5904
14,60483,6255
14,60895,6501
14,61308,4964
14,61720,6795
14,62132,6163
14,62545,5693
14,62957,6527
14,63368,7268
14,63782,5738
14,64193,6324
14,64605,6067
14,65018,6376
14,65430,5568
14,65842,5853
14,66253,5386
14,66667,5597
14,67078,6704
14,67490,5651
14,67903,5238
14,68315,5636
14,68727,5795
14,69140,6128
14,69552,5575
14,69963,5237
14,70377,5663
14,70788,4767
14,71200,5162
14,71613,6031
14,72025,5571
14,72437,5133
14,72850,5898
14,73262,6020
14,73673,5214
14,74087,5824
14,74498,5934
14,74910,6142
14,75322,5771
14,75735,5117
14,76147,5243
14,76558,5345
14,76972,5892
14,77383,5710
14,77795,5232
14,78208,4990
14,78620,5378
14,79032,6051
14,79445,6357
14,79857,5659
14,80268,4899
14,80682,4784
14,81093,5886
14,81505,5399
14,81918,5472
14,82330,6209
14,82742,6845
14,83155,5942
14,83567,4624
14,83978,4992
14,84392,5152
14,84803,6344
14,85215,5569
14,85627,6675
14,86040,5628
14,86452,5681
14,86863,5106
14,87277,6474
14,87688,5375
14,88100,6171
14,88513,6708
14,88925,6298
14,89337,5292
14,89750,5808
14,90162,7089
14,90573,6394
14,90987,4645
14,91398,6696
14,91810,5856
14,92223,5693
14,92635,5800
14,93047,4788
14,93460,5996
14,93872,6018
14,94283,5668
14,94695,5158
14,95108,5635
14,95520,5120
14,95932,5624
14,96345,5624
14,96757,5503
14,97168,5392
14,97582,4546
14,97993,5696
14,98405,5196
14,98818,5322
14,99230,4569
14,99642,5955
15,00055,6242
15,00467,4509
15,00878,6037
15,01292,6644
15,01703,6373
15,02115,5868
15,02528,5644
15,02940,6333
15,03352,5468
15,03763,6273
15,04177,6494
15,04588,6549
15,05000,5857
15,05413,5239
15,05825,5806
15,06237,5078
15,06650,5838
15,07062,5201
15,07473,6213
15,07887,6318
15,08298,5611
15,08710,4922
15,09123,6513
15,09535,5302
15,09947,5969
15,10360,5170
15,10772,4344
15,11183,4840
15,11597,5385
15,12008,5386
15,12420,5462
15,12832,5432
15,13245,4673
15,13657,5483
15,14068,5369
15,14482,6229
15,14893,5173
15,15305,5265
15,15718,5129
15,16130,4674
15,16542,4985
15,16955,5037
15,17367,4769
15,17778,5022
15,18192,4744
15,18603,4766
15,19015,4917
15,19428,4445
15,19840,5113
15,20252,5299
15,20665,6992
15,21077,7475
15,21488,11707
15,21900,16810
15,22313,25967
15,22725,41234
15,23137,64332
15,23550,95455
15,23962,141996
15,24373,205601
15,24787,278477
15,25198,369284
15,25610,472135
15,26023,574032
15,26435,666988
15,26847,750483
15,27260,830951
15,27672,865947
15,28083,872536
15,28497,875772
15,28908,846332
15,29320,791749
15,29733,724540
15,30145,660285
15,30557,579951
15,30968,523929
15,31382,450425
15,31793,391610
15,32205,342237
15,32618,294504
15,33030,259467
15,33442,226627
15,33855,197771
15,34267,172815
15,34678,151519
15,35092,138850
15,35503,119833
15,35915,108175
15,36328,97823
15,36740,89392
15,37152,78997
15,37565,72879
15,37977,68002
15,38388,63483
15,38802,57963
15,39213,52930
15,39625,49660
15,40037,45568
15,40450,46094
15,40862,41505
15,41273,40704
15,41687,35351
15,42098,33086
15,42510,32755
15,42923,31444
15,43335,28877
15,43747,28211
15,44160,25453
15,44572,23714
15,44983,25174
15,45397,23609
15,45808,23099
15,46220,21514
15,46633,20778
15,47045,19957
15,47457,19440
15,47870,18771
15,48282,16391
15,48693,16513
15,49105,15833
15,49518,17126
15,49930,15420
15,50342,14774
15,50755,13326
15,51167,14972
15,51578,13550
15,51992,14102
15,52403,13401
15,52815,13006
15,53228,12162
15,53640,12713
15,54052,11114
15,54465,12622
15,54877,12857
15,55288,10797
15,55702,10774
15,56113,10257
15,56525,10347
15,56938,9944
15,57350,11543
15,57762,10922
15,58173,9820
15,58587,9142
15,58998,10067
15,59410,9035
15,59823,9607
15,60235,9591
15,60647,9416
15,61060,8779
15,61472,8195
15,61883,8787
15,62297,8431
15,62708,8977
15,63120,8851
15,63533,7838
15,63945,6586
15,64357,8899
15,64770,7862
15,65182,7890
15,65593,7467
15,66007,7388
15,66418,6839
15,66830,7814
15,67242,7874
15,67655,6383
15,68067,6222
15,68478,6441
15,68892,6955
15,69303,6600
15,69715,7307
15,70128,6989
15,70540,6957
15,70952,6178
15,71365,6591
15,71777,6661
15,72188,7223
15,72602,7192
15,73013,5666
15,73425,5673
15,73838,6345
15,74250,7850
15,74662,6854
15,75075,6059
15,75487,5697
15,75898,6049
15,76310,5763
15,76723,6933
15,77135,5977
15,77547,5360
15,77960,5102
15,78372,5842
15,78783,6680
15,79197,5572
15,79608,5812
15,80020,5809
15,80433,5456
15,80845,6491
15,81257,6155
15,81670,6448
15,82082,6226
15,82493,6815
15,82907,6218
15,83318,5984
15,83730,5677
15,84143,6421
15,84555,5691
15,84967,5323
15,85378,4970
15,85792,5177
15,86203,5848
15,86615,6261
15,87028,6395
15,87440,4979
15,87852,5509
15,88265,5161
15,88677,5637
15,89088,4785
15,89502,6034
15,89913,5173
15,90325,4443
15,90738,5499
15,91150,4748
15,91562,5346
15,91975,6402
15,92387,4861
15,92798,5194
15,93212,5278
15,93623,4726
15,94035,5267
15,94447,5091
15,94860,5516
15,95272,6188
15,95683,5974
15,96097,5917
15,96508,6547
15,96920,7138
15,97333,6999
15,97745,6702
15,98157,8257
15,98570,7847
15,98982,7685
15,99393,8562
15,99807,7850
16,00218,9438
16,00630,8156
16,01043,9091
16,01455,7412
16,01867,8805
16,02280,8497
16,02692,7977
16,03103,7585
16,03515,9608
16,03928,8849
16,04340,8615
16,04752,8576
16,05165,9124
16,05577,9715
16,05988,8275
16,06402,9193
16,06813,8907
16,07225,8128
16,07638,8164
16,08050,7813
16,08462,8295
16,08875,7536
16,09287,6711
16,09698,7018
16,10112,5933
16,10523,5889
16,10935,6551
16,11348,6020
16,11760,6802
16,12172,5752
16,12583,6095
16,12997,5811
16,13408,5626
16,13820,5697
16,14233,6052
16,14645,4707
16,15057,5178
16,15470,5912
16,15882,5044
16,16293,4605
16,16707,5082
16,17118,5301
16,17530,5399
16,17943,5490
16,18355,5257
16,18767,4499
16,19180,5178
16,19592,4908
16,20003,4657
16,20417,4215
16,20828,4304
16,21240,4784
16,21652,4546
16,22065,4404
16,22477,4894
16,22888,5170
16,23302,5094
16,23713,4209
16,24125,4719
16,24538,5378
16,24950,4926
16,25362,5170
16,25775,5404
16,26187,4785
16,26598,4835
16,27012,5364
16,27423,3667
16,27835,5225
16,28248,4227
16,28660,5152
16,29072,4867
16,29485,4427
16,29897,4191
16,30308,4664
16,30720,5084
16,31133,3918
16,31545,3858
16,31957,4059
16,32370,5101
16,32782,4441
16,33193,5113
16,33607,4249
16,34018,4744
16,34430,4829
16,34843,4262
16,35255,4518
16,35667,4432
16,36080,4904
16,36492,4865
16,36903,4167
16,37317,5168
16,37728,3643
16,38140,4430
16,38553,4892
16,38965,4249
16,39377,4165
16,39788,3968
16,40202,4872
16,40613,5185
16,41025,5239
16,41438,3977
16,41850,4084
16,42262,4924
16,42675,4329
16,43087,4182
16,43498,4949
16,43912,4698
16,44323,4900
16,44735,5436
16,45148,5352
16,45560,5722
16,45972,4760
16,46385,5940
16,46797,5044
16,47208,5174
16,47622,4642
16,48033,5205
16,48445,5084
16,48857,5017
16,49270,4881
16,49682,5666
16,50093,5674
16,50507,7026
16,50918,5823
16,51330,7732
16,51743,9402
16,52155,7640
16,52567,8646
16,52980,9545
16,53392,9369
16,53803,9799
16,54217,9807
16,54628,9481
16,55040,10434
16,55453,9361
16,55865,9135
16,56277,9560
16,56690,9553
16,57102,7115
16,57513,7814
16,57927,7472
16,58338,6269
16,58750,6485
16,59162,6693
16,59575,6727
16,59987,5784
16,60398,6032
16,60812,5760
16,61223,5290
16,61635,5640
16,62048,6012
16,62460,6115
16,62872,5831
16,63285,5910
16,63697,4700
16,64108,4881
16,64522,5736
16,64933,4822
16,65345,4942
16,65758,5020
16,66170,5169
16,66582,3977
16,66995,4820
16,67407,5016
16,67818,4905
16,68230,4823
16,68643,5014
16,69055,6645
16,69467,5558
16,69880,6273
16,70292,6831
16,70703,7678
16,71117,7971
16,71528,8217
16,71940,9852
16,72353,10866
16,72765,10583
16,73177,10819
16,73590,11386
16,74002,15346
16,74413,18110
16,74827,27376
16,75238,42059
16,75650,65626
16,76063,100440
16,76475,158928
16,76887,241389
16,77298,352553
16,77712,501557
16,78123,695220
16,78535,886080
16,78948,1111461
16,79360,1343210
16,79772,1557487
16,80185,1732573
16,80597,1879099
16,81008,1942605
16,81422,1982081
16,81833,1938436
16,82245,1836629
16,82658,1706245
16,83070,1530011
16,83482,1383658
16,83895,1231598
16,84307,1062862
16,84718,916264
16,85132,802178
16,85543,683594
16,85955,583541
16,86367,508070
16,86780,441736
16,87192,378406
16,87603,337930
16,88017,298908
16,88428,261545
16,88840,241412
16,89253,212466
16,89665,193055
16,90077,173380
16,90490,157323
16,90902,145713
16,91313,131879
16,91727,120005
16,92138,108746
16,92550,101687
16,92963,95411
16,93375,88753
16,93787,80748
16,94200,78147
16,94612,76126
16,95023,68437
16,95435,63648
16,95848,61391
16,96260,56029
16,96672,53290
16,97085,48387
16,97497,49532
16,97908,46687
16,98322,45073
16,98733,40929
16,99145,40302
16,99558,37696
16,99970,37174
17,00382,33189
17,00795,32575
17,01207,31644
17,01618,29499
17,02032,28306
17,02443,28339
17,02855,27318
17,03268,27096
17,03680,26436
17,04092,25911
17,04503,25060
17,04917,25270
17,05328,23779
17,05740,23021
17,06153,22129
17,06565,21015
17,06977,21117
17,07390,19543
17,07802,19158
17,08213,19332
17,08627,18043
17,09038,16955
17,09450,16356
17,09863,15628
17,10275,16824
17,10687,17112
17,11100,15346
17,11512,17117
17,11923,14818
17,12337,14381
17,12748,13732
17,13160,12921
17,13572,13282
17,13985,14032
17,14397,12726
17,14808,14017
17,15222,12719
17,15633,11866
17,16045,12165
17,16458,11312
17,16870,12357
17,17282,11205
17,17695,10874
17,18107,11369
17,18518,10082
17,18932,9399
17,19343,9598
17,19755,9845
17,20168,9222
17,20580,11154
17,20992,9480
17,21405,8621
17,21817,8408
17,22228,9842
17,22640,9653
17,23053,8922
17,23465,8113
17,23877,8622
17,24290,8425
17,24702,8409
17,25113,9201
17,25527,8346
17,25938,7735
17,26350,6906
17,26763,8068
17,27175,7471
17,27587,7654
17,28000,8773
17,28412,5663
17,28823,7408
17,29237,7643
17,29648,7306
17,30060,7716
17,30473,7432
17,30885,7244
17,31297,6319
17,31708,7416
17,32122,6656
17,32533,5943
17,32945,7388
17,33358,7143
17,33770,6999
17,34182,7241
17,34595,5845
17,35007,6732
17,35418,5861
17,35832,6475
17,36243,6846
17,36655,5613
17,37068,6454
17,37480,5867
17,37892,5750
17,38305,6519
17,38717,6204
17,39128,6096
17,39542,5742
17,39953,6153
17,40365,5288
17,40777,6007
17,41190,6280
17,41602,5197
17,42013,5128
17,42427,6426
17,42838,6543
17,43250,5236
17,43663,6004
17,44075,5422
17,44487,5288
17,44900,5043
17,45312,5251
17,45723,5272
17,46137,5470
17,46548,5566
17,46960,5445
17,47373,4444
17,47785,5006
17,48197,4411
17,48610,4851
17,49022,5787
17,49433,5279
17,49845,4159
17,50258,4734
17,50670,5393
17,51082,5454
17,51495,5063
17,51907,4594
17,52318,4757
17,52732,6014
17,53143,6044
17,53555,6656
17,53968,5955
17,54380,7247
17,54792,7122
17,55205,7115
17,55617,7369
17,56028,6934
17,56442,7335
17,56853,7694
17,57265,7899
17,57678,7046
17,58090,7183
17,58502,7389
17,58913,8531
17,59327,6310
17,59738,6416
17,60150,5927
17,60563,6275
17,60975,6559
17,61387,5882
17,61800,6307
17,62212,6130
17,62623,4922
17,63037,5478
17,63448,5888
17,63860,4508
17,64273,4379
17,64685,5189
17,65097,5698
17,65510,4844
17,65922,4843
17,66333,5098
17,66747,5041
17,67158,4992
17,67570,4209
17,67982,4806
17,68395,4561
17,68807,4843
17,69218,4544
17,69632,4767
17,70043,4536
17,70455,6182
17,70868,4889
17,71280,4940
17,71692,4805
17,72105,4988
17,72517,4379
17,72928,4796
17,73342,5280
17,73753,4660
17,74165,5224
17,74578,5636
17,74990,5680
17,75402,5190
17,75815,7255
17,76227,8599
17,76638,11565
17,77050,17198
17,77463,25646
17,77875,42355
17,78287,64037
17,78700,99407
17,79112,147676
17,79523,200667
17,79937,278287
17,80348,378712
17,80760,474377
17,81173,579011
17,81585,682313
17,81997,756756
17,82410,824843
17,82822,866832
17,83233,876980
17,83647,876294
17,84058,838715
17,84470,790270
17,84883,721994
17,85295,660059
17,85707,591679
17,86118,520405
17,86532,452023
17,86943,397200
17,87355,347766
17,87768,303398
17,88180,262460
17,88592,228083
17,89005,200653
17,89417,172128
17,89828,154632
17,90242,138909
17,90653,123838
17,91065,110574
17,91478,98950
17,91890,91107
17,92302,83676
17,92715,77471
17,93127,71296
17,93538,67075
17,93952,59173
17,94363,56663
17,94775,50128
17,95187,47071
17,95600,44559
17,96012,41323
17,96423,40460
17,96837,38435
17,97248,34015
17,97660,32477
17,98073,31061
17,98485,31290
17,98897,27804
17,99310,26621
17,99722,27773
18,00133,24648
18,00547,21665
18,00958,23476
18,01370,21386
18,01783,21533
18,02195,19361
18,02607,19444
18,03020,18188
18,03432,18187
18,03843,17707
18,04255,15912
18,04668,16718
18,05080,16455
18,05492,14293
18,05905,14190
18,06317,14756
18,06728,16324
18,07142,13919
18,07553,13997
18,07965,14277
18,08378,14073
18,08790,14319
18,09202,14624
18,09615,15165
18,10027,17471
18,10438,17301
18,10852,17056
18,11263,17064
18,11675,17343
18,12088,16500
18,12500,18408
18,12912,17405
18,13323,15523
18,13737,15847
18,14148,14228
18,14560,14927
18,14973,12863
18,15385,11161
18,15797,11765
18,16210,10647
18,16622,11465
18,17033,10799
18,17447,8589
18,17858,8865
18,18270,8774
18,18683,8210
18,19095,8563
18,19507,8327
18,19920,8640
18,20332,8109
18,20743,8125
18,21157,7748
18,21568,7997
18,21980,7649
18,22393,10119
18,22805,11873
18,23217,17027
18,23628,24547
18,24042,37798
18,24453,59206
18,24865,89767
18,25278,135588
18,25690,200391
18,26102,287329
18,26515,384829
18,26927,499115
18,27338,622786
18,27752,742074
18,28163,860609
18,28575,940924
18,28988,1004004
18,29400,1049192
18,29812,1040142
18,30225,1017747
18,30637,966986
18,31048,879847
18,31462,797441
18,31873,699215
18,32285,621999
18,32697,539800
18,33110,461552
18,33522,405580
18,33933,350075
18,34347,302399
18,34758,257995
18,35170,225077
18,35583,194060
18,35995,176269
18,36407,156636
18,36820,138710
18,37232,125806
18,37643,109470
18,38057,98432
18,38468,91828
18,38880,84564
18,39293,75547
18,39705,70507
18,40117,67524
18,40530,63121
18,40942,54978
18,41353,53097
18,41765,49745
18,42178,45962
18,42590,44082
18,43002,39565
18,43415,37429
18,43827,36723
18,44238,32967
18,44652,32845
18,45063,31270
18,45475,29014
18,45888,26941
18,46300,27879
18,46712,25257
18,47125,23368
18,47537,22109
18,47948,23577
18,48362,21040
18,48773,20044
18,49185,19686
18,49598,20708
18,50010,18095
18,50422,18158
18,50833,16954
18,51247,15675
18,51658,15492
18,52070,15162
18,52483,15273
18,52895,13980
18,53307,14489
18,53720,14413
18,54132,12488
18,54543,12378
18,54957,13244
18,55368,11974
18,55780,11075
18,56193,13404
18,56605,11912
18,57017,12024
18,57430,12039
18,57842,11338
18,58253,11087
18,58667,11210
18,59078,11405
18,59490,10494
18,59902,10832
18,60315,10293
18,60727,10632
18,61138,10042
18,61552,10191
18,61963,9837
18,62375,9501
18,62788,10505
18,63200,9796
18,63612,8529
18,64025,8768
18,64437,8688
18,64848,8070
18,65262,8084
18,65673,7188
18,66085,7174
18,66498,8019
18,66910,7381
18,67322,7469
18,67735,7643
18,68147,8265
18,68558,7080
18,68970,7585
18,69383,7226
18,69795,7246
18,70207,7272
18,70620,6463
18,71032,7207
18,71443,7203
18,71857,7224
18,72268,6777
18,72680,6492
18,73093,5914
18,73505,5422
18,73917,6661
18,74330,6911
18,74742,6254
18,75153,7255
18,75567,6397
18,75978,6780
18,76390,5807
18,76803,6270
18,77215,5003
18,77627,5637
18,78038,6087
18,78452,5422
18,78863,4823
18,79275,5791
18,79688,5159
18,80100,6199
18,80512,5647
18,80925,5627
18,81337,5575
18,81748,5209
18,82162,4817
18,82573,4841
18,82985,5771
18,83398,5916
18,83810,4460
18,84222,5078
18,84635,5187
18,85047,4781
18,85458,4666
18,85872,4753
18,86283,5104
18,86695,4763
18,87107,4000
18,87520,4390
18,87932,4406
18,88343,3811
18,88757,5250
18,89168,4777
18,89580,5215
18,89993,4996
18,90405,5015
18,90817,4188
18,91230,5805
18,91642,6451
18,92053,4769
18,92467,5561
18,92878,4245
18,93290,4778
18,93703,5113
18,94115,6103
18,94527,5585
18,94940,4526
18,95352,5177
18,95763,5783
18,96175,4833
18,96588,4856
18,97000,4128
18,97412,6139
18,97825,5597
18,98237,5087
18,98648,6068
18,99062,5761
18,99473,4755
18,99885,4860
19,00298,4460
19,00710,5498
19,01122,5031
19,01535,4979
19,01947,5139
19,02358,4857
19,02772,4543
19,03183,4809
19,03595,3902
19,04008,5225
19,04420,5494
19,04832,4696
19,05243,4682
19,05657,4926
19,06068,4426
19,06480,4239
19,06893,5390
19,07305,5259
19,07717,5322
19,08130,5042
19,08542,4807
19,08953,5372
19,09367,5111
19,09778,6350
19,10190,5562
19,10603,5608
19,11015,5421
19,11427,6286
19,11840,5031
19,12252,5406
19,12663,5918
19,13077,5849
19,13488,5255
19,13900,5746
19,14312,5659
19,14725,4844
19,15137,3764
19,15548,4368
19,15962,4476
19,16373,3976
19,16785,3920
19,17198,4068
19,17610,5114
19,18022,4472
19,18435,3993
19,18847,4222
19,19258,4705
19,19672,4364
19,20083,4382
19,20495,3600
19,20908,4026
19,21320,5468
19,21732,5479
19,22145,4402
19,22557,5956
19,22968,8950
19,23380,11977
19,23793,20164
19,24205,33503
19,24617,50273
19,25030,81219
19,25442,118481
19,25853,179548
19,26267,257910
19,26678,343339
19,27090,451524
19,27503,554319
19,27915,659181
19,28327,776693
19,28740,871109
19,29152,923689
19,29563,962265
19,29977,967713
19,30388,943734
19,30800,895632
19,31213,822828
19,31625,743140
19,32037,668869
19,32448,596932
19,32862,520154
19,33273,452707
19,33685,395187
19,34098,340366
19,34510,294409
19,34922,254525
19,35335,224745
19,35747,199430
19,36158,177458
19,36572,155972
19,36983,137178
19,37395,122849
19,37808,111132
19,38220,100528
19,38632,90588
19,39045,83656
19,39457,78371
19,39868,68883
19,40282,64459
19,40693,59474
19,41105,55469
19,41517,53080
19,41930,48066
19,42342,45470
19,42753,42501
19,43167,40388
19,43578,36608
19,43990,35020
19,44403,33598
19,44815,32516
19,45227,29482
19,45640,29103
19,46052,26733
19,46463,25818
19,46877,25843
19,47288,23767
19,47700,21229
19,48113,20529
19,48525,19138
19,48937,18593
19,49350,19110
19,49762,17116
19,50173,17696
19,50585,15889
19,50998,16167
19,51410,14955
19,51822,15334
19,52235,14187
19,52647,14255
19,53058,14090
19,53472,13855
19,53883,13029
19,54295,11675
19,54708,11918
19,55120,10913
19,55532,11268
19,55945,11828
19,56357,11030
19,56768,9815
19,57182,9736
19,57593,10845
19,58005,9654
19,58418,10607
19,58830,8879
19,59242,9569
19,59653,8753
19,60067,9472
19,60478,8440
19,60890,8048
19,61303,7353
19,61715,7676
19,62127,7852
19,62540,8184
19,62952,7942
19,63363,6250
19,63777,6713
19,64188,7732
19,64600,7588
19,65013,8167
19,65425,11087
19,65837,14659
19,66250,21835
19,66662,34273
19,67073,58029
19,67487,95543
19,67898,158190
19,68310,247023
19,68722,371664
19,69135,543671
19,69547,771630
19,69958,1033145
19,70372,1362000
19,70783,1707728
19,71195,2069523
19,71608,2456009
19,72020,2825436
19,72432,3114262
19,72845,3323997
19,73257,3458694
19,73668,3453805
19,74082,3369139
19,74493,3179151
19,74905,2904967
19,75318,2592837
19,75730,2288509
19,76142,1975668
19,76555,1684625
19,76967,1454015
19,77378,1237707
19,77790,1060668
19,78203,919285
19,78615,787567
19,79027,686559
19,79440,606639
19,79852,529744
19,80263,471607
19,80677,414826
19,81088,373027
19,81500,335045
19,81913,307818
19,82325,281527
19,82737,253858
19,83150,233065
19,83562,214321
19,83973,197740
19,84387,182695
19,84798,171783
19,85210,153747
19,85623,145315
19,86035,138586
19,86447,130748
19,86860,119763
19,87272,111903
19,87683,104709
19,88095,99933
19,88508,90929
19,88920,90706
19,89332,88830
19,89745,78394
19,90157,75062
19,90568,71295
19,90982,67179
19,91393,61905
19,91805,63465
19,92218,58717
19,92630,55486
19,93042,52858
19,93455,52187
19,93867,48870
19,94278,42700
19,94692,42986
19,95103,44129
19,95515,40603
19,95928,38238
19,96340,36753
19,96752,37301
19,97163,33987
19,97577,33677
19,97988,33512
19,98400,30627
19,98813,29828
19,99225,27071
19,99637,28252
20,00050,28462
20,00462,27763
20,00873,25800
20,01287,24384
20,01698,24443
20,02110,21763
20,02523,22247
20,02935,21730
20,03347,19579
20,03760,19276
20,04172,20445
20,04583,19503
20,04997,17625
20,05408,18449
20,05820,18510
20,06232,18411
20,06645,17682
20,07057,16674
20,07468,15362
20,07882,15702
20,08293,16341
20,08705,15903
20,09118,15473
20,09530,15006
20,09942,14658
20,10355,14248
20,10767,12530
20,11178,13475
20,11592,11987
20,12003,12314
20,12415,14326
20,12828,11934
20,13240,12257
20,13652,12397
20,14065,10406
20,14477,12414
20,14888,12164
20,15300,11121
20,15713,12349
20,16125,10388
20,16537,11602
20,16950,10599
20,17362,9258
20,17773,9626
20,18187,9969
20,18598,11636
20,19010,11052
20,19423,10077
20,19835,8499
20,20247,9607
20,20660,8779
20,21072,8779
20,21483,9179
20,21897,9782
20,22308,8405
20,22720,9335
20,23133,9565
20,23545,8505
20,23957,8533
20,24368,8873
20,24782,8692
20,25193,9061
20,25605,8890
20,26018,10016
20,26430,8261
20,26842,9275
20,27255,8514
20,27667,9539
20,28078,8577
20,28492,10402
20,28903,10636
20,29315,12651
20,29728,12006
20,30140,14469
20,30552,14976
20,30965,15383
20,31377,17322
20,31788,15837
20,32202,16536
20,32613,17372
20,33025,16891
20,33437,17391
20,33850,17374
20,34262,15295
20,34673,16190
20,35087,13378
20,35498,14181
20,35910,14550
20,36323,12103
20,36735,13040
20,37147,13089
20,37560,11291
20,37972,11385
20,38383,12212
20,38797,10799
20,39208,11829
20,39620,11014
20,40033,9905
20,40445,10681
20,40857,8393
20,41270,7824
20,41682,8751
20,42093,8909
20,42505,8424
20,42918,7686
20,43330,7898
20,43742,8556
20,44155,7284
20,44567,8316
20,44978,9487
20,45392,11401
20,45803,16707
20,46215,24388
20,46628,36456
20,47040,54371
20,47452,86022
20,47865,133355
20,48277,193877
20,48688,278670
20,49102,365426
20,49513,478846
20,49925,584821
20,50338,711306
20,50750,825445
20,51162,918534
20,51573,978302
20,51987,1018826
20,52398,1016924
20,52810,983099
20,53223,948401
20,53635,880039
20,54047,798333
20,54460,711139
20,54872,628578
20,55283,549264
20,55697,481816
20,56108,415169
20,56520,360737
20,56933,307874
20,57345,277397
20,57757,236287
20,58170,212006
20,58582,191261
20,58993,166868
20,59407,148563
20,59818,133439
20,60230,119113
20,60642,107653
20,61055,99920
20,61467,91128
20,61878,81587
20,62292,74741
20,62703,70956
20,63115,65870
20,63528,59626
20,63940,56133
20,64352,52353
20,64765,49896
20,65177,48315
20,65588,45314
20,66002,41883
20,66413,38431
20,66825,37293
20,67238,37365
20,67650,36996
20,68062,35163
20,68475,34367
20,68887,33763
20,69298,33518
20,69710,30546
20,70123,31181
20,70535,29528
20,70947,29481
20,71360,29376
20,71772,26873
20,72183,25638
20,72597,26639
20,73008,23616
20,73420,21228
20,73833,20840
20,74245,18854
20,74657,18337
20,75070,18648
20,75482,17165
20,75893,18205
20,76307,16358
20,76718,15505
20,77130,14501
20,77543,15770
20,77955,13581
20,78367,14946
20,78778,15278
20,79192,13290
20,79603,13825
20,80015,11311
20,80428,12182
20,80840,12614
20,81252,12051
20,81665,12085
20,82077,10215
20,82488,11130
20,82902,10468
20,83313,10169
20,83725,11143
20,84138,10607
20,84550,9384
20,84962,9181
20,85375,9243
20,85787,9346
20,86198,9146
20,86612,9742
20,87023,9164
20,87435,8561
20,87847,9851
20,88260,7030
20,88672,8316
20,89083,7233
20,89497,8401
20,89908,8944
20,90320,8060
20,90733,7149
20,91145,7598
20,91557,8336
20,91970,7066
20,92382,6507
20,92793,8046
20,93207,7315
20,93618,7008
20,94030,6154
20,94443,7623
20,94855,6539
20,95267,7820
20,95680,7188
20,96092,7595
20,96503,7226
20,96915,6684
20,97328,7156
20,97740,6060
20,98152,6262
20,98565,6035
20,98977,7339
20,99388,6605
20,99802,6471
21,00213,6280
21,00625,5985
21,01038,6048
21,01450,5670
21,01862,5744
21,02275,5499
21,02687,6150
21,03098,7913
21,03512,8902
21,03923,11832
21,04335,19718
21,04748,30915
21,05160,49312
21,05572,80405
21,05983,123337
21,06397,190704
21,06808,275937
21,07220,385819
21,07633,514055
21,08045,661084
21,08457,799084
21,08870,945232
21,09282,1068082
21,09693,1149691
21,10107,1192364
21,10518,1199184
21,10930,1167202
21,11343,1121278
21,11755,1033347
21,12167,946562
21,12580,832774
21,12992,732178
21,13403,646091
21,13817,560686
21,14228,482144
21,14640,419759
21,15052,359594
21,15465,308763
21,15877,267021
21,16288,236336
21,16702,212296
21,17113,188663
21,17525,161702
21,17938,146934
21,18350,136969
21,18762,122248
21,19175,112485
21,19587,104376
21,19998,94244
21,20412,85998
21,20823,79007
21,21235,73719
21,21648,71646
21,22060,64295
21,22472,61557
21,22885,55055
21,23297,52216
21,23708,49135
21,24120,46476
21,24533,44692
21,24945,43685
21,25357,40203
21,25770,37976
21,26182,34544
21,26593,32850
21,27007,31495
21,27418,30797
21,27830,29152
21,28243,26244
21,28655,24726
21,29067,26202
21,29480,25824
21,29892,24367
21,30303,20978
21,30717,21368
21,31128,21375
21,31540,22418
21,31953,20444
21,32365,18896
21,32777,16333
21,33188,16978
21,33602,17067
21,34013,16318
21,34425,15847
21,34838,15299
21,35250,15248
21,35662,13674
21,36075,13391
21,36487,16087
21,36898,13097
21,37312,13830
21,37723,13374
21,38135,11873
21,38548,12067
21,38960,11134
21,39372,10989
21,39785,11900
21,40197,12122
21,40608,10305
21,41022,10553
21,41433,9340
21,41845,10642
21,42257,9333
21,42670,10318
21,43082,8600
21,43493,8389
21,43907,8937
21,44318,9291
21,44730,9358
21,45143,8225
21,45555,7989
21,45967,9305
21,46380,8009
21,46792,8559
21,47203,7532
21,47617,7073
21,48028,7406
21,48440,8223
21,48853,8470
21,49265,7632
21,49677,8498
21,50090,7222
21,50502,8320
21,50913,6366
21,51327,8507
21,51738,7900
21,52150,8332
21,52562,7766
21,52975,8029
21,53387,8234
21,53798,7622
21,54212,7008
21,54623,7247
21,55035,7692
21,55448,7697
21,55860,8023
21,56272,8211
21,56685,6531
21,57097,7174
21,57508,7059
21,57922,6492
21,58333,7415
21,58745,5916
21,59158,5902
21,59570,7376
21,59982,6302
21,60395,7111
21,60807,5930
21,61218,6526
21,61630,6824
21,62043,5294
21,62455,5257
21,62867,6255
21,63280,7433
21,63692,6050
21,64103,6228
21,64517,5337
21,64928,5988
21,65340,7300
21,65753,6073
21,66165,6661
21,66577,6450
21,66990,5712
21,67402,4587
21,67813,5251
21,68227,5617
21,68638,5048
21,69050,5868
21,69463,6717
21,69875,5949
21,70287,5062
21,70698,4666
21,71112,5087
21,71523,5789
21,71935,5497
21,72348,4394
21,72760,4358
21,73172,5064
21,73585,6363
21,73997,4905
21,74408,5143
21,74822,6618
21,75233,5816
21,75645,5952
21,76058,5286
21,76470,5559
21,76882,5231
21,77295,5302
21,77707,5167
21,78118,5049
21,78532,5002
21,78943,5601
21,79355,5403
21,79767,5819
21,80180,7657
21,80592,8726
21,81003,11471
21,81417,16395
21,81828,24417
21,82240,40539
21,82653,63351
21,83065,99554
21,83477,150429
21,83890,213323
21,84302,303345
21,84713,410315
21,85127,529570
21,85538,666369
21,85950,795681
21,86363,910121
21,86775,1008554
21,87187,1074243
21,87600,1114664
21,88012,1107402
21,88423,1089827
21,88835,1024391
21,89248,950602
21,89660,858607
21,90072,767678
21,90485,672465
21,90897,588144
21,91308,519615
21,91722,458475
21,92133,403152
21,92545,350269
21,92958,312150
21,93370,276843
21,93782,244928
21,94195,219007
21,94607,201186
21,95018,175084
21,95432,162807
21,95843,148599
21,96255,138046
21,96668,125119
21,97080,110964
21,97492,101142
21,97903,94042
21,98317,87893
21,98728,81590
21,99140,76497
21,99553,66456
21,99965,64502
22,00377,59386
22,00790,55169
22,01202,52153
22,01613,48968
22,02027,47632
22,02438,43057
22,02850,40147
22,03263,37809
22,03675,38294
22,04087,36228
22,04500,32463
22,04912,31535
22,05323,29260
22,05737,27194
22,06148,27528
22,06560,27125
22,06972,23833
22,07385,23229
22,07797,23335
22,08208,21356
22,08622,20455
22,09033,20980
22,09445,20165
22,09858,20787
22,10270,17915
22,10682,18865
22,11095,17665
22,11507,16807
22,11918,15738
22,12332,15453
22,12743,14368
22,13155,15718
22,13568,15044
22,13980,13886
22,14392,14777
22,14805,13673
22,15217,13552
22,15628,12608
22,16040,11781
22,16453,11653
22,16865,12406
22,17277,12186
22,17690,10969
22,18102,9172
22,18513,11483
22,18927,11249
22,19338,11862
22,19750,11221
22,20163,9863
22,20575,9786
22,20987,9167
22,21400,8887
22,21812,9277
22,22223,8663
22,22637,9910
22,23048,10190
22,23460,8628
22,23873,8996
22,24285,9000
22,24697,9763
22,25108,8769
22,25522,8304
22,25933,9486
22,26345,8009
22,26758,9197
22,27170,9039
22,27582,8778
22,27995,7629
22,28407,7825
22,28818,7528
22,29232,8453
22,29643,8446
22,30055,7800
22,30468,8603
22,30880,7430
22,31292,7533
22,31705,6368
22,32117,7441
22,32528,7138
22,32942,7602
22,33353,7485
22,33765,6645
22,34177,6407
22,34590,7863
22,35002,8180
22,35413,7495
22,35827,11614
22,36238,15170
22,36650,21211
22,37063,35640
22,37475,57937
22,37887,93536
22,38300,150219
22,38712,228767
22,39123,338897
22,39537,489560
22,39948,683554
22,40360,900654
22,40773,1166404
22,41185,1477551
22,41597,1783165
22,42010,2093183
22,42422,2340306
22,42833,2523566
22,43245,2658986
22,43658,2699735
22,44070,2640327
22,44482,2471074
22,44895,2311563
22,45307,2087635
22,45718,1844914
22,46132,1620085
22,46543,1398925
22,46955,1213731
22,47368,1037850
22,47780,887136
22,48192,774639
22,48605,669708
22,49017,579746
22,49428,510934
22,49842,451067
22,50253,401830
22,50665,355137
22,51078,322221
22,51490,293187
22,51902,262446
22,52313,243617
22,52727,215699
22,53138,196714
22,53550,187789
22,53963,171111
22,54375,154206
22,54787,146362
22,55200,133824
22,55612,128124
22,56023,118891
22,56437,112677
22,56848,103894
22,57260,98117
22,57673,89480
22,58085,85571
22,58497,82434
22,58910,77102
22,59322,73743
22,59733,69679
22,60147,66087
22,60558,62236
22,60970,60288
22,61382,55683
22,61795,51718
22,62207,52121
22,62618,47309
22,63032,46254
22,63443,45661
22,63855,42454
22,64268,41993
22,64680,40533
22,65092,38762
22,65505,36681
22,65917,36846
22,66328,35685
22,66742,33430
22,67153,31740
22,67565,31132
22,67978,29217
22,68390,29227
22,68802,27406
22,69215,26980
22,69627,25828
22,70038,24986
22,70450,23356
22,70863,24485
22,71275,22487
22,71687,22742
22,72100,21657
22,72512,19093
22,72923,19928
22,73337,20226
22,73748,18933
22,74160,18636
22,74573,18484
22,74985,17612
22,75397,17530
22,75810,15849
22,76222,16640
22,76633,16465
22,77047,16026
22,77458,15706
22,77870,16360
22,78283,15999
22,78695,18823
22,79107,18893
22,79518,23888
22,79932,31747
22,80343,45415
22,80755,67939
22,81168,102016
22,81580,149165
22,81992,219553
22,82405,306384
22,82817,405073
22,83228,532396
22,83642,676860
22,84053,810946
22,84465,938762
22,84878,1066082
22,85290,1141378
22,85702,1192082
22,86115,1227096
22,86527,1187411
22,86938,1145711
22,87352,1069232
22,87763,980498
22,88175,879976
22,88587,783893
22,89000,683974
22,89412,605671
22,89823,526536
22,90237,461586
22,90648,400204
22,91060,346084
22,91473,305042
22,91885,268761
22,92297,240985
22,92710,213855
22,93122,192358
22,93533,170720
22,93947,154388
22,94358,143380
22,94770,133687
22,95183,119041
22,95595,111838
22,96007,100041
22,96420,96675
22,96832,87466
22,97243,81766
22,97655,74303
22,98068,73520
22,98480,67860
22,98892,62143
22,99305,59739
22,99717,59648
23,00128,59876
23,00542,59908
23,00953,69530
23,01365,85456
23,01778,110424
23,02190,157145
23,02602,218465
23,03015,313758
23,03427,436033
23,03838,605561
23,04252,813498
23,04663,1060786
23,05075,1322668
23,05488,1583210
23,05900,1846517
23,06312,2097908
23,06723,2279292
23,07137,2422599
23,07548,2485541
23,07960,2456277
23,08373,2383392
23,08785,2221009
23,09197,2053327
23,09610,1841570
23,10022,1647982
23,10433,1433310
23,10847,1262786
23,11258,1096204
23,11670,951063
23,12083,828986
23,12495,717080
23,12907,625959
23,13320,548999
23,13732,490410
23,14143,431691
23,14557,385449
23,14968,353196
23,15380,315394
23,15793,285752
23,16205,262007
23,16617,245237
23,17028,218723
23,17442,203523
23,17853,185966
23,18265,174188
23,18678,163257
23,19090,147792
23,19502,139940
23,19915,128456
23,20327,122482
23,20738,116287
23,21152,109290
23,21563,103676
23,21975,95085
23,22388,89347
23,22800,87485
23,23212,81240
23,23625,79122
23,24037,71147
23,24448,69083
23,24862,66551
23,25273,64433
23,25685,59073
23,26097,59642
23,26510,53274
23,26922,51860
23,27333,53008
23,27747,49626
23,28158,46303
23,28570,43435
23,28983,41862
23,29395,42037
23,29807,40307
23,30220,37968
23,30632,36177
23,31043,37130
23,31457,36853
23,31868,33322
23,32280,34140
23,32693,33919
23,33105,32390
23,33517,31879
23,33930,28053
23,34342,28439
23,34753,27058
23,35165,24843
23,35578,25872
23,35990,25210
23,36402,25514
23,36815,24126
23,37227,22264
23,37638,24133
23,38052,21705
23,38463,21152
23,38875,20811
23,39288,20057
23,39700,20953
23,40112,20323
23,40525,18639
23,40937,20130
23,41348,19714
23,41762,18895
23,42173,19199
23,42585,18118
23,42998,18998
23,43410,17146
23,43822,18380
23,44233,17179
23,44647,17234
23,45058,16915
23,45470,17289
23,45883,16796
23,46295,16024
23,46707,15109
23,47120,15773
23,47532,14259
23,47943,14139
23,48357,14105
23,48768,13532
23,49180,11897
23,49593,12833
23,50005,13201
23,50417,14284
23,50830,14564
23,51242,12481
23,51653,14251
23,52067,12348
23,52478,14206
23,52890,16052
23,53302,17358
23,53715,24171
23,54127,34049
23,54538,47670
23,54952,70657
23,55363,108501
23,55775,155871
23,56188,228398
23,56600,322131
23,57012,420869
23,57425,553261
23,57837,671203
23,58248,796587
23,58662,919340
23,59073,993280
23,59485,1055241
23,59898,1072596
23,60310,1057363
23,60722,1018352
23,61135,949109
23,61547,877786
23,61958,794159
23,62370,710850
23,62783,644367
23,63195,560142
23,63607,516972
23,64020,480053
23,64432,466693
23,64843,478082
23,65257,514113
23,65668,589784
23,66080,705612
23,66493,861008
23,66905,1074354
23,67317,1311826
23,67730,1579091
23,68142,1874268
23,68553,2179833
23,68967,2413502
23,69378,2617108
23,69790,2721189
23,70203,2777962
23,70615,2722336
23,71027,2601814
23,71438,2420227
23,71852,2154640
23,72263,1909432
23,72675,1682814
23,73088,1466654
23,73500,1271214
23,73912,1101413
23,74325,956878
23,74737,838622
23,75148,728556
23,75562,637467
23,75973,564305
23,76385,503155
23,76798,448825
23,77210,402340
23,77622,367497
23,78035,337130
23,78447,305833
23,78858,280220
23,79272,255486
23,79683,243323
23,80095,215647
23,80507,201653
23,80920,189561
23,81332,177971
23,81743,164163
23,82157,154969
23,82568,146294
23,82980,135715
23,83393,131100
23,83805,122657
23,84217,115952
23,84630,108875
23,85042,104484
23,85453,100235
23,85867,96745
23,86278,89724
23,86690,85567
23,87103,80834
23,87515,75770
23,87927,74473
23,88340,72027
23,88752,67610
23,89163,64036
23,89575,61532
23,89988,59014
23,90400,54575
23,90812,53496
23,91225,54060
23,91637,51475
23,92048,50871
23,92462,47383
23,92873,44745
23,93285,45388
23,93698,42142
23,94110,43099
23,94522,40871
23,94935,39546
23,95347,39581
23,95758,37926
23,96172,38416
23,96583,37035
23,96995,36551
23,97408,34935
23,97820,33846
23,98232,32004
23,98643,34405
23,99057,32946
23,99468,30763
23,99880,29492
24,00293,30479
24,00705,29887
24,01117,30466
24,01530,31124
24,01942,30518
24,02353,35504
24,02767,42699
24,03178,51334
24,03590,70561
24,04003,100334
24,04415,143988
24,04827,199232
24,05240,276520
24,05652,366461
24,06063,472492
24,06477,593472
24,06888,716012
24,07300,828656
24,07712,914522
24,08125,986778
24,08537,1022052
24,08948,1041519
24,09362,1023597
24,09773,974636
24,10185,907968
24,10598,825663
24,11010,763371
24,11422,666231
24,11835,585185
24,12247,519838
24,12658,460088
24,13072,398819
24,13483,351579
24,13895,310653
24,14308,274526
24,14720,243545
24,15132,216976
24,15545,195177
24,15957,172862
24,16368,157871
24,16780,145959
24,17193,132765
24,17605,122926
24,18017,112089
24,18430,102575
24,18842,93973
24,19253,88355
24,19667,82508
24,20078,75346
24,20490,72386
24,20903,67540
24,21315,63687
24,21727,59512
24,22140,54602
24,22552,53186
24,22963,51518
24,23377,46190
24,23788,45456
24,24200,47311
24,24613,43543
24,25025,41223
24,25437,38629
24,25848,37998
24,26262,36733
24,26673,33848
24,27085,33790
24,27498,34231
24,27910,32020
24,28322,30211
24,28735,32459
24,29147,29755
24,29558,29985
24,29972,28968
24,30383,27026
24,30795,26764
24,31208,26367
24,31620,24939
24,32032,25831
24,32445,23635
24,32857,23952
24,33268,22357
24,33682,23372
24,34093,21529
24,34505,20504
24,34917,19960
24,35330,19147
24,35742,21417
24,36153,19672
24,36567,18482
24,36978,16593
24,37390,18762
24,37803,19063
24,38215,19471
24,38627,16680
24,39040,18012
24,39452,16438
24,39863,15259
24,40277,14725
24,40688,14623
24,41100,14887
24,41513,14716
24,41925,14516
24,42337,12584
24,42750,12873
24,43162,13204
24,43573,14809
24,43985,12424
24,44398,14446
24,44810,12043
24,45222,12691
24,45635,13588
24,46047,12342
24,46458,11972
24,46872,11815
24,47283,11620
24,47695,12075
24,48108,12434
24,48520,11320
24,48932,12039
24,49345,11656
24,49757,11191
24,50168,10478
24,50582,11418
24,50993,11446
24,51405,9859
24,51818,10414
24,52230,11135
24,52642,11062
24,53053,10158
24,53467,9852
24,53878,10065
24,54290,10118
24,54703,8983
24,55115,11478
24,55527,10353
24,55940,9907
24,56352,11387
24,56763,10040
24,57177,10291
24,57588,9327
24,58000,9709
24,58413,10064
24,58825,8888
24,59237,8965
24,59650,8335
24,60062,9537
24,60473,9427
24,60887,9975
24,61298,10125
24,61710,9659
24,62122,9426
24,62535,8950
24,62947,7747
24,63358,8566
24,63772,8218
24,64183,8810
24,64595,8503
24,65008,9752
24,65420,8368
24,65832,7974
24,66245,8907
24,66657,8722
24,67068,8610
24,67482,7425
24,67893,10021
24,68305,8859
24,68718,7840
24,69130,8650
24,69542,8357
24,69955,8349
24,70367,7414
24,70778,7748
24,71192,8958
24,71603,8265
24,72015,9265
24,72427,10007
24,72840,11012
24,73252,14829
24,73663,21189
24,74077,30136
24,74488,44309
24,74900,66395
24,75313,99508
24,75725,146574
24,76137,204527
24,76550,280808
24,76962,374026
24,77373,469660
24,77787,568493
24,78198,662649
24,78610,756296
24,79023,822113
24,79435,864321
24,79847,876258
24,80260,880268
24,80672,846027
24,81083,793772
24,81495,726192
24,81908,671719
24,82320,598231
24,82732,534720
24,83145,465239
24,83557,419116
24,83968,365713
24,84382,331671
24,84793,298370
24,85205,273679
24,85618,255171
24,86030,253895
24,86442,253979
24,86855,277913
24,87267,322440
24,87678,389622
24,88092,499111
24,88503,645625
24,88915,828649
24,89328,1045736
24,89740,1295188
24,90152,1593264
24,90563,1904784
24,90977,2218953
24,91388,2545546
24,91800,2779403
24,92213,2942469
24,92625,3038669
24,93037,3002378
24,93450,2870204
24,93862,2668302
24,94273,2416146
24,94687,2150826
24,95098,1896690
24,95510,1646356
24,95923,1439347
24,96335,1238673
24,96747,1081551
24,97160,934243
24,97572,812504
24,97983,714962
24,98397,631633
24,98808,571893
24,99220,508075
24,99632,458597
25,00045,416244
25,00457,382245
25,00868,348817
25,01282,318933
25,01693,295307
25,02105,268923
25,02518,251752
25,02930,227077
25,03342,214870
25,03755,204478
25,04167,188503
25,04578,173802
25,04992,166643
25,05403,155775
25,05815,147720
25,06228,136329
25,06640,128795
25,07052,123122
25,07465,117822
25,07877,113534
25,08288,107390
25,08700,101797
25,09113,94294
25,09525,94411
25,09937,88257
25,10350,84031
25,10762,81574
25,11173,78267
25,11587,74755
25,11998,69452
25,12410,68501
25,12823,63819
25,13235,64031
25,13647,61576
25,14060,58943
25,14472,56275
25,14883,56773
25,15297,51923
25,15708,51768
25,16120,51036
25,16533,47485
25,16945,46791
25,17357,46891
25,17768,46157
25,18182,46599
25,18593,45449
25,19005,46122
25,19418,52712
25,19830,60413
25,20242,68752
25,20655,91890
25,21067,120880
25,21478,161146
25,21892,218714
25,22303,293060
25,22715,379578
25,23128,487721
25,23540,567638
25,23952,679138
25,24365,757924
25,24777,831401
25,25188,888326
25,25602,903572
25,26013,900314
25,26425,862108
25,26837,815387
25,27250,758916
25,27662,689592
25,28073,619978
25,28487,557778
25,28898,488361
25,29310,427446
25,29723,387138
25,30135,337992
25,30547,293896
25,30960,260640
25,31372,236973
25,31783,209951
25,32197,191875
25,32608,170157
25,33020,156996
25,33433,140559
25,33845,129095
25,34257,120704
25,34670,108362
25,35082,102974
25,35493,96960
25,35905,90090
25,36318,85496
25,36730,76944
25,37142,73234
25,37555,69400
25,37967,66696
25,38378,62761
25,38792,60553
25,39203,56316
25,39615,56325
25,40028,51078
25,40440,47105
25,40852,46953
25,41265,47058
25,41677,42676
25,42088,41527
25,42502,39058
25,42913,38353
25,43325,38296
25,43738,35737
25,44150,33534
25,44562,35398
25,44973,35724
25,45387,39611
25,45798,42944
25,46210,52121
25,46623,68053
25,47035,91867
25,47447,131869
25,47860,181890
25,48272,253613
25,48683,349423
25,49097,473107
25,49508,610154
25,49920,764000
25,50333,914060
25,50745,1066043
25,51157,1175761
25,51570,1274027
25,51982,1322398
25,52393,1324290
25,52807,1291208
25,53218,1227792
25,53630,1132363
25,54042,1032821
25,54455,933596
25,54867,823698
25,55278,738733
25,55692,647572
25,56103,568962
25,56515,501992
25,56928,443063
25,57340,390645
25,57752,349361
25,58165,310499
25,58577,280087
25,58988,254730
25,59402,229491
25,59813,210457
25,60225,194045
25,60638,177561
25,61050,164607
25,61462,153372
25,61875,139509
25,62287,128761
25,62698,123266
25,63110,114461
25,63523,105738
25,63935,101991
25,64347,95744
25,64760,91178
25,65172,85579
25,65583,81038
25,65997,74550
25,66408,70380
25,66820,67707
25,67233,66002
25,67645,63041
25,68057,62706
25,68470,58285
25,68882,55449
25,69293,53675
25,69707,50025
25,70118,47524
25,70530,44971
25,70943,45479
25,71355,42573
25,71767,40419
25,72178,39560
25,72592,37775
25,73003,37197
25,73415,36606
25,73828,33585
25,74240,32777
25,74652,31730
25,75065,32163
25,75477,31235
25,75888,29674
25,76302,29376
25,76713,29458
25,77125,27814
25,77538,26083
25,77950,25580
25,78362,24861
25,78775,25397
25,79187,25108
25,79598,23078
25,80012,23640
25,80423,24158
25,80835,23303
25,81247,21433
25,81660,21431
25,82072,21551
25,82483,20144
25,82897,20986
25,83308,18397
25,83720,19430
25,84133,17220
25,84545,19426
25,84957,19404
25,85370,18989
25,85782,18958
25,86193,18275
25,86607,17465
25,87018,16626
25,87430,17268
25,87843,16876
25,88255,14825
25,88667,15849
25,89080,15125
25,89492,14434
25,89903,15413
25,90315,15101
25,90728,15354
25,91140,14279
25,91552,14918
25,91965,14142
25,92377,13371
25,92788,13745
25,93202,12906
25,93613,15428
25,94025,14859
25,94438,13038
25,94850,13427
25,95262,15003
25,95675,13406
25,96087,14076
25,96498,13835
25,96912,13093
25,97323,12657
25,97735,12236
25,98148,14141
25,98560,14193
25,98972,11785
25,99383,12586
25,99797,12924
26,00208,12699
26,00620,14074
26,01033,14115
26,01445,15158
26,01857,18345
26,02270,21507
26,02682,28168
26,03093,38617
26,03507,58280
26,03918,86031
26,04330,128040
26,04743,188070
26,05155,272541
26,05567,378839
26,05980,514290
26,06392,673338
26,06803,841728
26,07217,1021067
26,07628,1189473
26,08040,1336349
26,08452,1429519
26,08865,1465624
26,09277,1475015
26,09688,1422550
26,10102,1339516
26,10513,1219331
26,10925,1100654
26,11338,972889
26,11750,867197
26,12162,755727
26,12575,673113
26,12987,584534
26,13398,515640
26,13812,454254
26,14223,401683
26,14635,358315
26,15048,317597
26,15460,292262
26,15872,262768
26,16285,234065
26,16697,225845
26,17108,201141
26,17520,185301
26,17933,173721
26,18345,154292
26,18757,146399
26,19170,134722
26,19582,132284
26,19993,120133
26,20407,116107
26,20818,107981
26,21230,102707
26,21643,101699
26,22055,95099
26,22467,88269
26,22880,84088
26,23292,78810
26,23703,76511
26,24117,73669
26,24528,68568
26,24940,66001
26,25353,63104
26,25765,61451
26,26177,62515
26,26588,54747
26,27002,54948
26,27413,52471
26,27825,49527
26,28238,46648
26,28650,45200
26,29062,43850
26,29475,42904
26,29887,43746
26,30298,41270
26,30712,37685
26,31123,36923
26,31535,35025
26,31948,34690
26,32360,35827
26,32772,33924
26,33185,32195
26,33597,31633
26,34008,32662
26,34422,30306
26,34833,31708
26,35245,28430
26,35658,28806
26,36070,29445
26,36482,28158
26,36893,27854
26,37307,27162
26,37718,26377
26,38130,27243
26,38543,25942
26,38955,24263
26,39367,22745
26,39780,24760
26,40192,23951
26,40603,24379
26,41017,24857
26,41428,25631
26,41840,29863
26,42253,38413
26,42665,45826
26,43077,61882
26,43490,92305
26,43902,128260
26,44313,183765
26,44727,257853
26,45138,355303
26,45550,471687
26,45962,594298
26,46375,719533
26,46787,838238
26,47198,951473
26,47612,1039322
26,48023,1089884
26,48435,1100238
26,48848,1087474
26,49260,1048230
26,49672,990057
26,50085,911249
26,50497,822889
26,50908,731544
26,51322,654870
26,51733,577609
26,52145,518317
26,52558,454036
26,52970,400699
26,53382,355768
26,53795,315693
26,54207,280798
26,54618,252357
26,55030,227697
26,55443,206558
26,55855,186291
26,56267,171588
26,56680,158865
26,57092,144314
26,57503,134039
26,57917,120785
26,58328,114210
26,58740,108460
26,59153,98869
26,59565,94722
26,59977,88734
26,60390,84084
26,60802,78502
26,61213,72236
26,61627,72747
26,62038,65968
26,62450,67778
26,62863,59496
26,63275,58604
26,63687,56058
26,64098,54765
26,64512,53337
26,64923,49485
26,65335,44243
26,65748,45828
26,66160,41372
26,66572,41541
26,66985,40045
26,67397,38870
26,67808,37731
26,68222,38286
26,68633,35769
26,69045,35077
26,69458,33586
26,69870,32872
26,70282,33442
26,70695,29914
26,71107,29639
26,71518,29489
26,71932,26499
26,72343,28747
26,72755,26213
26,73167,25878
26,73580,26265
26,73992,24167
26,74403,25903
26,74817,24631
26,75228,23981
26,75640,23159
26,76053,23002
26,76465,22319
26,76877,22272
26,77290,21512
26,77702,21079
26,78113,20642
26,78527,20989
26,78938,20448
26,79350,20085
26,79763,19764
26,80175,19922
26,80587,20233
26,81000,18749
26,81412,19941
26,81823,19081
26,82235,18290
26,82648,19382
26,83060,17956
26,83472,19715
26,83885,17740
26,84297,18379
26,84708,18445
26,85122,17892
26,85533,17633
26,85945,17064
26,86358,17104
26,86770,18469
26,87182,16703
26,87595,16762
26,88007,17339
26,88418,17389
26,88832,16811
26,89243,16628
26,89655,16544
26,90068,16054
26,90480,16976
26,90892,14544
26,91303,16151
26,91717,15078
26,92128,14755
26,92540,15373
26,92953,15875
26,93365,15220
26,93777,14684
26,94190,16716
26,94602,16326
26,95013,15872
26,95427,16588
26,95838,17103
26,96250,14947
26,96663,16691
26,97075,17007
26,97487,16020
26,97900,16354
26,98312,18043
26,98723,15977
26,99137,16601
26,99548,15677
26,99960,15375
27,00372,15922
27,00785,15054
27,01197,14477
27,01608,15349
27,02022,14337
27,02433,15145
27,02845,14284
27,03258,13638
27,03670,13801
27,04082,14814
27,04495,12383
27,04907,12907
27,05318,12820
27,05732,12159
27,06143,12503
27,06555,13797
27,06968,12076
27,07380,14230
27,07792,15399
27,08205,17366
27,08617,21845
27,09028,27618
27,09440,38743
27,09853,55311
27,10265,80453
27,10677,118261
27,11090,173483
27,11502,237529
27,11913,328073
27,12327,428788
27,12738,534858
27,13150,655486
27,13563,743567
27,13975,829659
27,14387,906299
27,14800,940112
27,15212,966027
27,15623,952216
27,16037,926533
27,16448,895940
27,16860,846657
27,17273,819705
27,17685,796785
27,18097,801198
27,18508,833757
27,18922,910333
27,19333,1017579
27,19745,1178108
27,20158,1365340
27,20570,1608908
27,20982,1884160
27,21395,2160173
27,21807,2466925
27,22218,2759741
27,22632,2974994
27,23043,3141991
27,23455,3201168
27,23868,3164669
27,24280,3046168
27,24692,2827809
27,25105,2565745
27,25517,2285157
27,25928,2021379
27,26342,1767588
27,26753,1537274
27,27165,1354948
27,27577,1193563
27,27990,1049446
27,28402,926486
27,28813,823716
27,29227,750175
27,29638,670789
27,30050,611176
27,30463,557295
27,30875,501573
27,31287,456257
27,31700,428724
27,32112,397850
27,32523,362007
27,32937,338231
27,33348,319291
27,33760,297839
27,34173,276109
27,34585,257055
27,34997,244349
27,35410,231695
27,35822,219831
27,36233,204659
27,36645,192852
27,37058,185631
27,37470,178069
27,37882,169172
27,38295,159121
27,38707,153820
27,39118,143419
27,39532,139818
27,39943,137756
27,40355,128524
27,40768,124204
27,41180,117495
27,41592,111202
27,42005,107576
27,42417,106330
27,42828,103227
27,43242,98048
27,43653,96232
27,44065,89616
27,44478,88049
27,44890,85513
27,45302,83710
27,45713,83499
27,46127,80427
27,46538,75589
27,46950,73680
27,47363,73915
27,47775,73188
27,48187,70953
27,48600,71488
27,49012,67568
27,49423,68180
27,49837,65426
27,50248,63207
27,50660,65604
27,51073,68495
27,51485,70273
27,51897,78092
27,52310,92563
27,52722,111543
27,53133,140057
27,53547,187559
27,53958,250585
27,54370,314719
27,54782,406020
27,55195,509424
27,55607,622313
27,56018,734509
27,56432,840606
27,56843,926610
27,57255,991072
27,57668,1020185
27,58080,1037345
27,58492,1021415
27,58905,1003000
27,59317,975227
27,59728,943184
27,60142,929895
27,60553,924251
27,60965,935378
27,61378,952877
27,61790,984734
27,62202,1031954
27,62615,1071659
27,63027,1116790
27,63438,1131874
27,63850,1143487
27,64263,1129325
27,64675,1077507
27,65087,1027435
27,65500,960387
27,65912,885960
27,66323,814007
27,66737,731244
27,67148,656908
27,67560,589965
27,67973,529184
27,68385,473647
27,68797,422254
27,69210,386864
27,69622,350949
27,70033,312745
27,70447,283808
27,70858,262787
27,71270,237266
27,71683,220510
27,72095,206916
27,72507,192602
27,72918,186212
27,73332,180194
27,73743,182232
27,74155,188738
27,74568,209276
27,74980,237052
27,75392,285003
27,75805,351214
27,76217,442493
27,76628,547898
27,77042,682431
27,77453,827858
27,77865,981097
27,78278,1139631
27,78690,1266879
27,79102,1366730
27,79515,1440250
27,79927,1443523
27,80338,1414217
27,80752,1338312
27,81163,1265540
27,81575,1166924
27,81987,1054517
27,82400,952839
27,82812,848244
27,83223,757205
27,83637,675719
27,84048,599040
27,84460,537753
27,84873,486861
27,85285,435835
27,85697,396601
27,86110,363257
27,86522,327192
27,86933,304248
27,87347,280510
27,87758,262588
27,88170,240447
27,88583,226555
27,88995,213577
27,89407,196964
27,89820,184012
27,90232,180501
27,90643,166045
27,91057,155907
27,91468,151213
27,91880,144924
27,92292,134657
27,92705,130099
27,93117,125635
27,93528,118833
27,93942,109970
27,94353,110588
27,94765,103799
27,95178,95868
27,95590,93275
27,96002,90644
27,96415,90765
27,96827,83299
27,97238,83243
27,97652,78491
27,98063,74556
27,98475,74338
27,98888,71619
27,99300,72005
27,99712,68104
28,00125,66191
28,00537,65577
28,00948,63357
28,01360,59013
28,01773,60487
28,02185,56419
28,02597,55817
28,03010,54090
28,03422,57423
28,03833,53365
28,04247,51193
28,04658,49483
28,05070,46768
28,05483,46993
28,05895,47039
28,06307,46962
28,06720,46006
28,07132,47995
28,07543,48390
28,07957,43741
28,08368,44054
28,08780,45270
28,09193,44253
28,09605,43679
28,10017,43170
28,10428,40690
28,10842,40108
28,11253,38428
28,11665,38259
28,12078,37989
28,12490,35785
28,12902,36211
28,13315,32740
28,13727,33957
28,14138,33417
28,14552,33598
28,14963,33198
28,15375,30246
28,15788,31857
28,16200,29825
28,16612,29696
28,17025,29572
28,17437,29691
28,17848,30377
28,18262,27833
28,18673,27171
28,19085,27741
28,19497,28634
28,19910,27416
28,20322,26584
28,20733,27747
28,21147,26684
28,21558,25914
28,21970,27161
28,22383,27855
28,22795,28757
28,23207,27547
28,23620,31125
28,24032,32969
28,24443,36982
28,24857,46052
28,25268,61066
28,25680,78362
28,26093,111872
28,26505,155827
28,26917,223481
28,27330,305829
28,27742,412285
28,28153,551553
28,28565,713204
28,28978,871942
28,29390,1070393
28,29802,1229953
28,30215,1354494
28,30627,1443095
28,31038,1481747
28,31452,1464329
28,31863,1410789
28,32275,1323396
28,32688,1227277
28,33100,1108543
28,33512,994862
28,33925,891687
28,34337,800195
28,34748,703627
28,35162,633950
28,35573,564561
28,35985,504491
28,36398,457073
28,36810,417857
28,37222,376954
28,37633,344175
28,38047,320826
28,38458,292439
28,38870,269981
28,39283,251784
28,39695,228848
28,40107,212230
28,40520,201968
28,40932,190283
28,41343,181579
28,41757,169283
28,42168,161360
28,42580,153916
28,42993,145444
28,43405,141789
28,43817,132040
28,44230,125847
28,44642,117981
28,45053,115567
28,45467,112004
28,45878,108010
28,46290,106634
28,46702,100103
28,47115,93833
28,47527,89332
28,47938,90972
28,48352,85431
28,48763,81244
28,49175,79626
28,49588,76998
28,50000,74995
28,50412,72852
28,50825,72019
28,51237,66866
28,51648,64803
28,52062,65277
28,52473,59469
28,52885,59901
28,53298,59392
28,53710,56674
28,54122,55047
28,54535,54116
28,54947,52354
28,55358,54748
28,55770,51850
28,56183,48183
28,56595,50386
28,57007,48317
28,57420,47451
28,57832,46103
28,58243,45745
28,58657,44785
28,59068,44334
28,59480,44158
28,59893,41101
28,60305,41349
28,60717,39334
28,61130,40527
28,61542,39715
28,61953,40526
28,62367,37383
28,62778,38969
28,63190,40264
28,63603,43085
28,64015,48459
28,64427,56633
28,64838,70720
28,65252,93702
28,65663,122510
28,66075,171836
28,66488,235481
28,66900,315744
28,67312,427128
28,67725,540961
28,68137,674884
28,68548,798388
28,68962,935476
28,69373,1045622
28,69785,1118128
28,70198,1183744
28,70610,1208110
28,71022,1214239
28,71435,1193776
28,71847,1167053
28,72258,1147169
28,72672,1136381
28,73083,1136643
28,73495,1150041
28,73907,1152979
28,74320,1185161
28,74732,1196112
28,75143,1191103
28,75557,1171421
28,75968,1154238
28,76380,1105355
28,76793,1049408
28,77205,977664
28,77617,906392
28,78030,828935
28,78442,749803
28,78853,675979
28,79267,603185
28,79678,543710
28,80090,501316
28,80503,447951
28,80915,404198
28,81327,369173
28,81740,334588
28,82152,310843
28,82563,281216
28,82975,260420
28,83388,242882
28,83800,225767
28,84212,208206
28,84625,191677
28,85037,181100
28,85448,171600
28,85862,160782
28,86273,154353
28,86685,147849
28,87098,136859
28,87510,128391
28,87922,121577
28,88335,117550
28,88747,115073
28,89158,105229
28,89572,101390
28,89983,96298
28,90395,95472
28,90808,91219
28,91220,85787
28,91632,82896
28,92043,78749
28,92457,77840
28,92868,75521
28,93280,71361
28,93693,67202
28,94105,67537
28,94517,65900
28,94930,64960
28,95342,61310
28,95753,58898
28,96167,59904
28,96578,55516
28,96990,55508
28,97403,54740
28,97815,51479
28,98227,51519
28,98640,51448
28,99052,51784
28,99463,49191
28,99877,47941
29,00288,45722
29,00700,45132
29,01112,44959
29,01525,42879
29,01937,42277
29,02348,43322
29,02762,42379
29,03173,42650
29,03585,40296
29,03998,41072
29,04410,39774
29,04822,39971
29,05235,37816
29,05647,37386
29,06058,40046
29,06472,37198
29,06883,36215
29,07295,37237
29,07708,36952
29,08120,35499
29,08532,38433
29,08945,35859
29,09357,36111
29,09768,32904
29,10180,32864
29,10593,33309
29,11005,33503
29,11417,33340
29,11830,30729
29,12242,30955
29,12653,31279
29,13067,32685
29,13478,29930
29,13890,27965
29,14303,28167
29,14715,30001
29,15127,29887
29,15540,28672
29,15952,30513
29,16363,30427
29,16777,27874
29,17188,27173
29,17600,28844
29,18013,26725
29,18425,28526
29,18837,26985
29,19248,27084
29,19662,26566
29,20073,27133
29,20485,27246
29,20898,26746
29,21310,26107
29,21722,27835
29,22135,26189
29,22547,25636
29,22958,24885
29,23372,24847
29,23783,23525
29,24195,23940
29,24608,26598
29,25020,26992
29,25432,24697
29,25845,24630
29,26257,25607
29,26668,26562
29,27082,24778
29,27493,25138
29,27905,25595
29,28317,26557
29,28730,26602
29,29142,27427
29,29553,31192
29,29967,34619
29,30378,38600
29,30790,52111
29,31203,69812
29,31615,93898
29,32027,132325
29,32440,185731
29,32852,252414
29,33263,360577
29,33677,493515
29,34088,663789
29,34500,865027
29,34913,1101128
29,35325,1371471
29,35737,1648434
29,36150,1952628
29,36562,2238325
29,36973,2499007
29,37385,2723918
29,37798,2868657
29,38210,2909060
29,38622,2862218
29,39035,2723829
29,39447,2509580
29,39858,2271380
29,40272,2031963
29,40683,1808221
29,41095,1592282
29,41508,1406803
29,41920,1246914
29,42332,1097232
29,42745,979808
29,43157,874031
29,43568,787229
29,43982,719039
29,44393,658506
29,44805,600525
29,45218,549203
29,45630,501378
29,46042,466762
29,46453,433382
29,46867,406146
29,47278,379170
29,47690,351809
29,48103,335748
29,48515,313026
29,48927,296978
29,49340,281080
29,49752,265036
29,50163,251757
29,50577,237134
29,50988,228043
29,51400,224792
29,51813,206185
29,52225,197317
29,52637,188511
29,53050,180071
29,53462,175725
29,53873,168500
29,54287,161863
29,54698,154429
29,55110,150495
29,55522,145745
29,55935,140850
29,56347,137982
29,56758,134052
29,57172,130484
29,57583,125939
29,57995,119687
29,58408,119718
29,58820,112916
29,59232,108085
29,59645,102590
29,60057,102212
29,60468,100119
29,60882,96230
29,61293,94360
29,61705,92252
29,62118,89349
29,62530,88799
29,62942,88704
29,63355,84336
29,63767,84463
29,64178,80574
29,64592,77220
29,65003,76551
29,65415,74354
29,65827,73645
29,66240,71134
29,66652,70876
29,67063,66769
29,67477,68833
29,67888,65371
29,68300,64939
29,68713,62756
29,69125,62671
29,69537,63892
29,69950,59990
29,70362,60500
29,70773,60972
29,71187,58364
29,71598,58728
29,72010,57460
29,72423,56164
29,72835,54515
29,73247,54748
29,73660,53714
29,74072,52311
29,74483,52264
29,74895,51060
29,75308,54141
29,75720,49124
29,76132,48907
29,76545,48666
29,76957,48533
29,77368,47137
29,77782,45430
29,78193,44469
29,78605,45999
29,79018,45157
29,79430,44809
29,79842,41938
29,80255,42810
29,80667,43901
29,81078,43839
29,81492,42110
29,81903,40078
29,82315,40564
29,82728,38222
29,83140,40875
29,83552,40034
29,83963,43141
29,84377,45630
29,84788,48419
29,85200,55125
29,85613,63620
29,86025,83961
29,86437,105595
29,86850,141294
29,87262,189236
29,87673,258117
29,88087,346827
29,88498,456969
29,88910,579699
29,89323,730465
29,89735,881788
29,90147,1040183
29,90560,1173047
29,90972,1254624
29,91383,1311947
29,91797,1331660
29,92208,1310294
29,92620,1250033
29,93032,1176320
29,93445,1083359
29,93857,996033
29,94268,905733
29,94682,808613
29,95093,727382
29,95505,650685
29,95918,587407
29,96330,524280
29,96742,480740
29,97155,439117
29,97567,404490
29,97978,370783
29,98392,341729
29,98803,313241
29,99215,291024
29,99628,271925
30,00040,257473
30,00452,242475
30,00865,227869
30,01277,214519
30,01688,201559
30,02100,192198
30,02513,180431
30,02925,174017
30,03337,168060
30,03750,159480
30,04162,154222
30,04573,144492
30,04987,137480
30,05398,133698
30,05810,127554
30,06223,122668
30,06635,117125
30,07047,113635
30,07460,111350
30,07872,104949
30,08283,102882
30,08697,101471
30,09108,98984
30,09520,94196
30,09933,90938
30,10345,88309
30,10757,85024
30,11168,84415
30,11582,83669
30,11993,79523
30,12405,77269
30,12818,76457
30,13230,73070
30,13642,72959
30,14055,68858
30,14467,69093
30,14878,67978
30,15292,67348
30,15703,66025
30,16115,65794
30,16528,62918
30,16940,63336
30,17352,62321
30,17765,64620
30,18177,67566
30,18588,67419
30,19002,72083
30,19413,74554
30,19825,79395
30,20237,87189
30,20650,91572
30,21062,100854
30,21473,102365
30,21887,107325
30,22298,107681
30,22710,110106
30,23123,113258
30,23535,111669
30,23947,114249
30,24360,107188
30,24772,104555
30,25183,97274
30,25597,93614
30,26008,87480
30,26420,82189
30,26833,81047
30,27245,73221
30,27657,70335
30,28070,65777
30,28482,62869
30,28893,60773
30,29305,58293
30,29718,56360
30,30130,54295
30,30542,55656
30,30955,51110
30,31367,50864
30,31778,47973
30,32192,47791
30,32603,47129
30,33015,46744
30,33428,45462
30,33840,41389
30,34252,44850
30,34665,44619
30,35077,40167
30,35488,42170
30,35902,39843
30,36313,37980
30,36725,39501
30,37138,39765
30,37550,39805
30,37962,38496
30,38373,36509
30,38787,36465
30,39198,37154
30,39610,38114
30,40023,36017
30,40435,35609
30,40847,34776
30,41260,36674
30,41672,33044
30,42083,36275
30,42497,33952
30,42908,32867
30,43320,33759
30,43733,33799
30,44145,34730
30,44557,34135
30,44970,34179
30,45382,36051
30,45793,33281
30,46207,32340
30,46618,30429
30,47030,33149
30,47442,32221
30,47855,30678
30,48267,31618
30,48678,31313
30,49092,30498
30,49503,31037
30,49915,30780
30,50328,30614
30,50740,30235
30,51152,30366
30,51565,30130
30,51977,32257
30,52388,30059
30,52802,30527
30,53213,31620
30,53625,28908
30,54038,31270
30,54450,31954
30,54862,31350
30,55275,29819
30,55687,32070
30,56098,29939
30,56510,31453
30,56923,29760
30,57335,30773
30,57747,31295
30,58160,28691
30,58572,28002
30,58983,28033
30,59397,29911
30,59808,28525
30,60220,27914
30,60633,29122
30,61045,28419
30,61457,28056
30,61870,29136
30,62282,27878
30,62693,27132
30,63107,26832
30,63518,27755
30,63930,27131
30,64343,24015
30,64755,27914
30,65167,28903
30,65578,26206
30,65992,26306
30,66403,27335
30,66815,26532
30,67228,25881
30,67640,26151
30,68052,26795
30,68465,25281
30,68877,26951
30,69288,28864
30,69702,28275
30,70113,28408
30,70525,25555
30,70938,26280
30,71350,26937
30,71762,26424
30,72175,24800
30,72587,26114
30,72998,26638
30,73412,26144
30,73823,27546
30,74235,27400
30,74647,29788
30,75060,24650
30,75472,27482
30,75883,28994
30,76297,27259
30,76708,26966
30,77120,28006
30,77533,26723
30,77945,27405
30,78357,27499
30,78770,25697
30,79182,26009
30,79593,26742
30,80007,27194
30,80418,26718
30,80830,26877
30,81243,27079
30,81655,29403
30,82067,26823
30,82480,26966
30,82892,27260
30,83303,28457
30,83715,26600
30,84128,27477
30,84540,26973
30,84952,28571
30,85365,27273
30,85777,27894
30,86188,25595
30,86602,26731
30,87013,27803
30,87425,27766
30,87838,29503
30,88250,27201
30,88662,26931
30,89075,26383
30,89487,26739
30,89898,25933
30,90312,25204
30,90723,24897
30,91135,27753
30,91548,25639
30,91960,24770
30,92372,25654
30,92783,28042
30,93197,26821
30,93608,25756
30,94020,28018
30,94433,25597
30,94845,27993
30,95257,26498
30,95670,25681
30,96082,25667
30,96493,26225
30,96907,27083
30,97318,28300
30,97730,26059
30,98143,28045
30,98555,25784
30,98967,27883
30,99380,25833
30,99792,27277
31,00203,27050
31,00617,26679
31,01028,27560
31,01440,26161
31,01852,27427
31,02265,25951
31,02677,23835
31,03088,28054
31,03502,25635
31,03913,24001
31,04325,25828
31,04738,25643
31,05150,25214
31,05562,24888
31,05975,25033
31,06387,25892
31,06798,24473
31,07212,24494
31,07623,24673
31,08035,25202
31,08448,24168
31,08860,24764
31,09272,26014
31,09685,26436
31,10097,24132
31,10508,26919
31,10920,24778
31,11333,27484
31,11745,27349
31,12157,26702
31,12570,23384
31,12982,25448
31,13393,25595
31,13807,24388
31,14218,26263
31,14630,25139
31,15043,26108
31,15455,28148
31,15867,25458
31,16280,25887
31,16692,27639
31,17103,25390
31,17517,24554
31,17928,26392
31,18340,23696
31,18753,25782
31,19165,24718
31,19577,24288
31,19988,24545
31,20402,25764
31,20813,26558
31,21225,24676
31,21638,25428
31,22050,24704
31,22462,24815
31,22875,23676
31,23287,22850
31,23698,23060
31,24112,24215
31,24523,23869
31,24935,25177
31,25348,27114
31,25760,23570
31,26172,26751
31,26585,25755
31,26997,26191
31,27408,26383
31,27822,25753
31,28233,26181
31,28645,25368
31,29058,25274
31,29470,28025
31,29882,27149
31,30293,26090
31,30707,28300
31,31118,30867
31,31530,36272
31,31943,44494
31,32355,53989
31,32767,68250
31,33180,90148
31,33592,117728
31,34003,160153
31,34417,210143
31,34828,259703
31,35240,328517
31,35653,394022
31,36065,466537
31,36477,535764
31,36890,594493
31,37302,630300
31,37713,653484
31,38127,662732
31,38538,646986
31,38950,622143
31,39362,583466
31,39775,539675
31,40187,499018
31,40598,461036
31,41012,417931
31,41423,377922
31,41835,344019
31,42248,310825
31,42660,283007
31,43072,257001
31,43485,230734
31,43897,210263
31,44308,193869
31,44722,175824
31,45133,166040
31,45545,157998
31,45958,147290
31,46370,134641
31,46782,128575
31,47195,118064
31,47607,112970
31,48018,108346
31,48430,101777
31,48843,98467
31,49255,93470
31,49667,87797
31,50080,84467
31,50492,81439
31,50903,80423
31,51317,74597
31,51728,71198
31,52140,69188
31,52553,70179
31,52965,65199
31,53377,66095
31,53790,61346
31,54202,62748
31,54613,57270
31,55027,59617
31,55438,55156
31,55850,58679
31,56263,54300
31,56675,56178
31,57087,51076
31,57498,52553
31,57912,49376
31,58323,48071
31,58735,48235
31,59148,48486
31,59560,46348
31,59972,46596
31,60385,46573
31,60797,45338
31,61208,42357
31,61622,44335
31,62033,41558
31,62445,42343
31,62858,41308
31,63270,40426
31,63682,40807
31,64095,39929
31,64507,40151
31,64918,39197
31,65332,39571
31,65743,38209
31,66155,38871
31,66567,39995
31,66980,37117
31,67392,38447
31,67803,36675
31,68217,37349
31,68628,37634
31,69040,37354
31,69453,36414
31,69865,36911
31,70277,35864
31,70690,35046
31,71102,36692
31,71513,36216
31,71927,34483
31,72338,35867
31,72750,33739
31,73163,33195
31,73575,32921
31,73987,35102
31,74400,34830
31,74812,34165
31,75223,35184
31,75635,34094
31,76048,34495
31,76460,33009
31,76872,34021
31,77285,32130
31,77697,33138
31,78108,32324
31,78522,31457
31,78933,33210
31,79345,32468
31,79758,33226
31,80170,33165
31,80582,30147
31,80995,32224
31,81407,35008
31,81818,33149
31,82232,31827
31,82643,31348
31,83055,34785
31,83468,32065
31,83880,33183
31,84292,32981
31,84703,33982
31,85117,33913
31,85528,32911
31,85940,29999
31,86353,33813
31,86765,34320
31,87177,31809
31,87590,34894
31,88002,33953
31,88413,35141
31,88827,32903
31,89238,32474
31,89650,32640
31,90063,31430
31,90475,31391
31,90887,32632
31,91300,31685
31,91712,32312
31,92123,31426
31,92537,32593
31,92948,31944
31,93360,34039
31,93772,31814
31,94185,32161
31,94597,34053
31,95008,31963
31,95422,33856
31,95833,34592
31,96245,29917
31,96658,32106
31,97070,33882
31,97482,31871
31,97895,31684
31,98307,32209
31,98718,33149
31,99132,31037
31,99543,31074
31,99955,29463
32,00368,35175
32,00780,30469
32,01192,33548
32,01605,31322
32,02017,30382
32,02428,30723
32,02840,32116
32,03253,29106
32,03665,30787
32,04077,30124
32,04490,32669
32,04902,31825
32,05313,30893
32,05727,30953
32,06138,31716
32,06550,31257
32,06963,31771
32,07375,30150
32,07787,29772
32,08200,31476
32,08612,29437
32,09023,34195
32,09437,31586
32,09848,28052
32,10260,31212
32,10673,31235
32,11085,31577
32,11497,33981
32,11908,32859
32,12322,32481
32,12733,33838
32,13145,33676
32,13558,30857
32,13970,32840
32,14382,31068
32,14795,31801
32,15207,32058
32,15618,33523
32,16032,33881
32,16443,30035
32,16855,33390
32,17268,32526
32,17680,32688
32,18092,33475
32,18505,32632
32,18917,32835
32,19328,32406
32,19742,32921
32,20153,32211
32,20565,32891
32,20977,33042
32,21390,34388
32,21802,33714
32,22213,31910
32,22627,31546
32,23038,30628
32,23450,32224
32,23863,30945
32,24275,32976
32,24687,33282
32,25100,32723
32,25512,34471
32,25923,32474
32,26337,31871
32,26748,32381
32,27160,35123
32,27573,32504
32,27985,34945
32,28397,33709
32,28810,34237
32,29222,32943
32,29633,34667
32,30045,33722
32,30458,33396
32,30870,32336
32,31282,33156
32,31695,36213
32,32107,33597
32,32518,32113
32,32932,32977
32,33343,32951
32,33755,32528
32,34168,34709
32,34580,34927
32,34992,34221
32,35405,32809
32,35817,32788
32,36228,31613
32,36642,32491
32,37053,32673
32,37465,32924
32,37878,33457
32,38290,32668
32,38702,33078
32,39113,34803
32,39527,34245
32,39938,34124
32,40350,34519
32,40763,33365
32,41175,32872
32,41587,33183
32,42000,34102
32,42412,32695
32,42823,31222
