D:\MassHunter\GCMS\1\data\Amal\Constant flow\120C\120C_1ml-min_9C-min_1.D Mon Jul 29 19:18:56 2024
Start of data points
5,59093,24384
5,59505,22640
5,59917,23149
5,60328,22716
5,60742,21760
5,61153,23259
5,61565,22289
5,61978,23847
5,62390,21766
5,62802,22424
5,63215,21716
5,63627,21135
5,64038,20105
5,64452,22289
5,64863,22410
5,65275,22080
5,65688,22624
5,66100,21301
5,66512,20399
5,66925,22476
5,67337,20823
5,67748,21996
5,68162,21273
5,68573,21917
5,68985,20669
5,69397,20740
5,69810,20680
5,70222,21117
5,70633,20382
5,71047,21064
5,71458,20387
5,71870,21591
5,72283,20231
5,72695,20473
5,73107,20532
5,73520,21470
5,73932,21962
5,74343,22203
5,74757,21369
5,75168,21852
5,75580,20359
5,75993,21434
5,76405,21898
5,76817,21135
5,77230,20674
5,77642,20651
5,78053,22322
5,78467,21284
5,78878,21530
5,79290,21059
5,79702,21875
5,80115,20535
5,80527,20071
5,80938,19918
5,81352,20388
5,81763,20308
5,82175,20640
5,82588,19660
5,83000,20023
5,83412,18905
5,83825,18986
5,84237,18976
5,84648,19568
5,85062,19374
5,85473,17382
5,85885,18601
5,86298,17784
5,86710,18494
5,87122,18988
5,87535,17626
5,87947,19112
5,88358,19401
5,88770,18231
5,89183,18040
5,89595,17551
5,90007,18487
5,90420,17738
5,90832,18452
5,91243,17676
5,91657,17691
5,92068,16770
5,92480,17235
5,92893,17573
5,93305,17089
5,93717,17245
5,94130,18791
5,94542,17531
5,94953,17597
5,95367,19453
5,95778,20652
5,96190,19219
5,96603,19788
5,97015,20282
5,97427,19530
5,97838,19979
5,98252,20108
5,98663,20752
5,99075,20498
5,99488,19435
5,99900,19798
6,00312,19117
6,00725,18444
6,01137,18727
6,01548,18408
6,01962,18669
6,02373,18124
6,02785,18251
6,03198,18173
6,03610,18738
6,04022,17162
6,04435,18654
6,04847,18248
6,05258,16868
6,05672,15959
6,06083,16931
6,06495,16790
6,06907,16658
6,07320,17285
6,07732,15481
6,08143,16980
6,08557,17310
6,08968,17259
6,09380,16632
6,09793,16366
6,10205,15634
6,10617,17475
6,11030,17281
6,11442,17534
6,11853,16851
6,12267,17968
6,12678,19010
6,13090,17575
6,13503,17718
6,13915,17526
6,14327,18553
6,14740,17372
6,15152,16444
6,15563,16078
6,15975,18502
6,16388,16545
6,16800,16120
6,17212,17448
6,17625,16747
6,18037,15568
6,18448,15372
6,18862,15966
6,19273,15716
6,19685,15420
6,20098,15800
6,20510,16262
6,20922,20075
6,21335,28755
6,21747,43914
6,22158,76843
6,22572,132152
6,22983,210068
6,23395,308227
6,23808,410713
6,24220,511092
6,24632,589509
6,25043,643053
6,25457,667996
6,25868,675903
6,26280,641338
6,26693,624923
6,27105,600706
6,27517,569634
6,27930,544349
6,28342,514492
6,28753,483409
6,29167,463391
6,29578,433271
6,29990,405638
6,30403,377079
6,30815,349569
6,31227,334106
6,31640,304403
6,32052,276043
6,32463,250944
6,32877,221725
6,33288,199434
6,33700,175182
6,34112,155546
6,34525,139452
6,34937,125102
6,35348,111151
6,35762,96407
6,36173,82790
6,36585,74703
6,36998,66289
6,37410,61173
6,37822,53457
6,38235,48046
6,38647,42541
6,39058,38610
6,39472,34642
6,39883,32710
6,40295,30688
6,40708,27124
6,41120,25318
6,41532,23368
6,41945,23386
6,42357,21126
6,42768,21060
6,43180,17999
6,43593,17665
6,44005,16156
6,44417,15746
6,44830,16405
6,45242,16026
6,45653,15522
6,46067,15535
6,46478,13304
6,46890,15259
6,47303,14266
6,47715,14308
6,48127,14463
6,48540,13274
6,48952,14345
6,49363,13785
6,49777,13051
6,50188,13315
6,50600,13113
6,51013,13400
6,51425,12920
6,51837,12486
6,52248,13465
6,52662,12551
6,53073,12876
6,53485,12620
6,53898,12658
6,54310,12907
6,54722,12427
6,55135,13140
6,55547,12628
6,55958,13086
6,56372,13469
6,56783,11578
6,57195,12537
6,57608,12186
6,58020,12306
6,58432,12140
6,58845,12026
6,59257,12181
6,59668,12397
6,60082,11632
6,60493,11956
6,60905,11542
6,61317,11169
6,61730,11349
6,62142,12435
6,62553,11890
6,62967,12367
6,63378,11900
6,63790,10817
6,64203,12585
6,64615,12558
6,65027,11718
6,65440,12204
6,65852,11877
6,66263,11915
6,66677,12124
6,67088,11967
6,67500,10659
6,67913,11256
6,68325,11898
6,68737,11633
6,69150,10710
6,69562,11828
6,69973,11545
6,70385,11339
6,70798,11260
6,71210,11209
6,71622,11207
6,72035,10447
6,72447,11432
6,72858,11082
6,73272,11217
6,73683,10079
6,74095,10120
6,74508,10637
6,74920,10869
6,75332,10631
6,75745,9984
6,76157,11514
6,76568,11040
6,76982,10496
6,77393,10552
6,77805,10971
6,78218,11238
6,78630,11053
6,79042,12981
6,79453,18177
6,79867,26824
6,80278,44082
6,80690,78771
6,81103,123911
6,81515,181879
6,81927,256802
6,82340,332009
6,82752,387077
6,83163,431686
6,83577,452420
6,83988,465090
6,84400,452910
6,84813,452209
6,85225,425838
6,85637,406330
6,86050,378265
6,86462,354996
6,86873,327802
6,87287,304327
6,87698,276860
6,88110,249716
6,88522,225855
6,88935,204546
6,89347,183191
6,89758,159718
6,90172,138891
6,90583,120195
6,90995,102797
6,91408,88747
6,91820,74697
6,92232,64541
6,92645,56119
6,93057,49088
6,93468,43884
6,93882,37239
6,94293,33283
6,94705,31558
6,95118,26297
6,95530,23620
6,95942,22219
6,96355,21044
6,96767,16714
6,97178,18062
6,97590,16125
6,98003,15055
6,98415,13725
6,98827,14082
6,99240,12969
6,99652,12601
7,00063,13228
7,00477,11053
7,00888,11645
7,01300,11279
7,01713,10120
7,02125,10976
7,02537,10916
7,02950,9920
7,03362,10587
7,03773,11309
7,04187,11231
7,04598,11095
7,05010,10504
7,05423,11070
7,05835,11378
7,06247,11554
7,06658,11516
7,07072,11835
7,07483,11850
7,07895,11766
7,08308,11406
7,08720,10870
7,09132,11919
7,09545,12090
7,09957,11576
7,10368,11529
7,10782,12097
7,11193,11479
7,11605,11969
7,12018,11611
7,12430,11586
7,12842,11470
7,13255,10745
7,13667,11886
7,14078,11446
7,14492,10411
7,14903,10171
7,15315,9953
7,15727,9909
7,16140,10594
7,16552,9730
7,16963,9031
7,17377,9545
7,17788,9066
7,18200,8909
7,18613,8664
7,19025,8903
7,19437,9006
7,19850,8837
7,20262,8153
7,20673,9105
7,21087,9018
7,21498,8856
7,21910,8150
7,22323,8850
7,22735,8362
7,23147,8445
7,23560,8043
7,23972,8307
7,24383,9016
7,24795,8031
7,25208,7582
7,25620,7925
7,26032,8176
7,26445,8369
7,26857,7589
7,27268,7598
7,27682,7439
7,28093,7499
7,28505,7344
7,28918,6758
7,29330,7180
7,29742,7018
7,30155,8350
7,30567,7473
7,30978,7413
7,31392,8057
7,31803,7781
7,32215,7536
7,32628,7265
7,33040,7674
7,33452,7718
7,33865,8366
7,34277,7474
7,34688,6865
7,35100,7468
7,35513,7967
7,35925,7791
7,36337,7351
7,36750,8170
7,37162,7958
7,37573,7333
7,37987,8144
7,38398,7715
7,38810,8182
7,39223,8574
7,39635,8021
7,40047,7727
7,40460,7105
7,40872,7311
7,41283,7970
7,41697,7080
7,42108,7996
7,42520,6909
7,42933,7431
7,43345,8743
7,43757,9557
7,44168,17295
7,44582,28358
7,44993,53831
7,45405,106623
7,45818,188734
7,46230,318338
7,46642,480155
7,47055,655197
7,47467,840975
7,47878,1002587
7,48292,1122190
7,48703,1208006
7,49115,1224546
7,49528,1200891
7,49940,1151296
7,50352,1085822
7,50765,1002053
7,51177,909247
7,51588,829364
7,52002,734848
7,52413,647732
7,52825,551528
7,53237,468171
7,53650,398509
7,54062,328030
7,54473,267204
7,54887,219809
7,55298,178789
7,55710,148164
7,56123,122569
7,56535,100731
7,56947,83431
7,57360,69530
7,57772,59330
7,58183,49867
7,58597,41050
7,59008,38035
7,59420,33450
7,59833,29318
7,60245,25765
7,60657,24959
7,61070,21994
7,61482,19553
7,61893,17463
7,62305,17633
7,62718,15909
7,63130,13994
7,63542,14943
7,63955,14977
7,64367,13204
7,64778,11896
7,65192,12603
7,65603,11608
7,66015,11296
7,66428,11375
7,66840,10694
7,67252,10180
7,67665,10159
7,68077,10271
7,68488,10899
7,68902,8873
7,69313,9164
7,69725,9428
7,70138,9499
7,70550,7921
7,70962,8514
7,71373,8439
7,71787,8317
7,72198,7554
7,72610,8690
7,73023,7878
7,73435,8058
7,73847,7436
7,74260,7414
7,74672,8302
7,75083,7617
7,75497,8030
7,75908,7601
7,76320,7791
7,76733,7691
7,77145,7238
7,77557,7126
7,77970,7943
7,78382,6692
7,78793,7080
7,79207,6532
7,79618,6916
7,80030,6944
7,80442,6605
7,80855,7401
7,81267,7325
7,81678,7198
7,82092,7269
7,82503,7971
7,82915,6735
7,83328,7182
7,83740,7598
7,84152,6298
7,84565,6489
7,84977,6518
7,85388,6593
7,85802,6365
7,86213,6043
7,86625,6728
7,87038,6371
7,87450,6509
7,87862,7062
7,88275,6330
7,88687,6666
7,89098,7084
7,89510,6876
7,89923,6777
7,90335,5962
7,90747,6308
7,91160,6581
7,91572,6687
7,91983,5670
7,92397,6686
7,92808,6555
7,93220,6400
7,93633,5998
7,94045,6296
7,94457,6969
7,94870,6659
7,95282,6556
7,95693,6085
7,96107,6927
7,96518,6978
7,96930,6383
7,97343,6571
7,97755,6492
7,98167,7327
7,98578,6155
7,98992,6688
7,99403,6486
7,99815,6522
8,00228,6398
8,00640,6655
8,01052,5578
8,01465,6094
8,01877,6931
8,02288,5284
8,02702,5080
8,03113,5723
8,03525,5637
8,03938,5626
8,04350,5892
8,04762,5957
8,05175,5144
8,05587,6191
8,05998,6460
8,06412,6672
8,06823,6601
8,07235,6573
8,07647,7726
8,08060,8416
8,08472,8156
8,08883,9926
8,09297,11101
8,09708,10287
8,10120,10237
8,10533,10161
8,10945,9835
8,11357,10478
8,11770,10709
8,12182,10208
8,12593,10272
8,13007,9417
8,13418,10302
8,13830,12619
8,14243,17547
8,14655,27347
8,15067,52380
8,15480,91747
8,15892,153801
8,16303,244552
8,16715,357525
8,17128,472617
8,17540,580779
8,17952,681920
8,18365,748020
8,18777,771424
8,19188,753655
8,19602,725762
8,20013,666338
8,20425,599707
8,20838,521441
8,21250,446203
8,21662,374839
8,22075,300235
8,22487,245900
8,22898,192205
8,23312,152915
8,23723,121996
8,24135,95043
8,24548,76884
8,24960,59691
8,25372,49102
8,25783,39311
8,26197,35856
8,26608,29987
8,27020,26143
8,27433,21909
8,27845,21217
8,28257,18198
8,28670,17323
8,29082,15776
8,29493,13833
8,29907,13000
8,30318,12709
8,30730,13232
8,31143,10129
8,31555,10357
8,31967,10394
8,32380,10048
8,32792,10110
8,33203,8368
8,33617,9571
8,34028,7604
8,34440,8428
8,34852,7684
8,35265,7261
8,35677,6638
8,36088,7270
8,36502,6721
8,36913,6054
8,37325,6533
8,37738,6777
8,38150,6035
8,38562,7236
8,38975,6045
8,39387,6004
8,39798,5864
8,40212,6226
8,40623,6070
8,41035,5808
8,41448,5824
8,41860,4935
8,42272,5727
8,42685,6388
8,43097,5174
8,43508,5550
8,43920,6086
8,44333,4807
8,44745,6119
8,45157,5352
8,45570,6043
8,45982,5188
8,46393,5290
8,46807,5602
8,47218,5078
8,47630,4662
8,48043,5410
8,48455,5147
8,48867,5064
8,49280,4811
8,49692,4988
8,50103,5052
8,50517,4928
8,50928,4645
8,51340,5290
8,51753,5518
8,52165,6137
8,52577,5948
8,52988,7068
8,53402,8405
8,53813,7928
8,54225,7735
8,54638,8468
8,55050,9016
8,55462,8134
8,55875,7522
8,56287,8008
8,56698,6859
8,57112,6841
8,57523,6075
8,57935,5791
8,58348,5315
8,58760,4774
8,59172,5453
8,59585,5230
8,59997,5203
8,60408,4869
8,60822,5047
8,61233,4699
8,61645,4639
8,62057,4074
8,62470,5093
8,62882,5454
8,63293,5192
8,63707,4241
8,64118,4344
8,64530,4239
8,64943,4276
8,65355,4286
8,65767,4147
8,66180,3810
8,66592,4768
8,67003,4605
8,67417,4540
8,67828,4216
8,68240,5123
8,68653,4633
8,69065,4413
8,69477,3931
8,69890,4868
8,70302,3417
8,70713,4298
8,71125,4527
8,71538,4530
8,71950,4196
8,72362,5024
8,72775,4156
8,73187,4194
8,73598,4303
8,74012,5334
8,74423,4937
8,74835,5813
8,75248,5532
8,75660,6665
8,76072,7507
8,76485,8643
8,76897,8227
8,77308,9293
8,77722,8317
8,78133,7167
8,78545,8150
8,78958,7933
8,79370,6328
8,79782,5966
8,80193,5632
8,80607,5212
8,81018,4790
8,81430,5046
8,81843,5062
8,82255,4107
8,82667,5002
8,83080,4363
8,83492,4623
8,83903,4079
8,84317,4380
8,84728,5136
8,85140,4310
8,85553,4288
8,85965,5905
8,86377,8995
8,86790,17701
8,87202,41240
8,87613,85920
8,88027,162167
8,88438,290914
8,88850,470491
8,89262,717160
8,89675,986149
8,90087,1272494
8,90498,1531327
8,90912,1715127
8,91323,1839199
8,91735,1860404
8,92148,1761588
8,92560,1589266
8,92972,1386402
8,93385,1142212
8,93797,913517
8,94208,709196
8,94622,537226
8,95033,404193
8,95445,304585
8,95858,232701
8,96270,178467
8,96682,137666
8,97095,110506
8,97507,84881
8,97918,73197
8,98332,60049
8,98743,52644
8,99155,43803
8,99567,38761
8,99980,34994
9,00392,31351
9,00803,27149
9,01217,25110
9,01628,22741
9,02040,22457
9,02453,20078
9,02865,20296
9,03277,18602
9,03690,19771
9,04102,19525
9,04513,20004
9,04927,18199
9,05338,20208
9,05750,21566
9,06163,19234
9,06575,19400
9,06987,17408
9,07400,18329
9,07812,14216
9,08223,11914
9,08635,10991
9,09048,11519
9,09460,9900
9,09872,8842
9,10285,8091
9,10697,7933
9,11108,7868
9,11522,7012
9,11933,6692
9,12345,7622
9,12758,6571
9,13170,6718
9,13582,5928
9,13995,6569
9,14407,6374
9,14818,5758
9,15232,5997
9,15643,6016
9,16055,6088
9,16468,5451
9,16880,6076
9,17292,5928
9,17703,5194
9,18117,5039
9,18528,5429
9,18940,6018
9,19353,6646
9,19765,6252
9,20177,8252
9,20590,8134
9,21002,8538
9,21413,8527
9,21827,8508
9,22238,8598
9,22650,9341
9,23063,9282
9,23475,8227
9,23887,9320
9,24300,8072
9,24712,8540
9,25123,7385
9,25537,8054
9,25948,7051
9,26360,8651
9,26772,7731
9,27185,8330
9,27597,7859
9,28008,8028
9,28422,8534
9,28833,6330
9,29245,6572
9,29658,6097
9,30070,5640
9,30482,5597
9,30895,5531
9,31307,5151
9,31718,4788
9,32132,4669
9,32543,4235
9,32955,4620
9,33368,5364
9,33780,4385
9,34192,4506
9,34605,4655
9,35017,4268
9,35428,4111
9,35840,4720
9,36253,3748
9,36665,4259
9,37077,4190
9,37490,3786
9,37902,3632
9,38313,4044
9,38727,4081
9,39138,4458
9,39550,3907
9,39963,4313
9,40375,4279
9,40787,8105
9,41200,12136
9,41612,26179
9,42023,54717
9,42437,96858
9,42848,175615
9,43260,276443
9,43673,408036
9,44085,558015
9,44497,705498
9,44908,846631
9,45322,909884
9,45733,926080
9,46145,879621
9,46558,804837
9,46970,695946
9,47382,565601
9,47795,458061
9,48207,356054
9,48618,273455
9,49032,203102
9,49443,158590
9,49855,117425
9,50268,89242
9,50680,72461
9,51092,58795
9,51505,47461
9,51917,40714
9,52328,34118
9,52742,27802
9,53153,24022
9,53565,22316
9,53977,19388
9,54390,15576
9,54802,15271
9,55213,14349
9,55627,12391
9,56038,10952
9,56450,11146
9,56863,9805
9,57275,9421
9,57687,9672
9,58100,8616
9,58512,8488
9,58923,7228
9,59337,7306
9,59748,7931
9,60160,10244
9,60573,17588
9,60985,32849
9,61397,62140
9,61810,113900
9,62222,202209
9,62633,318549
9,63045,475164
9,63458,641307
9,63870,807279
9,64282,928300
9,64695,1012551
9,65107,1010001
9,65518,959723
9,65932,853509
9,66343,713322
9,66755,577079
9,67168,449403
9,67580,336665
9,67992,248309
9,68405,185270
9,68817,134367
9,69228,103603
9,69642,78838
9,70053,64474
9,70465,52499
9,70878,42628
9,71290,34147
9,71702,31559
9,72113,26750
9,72527,23484
9,72938,21708
9,73350,17422
9,73763,16596
9,74175,15899
9,74587,14558
9,75000,14722
9,75412,12699
9,75823,11097
9,76237,10675
9,76648,10533
9,77060,9378
9,77473,8138
9,77885,9621
9,78297,8421
9,78710,8577
9,79122,7885
9,79533,6931
9,79947,7738
9,80358,6667
9,80770,7608
9,81182,6571
9,81595,6708
9,82007,5764
9,82418,6150
9,82832,6323
9,83243,5505
9,83655,5473
9,84068,5832
9,84480,6521
9,84892,4925
9,85305,5262
9,85717,4907
9,86128,4836
9,86542,4650
9,86953,4708
9,87365,4001
9,87778,4036
9,88190,3957
9,88602,3835
9,89015,5156
9,89427,4436
9,89838,4336
9,90250,4064
9,90663,3372
9,91075,4024
9,91487,5402
9,91900,4712
9,92312,3638
9,92723,4567
9,93137,4298
9,93548,4010
9,93960,4589
9,94373,4422
9,94785,4046
9,95197,3861
9,95610,3464
9,96022,3149
9,96433,5033
9,96847,3438
9,97258,3899
9,97670,4143
9,98083,4300
9,98495,4098
9,98907,3985
9,99318,3689
9,99732,3295
10,00143,4055
10,00555,4237
10,00968,4333
10,01380,4782
10,01792,4529
10,02205,3649
10,02617,4205
10,03028,3720
10,03442,4321
10,03853,4169
10,04265,3958
10,04678,3992
10,05090,3182
10,05502,3259
10,05915,3739
10,06327,4255
10,06738,3586
10,07152,3563
10,07563,3110
10,07975,3229
10,08387,3431
10,08800,2680
10,09212,3788
10,09623,3369
10,10037,3549
10,10448,3483
10,10860,3676
10,11273,3825
10,11685,4523
10,12097,4127
10,12510,4478
10,12922,4401
10,13333,4723
10,13747,3550
10,14158,4244
10,14570,5053
10,14983,7269
10,15395,12933
10,15807,25646
10,16220,52802
10,16632,103050
10,17043,181497
10,17455,298671
10,17868,449680
10,18280,621388
10,18692,796907
10,19105,933715
10,19517,1014613
10,19928,1027480
10,20342,962159
10,20753,843746
10,21165,708469
10,21578,563591
10,21990,429815
10,22402,319253
10,22815,235977
10,23227,174489
10,23638,131361
10,24052,101679
10,24463,76458
10,24875,62027
10,25288,50618
10,25700,40001
10,26112,37721
10,26523,30893
10,26937,26877
10,27348,23401
10,27760,19038
10,28173,17962
10,28585,16523
10,28997,15019
10,29410,13179
10,29822,13338
10,30233,11629
10,30647,10772
10,31058,10631
10,31470,8998
10,31883,8222
10,32295,9514
10,32707,8015
10,33120,10153
10,33532,14484
10,33943,27749
10,34357,55739
10,34768,116949
10,35180,226084
10,35592,399671
10,36005,667371
10,36417,1005170
10,36828,1434927
10,37242,1939900
10,37653,2433769
10,38065,2906765
10,38478,3239612
10,38890,3358604
10,39302,3185856
10,39715,2823391
10,40127,2293438
10,40538,1748841
10,40952,1262973
10,41363,879577
10,41775,620933
10,42188,441203
10,42600,324673
10,43012,250717
10,43425,192795
10,43837,160243
10,44248,128799
10,44660,108041
10,45073,91900
10,45485,79211
10,45897,70193
10,46310,59707
10,46722,54337
10,47133,48502
10,47547,42489
10,47958,39270
10,48370,35346
10,48783,33174
10,49195,29504
10,49607,27858
10,50020,25747
10,50432,22824
10,50843,21760
10,51257,20500
10,51668,20664
10,52080,20286
10,52493,17486
10,52905,16988
10,53317,15898
10,53730,14412
10,54142,15295
10,54553,13463
10,54965,12544
10,55378,12176
10,55790,11061
10,56202,10885
10,56615,10329
10,57027,11085
10,57438,10022
10,57852,8594
10,58263,9980
10,58675,8421
10,59088,10395
10,59500,10816
10,59912,12162
10,60325,13191
10,60737,12558
10,61148,11129
10,61562,9637
10,61973,7943
10,62385,7957
10,62798,7289
10,63210,5949
10,63622,5929
10,64033,6869
10,64447,5490
10,64858,6337
10,65270,6029
10,65683,6478
10,66095,5916
10,66507,6661
10,66920,7119
10,67332,6142
10,67743,7091
10,68157,6467
10,68568,5709
10,68980,5637
10,69393,5830
10,69805,4146
10,70217,4458
10,70630,6122
10,71042,4829
10,71453,5093
10,71867,4828
10,72278,4597
10,72690,4237
10,73102,5046
10,73515,4982
10,73927,5309
10,74338,5910
10,74752,5269
10,75163,5982
10,75575,6423
10,75988,6536
10,76400,5425
10,76812,5915
10,77225,5112
10,77637,6014
10,78048,6702
10,78462,7730
10,78873,11064
10,79285,20999
10,79698,41957
10,80110,83468
10,80522,150470
10,80935,252899
10,81347,397970
10,81758,583413
10,82170,765427
10,82583,927327
10,82995,1044619
10,83407,1076779
10,83820,1024721
10,84232,910336
10,84643,746493
10,85057,597265
10,85468,452183
10,85880,322521
10,86293,238175
10,86705,175992
10,87117,132063
10,87530,99338
10,87942,78559
10,88353,65416
10,88767,54005
10,89178,44564
10,89590,37845
10,90003,34940
10,90415,30827
10,90827,26985
10,91238,24771
10,91652,25254
10,92063,24127
10,92475,22896
10,92888,22037
10,93300,20878
10,93712,18684
10,94125,16032
10,94537,13744
10,94948,13148
10,95362,12534
10,95773,10504
10,96185,10581
10,96598,10488
10,97010,9614
10,97422,9346
10,97835,10271
10,98247,10977
10,98658,12806
10,99072,13736
10,99483,15094
10,99895,15452
11,00307,15299
11,00720,15456
11,01132,13023
11,01543,13059
11,01957,12046
11,02368,10685
11,02780,9175
11,03193,8946
11,03605,8866
11,04017,6939
11,04430,7537
11,04842,6244
11,05253,6628
11,05667,7574
11,06078,12635
11,06490,25403
11,06903,50949
11,07315,100499
11,07727,184165
11,08140,314084
11,08552,475483
11,08963,663313
11,09375,856523
11,09788,1032934
11,10200,1141909
11,10612,1153418
11,11025,1067362
11,11437,914247
11,11848,735267
11,12262,563523
11,12673,421179
11,13085,302617
11,13498,217463
11,13910,158368
11,14322,113928
11,14735,89346
11,15147,70913
11,15558,59790
11,15972,48556
11,16383,40260
11,16795,34610
11,17208,30907
11,17620,27282
11,18032,25015
11,18443,22951
11,18857,20631
11,19268,18881
11,19680,15589
11,20093,16127
11,20505,15760
11,20917,13215
11,21330,12538
11,21742,11775
11,22153,11122
11,22567,11097
11,22978,9654
11,23390,9538
11,23803,8883
11,24215,8137
11,24627,8770
11,25040,7782
11,25452,7851
11,25863,8093
11,26277,7705
11,26688,7334
11,27100,7568
11,27512,7074
11,27925,7655
11,28337,7798
11,28748,6965
11,29162,7831
11,29573,7851
11,29985,8319
11,30398,6973
11,30810,6927
11,31222,7775
11,31635,7572
11,32047,7087
11,32458,7436
11,32872,6826
11,33283,6794
11,33695,5697
11,34108,6132
11,34520,6348
11,34932,5479
11,35345,5658
11,35757,5199
11,36168,6259
11,36580,4658
11,36993,5286
11,37405,4936
11,37817,5963
11,38230,4330
11,38642,5855
11,39053,5673
11,39467,5140
11,39878,4903
11,40290,5200
11,40703,5033
11,41115,5021
11,41527,4913
11,41940,4448
11,42352,5014
11,42763,5130
11,43177,3972
11,43588,5228
11,44000,5758
11,44413,4866
11,44825,5384
11,45237,4441
11,45648,5111
11,46062,5031
11,46473,5221
11,46885,5011
11,47298,5517
11,47710,5028
11,48122,5893
11,48535,4743
11,48947,5268
11,49358,5899
11,49772,5586
11,50183,8714
11,50595,13364
11,51008,27925
11,51420,54072
11,51832,107211
11,52245,197279
11,52657,327808
11,53068,498136
11,53482,689199
11,53893,880044
11,54305,1051294
11,54717,1131739
11,55130,1126300
11,55542,1034632
11,55953,887527
11,56367,717159
11,56778,535561
11,57190,398555
11,57603,290741
11,58015,212278
11,58427,157473
11,58840,121972
11,59252,93068
11,59663,73762
11,60077,58784
11,60488,51167
11,60900,43822
11,61313,38775
11,61725,33061
11,62137,28367
11,62550,24945
11,62962,23469
11,63373,21366
11,63785,20094
11,64198,17730
11,64610,15633
11,65022,14893
11,65435,12626
11,65847,11607
11,66258,11726
11,66672,9618
11,67083,10366
11,67495,9371
11,67908,9146
11,68320,7504
11,68732,9637
11,69145,7759
11,69557,9212
11,69968,8351
11,70382,7361
11,70793,7223
11,71205,6791
11,71618,6171
11,72030,7253
11,72442,6178
11,72853,6279
11,73267,6252
11,73678,5652
11,74090,6517
11,74503,6492
11,74915,4459
11,75327,5717
11,75740,5496
11,76152,8069
11,76563,14234
11,76977,27090
11,77388,57106
11,77800,110016
11,78213,203200
11,78625,353779
11,79037,563015
11,79450,840965
11,79862,1166795
11,80273,1543524
11,80687,1890898
11,81098,2191702
11,81510,2346735
11,81922,2331338
11,82335,2143405
11,82747,1798022
11,83158,1402074
11,83572,1044663
11,83983,748929
11,84395,538582
11,84808,387492
11,85220,290370
11,85632,224389
11,86045,171911
11,86457,139275
11,86868,112557
11,87282,94950
11,87693,79548
11,88105,70381
11,88518,61620
11,88930,56142
11,89342,47895
11,89755,41874
11,90167,36220
11,90578,35301
11,90990,31204
11,91403,29393
11,91815,28477
11,92227,22985
11,92640,24358
11,93052,22486
11,93463,20528
11,93877,21163
11,94288,19064
11,94700,17549
11,95113,17549
11,95525,16982
11,95937,15174
11,96350,15091
11,96762,13927
11,97173,14235
11,97587,14473
11,97998,13128
11,98410,12502
11,98823,13010
11,99235,10614
11,99647,11272
12,00058,9993
12,00472,10391
12,00883,10571
12,01295,13215
12,01708,17528
12,02120,30632
12,02532,58917
12,02945,103216
12,03357,184742
12,03768,305121
12,04182,463347
12,04593,650179
12,05005,849188
12,05418,1012104
12,05830,1120156
12,06242,1151765
12,06655,1077014
12,07067,956360
12,07478,776466
12,07892,612387
12,08303,460944
12,08715,340236
12,09128,252556
12,09540,186651
12,09952,144242
12,10363,112639
12,10777,87307
12,11188,68819
12,11600,58161
12,12013,52820
12,12425,44672
12,12837,36755
12,13250,35546
12,13662,30170
12,14073,29533
12,14487,32300
12,14898,44056
12,15310,69781
12,15723,122674
12,16135,227027
12,16547,383070
12,16960,613137
12,17372,924957
12,17783,1281388
12,18197,1670752
12,18608,2012757
12,19020,2246144
12,19432,2339368
12,19845,2187029
12,20257,1897416
12,20668,1521742
12,21082,1158027
12,21493,837388
12,21905,606998
12,22318,441260
12,22730,327230
12,23142,243874
12,23555,191291
12,23967,150881
12,24378,126456
12,24792,105499
12,25203,92277
12,25615,80014
12,26028,67974
12,26440,60174
12,26852,55384
12,27265,50620
12,27677,45318
12,28088,40484
12,28500,38186
12,28913,34758
12,29325,30968
12,29737,30849
12,30150,29826
12,30562,27777
12,30973,24866
12,31387,24358
12,31798,22973
12,32210,23160
12,32623,20912
12,33035,19463
12,33447,17559
12,33860,17340
12,34272,17439
12,34683,15686
12,35097,15341
12,35508,13395
12,35920,13308
12,36333,14329
12,36745,13203
12,37157,10488
12,37568,12384
12,37982,11139
12,38393,10559
12,38805,10287
12,39218,10040
12,39630,10045
12,40042,10081
12,40455,8353
12,40867,8076
12,41278,9535
12,41692,11970
12,42103,16326
12,42515,28779
12,42928,58982
12,43340,110371
12,43752,205584
12,44165,337273
12,44577,517814
12,44988,722315
12,45402,905237
12,45813,1044340
12,46225,1100386
12,46637,1085016
12,47050,963607
12,47462,798528
12,47873,637586
12,48287,473180
12,48698,348636
12,49110,258926
12,49523,189743
12,49935,145983
12,50347,114182
12,50760,88969
12,51172,72138
12,51583,62705
12,51997,52337
12,52408,43206
12,52820,37708
12,53233,35113
12,53645,29510
12,54057,28574
12,54470,24552
12,54882,23433
12,55293,21885
12,55705,19225
12,56118,19276
12,56530,17737
12,56942,17588
12,57355,16695
12,57767,14757
12,58178,14752
12,58592,14651
12,59003,13602
12,59415,13304
12,59828,12277
12,60240,15436
12,60652,14283
12,61065,14334
12,61477,13837
12,61888,15183
12,62302,15125
12,62713,15592
12,63125,14351
12,63538,12782
12,63950,12911
12,64362,13461
12,64773,11872
12,65187,11845
12,65598,11470
12,66010,11441
12,66423,12402
12,66835,12067
12,67247,9965
12,67660,10859
12,68072,10862
12,68483,10994
12,68897,7962
12,69308,9663
12,69720,9091
12,70133,10605
12,70545,9527
12,70957,8778
12,71370,10586
12,71782,18412
12,72193,33473
12,72607,62594
12,73018,124074
12,73430,215575
12,73842,350036
12,74255,526362
12,74667,714808
12,75078,903340
12,75492,1034638
12,75903,1081412
12,76315,1037141
12,76728,910101
12,77140,748743
12,77552,579532
12,77965,430746
12,78377,317462
12,78788,233930
12,79202,171890
12,79613,132086
12,80025,103696
12,80438,81974
12,80850,66234
12,81262,57509
12,81675,47827
12,82087,42237
12,82498,39640
12,82910,34906
12,83323,32074
12,83735,30853
12,84147,29626
12,84560,26593
12,84972,24206
12,85383,24828
12,85797,22148
12,86208,19928
12,86620,20445
12,87033,19223
12,87445,16337
12,87857,16995
12,88270,15227
12,88682,14971
12,89093,13337
12,89507,14285
12,89918,12061
12,90330,13959
12,90743,12439
12,91155,12169
12,91567,11688
12,91978,9974
12,92392,9309
12,92803,10044
12,93215,9576
12,93628,10704
12,94040,10733
12,94452,8805
12,94865,9956
12,95277,10098
12,95688,9758
12,96102,10053
12,96513,9840
12,96925,9969
12,97338,9445
12,97750,9430
12,98162,9819
12,98575,9417
12,98987,9684
12,99398,9316
12,99812,9377
13,00223,10566
13,00635,9795
13,01047,8778
13,01460,8152
13,01872,9202
13,02283,8566
13,02697,10101
13,03108,9495
13,03520,8049
13,03933,7385
13,04345,8681
13,04757,7930
13,05170,7745
13,05582,7342
13,05993,7124
13,06407,8008
13,06818,7501
13,07230,7163
13,07643,7246
13,08055,7398
13,08467,6988
13,08880,7411
13,09292,7374
13,09703,6302
13,10115,7583
13,10528,8271
13,10940,9421
13,11352,15389
13,11765,29666
13,12177,63780
13,12588,127006
13,13002,241664
13,13413,436462
13,13825,716563
13,14238,1124958
13,14650,1593270
13,15062,2155518
13,15475,2673572
13,15887,3101458
13,16298,3370275
13,16712,3366066
13,17123,3135900
13,17535,2646469
13,17948,2074578
13,18360,1533857
13,18772,1097576
13,19183,797309
13,19597,569592
13,20008,430526
13,20420,326046
13,20833,261967
13,21245,207738
13,21657,177009
13,22070,149826
13,22482,129589
13,22893,113992
13,23307,99757
13,23718,89377
13,24130,77539
13,24543,72056
13,24955,64838
13,25367,60320
13,25780,57104
13,26192,50753
13,26603,47126
13,27017,43638
13,27428,39251
13,27840,39047
13,28252,37312
13,28665,35547
13,29077,32802
13,29488,31651
13,29902,29110
13,30313,28150
13,30725,28306
13,31138,27098
13,31550,25562
13,31962,23371
13,32375,22348
13,32787,21831
13,33198,21830
13,33612,19789
13,34023,21227
13,34435,20594
13,34848,21063
13,35260,22567
13,35672,22492
13,36085,25647
13,36497,31162
13,36908,37460
13,37320,50289
13,37733,74397
13,38145,120710
13,38557,196370
13,38970,302971
13,39382,452842
13,39793,622827
13,40207,786448
13,40618,901581
13,41030,948871
13,41443,927711
13,41855,818306
13,42267,693876
13,42680,545413
13,43092,413582
13,43503,305050
13,43917,228811
13,44328,174713
13,44740,130890
13,45153,103300
13,45565,84039
13,45977,68378
13,46388,61942
13,46802,53225
13,47213,53358
13,47625,59616
13,48038,82078
13,48450,119928
13,48862,196468
13,49275,302280
13,49687,453842
13,50098,637258
13,50512,839093
13,50923,1023366
13,51335,1137191
13,51748,1162478
13,52160,1111866
13,52572,967983
13,52985,794266
13,53397,619073
13,53808,461951
13,54222,342074
13,54633,259968
13,55045,197084
13,55457,152569
13,55870,125583
13,56282,102039
13,56693,88649
13,57107,74315
13,57518,66392
13,57930,58204
13,58343,51707
13,58755,49026
13,59167,44371
13,59580,40504
13,59992,37920
13,60403,35330
13,60817,31472
13,61228,32289
13,61640,29609
13,62053,26890
13,62465,26837
13,62877,25798
13,63290,23924
13,63702,22840
13,64113,22682
13,64525,22814
13,64938,20611
13,65350,20510
13,65762,19781
13,66175,18618
13,66587,18739
13,66998,17496
13,67412,19167
13,67823,16744
13,68235,17387
13,68648,18993
13,69060,16499
13,69472,15895
13,69885,17319
13,70297,15822
13,70708,15796
13,71122,15852
13,71533,15352
13,71945,14794
13,72358,15166
13,72770,14557
13,73182,14017
13,73593,12878
13,74007,12471
13,74418,12890
13,74830,12320
13,75243,16160
13,75655,20998
13,76067,32948
13,76480,56173
13,76892,107014
13,77303,190435
13,77717,315009
13,78128,489119
13,78540,697886
13,78953,925919
13,79365,1095842
13,79777,1223995
13,80190,1229553
13,80602,1146325
13,81013,962920
13,81427,767815
13,81838,579976
13,82250,433921
13,82663,318697
13,83075,237577
13,83487,180866
13,83898,143785
13,84312,117951
13,84723,99017
13,85135,82840
13,85548,76032
13,85960,65321
13,86372,57329
13,86785,53986
13,87197,48276
13,87608,41963
13,88022,41019
13,88433,38402
13,88845,36527
13,89258,34562
13,89670,32928
13,90082,32568
13,90495,31048
13,90907,30173
13,91318,28947
13,91732,27330
13,92143,27150
13,92555,25911
13,92967,24408
13,93380,25930
13,93792,22721
13,94203,21801
13,94617,23331
13,95028,19484
13,95440,20900
13,95853,20341
13,96265,19161
13,96677,17846
13,97090,18128
13,97502,18895
13,97913,17840
13,98327,18745
13,98738,16175
13,99150,17067
13,99563,17219
13,99975,15924
14,00387,16864
14,00800,16439
14,01212,16837
14,01623,20711
14,02035,29296
14,02448,50992
14,02860,91054
14,03272,162799
14,03685,277280
14,04097,429334
14,04508,626662
14,04922,809676
14,05333,963252
14,05745,1048210
14,06158,1048104
14,06570,958839
14,06982,811039
14,07395,658531
14,07807,505158
14,08218,377547
14,08632,277801
14,09043,211868
14,09455,161899
14,09868,131250
14,10280,103460
14,10692,87743
14,11103,75419
14,11517,65771
14,11928,58158
14,12340,50490
14,12753,49677
14,13165,44539
14,13577,39231
14,13990,36649
14,14402,35207
14,14813,33717
14,15227,32207
14,15638,29244
14,16050,27986
14,16463,26802
14,16875,24937
14,17287,23724
14,17700,24679
14,18112,22879
14,18523,22746
14,18937,21877
14,19348,21143
14,19760,21251
14,20172,20104
14,20585,18710
14,20997,19286
14,21408,19262
14,21822,17731
14,22233,18896
14,22645,19611
14,23058,17221
14,23470,18492
14,23882,17631
14,24295,17310
14,24707,15985
14,25118,17286
14,25532,17647
14,25943,16994
14,26355,16693
14,26768,16085
14,27180,15281
14,27592,14440
14,28005,15366
14,28417,15850
14,28828,16128
14,29240,14939
14,29653,15279
14,30065,16046
14,30477,16073
14,30890,16028
14,31302,15502
14,31713,15779
14,32127,15061
14,32538,15691
14,32950,14825
14,33363,14057
14,33775,15838
14,34187,13936
14,34600,13417
14,35012,13390
14,35423,16202
14,35837,14949
14,36248,15621
14,36660,16457
14,37073,17155
14,37485,22480
14,37897,28901
14,38308,45094
14,38722,76917
14,39133,134859
14,39545,229157
14,39958,381539
14,40370,587355
14,40782,849777
14,41195,1194271
14,41607,1617153
14,42018,2043975
14,42432,2510287
14,42843,2877037
14,43255,3121442
14,43668,3135753
14,44080,2901029
14,44492,2485915
14,44905,2024029
14,45317,1610612
14,45728,1227644
14,46142,937186
14,46553,704149
14,46965,536689
14,47377,417772
14,47790,334362
14,48202,277975
14,48613,225516
14,49027,194457
14,49438,165316
14,49850,146940
14,50263,131071
14,50675,119399
14,51087,104309
14,51500,98680
14,51912,92596
14,52323,82809
14,52737,80402
14,53148,71067
14,53560,68532
14,53973,62189
14,54385,59708
14,54797,54397
14,55210,53668
14,55622,52500
14,56033,48411
14,56445,47945
14,56858,46525
14,57270,43182
14,57682,42671
14,58095,42036
14,58507,40931
14,58918,40224
14,59332,40838
14,59743,38736
14,60155,38362
14,60568,40446
14,60980,40391
14,61392,38722
14,61805,39284
14,62217,39154
14,62628,39870
14,63042,41317
14,63453,42857
14,63865,55174
14,64278,75196
14,64690,116222
14,65102,186105
14,65513,302771
14,65927,433982
14,66338,600448
14,66750,775039
14,67163,901991
14,67575,957494
14,67987,937186
14,68400,859893
14,68812,741448
14,69223,595633
14,69637,473877
14,70048,397859
14,70460,360418
14,70873,370955
14,71285,430169
14,71697,536159
14,72110,652887
14,72522,797537
14,72933,914650
14,73347,1026376
14,73758,1085855
14,74170,1131210
14,74582,1169187
14,74995,1204705
14,75407,1275012
14,75818,1325749
14,76232,1336411
14,76643,1300025
14,77055,1196230
14,77468,1046982
14,77880,876519
14,78292,696185
14,78705,543236
14,79117,425092
14,79528,336882
14,79942,268605
14,80353,219682
14,80765,182710
14,81178,162293
14,81590,141159
14,82002,124965
14,82415,112305
14,82827,106670
14,83238,99728
14,83650,89463
14,84063,85594
14,84475,79526
14,84887,77612
14,85300,69353
14,85712,61862
14,86123,59165
14,86537,56268
14,86948,52391
14,87360,51356
14,87773,48290
14,88185,46607
14,88597,45167
14,89010,44076
14,89422,42253
14,89833,39678
14,90247,37775
14,90658,35848
14,91070,34204
14,91483,35900
14,91895,33851
14,92307,31605
14,92718,31704
14,93132,30938
14,93543,30172
14,93955,30271
14,94368,29053
14,94780,27194
14,95192,28344
14,95605,27056
14,96017,26539
14,96428,26299
14,96842,26041
14,97253,25963
14,97665,25954
14,98078,27675
14,98490,32869
14,98902,39940
14,99315,54396
14,99727,84586
15,00138,137149
15,00552,222875
15,00963,346867
15,01375,503356
15,01787,667059
15,02200,856741
15,02612,1017908
15,03023,1108093
15,03437,1142029
15,03848,1088481
15,04260,954726
15,04673,793315
15,05085,627605
15,05497,486569
15,05910,369432
15,06322,291920
15,06733,235564
15,07147,192117
15,07558,161853
15,07970,141224
15,08383,123000
15,08795,106521
15,09207,97161
15,09620,88564
15,10032,79879
15,10443,74154
15,10855,67253
15,11268,62723
15,11680,58556
15,12092,56335
15,12505,52476
15,12917,50945
15,13328,52028
15,13742,48289
15,14153,47140
15,14565,46076
15,14978,44086
15,15390,44047
15,15802,40262
15,16215,40417
15,16627,36287
15,17038,37103
15,17452,37569
15,17863,33308
15,18275,31342
15,18688,33086
15,19100,31497
15,19512,31368
15,19923,29606
15,20337,31721
15,20748,27075
15,21160,29948
15,21573,29999
15,21985,30644
15,22397,28973
15,22810,28547
15,23222,28537
15,23633,27452
15,24047,26367
15,24458,25454
15,24870,26661
15,25283,26679
15,25695,28092
15,26107,35371
15,26520,47378
15,26932,71737
15,27343,113431
15,27757,186988
15,28168,287695
15,28580,413941
15,28992,575824
15,29405,727704
15,29817,867009
15,30228,950868
15,30642,963967
15,31053,909866
15,31465,798540
15,31878,676487
15,32290,547811
15,32702,431646
15,33115,336726
15,33527,271683
15,33938,213389
15,34352,175383
15,34763,150261
15,35175,130198
15,35588,117371
15,36000,117411
15,36412,130340
15,36825,157341
15,37237,208681
15,37648,284800
15,38060,383050
15,38473,502538
15,38885,603701
15,39297,702019
15,39710,749403
15,40122,761787
15,40533,720492
15,40947,649004
15,41358,553185
15,41770,458335
15,42183,373274
15,42595,293901
15,43007,235649
15,43420,188253
15,43832,156531
15,44243,129082
15,44657,108054
15,45068,97056
15,45480,86810
15,45893,73829
15,46305,69709
15,46717,63775
15,47130,59549
15,47542,52709
15,47953,50512
15,48365,48784
15,48778,43595
15,49190,42877
15,49602,42783
15,50015,40539
15,50427,37959
15,50838,36800
15,51252,36636
15,51663,35325
15,52075,34611
15,52488,33535
15,52900,32080
15,53312,31496
15,53725,30986
15,54137,29907
15,54548,29761
15,54962,29315
15,55373,29679
15,55785,28993
15,56198,27538
15,56610,28311
15,57022,27771
15,57433,28326
15,57847,27940
15,58258,25050
15,58670,25084
15,59083,25445
15,59495,23159
15,59907,24449
15,60320,23173
15,60732,25028
15,61143,29616
15,61557,34656
15,61968,43864
15,62380,65957
15,62793,103925
15,63205,156338
15,63617,237913
15,64030,355224
15,64442,503038
15,64853,686458
15,65267,903175
15,65678,1139266
15,66090,1391128
15,66502,1660094
15,66915,1876606
15,67327,1990857
15,67738,2020915
15,68152,1878116
15,68563,1629963
15,68975,1338535
15,69388,1053986
15,69800,824565
15,70212,642501
15,70625,512730
15,71037,412918
15,71448,338969
15,71862,290083
15,72273,244465
15,72685,215891
15,73098,191185
15,73510,171536
15,73922,152639
15,74335,141116
15,74747,129019
15,75158,119609
15,75570,108170
15,75983,104462
15,76395,96960
15,76807,88776
15,77220,83813
15,77632,82217
15,78043,77595
15,78457,73024
15,78868,69568
15,79280,65846
15,79693,65155
15,80105,60554
15,80517,58859
15,80930,57481
15,81342,54588
15,81753,53121
15,82167,51136
15,82578,51018
15,82990,48289
15,83403,46339
15,83815,43493
15,84227,43149
15,84638,43639
15,85052,42641
15,85463,41352
15,85875,40840
15,86288,39458
15,86700,38215
15,87112,36609
15,87525,37404
15,87937,37861
15,88348,36780
15,88762,35671
15,89173,35185
15,89585,33671
15,89998,34727
15,90410,32491
15,90822,34544
15,91235,36294
15,91647,33587
15,92058,31513
15,92472,32757
15,92883,31411
15,93295,32732
15,93707,32016
15,94120,31398
15,94532,31436
15,94943,31228
15,95357,30203
15,95768,29943
15,96180,30417
15,96593,29913
15,97005,28076
15,97417,30918
15,97830,33952
15,98242,41576
15,98653,53383
15,99067,79583
15,99478,117999
15,99890,169839
16,00303,251921
16,00715,351003
16,01127,480449
16,01540,610344
16,01952,740417
16,02363,857068
16,02775,931967
16,03188,957393
16,03600,902599
16,04012,833118
16,04425,731764
16,04837,613730
16,05248,505263
16,05662,412801
16,06073,336973
16,06485,276958
16,06898,231180
16,07310,197511
16,07722,171227
16,08135,149830
16,08547,134276
16,08958,121008
16,09372,108692
16,09783,102584
16,10195,91190
16,10608,87187
16,11020,79791
16,11432,74925
16,11843,69641
16,12257,69178
16,12668,62861
16,13080,61833
16,13493,60037
16,13905,57929
16,14317,55688
16,14730,52634
16,15142,48145
16,15553,49543
16,15967,46185
16,16378,43220
16,16790,41711
16,17203,39300
16,17615,38598
16,18027,40998
16,18440,37015
16,18852,36325
16,19263,35926
16,19677,36852
16,20088,35054
16,20500,33815
16,20912,34013
16,21325,31329
16,21737,30441
16,22148,30476
16,22562,31579
16,22973,33824
16,23385,29825
16,23798,31912
16,24210,32898
16,24622,32489
16,25035,33258
16,25447,33056
16,25858,32116
16,26272,30312
16,26683,29405
16,27095,30604
16,27508,29457
16,27920,26724
16,28332,29387
16,28745,27028
16,29157,27483
16,29568,27455
16,29980,27366
16,30393,26110
16,30805,27340
16,31217,25154
16,31630,26815
16,32042,26679
16,32453,27435
16,32867,26613
16,33278,26356
16,33690,26052
16,34103,26703
16,34515,25814
16,34927,27885
16,35340,28028
16,35752,26793
16,36163,27805
16,36577,25638
16,36988,26139
16,37400,27515
16,37813,25368
16,38225,26206
16,38637,23355
16,39048,24236
16,39462,23987
16,39873,22596
16,40285,22884
16,40698,23826
16,41110,23030
16,41522,21768
16,41935,21527
16,42347,21797
16,42758,22552
16,43172,20592
16,43583,21899
16,43995,22120
16,44408,21565
16,44820,21151
16,45232,21165
16,45645,19696
16,46057,20612
16,46468,22880
16,46882,20858
16,47293,21914
16,47705,21162
16,48117,21879
16,48530,22413
16,48942,22348
16,49353,21916
16,49767,23075
16,50178,23913
16,50590,22670
16,51003,23309
16,51415,22604
16,51827,21763
16,52240,21044
16,52652,22746
16,53063,21338
16,53477,20853
16,53888,20231
16,54300,20117
16,54713,21069
16,55125,20498
16,55537,21719
16,55950,21464
16,56362,20581
16,56773,20679
16,57185,21877
16,57598,23188
16,58010,20331
16,58422,22129
16,58835,21622
16,59247,20762
16,59658,20499
16,60072,21046
16,60483,22798
16,60895,22057
16,61308,20489
16,61720,20938
16,62132,19760
16,62545,20927
16,62957,19911
16,63368,20350
16,63782,19153
16,64193,19643
16,64605,19725
16,65018,19393
16,65430,19583
16,65842,20648
16,66253,20097
16,66667,19781
16,67078,20664
16,67490,20046
16,67903,20633
16,68315,21058
16,68727,20704
16,69140,20329
16,69552,19332
16,69963,18546
16,70377,19472
16,70788,20111
16,71200,18872
16,71613,19537
16,72025,19830
16,72437,20411
16,72850,18833
16,73262,20150
16,73673,19026
16,74087,18335
16,74498,17935
16,74910,19043
16,75322,18850
16,75735,19504
16,76147,19108
16,76558,17636
16,76972,18093
16,77383,19120
16,77795,16796
16,78208,18576
16,78620,17781
16,79032,17514
16,79445,17981
16,79857,20165
16,80268,18311
16,80682,18963
16,81093,19414
16,81505,21399
16,81918,20262
16,82330,19383
16,82742,20614
16,83155,18558
16,83567,20481
16,83978,20515
16,84390,17935
16,84803,17337
16,85215,18314
16,85627,20197
16,86040,18347
16,86452,16630
16,86863,18466
16,87277,18424
16,87688,16357
16,88100,18041
16,88513,18663
16,88925,17162
16,89337,18862
16,89750,17999
16,90162,19478
16,90573,18231
16,90987,19214
16,91398,18883
16,91810,20378
16,92223,19281
16,92635,18018
16,93047,17998
16,93458,18563
16,93872,18705
16,94283,18430
16,94695,19221
16,95108,18658
16,95520,19404
16,95932,18001
16,96345,18524
16,96757,18008
16,97168,18031
16,97582,17704
16,97993,18160
16,98405,19535
16,98818,18558
16,99230,18533
16,99642,18538
17,00055,18879
17,00467,17945
17,00878,18946
17,01292,18162
17,01703,17886
17,02115,19203
17,02527,18035
17,02940,19976
17,03352,18820
17,03763,19766
17,04177,20233
17,04588,18984
17,05000,19231
17,05413,19776
17,05825,18923
17,06237,18303
17,06650,18185
17,07062,19301
17,07473,21117
17,07887,23050
17,08298,25999
17,08710,33767
17,09123,48604
17,09535,67123
17,09947,101004
17,10360,143943
17,10772,197191
17,11183,263246
17,11597,336025
17,12008,399414
17,12420,464856
17,12832,503711
17,13245,524500
17,13657,521978
17,14068,503727
17,14482,466806
17,14893,412529
17,15305,358098
17,15718,311832
17,16130,263835
17,16542,222593
17,16955,189462
17,17367,161416
17,17778,140281
17,18192,118454
17,18603,108741
17,19015,94635
17,19428,85685
17,19840,77180
17,20252,69317
17,20665,64369
17,21077,61537
17,21488,55907
17,21900,50648
17,22313,49462
17,22725,46188
17,23137,43824
17,23550,41567
17,23962,40577
17,24373,39583
17,24787,37753
17,25198,37539
17,25610,37555
17,26023,34276
17,26435,35076
17,26847,35093
17,27260,33342
17,27672,33275
17,28083,33412
17,28497,31646
17,28908,32334
17,29320,30761
17,29733,28936
17,30145,29498
17,30557,27731
17,30968,27854
17,31382,29623
17,31793,26979
17,32205,27849
17,32618,25757
17,33030,26259
17,33442,25052
17,33855,25040
17,34267,25620
17,34678,24598
17,35092,24786
17,35503,24541
17,35915,25309
17,36328,24456
17,36740,24877
17,37152,23382
17,37565,24372
17,37977,24274
17,38388,26375
17,38802,24923
17,39213,23389
17,39625,22594
17,40037,22271
17,40450,23159
17,40862,22797
17,41273,22968
17,41687,22193
17,42098,21608
17,42510,24144
17,42923,22065
17,43335,22883
17,43747,21453
17,44160,22289
17,44572,22133
17,44983,19912
17,45397,22116
17,45808,20689
17,46220,20841
17,46633,22114
17,47045,20912
17,47457,21573
17,47870,20555
17,48282,20336
17,48693,20699
17,49105,20336
17,49518,21158
17,49930,19764
17,50342,20696
17,50755,21410
17,51167,20088
17,51578,22963
17,51992,20210
17,52403,21142
17,52815,21882
