D:\MassHunter\GCMS\1\data\Amal\Constant flow\90C\90C_1ml-min_10C-min_1.D Wed Jul 31 20:19:35 2024
Start of data points
6,09100,18127
6,09512,18345
6,09925,17990
6,10337,18197
6,10748,18046
6,11162,17646
6,11573,17452
6,11985,18923
6,12398,18618
6,12810,19430
6,13222,18253
6,13633,19242
6,14047,18424
6,14458,19162
6,14870,19547
6,15283,19325
6,15695,19375
6,16107,18422
6,16520,19124
6,16932,18697
6,17343,18405
6,17757,18200
6,18168,19892
6,18580,18207
6,18993,19516
6,19405,18621
6,19817,19834
6,20230,18902
6,20642,18690
6,21053,18525
6,21467,18871
6,21878,20253
6,22290,19599
6,22702,20378
6,23115,20681
6,23527,19870
6,23938,19101
6,24352,20749
6,24763,22361
6,25175,19163
6,25588,20433
6,26000,18762
6,26412,19463
6,26825,19654
6,27237,20146
6,27648,19249
6,28062,19126
6,28473,19886
6,28885,18526
6,29298,19461
6,29710,18906
6,30122,17101
6,30535,18785
6,30947,18951
6,31358,18373
6,31770,16661
6,32183,17921
6,32595,17195
6,33007,17403
6,33420,16264
6,33832,15946
6,34243,16340
6,34657,17538
6,35068,15868
6,35480,16900
6,35893,16999
6,36305,15776
6,36717,17362
6,37130,17413
6,37542,17569
6,37953,17662
6,38367,16126
6,38778,17693
6,39190,17760
6,39603,16355
6,40015,17330
6,40427,16409
6,40838,16809
6,41252,17209
6,41663,18980
6,42075,18134
6,42488,17403
6,42900,18013
6,43312,16812
6,43725,16928
6,44137,16958
6,44548,17115
6,44962,17787
6,45373,16849
6,45785,18081
6,46198,17630
6,46610,16803
6,47022,16925
6,47435,17089
6,47847,17241
6,48258,17537
6,48672,15476
6,49083,17352
6,49495,16499
6,49907,16700
6,50320,17418
6,50732,17221
6,51143,17447
6,51557,17161
6,51968,17877
6,52380,16804
6,52793,17217
6,53205,16881
6,53617,16240
6,54030,15788
6,54442,16103
6,54853,16458
6,55267,16230
6,55678,16375
6,56090,15974
6,56503,16992
6,56915,15785
6,57327,14683
6,57740,15816
6,58152,16672
6,58563,15333
6,58975,16376
6,59388,17242
6,59800,14403
6,60212,16833
6,60625,15419
6,61037,15392
6,61448,15522
6,61862,17286
6,62273,18687
6,62685,22445
6,63098,29382
6,63510,41881
6,63922,59159
6,64335,81989
6,64747,101938
6,65158,127555
6,65572,142506
6,65983,158444
6,66395,164257
6,66808,166552
6,67220,157318
6,67632,148611
6,68043,139499
6,68457,129146
6,68868,115687
6,69280,108240
6,69693,99467
6,70105,91633
6,70517,86112
6,70930,76800
6,71342,69104
6,71753,64396
6,72167,60245
6,72578,55261
6,72990,50383
6,73403,47461
6,73815,43114
6,74227,41079
6,74640,35369
6,75052,32430
6,75463,30583
6,75877,29136
6,76288,25313
6,76700,25514
6,77112,24126
6,77525,22825
6,77937,22015
6,78348,22105
6,78762,19564
6,79173,18748
6,79585,18112
6,79998,17020
6,80410,16372
6,80822,16018
6,81235,16688
6,81647,16018
6,82058,16906
6,82472,16105
6,82883,15057
6,83295,15882
6,83708,15325
6,84120,15214
6,84532,16224
6,84945,14840
6,85357,16063
6,85768,13416
6,86180,13596
6,86593,14388
6,87005,12889
6,87417,16437
6,87830,13752
6,88242,12936
6,88653,13329
6,89067,13792
6,89478,13742
6,89890,14675
6,90303,14861
6,90715,14026
6,91127,13982
6,91540,12639
6,91952,14504
6,92363,13618
6,92777,13269
6,93188,14139
6,93600,14282
6,94013,12099
6,94425,13381
6,94837,14083
6,95248,13133
6,95662,12855
6,96073,13378
6,96485,13659
6,96898,14018
6,97310,13866
6,97722,13436
6,98135,12819
6,98547,12980
6,98958,13046
6,99372,13225
6,99783,12779
7,00195,13217
7,00608,12845
7,01020,13024
7,01432,12927
7,01845,12469
7,02257,12753
7,02668,11643
7,03082,13073
7,03493,11753
7,03905,13728
7,04317,11565
7,04730,12418
7,05142,12658
7,05553,13232
7,05967,12587
7,06378,12760
7,06790,13735
7,07203,12602
7,07615,13294
7,08027,12573
7,08440,12896
7,08852,12235
7,09263,13271
7,09677,12633
7,10088,12791
7,10500,12672
7,10913,13863
7,11325,12594
7,11737,13517
7,12150,12143
7,12562,12837
7,12973,13764
7,13387,13236
7,13798,12011
7,14210,12567
7,14622,12168
7,15035,14028
7,15447,11662
7,15858,13601
7,16272,13003
7,16683,10911
7,17095,12627
7,17508,13897
7,17920,12774
7,18332,12506
7,18745,12563
7,19157,12901
7,19568,13975
7,19982,11707
7,20393,13810
7,20805,12489
7,21218,12815
7,21630,13768
7,22042,11732
7,22455,11077
7,22867,12051
7,23278,11541
7,23690,11419
7,24103,11308
7,24515,12238
7,24927,11957
7,25340,11328
7,25752,10378
7,26163,10963
7,26577,11043
7,26988,10096
7,27400,9851
7,27813,11534
7,28225,11583
7,28637,10915
7,29050,10964
7,29462,12130
7,29873,11151
7,30287,10555
7,30698,11180
7,31110,11371
7,31523,9797
7,31935,10328
7,32347,9889
7,32758,11168
7,33172,11706
7,33583,9592
7,33995,10676
7,34408,11277
7,34820,10618
7,35232,11367
7,35645,10170
7,36057,11699
7,36468,10331
7,36882,11181
7,37293,12110
7,37705,11045
7,38118,10810
7,38530,10771
7,38942,11563
7,39355,10180
7,39767,11138
7,40178,10492
7,40592,11188
7,41003,11111
7,41415,10254
7,41827,11940
7,42240,9818
7,42652,10717
7,43063,10404
7,43477,10028
7,43888,10665
7,44300,8129
7,44713,10783
7,45125,10350
7,45537,10596
7,45950,10504
7,46362,9562
7,46773,9135
7,47187,10567
7,47598,10879
7,48010,11189
7,48423,9802
7,48835,10330
7,49247,11202
7,49660,9573
7,50072,10826
7,50483,9539
7,50895,9907
7,51308,9160
7,51720,10776
7,52132,10299
7,52545,10733
7,52957,11258
7,53368,11046
7,53782,12696
7,54193,12575
7,54605,11484
7,55018,12015
7,55430,12312
7,55842,13262
7,56255,12241
7,56667,11776
7,57078,10332
7,57492,11002
7,57903,10443
7,58315,10044
7,58728,8942
7,59140,10241
7,59552,9720
7,59963,8567
7,60377,9309
7,60788,9505
7,61200,8489
7,61613,8565
7,62025,10212
7,62437,9548
7,62850,9510
7,63262,9824
7,63673,8976
7,64087,9241
7,64498,8775
7,64910,9909
7,65323,8379
7,65735,9481
7,66147,9003
7,66560,7966
7,66972,8598
7,67383,7913
7,67797,8951
7,68208,7752
7,68620,8730
7,69032,7440
7,69445,8018
7,69857,8094
7,70268,8225
7,70682,7518
7,71093,8411
7,71505,8703
7,71918,8540
7,72330,8700
7,72742,8268
7,73155,7985
7,73567,8304
7,73978,7992
7,74392,7406
7,74803,7911
7,75215,8450
7,75628,7393
7,76040,8092
7,76452,8917
7,76865,8502
7,77277,7843
7,77688,6702
7,78100,8138
7,78513,8725
7,78925,8070
7,79337,7002
7,79750,7885
7,80162,8253
7,80573,8414
7,80987,8280
7,81398,6925
7,81810,8079
7,82223,7403
7,82635,7920
7,83047,8474
7,83460,8032
7,83872,8653
7,84283,7759
7,84697,7383
7,85108,6937
7,85520,7760
7,85933,6428
7,86345,7463
7,86757,7170
7,87168,6712
7,87582,7800
7,87993,7974
7,88405,6785
7,88818,7196
7,89230,7691
7,89642,6593
7,90055,7192
7,90467,7900
7,90878,6808
7,91292,7441
7,91703,7475
7,92115,6821
7,92528,7715
7,92940,6991
7,93352,7944
7,93765,8056
7,94177,8362
7,94588,8284
7,95002,8232
7,95413,7186
7,95825,7826
7,96237,8087
7,96650,8233
7,97062,7932
7,97473,8356
7,97887,8429
7,98298,9644
7,98710,9126
7,99123,8557
7,99535,8755
7,99947,8123
8,00360,7560
8,00772,7181
8,01183,7572
8,01597,7184
8,02008,8080
8,02420,7989
8,02833,7413
8,03245,6604
8,03657,6746
8,04070,7326
8,04482,7220
8,04893,6469
8,05305,6446
8,05718,7118
8,06130,7054
8,06542,6701
8,06955,7046
8,07367,7069
8,07778,6601
8,08192,8206
8,08603,6628
8,09015,7407
8,09428,6909
8,09840,8137
8,10252,12070
8,10665,17626
8,11077,34652
8,11488,63549
8,11902,115892
8,12313,194075
8,12725,301705
8,13138,429458
8,13550,573348
8,13962,689986
8,14373,781917
8,14787,836091
8,15198,836463
8,15610,810152
8,16023,737382
8,16435,653175
8,16847,557248
8,17260,477783
8,17672,385695
8,18083,316800
8,18497,255787
8,18908,206970
8,19320,162267
8,19733,126889
8,20145,101962
8,20557,80336
8,20970,67265
8,21382,55464
8,21793,45586
8,22207,40764
8,22618,33984
8,23030,31174
8,23442,26373
8,23855,24030
8,24267,22292
8,24678,20867
8,25092,19401
8,25503,17688
8,25915,16545
8,26328,16048
8,26740,14192
8,27152,14181
8,27565,13014
8,27977,12854
8,28388,11957
8,28802,13044
8,29213,10116
8,29625,11312
8,30038,9575
8,30450,9811
8,30862,9806
8,31275,9409
8,31687,9595
8,32098,8560
8,32510,9237
8,32923,9156
8,33335,8467
8,33747,7643
8,34160,8504
8,34572,7958
8,34983,8343
8,35397,9007
8,35808,7657
8,36220,8070
8,36633,8184
8,37045,8457
8,37457,9419
8,37870,10213
8,38282,10948
8,38693,11319
8,39107,10451
8,39518,10590
8,39930,9600
8,40343,8588
8,40755,7851
8,41167,6951
8,41578,6561
8,41992,7284
8,42403,6784
8,42815,6660
8,43228,6540
8,43640,7699
8,44052,6652
8,44465,7356
8,44877,6636
8,45288,7032
8,45702,6945
8,46113,6976
8,46525,7037
8,46938,6616
8,47350,6425
8,47762,6354
8,48175,6588
8,48587,6964
8,48998,6985
8,49412,7025
8,49823,6928
8,50235,6249
8,50647,7502
8,51060,6857
8,51472,5351
8,51883,5878
8,52297,6263
8,52708,5450
8,53120,6145
8,53533,6320
8,53945,6424
8,54357,5655
8,54770,6031
8,55182,6333
8,55593,6143
8,56007,5521
8,56418,4536
8,56830,5063
8,57243,5871
8,57655,6601
8,58067,6390
8,58480,5871
8,58892,5994
8,59303,5385
8,59715,5468
8,60128,5445
8,60540,5087
8,60952,5102
8,61365,5253
8,61777,5833
8,62188,5378
8,62602,6239
8,63013,5096
8,63425,6135
8,63838,5361
8,64250,5339
8,64662,5587
8,65075,5261
8,65487,5430
8,65898,5771
8,66312,4653
8,66723,6115
8,67135,6194
8,67548,5589
8,67960,5668
8,68372,5285
8,68783,5847
8,69197,6203
8,69608,5800
8,70020,5733
8,70433,5713
8,70845,5819
8,71257,5042
8,71670,5328
8,72082,5820
8,72493,5388
8,72907,5616
8,73318,4568
8,73730,5573
8,74143,6376
8,74555,5613
8,74967,4983
8,75380,5016
8,75792,4934
8,76203,6098
8,76617,6110
8,77028,5401
8,77440,5672
8,77853,5454
8,78265,5005
8,78677,6284
8,79088,6375
8,79502,5397
8,79913,5442
8,80325,5379
8,80738,5762
8,81150,4991
8,81562,5679
8,81975,5455
8,82387,5608
8,82798,5209
8,83212,5687
8,83623,4911
8,84035,4577
8,84448,4675
8,84860,5066
8,85272,4953
8,85685,5178
8,86097,4571
8,86508,4976
8,86922,5025
8,87333,5228
8,87745,5304
8,88157,5127
8,88570,5414
8,88982,5235
8,89393,4712
8,89807,5477
8,90218,6034
8,90630,9110
8,91043,14280
8,91455,29638
8,91867,52957
8,92280,93605
8,92692,160032
8,93103,244798
8,93517,347489
8,93928,431346
8,94340,515410
8,94753,564665
8,95165,572198
8,95577,545764
8,95990,500929
8,96402,423276
8,96813,346971
8,97225,277117
8,97638,215591
8,98050,164748
8,98462,125097
8,98875,95635
8,99287,77484
8,99698,59615
9,00112,45130
9,00523,37455
9,00935,30810
9,01348,25358
9,01760,23255
9,02172,20419
9,02585,17201
9,02997,16323
9,03408,13624
9,03822,13719
9,04233,11696
9,04645,11081
9,05058,10563
9,05470,10069
9,05882,9651
9,06293,10138
9,06707,8776
9,07118,9487
9,07530,9898
9,07943,10251
9,08355,9425
9,08767,9532
9,09180,10264
9,09592,9512
9,10003,8408
9,10417,8133
9,10828,8752
9,11240,9058
9,11653,8199
9,12065,8159
9,12477,6865
9,12890,6704
9,13302,6897
9,13713,6698
9,14127,6111
9,14538,5201
9,14950,6020
9,15362,6155
9,15775,6173
9,16187,5829
9,16598,5736
9,17012,5347
9,17423,4392
9,17835,4475
9,18248,5702
9,18660,5136
9,19072,4630
9,19485,5239
9,19897,5671
9,20308,4891
9,20722,4948
9,21133,5371
9,21545,4640
9,21958,5763
9,22370,4847
9,22782,4880
9,23195,5523
9,23607,5994
9,24018,5944
9,24430,6811
9,24843,6382
9,25255,6543
9,25667,7076
9,26080,6753
9,26492,5368
9,26903,5746
9,27317,5765
9,27728,4443
9,28140,5201
9,28553,4892
9,28965,4153
9,29377,4918
9,29790,5607
9,30202,4749
9,30613,4658
9,31027,4426
9,31438,4339
9,31850,4313
9,32263,4499
9,32675,4850
9,33087,4899
9,33498,3873
9,33912,3578
9,34323,4496
9,34735,4091
9,35148,4340
9,35560,4201
9,35972,4161
9,36385,4221
9,36797,3621
9,37208,4147
9,37622,3543
9,38033,4102
9,38445,4200
9,38858,4007
9,39270,4266
9,39682,3946
9,40095,4551
9,40507,3783
9,40918,4739
9,41332,3777
9,41743,3854
9,42155,4378
9,42567,4081
9,42980,4298
9,43392,4180
9,43803,3137
9,44217,4397
9,44628,3214
9,45040,4140
9,45453,3504
9,45865,4044
9,46277,3934
9,46690,4155
9,47102,3944
9,47513,3514
9,47927,4006
9,48338,4291
9,48750,3732
9,49163,3545
9,49575,4046
9,49987,4031
9,50400,4097
9,50812,3820
9,51223,4753
9,51635,3821
9,52048,4301
9,52460,3741
9,52872,3413
9,53285,3592
9,53697,4373
9,54108,4026
9,54522,3604
9,54933,4363
9,55345,4423
9,55758,4953
9,56170,3932
9,56582,4530
9,56995,3969
9,57407,3305
9,57818,3487
9,58232,4377
9,58643,4813
9,59055,4162
9,59468,4028
9,59880,4554
9,60292,4732
9,60703,4500
9,61117,4790
9,61528,4336
9,61940,3820
9,62353,4314
9,62765,3315
9,63177,3708
9,63590,4032
9,64002,4087
9,64413,3868
9,64827,3626
9,65238,4279
9,65650,3148
9,66063,3625
9,66475,4032
9,66887,4772
9,67300,3755
9,67712,4771
9,68123,3368
9,68537,4567
9,68948,4654
9,69360,4436
9,69772,4013
9,70185,5148
9,70597,7224
9,71008,10136
9,71422,20167
9,71833,42269
9,72245,88717
9,72658,171541
9,73070,309126
9,73482,490686
9,73895,726672
9,74307,966712
9,74718,1203283
9,75132,1359324
9,75543,1407890
9,75955,1337523
9,76368,1193325
9,76780,991376
9,77192,788983
9,77605,599478
9,78017,441961
9,78428,318785
9,78840,231569
9,79253,171870
9,79665,127879
9,80077,103738
9,80490,81265
9,80902,61996
9,81313,52884
9,81727,45129
9,82138,36368
9,82550,32499
9,82963,29519
9,83375,26151
9,83787,22707
9,84200,21190
9,84612,18817
9,85023,17123
9,85437,17597
9,85848,15220
9,86260,13037
9,86673,12538
9,87085,11144
9,87497,9937
9,87908,10288
9,88322,9917
9,88733,8081
9,89145,9181
9,89558,8521
9,89970,8987
9,90382,8707
9,90795,6792
9,91207,7306
9,91618,6673
9,92032,7621
9,92443,6945
9,92855,6082
9,93268,7414
9,93680,6105
9,94092,5314
9,94505,5620
9,94917,6013
9,95328,4988
9,95742,4958
9,96153,5130
9,96565,5359
9,96977,5349
9,97390,5149
9,97802,5058
9,98213,5175
9,98627,5255
9,99038,4409
9,99450,4498
9,99863,4378
10,00275,4433
10,00687,5178
10,01100,5381
10,01512,5698
10,01923,6753
10,02337,6451
10,02748,7708
10,03160,7779
10,03573,6631
10,03985,5078
10,04397,5040
10,04810,3808
10,05222,3583
10,05633,4512
10,06045,4278
10,06458,3692
10,06870,3647
10,07282,4086
10,07695,3503
10,08107,3784
10,08518,3755
10,08932,3583
10,09343,3604
10,09755,4163
10,10168,3790
10,10580,3953
10,10992,3454
10,11405,3872
10,11817,3319
10,12228,3695
10,12642,3301
10,13053,4353
10,13465,3474
10,13878,3558
10,14290,4140
10,14702,3988
10,15113,4386
10,15527,3577
10,15938,3666
10,16350,4579
10,16763,4064
10,17175,4045
10,17587,3978
10,18000,3535
10,18412,3805
10,18823,3408
10,19237,3794
10,19648,4309
10,20060,4111
10,20473,4435
10,20885,4408
10,21297,3805
10,21710,3592
10,22122,3527
10,22533,3302
10,22947,2887
10,23358,3780
10,23770,2797
10,24182,2891
10,24595,3191
10,25007,2765
10,25418,3397
10,25832,3929
10,26243,3951
10,26655,5534
10,27068,6672
10,27480,7545
10,27892,8824
10,28305,9051
10,28717,9987
10,29128,10321
10,29542,9318
10,29953,8724
10,30365,8825
10,30778,8246
10,31190,7587
10,31602,6522
10,32015,6225
10,32427,4932
10,32838,4671
10,33250,4642
10,33663,4381
10,34075,3831
10,34487,4064
10,34900,3327
10,35312,2852
10,35723,4385
10,36137,3407
10,36548,3463
10,36960,3438
10,37373,2836
10,37785,2807
10,38197,3035
10,38610,3334
10,39022,3272
10,39433,2806
10,39847,2876
10,40258,2950
10,40670,2846
10,41083,3584
10,41495,2578
10,41907,2952
10,42318,2667
10,42732,2867
10,43143,2814
10,43555,3052
10,43968,2503
10,44380,2087
10,44792,2474
10,45205,2460
10,45617,2060
10,46028,3197
10,46442,2725
10,46853,2773
10,47265,3401
10,47678,2677
10,48090,2833
10,48502,2750
10,48915,2918
10,49327,2928
10,49738,4392
10,50152,5909
10,50563,9942
10,50975,23249
10,51388,47348
10,51800,96631
10,52212,171894
10,52623,286218
10,53037,420634
10,53448,566192
10,53860,697921
10,54273,766565
10,54685,778208
10,55097,716590
10,55510,613707
10,55922,496775
10,56333,382356
10,56747,282366
10,57158,201169
10,57570,146172
10,57983,104616
10,58395,76132
10,58807,59571
10,59220,48855
10,59632,36800
10,60043,30757
10,60457,23870
10,60868,21956
10,61280,18726
10,61692,15933
10,62105,14215
10,62517,12964
10,62928,12392
10,63342,9980
10,63753,11064
10,64165,9174
10,64578,8529
10,64990,7219
10,65402,7185
10,65815,6834
10,66227,6197
10,66638,6482
10,67052,5374
10,67463,5149
10,67875,5498
10,68288,4639
10,68700,4450
10,69112,4916
10,69525,4866
10,69937,4301
10,70348,4204
10,70760,4336
10,71173,3963
10,71585,3684
10,71997,4161
10,72410,3783
10,72822,3784
10,73233,3499
10,73647,4167
10,74058,3460
10,74470,3536
10,74883,3664
10,75295,3290
10,75707,4107
10,76120,3073
10,76532,3176
10,76943,2821
10,77357,3093
10,77768,2734
10,78180,3561
10,78593,2700
10,79005,2708
10,79417,2739
10,79828,3571
10,80242,2611
10,80653,2970
10,81065,2756
10,81478,2914
10,81890,2813
10,82302,2837
10,82715,2897
10,83127,2956
10,83538,2589
10,83952,2918
10,84363,2779
10,84775,2419
10,85188,3093
10,85600,3025
10,86012,3116
10,86425,3054
10,86837,2326
10,87248,2950
10,87662,2651
10,88073,3113
10,88485,2619
10,88897,2371
10,89310,2927
10,89722,3010
10,90133,2871
10,90547,3409
10,90958,3247
10,91370,3066
10,91783,3569
10,92195,4673
10,92607,5231
10,93020,5672
10,93432,6058
10,93843,5226
10,94257,4031
10,94668,4714
10,95080,3893
10,95493,3165
10,95905,3898
10,96317,3007
10,96730,2767
10,97142,2321
10,97553,2008
10,97965,2313
10,98378,2573
10,98790,2462
10,99202,2352
10,99615,1876
11,00027,1946
11,00438,1829
11,00852,1688
11,01263,2496
11,01675,2055
11,02088,2125
11,02500,2767
11,02912,1720
11,03325,2340
11,03737,2245
11,04148,2835
11,04562,2330
11,04973,2299
11,05385,3012
11,05798,2878
11,06210,3820
11,06622,4076
11,07033,5219
11,07447,5381
11,07858,5252
11,08270,5181
11,08683,5333
11,09095,5084
11,09507,4415
11,09920,3879
11,10332,3318
11,10743,3530
11,11157,3240
11,11568,2397
11,11980,3351
11,12393,2311
11,12805,2039
11,13217,2431
11,13630,2945
11,14042,2531
11,14453,3030
11,14867,2592
11,15278,2921
11,15690,2546
11,16102,2498
11,16515,2617
11,16927,1971
11,17338,2673
11,17752,2163
11,18163,2279
11,18575,2407
11,18988,1785
11,19400,2091
11,19812,2667
11,20225,2932
11,20637,2552
11,21048,1576
11,21462,2445
11,21873,1994
11,22285,2162
11,22698,2744
11,23110,1881
11,23522,2193
11,23935,2471
11,24347,2648
11,24758,2404
11,25170,2238
11,25583,2265
11,25995,2447
11,26407,2377
11,26820,5278
11,27232,9730
11,27643,23344
11,28057,49678
11,28468,108814
11,28880,217206
11,29293,398622
11,29705,644466
11,30117,939823
11,30530,1268791
11,30942,1558218
11,31353,1708210
11,31767,1695169
11,32178,1551159
11,32590,1307317
11,33003,1039380
11,33415,766230
11,33827,548858
11,34238,387353
11,34652,266984
11,35063,196903
11,35475,144694
11,35888,112609
11,36300,90193
11,36712,73161
11,37125,63242
11,37537,51264
11,37948,45415
11,38362,39784
11,38773,31956
11,39185,29036
11,39598,25241
11,40010,22926
11,40422,18767
11,40835,17206
11,41247,16237
11,41658,14123
11,42072,13146
11,42483,13359
11,42895,12332
11,43307,9803
11,43720,9820
11,44132,9349
11,44543,8452
11,44957,8668
11,45368,6991
11,45780,7062
11,46193,6892
11,46605,5604
11,47017,5969
11,47430,6437
11,47842,6050
11,48253,5892
11,48667,5299
11,49078,6554
11,49490,6423
11,49903,6085
11,50315,7568
11,50727,7666
11,51140,7563
11,51552,9669
11,51963,9514
11,52375,9539
11,52788,10440
11,53200,8903
11,53612,9113
11,54025,9931
11,54437,9344
11,54848,9091
11,55262,6804
11,55673,6346
11,56085,4254
11,56498,3667
11,56910,3927
11,57322,3146
11,57735,3411
11,58147,3420
11,58558,2943
11,58972,3098
11,59383,3292
11,59795,3039
11,60208,3253
11,60620,2888
11,61032,2985
11,61443,2417
11,61857,2488
11,62268,2697
11,62680,3237
11,63093,2744
11,63505,2700
11,63917,2409
11,64330,2483
11,64742,3247
11,65153,2780
11,65567,3725
11,65978,2913
11,66390,3958
11,66803,4362
11,67215,3571
11,67627,5426
11,68040,5218
11,68452,4740
11,68863,4322
11,69277,3894
11,69688,3589
11,70100,4372
11,70512,4110
11,70925,3297
11,71337,2800
11,71748,3244
11,72162,2530
11,72573,1906
11,72985,2535
11,73398,3045
11,73810,2587
11,74222,2917
11,74635,2059
11,75047,1980
11,75458,2504
11,75872,1648
11,76283,2246
11,76695,1733
11,77108,2378
11,77520,1717
11,77932,2364
11,78345,2576
11,78757,1425
11,79168,2114
11,79580,1938
11,79993,1851
11,80405,2072
11,80817,4009
11,81230,8371
11,81642,19351
11,82053,43701
11,82467,88757
11,82878,167251
11,83290,277746
11,83703,423740
11,84115,577213
11,84527,713197
11,84940,782107
11,85352,788420
11,85763,733486
11,86177,631494
11,86588,500990
11,87000,386082
11,87413,281298
11,87825,202221
11,88237,146767
11,88648,106389
11,89062,78999
11,89473,61410
11,89885,47026
11,90298,37563
11,90710,30641
11,91122,27148
11,91535,22221
11,91947,17493
11,92358,16147
11,92772,13933
11,93183,11604
11,93595,10728
11,94008,10260
11,94420,9849
11,94832,7918
11,95245,8270
11,95657,7171
11,96068,6492
11,96482,7304
11,96893,5641
11,97305,6629
11,97717,6162
11,98130,5016
11,98542,5428
11,98953,3907
11,99367,3779
11,99778,4334
12,00190,3543
12,00603,3987
12,01015,5118
12,01427,7026
12,01840,14452
12,02252,32846
12,02663,71380
12,03077,136528
12,03488,248699
12,03900,396657
12,04313,562391
12,04725,715331
12,05137,835566
12,05550,892300
12,05962,855835
12,06373,756916
12,06785,613942
12,07198,468737
12,07610,338594
12,08022,242624
12,08435,170771
12,08847,121648
12,09258,85449
12,09672,63780
12,10083,49799
12,10495,39419
12,10908,33297
12,11320,27512
12,11732,22656
12,12145,20107
12,12557,16651
12,12968,15036
12,13382,13980
12,13793,11396
12,14205,10157
12,14618,9412
12,15030,9300
12,15442,8851
12,15855,8128
12,16267,6622
12,16678,7230
12,17090,6369
12,17503,6032
12,17915,6928
12,18327,4472
12,18740,4029
12,19152,5014
12,19563,4678
12,19977,4711
12,20388,4309
12,20800,5546
12,21213,4001
12,21625,3870
12,22037,3487
12,22450,3852
12,22862,3842
12,23273,3761
12,23687,3377
12,24098,3967
12,24510,3828
12,24923,3039
12,25335,3595
12,25747,3457
12,26158,3182
12,26572,3745
12,26983,2812
12,27395,3404
12,27808,2338
12,28220,3096
12,28632,3414
12,29045,3203
12,29457,2761
12,29868,2708
12,30282,3122
12,30693,2637
12,31105,3343
12,31518,3064
12,31930,2876
12,32342,3036
12,32755,2710
12,33167,3865
12,33578,2563
12,33992,2585
12,34403,2053
12,34815,2198
12,35227,1609
12,35640,2966
12,36052,2762
12,36463,2604
12,36877,3068
12,37288,2197
12,37700,2540
12,38113,1898
12,38525,2376
12,38937,2277
12,39350,2671
12,39762,2853
12,40173,3000
12,40587,3191
12,40998,2826
12,41410,2967
12,41823,1929
12,42235,3295
12,42647,2474
12,43060,2794
12,43472,2578
12,43883,2034
12,44295,2842
12,44708,3265
12,45120,3126
12,45532,2911
12,45945,4119
12,46357,2819
12,46768,3174
12,47182,3019
12,47593,2336
12,48005,2495
12,48418,2838
12,48830,2629
12,49242,2164
12,49655,2293
12,50067,1842
12,50478,1655
12,50892,1392
12,51303,2316
12,51715,1926
12,52128,1793
12,52540,2121
12,52952,1740
12,53363,2656
12,53777,4677
12,54188,8620
12,54600,18663
12,55013,42084
12,55425,85046
12,55837,165039
12,56250,283128
12,56662,429663
12,57073,595744
12,57487,741841
12,57898,840568
12,58310,848981
12,58723,792396
12,59135,684055
12,59547,553607
12,59960,416714
12,60372,298157
12,60783,218272
12,61197,150022
12,61608,108465
12,62020,79096
12,62432,62015
12,62845,48203
12,63257,37923
12,63668,30335
12,64082,26675
12,64493,23080
12,64905,18574
12,65318,16730
12,65730,14586
12,66142,13542
12,66555,11783
12,66967,11931
12,67378,10690
12,67792,10258
12,68203,7382
12,68615,7587
12,69028,8097
12,69440,7090
12,69852,5968
12,70265,4724
12,70677,5539
12,71088,5327
12,71500,4702
12,71913,6180
12,72325,7302
12,72737,13115
12,73150,26557
12,73562,60975
12,73973,133791
12,74387,262940
12,74798,483355
12,75210,791902
12,75623,1212743
12,76035,1696265
12,76447,2187932
12,76860,2608122
12,77272,2852917
12,77683,2825357
12,78097,2530846
12,78508,2072863
12,78920,1548184
12,79333,1098573
12,79745,747845
12,80157,514356
12,80568,356307
12,80982,258768
12,81393,189213
12,81805,147471
12,82218,119437
12,82630,95521
12,83042,80206
12,83455,68114
12,83867,56664
12,84278,48789
12,84692,45151
12,85103,41191
12,85515,33896
12,85928,32099
12,86340,29350
12,86752,26961
12,87165,24804
12,87577,22423
12,87988,21071
12,88402,19820
12,88813,18631
12,89225,16991
12,89637,14808
12,90050,14727
12,90462,15146
12,90873,12759
12,91287,12728
12,91698,10937
12,92110,10351
12,92523,9577
12,92935,10587
12,93347,8795
12,93760,8950
12,94172,8318
12,94583,7078
12,94997,6571
12,95408,7952
12,95820,7151
12,96233,6664
12,96645,7688
12,97057,8971
12,97470,9432
12,97882,10532
12,98293,10343
12,98705,8887
12,99118,7900
12,99530,5891
12,99942,5290
13,00355,5333
13,00767,4725
13,01178,4259
13,01592,4117
13,02003,5617
13,02415,4973
13,02828,4303
13,03240,4806
13,03652,5138
13,04065,5196
13,04477,4816
13,04888,6603
13,05302,5633
13,05713,6118
13,06125,5218
13,06538,3881
13,06950,3506
13,07362,3826
13,07773,3106
13,08187,2904
13,08598,2728
13,09010,4092
13,09423,3908
13,09835,3259
13,10247,4142
13,10660,4272
13,11072,3957
13,11483,4561
13,11897,5627
13,12308,5671
13,12720,4548
13,13133,4858
13,13545,5297
13,13957,4474
13,14370,4022
13,14782,5931
13,15193,9062
13,15607,21035
13,16018,46578
13,16430,94997
13,16842,182762
13,17255,309180
13,17667,460649
13,18078,627604
13,18492,781909
13,18903,864495
13,19315,872022
13,19728,817915
13,20140,692596
13,20552,549755
13,20965,407998
13,21377,298937
13,21788,209708
13,22202,147116
13,22613,107259
13,23025,82611
13,23438,63229
13,23850,48296
13,24262,40666
13,24675,32910
13,25087,28597
13,25498,26832
13,25910,22154
13,26323,21928
13,26735,19956
13,27147,20826
13,27560,20479
13,27972,18773
13,28383,17402
13,28797,16067
13,29208,15971
13,29620,15047
13,30033,14180
13,30445,14489
13,30857,14684
13,31270,16367
13,31682,16319
13,32093,15954
13,32507,15991
13,32918,14273
13,33330,13155
13,33743,11357
13,34155,10941
13,34567,8751
13,34978,7548
13,35392,6046
13,35803,5819
13,36215,5243
13,36628,5190
13,37040,5673
13,37452,4918
13,37865,4273
13,38277,4343
13,38688,3599
13,39102,3918
13,39513,4540
13,39925,3735
13,40338,3816
13,40750,6444
13,41162,7861
13,41575,17961
13,41987,38628
13,42398,81154
13,42812,159510
13,43223,284716
13,43635,448253
13,44047,642585
13,44460,824482
13,44872,974353
13,45283,1023198
13,45697,947902
13,46108,821591
13,46520,648613
13,46933,480267
13,47345,338554
13,47757,242323
13,48170,169597
13,48582,123421
13,48993,87283
13,49407,71594
13,49818,56425
13,50230,43159
13,50643,35869
13,51055,31863
13,51467,25949
13,51880,24338
13,52292,20034
13,52703,18526
13,53115,17421
13,53528,15602
13,53940,14020
13,54352,13238
13,54765,12569
13,55177,11836
13,55588,10212
13,56002,10157
13,56413,7897
13,56825,8828
13,57238,6799
13,57650,6951
13,58062,7676
13,58475,6321
13,58887,6133
13,59298,6661
13,59712,5879
13,60123,5387
13,60535,5222
13,60948,4569
13,61360,6932
13,61772,5956
13,62183,6109
13,62597,6154
13,63008,6886
13,63420,7524
13,63833,6614
13,64245,5728
13,64657,6527
13,65070,5066
13,65482,5543
13,65893,4569
13,66307,3960
13,66718,4835
13,67130,4549
13,67543,3767
13,67955,4548
13,68367,3917
13,68780,3787
13,69192,2901
13,69603,3113
13,70017,4362
13,70428,3988
13,70840,4891
13,71252,3831
13,71665,3459
13,72077,3284
13,72488,4900
13,72902,3942
13,73313,3342
13,73725,3873
13,74138,4625
13,74550,4067
13,74962,3444
13,75375,4299
13,75787,4926
13,76198,4396
13,76612,3646
13,77023,3883
13,77435,4676
13,77848,3967
13,78260,3533
13,78672,3537
13,79085,3584
13,79497,3773
13,79908,3597
13,80322,3288
13,80733,3712
13,81145,3308
13,81557,3840
13,81970,5741
13,82382,11136
13,82793,22058
13,83207,46578
13,83618,97756
13,84030,185248
13,84443,318649
13,84855,497081
13,85267,684278
13,85680,855894
13,86092,949989
13,86503,964788
13,86917,895344
13,87328,750858
13,87740,599795
13,88153,445847
13,88565,320234
13,88977,224752
13,89390,161113
13,89802,116378
13,90213,89945
13,90625,67116
13,91038,55248
13,91450,45634
13,91862,37259
13,92275,31730
13,92687,27065
13,93098,22979
13,93512,21620
13,93923,18922
13,94335,17711
13,94748,15370
13,95160,14223
13,95572,13603
13,95985,11921
13,96397,10753
13,96808,8843
13,97222,9189
13,97633,9030
13,98045,7768
13,98458,8144
13,98870,7339
13,99282,6861
13,99693,7094
14,00107,5722
14,00518,6188
14,00930,5390
14,01343,6254
14,01755,6126
14,02167,5388
14,02580,6208
14,02992,5374
14,03403,4490
14,03817,4614
14,04228,4845
14,04640,5170
14,05053,3972
14,05465,4392
14,05877,4499
14,06290,4718
14,06702,7633
14,07113,12713
14,07527,27017
14,07938,59346
14,08350,124654
14,08762,242608
14,09175,422531
14,09587,681346
14,09998,1010306
14,10412,1405560
14,10823,1779266
14,11235,2039166
14,11648,2173625
14,12060,2098569
14,12472,1828369
14,12885,1488582
14,13297,1086304
14,13708,768191
14,14122,533539
14,14533,369155
14,14945,263817
14,15358,194745
14,15770,148507
14,16182,118463
14,16595,96444
14,17007,80613
14,17418,65375
14,17830,58119
14,18243,50186
14,18655,43956
14,19067,39115
14,19480,35412
14,19892,33437
14,20303,29783
14,20717,26733
14,21128,25337
14,21540,23631
14,21953,22046
14,22365,19609
14,22777,18610
14,23190,17471
14,23602,16420
14,24013,15466
14,24427,15194
14,24838,14155
14,25250,13458
14,25663,13346
14,26075,12062
14,26487,11940
14,26898,10338
14,27312,10545
14,27723,9322
14,28135,9293
14,28548,9195
14,28960,9771
14,29372,11909
14,29785,13863
14,30197,23686
14,30608,46801
14,31022,89422
14,31433,170510
14,31845,292039
14,32258,445992
14,32670,629216
14,33082,813885
14,33495,951501
14,33907,1010470
14,34318,990280
14,34732,877672
14,35143,730244
14,35555,569543
14,35967,422478
14,36380,305930
14,36792,218694
14,37203,159031
14,37617,118700
14,38028,88235
14,38440,70835
14,38853,58363
14,39265,46916
14,39677,41368
14,40090,34364
14,40502,30431
14,40913,29984
14,41327,25936
14,41738,34020
14,42150,51296
14,42563,92952
14,42975,170431
14,43387,309410
14,43800,528521
14,44212,830146
14,44623,1192451
14,45035,1566076
14,45448,1872211
14,45860,2022499
14,46272,2009752
14,46685,1817820
14,47097,1486702
14,47508,1148963
14,47922,841948
14,48333,595346
14,48745,417931
14,49158,296396
14,49570,221547
14,49982,166765
14,50395,129366
14,50807,107946
14,51218,89961
14,51632,77890
14,52043,66942
14,52455,57387
14,52868,51303
14,53280,46834
14,53692,40626
14,54103,38347
14,54517,33729
14,54928,32272
14,55340,28747
14,55753,27895
14,56165,25620
14,56577,23661
14,56990,22858
14,57402,22623
14,57813,19588
14,58227,17566
14,58638,18748
14,59050,18217
14,59463,15612
14,59875,15566
14,60287,14852
14,60700,13499
14,61112,11935
14,61523,12972
14,61937,11987
14,62348,12167
14,62760,11400
14,63172,10170
14,63585,11253
14,63997,10112
14,64408,9436
14,64822,8427
14,65233,9984
14,65645,8982
14,66058,9375
14,66470,10964
14,66882,17580
14,67295,30926
14,67707,59333
14,68118,118916
14,68532,213131
14,68943,367719
14,69355,546932
14,69768,729544
14,70180,883266
14,70592,962815
14,71005,948359
14,71417,847296
14,71828,697731
14,72240,546511
14,72653,411872
14,73065,298103
14,73477,208637
14,73890,154370
14,74302,112243
14,74713,89011
14,75127,70012
14,75538,57784
14,75950,48477
14,76363,42215
14,76775,36726
14,77187,32316
14,77600,29814
14,78012,25648
14,78423,23291
14,78837,21528
14,79248,19248
14,79660,17812
14,80073,17908
14,80485,15752
14,80897,15176
14,81308,15396
14,81722,13800
14,82133,13916
14,82545,11745
14,82958,12372
14,83370,14139
14,83782,13803
14,84195,12956
14,84607,13533
14,85018,13379
14,85432,14290
14,85843,14601
14,86255,14273
14,86668,11852
14,87080,11957
14,87492,11512
14,87905,12145
14,88317,11482
14,88728,11328
14,89142,12313
14,89553,11366
14,89965,10232
14,90377,10022
14,90790,9504
14,91202,10011
14,91613,9062
14,92027,8566
14,92438,8512
14,92850,8244
14,93263,9455
14,93675,11725
14,94087,16030
14,94500,29745
14,94912,56765
14,95323,114111
14,95737,204424
14,96148,341996
14,96560,512073
14,96973,681731
14,97385,832872
14,97797,906984
14,98210,887405
14,98622,812614
14,99033,678071
14,99445,527355
14,99858,397477
15,00270,285181
15,00682,206004
15,01095,146915
15,01507,110184
15,01918,83535
15,02332,67900
15,02743,56418
15,03155,46101
15,03568,40532
15,03980,33204
15,04392,32435
15,04805,29302
15,05217,26438
15,05628,24988
15,06042,23803
15,06453,22103
15,06865,20980
15,07278,19875
15,07690,18317
15,08102,18547
15,08513,16659
15,08927,14408
15,09338,13120
15,09750,13587
15,10163,12115
15,10575,11294
15,10987,12266
15,11400,11691
15,11812,9793
15,12223,10644
15,12637,10215
15,13048,8972
15,13460,11227
15,13873,10410
15,14285,9008
15,14697,9638
15,15110,10273
15,15522,9974
15,15933,9320
15,16347,9367
15,16758,9494
15,17170,8885
15,17582,9963
15,17995,8705
15,18407,9507
15,18818,10843
15,19232,10201
15,19643,10613
15,20055,9176
15,20468,9808
15,20880,8873
15,21292,8807
15,21705,8582
15,22117,8421
15,22528,7712
15,22942,8556
15,23353,8297
15,23765,8871
15,24178,6899
15,24590,7496
15,25002,6605
15,25415,6257
15,25827,7716
15,26238,8254
15,26650,6350
15,27063,6683
15,27475,8032
15,27887,7729
15,28300,5915
15,28712,7393
15,29123,6685
15,29537,8204
15,29948,9716
15,30360,15651
15,30773,34206
15,31185,73650
15,31597,155491
15,32010,303741
15,32422,540569
15,32833,906625
15,33247,1378024
15,33658,1956808
15,34070,2517360
15,34483,2978992
15,34895,3208815
15,35307,3183327
15,35718,2864833
15,36132,2333396
15,36543,1781120
15,36955,1278596
15,37368,890369
15,37780,619852
15,38192,454913
15,38605,339880
15,39017,261879
15,39428,210075
15,39842,168306
15,40253,140258
15,40665,119073
15,41078,105010
15,41490,93590
15,41902,83886
15,42315,76895
15,42727,67031
15,43138,61526
15,43552,56400
15,43963,53780
15,44375,48116
15,44788,45071
15,45200,42009
15,45612,40394
15,46023,36671
15,46437,33364
15,46848,32516
15,47260,30481
15,47673,29365
15,48085,28316
15,48497,28278
15,48910,24444
15,49322,23685
15,49733,24431
15,50147,22055
15,50558,23086
15,50970,20658
15,51383,18217
15,51795,21151
15,52207,19710
15,52620,21201
15,53032,24424
15,53443,27956
15,53857,39704
15,54268,57804
15,54680,93725
15,55092,159237
15,55505,256408
15,55917,395899
15,56328,540482
15,56742,691203
15,57153,794774
15,57565,824908
15,57978,773403
15,58390,679118
15,58802,560105
15,59215,432099
15,59627,326154
15,60038,234918
15,60452,171627
15,60863,129642
15,61275,100928
15,61688,81062
15,62100,65688
15,62512,55722
15,62925,57272
15,63337,66651
15,63748,92457
15,64160,147996
15,64573,236750
15,64985,381399
15,65397,574983
15,65810,781378
15,66222,960118
15,66633,1085619
15,67047,1110348
15,67458,1039180
15,67870,894040
15,68283,713051
15,68695,549866
15,69107,402774
15,69520,294352
15,69932,221186
15,70343,168575
15,70757,131085
15,71168,106902
15,71580,91237
15,71993,76754
15,72405,69115
15,72817,60290
15,73228,52104
15,73642,50025
15,74053,42474
15,74465,41930
15,74878,38896
15,75290,34238
15,75702,33580
15,76115,31327
15,76527,30895
15,76938,27452
15,77352,27001
15,77763,25776
15,78175,23725
15,78588,23481
15,79000,20874
15,79412,20528
15,79825,22236
15,80237,20231
15,80648,20041
15,81062,19301
15,81473,17889
15,81885,20029
15,82297,19172
15,82710,16331
15,83122,18336
15,83533,18008
15,83947,18475
15,84358,17840
15,84770,16856
15,85183,15617
15,85595,16839
15,86007,14937
15,86420,13608
15,86832,14408
15,87243,15114
15,87657,15116
15,88068,17818
15,88480,23301
15,88893,42804
15,89305,76388
15,89717,145262
15,90130,261176
15,90542,426085
15,90953,640503
15,91365,877077
15,91778,1099987
15,92190,1235529
15,92602,1250982
15,93015,1136000
15,93427,966496
15,93838,755190
15,94252,563489
15,94663,410939
15,95075,293933
15,95488,226605
15,95900,176617
15,96312,142964
15,96725,113781
15,97137,97780
15,97548,87133
15,97962,77579
15,98373,68923
15,98785,62418
15,99198,54646
15,99610,51784
16,00022,47379
16,00433,43018
16,00847,43410
16,01258,39549
16,01670,37585
16,02083,36615
16,02495,33816
16,02907,32894
16,03320,33506
16,03732,32225
16,04143,30551
16,04557,28654
16,04968,27668
16,05380,27293
16,05793,25035
16,06205,24919
16,06617,24181
16,07030,21795
16,07442,22796
16,07853,21122
16,08267,20743
16,08678,21204
16,09090,19632
16,09502,19714
16,09915,18639
16,10327,19246
16,10738,18919
16,11152,16951
16,11563,18171
16,11975,17733
16,12388,22681
16,12800,35376
16,13212,54648
16,13625,101876
16,14037,183100
16,14448,309523
16,14862,473128
16,15273,643864
16,15685,817980
16,16098,928172
16,16510,979923
16,16922,922840
16,17335,806975
16,17747,663414
16,18158,505555
16,18570,380164
16,18983,278664
16,19395,208696
16,19807,159679
16,20220,120518
16,20632,99893
16,21043,83130
16,21457,71304
16,21868,61508
16,22280,53201
16,22693,48406
16,23105,44352
16,23517,41214
16,23930,38719
16,24342,34410
16,24753,32736
16,25167,30611
16,25578,28303
16,25990,27807
16,26403,25958
16,26815,26121
16,27227,23897
16,27638,23992
16,28052,22480
16,28463,21956
16,28875,23250
16,29288,21127
16,29700,19484
16,30112,17888
16,30525,20684
16,30937,19260
16,31348,19097
16,31762,18354
16,32173,17435
16,32585,17573
16,32998,17558
16,33410,16940
16,33822,16232
16,34235,17713
16,34647,16527
16,35058,17303
16,35472,15801
16,35883,16316
16,36295,16918
16,36707,15692
16,37120,14923
16,37532,16582
16,37943,14463
16,38357,15231
16,38768,14282
16,39180,16062
16,39593,14855
16,40005,14030
16,40417,14906
16,40830,15367
16,41242,17030
16,41653,15007
16,42067,16178
16,42478,15692
16,42890,15445
16,43303,14402
16,43715,14866
16,44127,15130
16,44540,16805
16,44952,16565
16,45363,22214
16,45775,32336
16,46188,51933
16,46600,95923
16,47012,170425
16,47425,298996
16,47837,484596
16,48248,739571
16,48662,1067889
16,49073,1438265
16,49485,1870866
16,49898,2303720
16,50310,2641112
16,50722,2839201
16,51135,2812217
16,51547,2623874
16,51958,2332838
16,52372,1993184
16,52783,1654514
16,53195,1352606
16,53608,1087187
16,54020,850116
16,54432,662565
16,54843,513227
16,55257,401806
16,55668,320816
16,56080,259955
16,56493,213545
16,56905,183107
16,57317,159269
16,57730,141636
16,58142,129013
16,58553,114291
16,58967,104166
16,59378,95287
16,59790,89837
16,60203,82970
16,60615,76067
16,61027,68856
16,61440,65809
16,61852,59311
16,62263,58113
16,62677,53513
16,63088,53889
16,63500,52148
16,63912,47608
16,64325,47221
16,64737,44537
16,65148,43954
16,65562,41824
16,65973,42304
16,66385,37952
16,66798,39207
16,67210,37529
16,67622,35162
16,68035,36853
16,68447,35313
16,68858,35210
16,69272,35857
16,69683,38551
16,70095,41626
16,70508,46129
16,70920,59075
16,71332,88777
16,71745,146242
16,72157,230191
16,72568,351685
16,72980,499100
16,73393,643137
16,73805,759945
16,74217,834060
16,74630,838385
16,75042,788057
16,75453,677123
16,75867,566338
16,76278,457275
16,76690,377518
16,77103,338666
16,77515,335065
16,77927,386770
16,78340,476396
16,78752,612060
16,79163,778359
16,79577,945854
16,79988,1126394
16,80400,1267852
16,80813,1372094
16,81225,1460980
16,81637,1486880
16,82048,1479469
16,82462,1386855
16,82873,1231824
16,83285,1036637
16,83698,841444
16,84110,675994
16,84522,524379
16,84935,411121
16,85347,327865
16,85758,265920
16,86172,221093
16,86583,188937
16,86995,163992
16,87408,147129
16,87820,132965
16,88232,118829
16,88645,107857
16,89057,97321
16,89468,89994
16,89882,83754
16,90293,78824
16,90705,71737
16,91117,68269
16,91530,62216
16,91942,58462
16,92353,56888
16,92767,51983
16,93178,50483
16,93590,47499
16,94003,47829
16,94415,44263
16,94827,44036
16,95240,42578
16,95652,41784
16,96063,37623
16,96477,37931
16,96888,38521
16,97300,35960
16,97713,36333
16,98125,33661
16,98537,30530
16,98950,32332
16,99362,32756
16,99773,31956
17,00185,29866
17,00598,29112
17,01010,30179
17,01422,25748
17,01835,29776
17,02247,29903
17,02658,37006
17,03072,50329
17,03483,74477
17,03895,120952
17,04308,194364
17,04720,301482
17,05132,445765
17,05545,628873
17,05957,815544
17,06368,1001823
17,06782,1127996
17,07193,1181657
17,07605,1123042
17,08018,993923
17,08430,824929
17,08842,665935
17,09255,521377
17,09667,397278
17,10078,316613
17,10490,248989
17,10903,209244
17,11315,176444
17,11727,152595
17,12140,133261
17,12552,119893
17,12963,104788
17,13377,94896
17,13788,85717
17,14200,77220
17,14613,73932
17,15025,66733
17,15437,64507
17,15850,61231
17,16262,56187
17,16673,53937
17,17087,53139
17,17498,51157
17,17910,49208
17,18323,47459
17,18735,45747
17,19147,46884
17,19558,43606
17,19972,42259
17,20383,40602
17,20795,37822
17,21208,36371
17,21620,36257
17,22032,32237
17,22445,32815
17,22857,32351
17,23268,32205
17,23682,31312
17,24093,30464
17,24505,30929
17,24918,29640
17,25330,29078
17,25742,29553
17,26155,27461
17,26567,27918
17,26978,25878
17,27392,29205
17,27803,28674
17,28215,29061
17,28627,30697
17,29040,34731
17,29452,47048
17,29863,70749
17,30277,112705
17,30688,183342
17,31100,289982
17,31513,417685
17,31925,568890
17,32337,713202
17,32750,830330
17,33162,893962
17,33573,897741
17,33987,844467
17,34398,744983
17,34810,628326
17,35223,507874
17,35635,402566
17,36047,318814
17,36460,256581
17,36872,201690
17,37283,166585
17,37695,141260
17,38108,120427
17,38520,107744
17,38932,102537
17,39345,97022
17,39757,113114
17,40168,135581
17,40582,176906
17,40993,246615
17,41405,329794
17,41818,422361
17,42230,528369
17,42642,602376
17,43055,650672
17,43467,663143
17,43878,624801
17,44292,551755
17,44703,481188
17,45115,395365
17,45528,322140
17,45940,257667
17,46352,209439
17,46763,168693
17,47177,139759
17,47588,116035
17,48000,100569
17,48413,88097
17,48825,78145
17,49237,68633
17,49650,64346
17,50062,58855
17,50473,56948
17,50887,49075
17,51298,49105
17,51710,44450
17,52123,44355
17,52535,40298
17,52947,42015
17,53360,37540
17,53772,35363
17,54183,36592
17,54597,34095
17,55008,32034
17,55420,32468
17,55832,32722
17,56245,30560
17,56657,30016
17,57068,30181
17,57482,30284
17,57893,27662
17,58305,28872
17,58718,28128
17,59130,26451
17,59542,26465
17,59955,26108
17,60367,27055
17,60778,27417
17,61192,27290
17,61603,32226
17,62015,38693
17,62428,52880
17,62840,80994
17,63252,124115
17,63665,193421
17,64077,292797
17,64488,429315
17,64900,607684
17,65313,814978
17,65725,1065920
17,66137,1344076
17,66550,1616495
17,66962,1864954
17,67373,2046349
17,67787,2131567
17,68198,2017367
17,68610,1812520
17,69023,1519933
17,69435,1211216
17,69847,940019
17,70260,732928
17,70672,583777
17,71083,467915
17,71497,384376
17,71908,321216
17,72320,280095
17,72733,244409
17,73145,216964
17,73557,192195
17,73968,174581
17,74382,159301
17,74793,144870
17,75205,136100
17,75618,127332
17,76030,117103
17,76442,107280
17,76855,100161
17,77267,95466
17,77678,89017
17,78092,85446
17,78503,79982
17,78915,76230
17,79328,74435
17,79740,70394
17,80152,65667
17,80565,62345
17,80977,61027
17,81388,59598
17,81802,57643
17,82213,55931
17,82625,53286
17,83037,52050
17,83450,50805
17,83862,49468
17,84273,47712
17,84687,46492
17,85098,42926
17,85510,43005
17,85923,44758
17,86335,41773
17,86747,40739
17,87160,40260
17,87572,41200
17,87983,38081
17,88397,37617
17,88808,37380
17,89220,34755
17,89633,35221
17,90045,33363
17,90457,33149
17,90870,35435
17,91282,32731
17,91693,33775
17,92105,32607
17,92518,33264
17,92930,31125
17,93342,31017
17,93755,31234
17,94167,30497
17,94578,32467
17,94992,32581
17,95403,30272
17,95815,32732
17,96228,31027
17,96640,35971
17,97052,38907
17,97465,50512
17,97877,71492
17,98288,104592
17,98702,159360
17,99113,235136
17,99525,339662
17,99938,472629
18,00350,614566
18,00762,755495
18,01173,874021
18,01587,949776
18,01998,967623
18,02410,934226
18,02823,863419
18,03235,756937
18,03647,636535
18,04060,530356
18,04472,433559
18,04883,349889
18,05297,292785
18,05708,245268
18,06120,208425
18,06533,180853
18,06945,162880
18,07357,143628
18,07770,124830
18,08182,116041
18,08593,108342
18,09007,97590
18,09418,92849
18,09830,86006
18,10242,82368
18,10655,73825
18,11067,70686
18,11478,65122
18,11892,63102
18,12303,61078
18,12715,56159
18,13128,56686
18,13540,53473
18,13952,51353
18,14365,51555
18,14777,49914
18,15188,51612
18,15602,49370
18,16013,49486
18,16425,48998
18,16838,47860
18,17250,46661
18,17662,42634
18,18075,41076
18,18487,40852
18,18898,38647
18,19310,37917
18,19723,35429
18,20135,35132
18,20547,32775
18,20960,31152
18,21372,32239
18,21783,30294
18,22197,31967
18,22608,30751
18,23020,30112
18,23433,28349
18,23845,28602
18,24257,27800
18,24670,28529
18,25082,28687
18,25493,27337
18,25907,27863
18,26318,29412
18,26730,28024
18,27143,27892
18,27555,28129
18,27967,26815
18,28378,26890
18,28792,27184
18,29203,25159
18,29615,26617
18,30028,26053
18,30440,24404
18,30852,23911
18,31265,24722
18,31677,24516
18,32088,25373
18,32502,24457
18,32913,25925
18,33325,25364
18,33738,26086
18,34150,26616
18,34562,28087
18,34975,27886
18,35387,26916
18,35798,26410
18,36212,27791
18,36623,25142
18,37035,24946
18,37447,23933
18,37860,24709
18,38272,21989
18,38683,22441
18,39097,21211
18,39508,21506
18,39920,20969
18,40333,19848
18,40745,20919
18,41157,21556
18,41570,20663
18,41982,20883
18,42393,19721
18,42807,20171
18,43218,19498
18,43630,20354
18,44043,20711
18,44455,18937
18,44867,20630
18,45280,21368
18,45692,18101
18,46103,19483
18,46515,19065
18,46928,20434
18,47340,20436
18,47752,19722
18,48165,20194
18,48577,22039
18,48988,20989
18,49402,23031
18,49813,21748
18,50225,22514
18,50638,21475
18,51050,21461
18,51462,21126
18,51875,21155
18,52287,19899
18,52698,19565
18,53112,20314
18,53523,19305
18,53935,20206
18,54348,19975
18,54760,19883
18,55172,20284
18,55583,20727
18,55997,19308
18,56408,21008
18,56820,19820
18,57233,22175
18,57645,21523
18,58057,22505
18,58470,22509
18,58882,20011
18,59293,17665
18,59707,19377
18,60118,18818
18,60530,19504
18,60943,19597
18,61355,20900
18,61767,18568
18,62180,18159
18,62592,18513
18,63003,16990
18,63417,18847
18,63828,17495
18,64240,19130
18,64652,16599
18,65065,17492
18,65477,19530
18,65888,18259
18,66302,20306
18,66713,19358
18,67125,20242
18,67538,19246
18,67950,19062
18,68362,18332
18,68775,18925
18,69187,17801
18,69598,18816
18,70012,19442
18,70423,18884
18,70835,18875
18,71248,18076
18,71660,17107
18,72072,18764
18,72485,18268
18,72897,16612
18,73308,16277
18,73722,16861
18,74133,17207
18,74545,17709
18,74957,18205
18,75370,16459
18,75782,17020
18,76193,19162
18,76607,17226
18,77018,17136
18,77430,17419
18,77843,19776
18,78255,18776
18,78667,18344
18,79080,19247
18,79492,18809
18,79903,19753
18,80317,18028
18,80728,16409
18,81140,17527
18,81553,16600
18,81965,18034
18,82377,18411
18,82790,17593
18,83202,17666
18,83613,17075
18,84025,17982
18,84438,18513
18,84850,18583
18,85262,18171
18,85675,19157
18,86087,18212
18,86498,17058
18,86912,18449
18,87323,16639
18,87735,17851
18,88148,17973
18,88560,15731
18,88972,18891
18,89385,15882
18,89797,16336
18,90208,17706
18,90622,18391
18,91033,16388
18,91445,16860
18,91858,18572
18,92270,19173
18,92682,17441
18,93093,17278
18,93507,18663
18,93918,16544
18,94330,16947
18,94743,17463
18,95155,16798
18,95567,17195
18,95980,16537
18,96392,16555
18,96803,18111
18,97217,17337
18,97628,16399
18,98040,17888
18,98453,16441
18,98865,16325
18,99277,18594
18,99690,16553
19,00102,17291
19,00513,17697
19,00927,19165
19,01338,17939
19,01750,18317
19,02162,17804
19,02575,15716
19,02987,16936
19,03398,16606
19,03812,18935
19,04223,22320
19,04635,29249
19,05048,38026
19,05460,52483
19,05872,75986
19,06285,108080
19,06697,150016
19,07108,202097
19,07522,267101
19,07933,333888
19,08345,385144
19,08758,428748
19,09170,463247
19,09582,478780
19,09995,466771
19,10407,435517
19,10818,400025
19,11230,350156
19,11643,302598
19,12055,259577
19,12467,219571
19,12880,187721
19,13292,160147
19,13703,136560
19,14117,122970
19,14528,103074
19,14940,91221
19,15353,81232
19,15765,73777
19,16177,65727
19,16590,61649
19,17002,57210
19,17413,52816
19,17827,49418
19,18238,46660
19,18650,43617
19,19063,44083
19,19475,40111
19,19887,40752
19,20298,38178
19,20712,36069
19,21123,35042
19,21535,34177
19,21948,34570
19,22360,32334
19,22772,30628
19,23185,30857
19,23597,28549
19,24008,32688
19,24422,28733
19,24833,28572
19,25245,27370
19,25658,28218
19,26070,26444
19,26482,26630
19,26895,27417
19,27307,26014
19,27718,28272
19,28132,27337
19,28543,23806
19,28955,24419
19,29367,24338
19,29780,23702
19,30192,24181
19,30603,23237
19,31017,24772
19,31428,25043
19,31840,24034
19,32253,24027
19,32665,22704
19,33077,22182
19,33490,25311
19,33902,21501
19,34313,23891
19,34727,22110
19,35138,21710
19,35550,20635
19,35963,20673
19,36375,20145
19,36787,21036
19,37200,21228
19,37612,20290
19,38023,18425
19,38435,19116
19,38848,20886
19,39260,18719
19,39672,17291
19,40085,19316
19,40497,19206
19,40908,19145
19,41322,20374
19,41733,19673
19,42145,18751
19,42558,20399
19,42970,20045
19,43382,20156
19,43795,19107
19,44207,18325
19,44618,18373
19,45032,16565
19,45443,17910
19,45855,18298
19,46268,19958
19,46680,17666
19,47092,19301
19,47503,19428
19,47917,17432
19,48328,18774
19,48740,21108
19,49153,17857
19,49565,19089
19,49977,18465
19,50390,16769
19,50802,19387
19,51213,17913
19,51627,18566
19,52038,18650
19,52450,19189
19,52863,20671
19,53275,18120
19,53687,18147
19,54100,19657
19,54512,19783
19,54923,19772
19,55337,20019
19,55748,17315
19,56160,17267
19,56572,17997
19,56985,20615
19,57397,18348
19,57808,18363
19,58222,19513
19,58633,17517
19,59045,17966
19,59458,19078
19,59870,18879
19,60282,18948
19,60695,18259
19,61107,17693
19,61518,19238
19,61932,18438
19,62343,18680
19,62755,19884
19,63168,19616
19,63580,18713
19,63992,19715
19,64405,17688
19,64817,18710
19,65228,17782
19,65640,16838
19,66053,18651
19,66465,18239
19,66877,18188
19,67290,16698
19,67702,17873
19,68113,18445
19,68527,17829
19,68938,16314
19,69350,17280
19,69763,17811
19,70175,18242
19,70587,18475
19,71000,18657
19,71412,19153
19,71823,18409
19,72237,19305
19,72648,19337
19,73060,20932
19,73473,19480
19,73885,17864
19,74297,18679
19,74708,19609
19,75122,18437
19,75533,18246
19,75945,17524
19,76358,20255
19,76770,17970
19,77182,17945
19,77595,18517
19,78007,18215
19,78418,20144
19,78832,20312
19,79243,20939
19,79655,20662
19,80068,20578
19,80480,23747
19,80892,20539
19,81305,20834
19,81717,19379
19,82128,19084
19,82542,17235
19,82953,19070
19,83365,19427
19,83777,18434
19,84190,18883
