D:\MassHunter\GCMS\1\data\Amal\Constant flow\110C\110C_1ml-min_6C-min_1.D Tue Jul 30 17:52:01 2024
Start of data points
5,59112	26208
5,59525	25150
5,59937	25138
5,60348	23869
5,60762	24772
5,61173	23920
5,61585	23923
5,61997	23319
5,62410	23948
5,62822	23072
5,63233	23218
5,63647	22693
5,64058	21018
5,64470	23551
5,64883	23419
5,65295	24017
5,65707	23001
5,66120	22613
5,66532	21637
5,66943	21884
5,67357	23298
5,67768	21950
5,68180	21784
5,68593	20822
5,69005	22551
5,69417	21100
5,69830	22121
5,70242	20794
5,70653	21373
5,71065	21164
5,71478	21138
5,71890	20563
5,72302	20927
5,72715	20822
5,73127	20690
5,73538	19925
5,73952	18980
5,74363	21396
5,74775	20371
5,75188	21101
5,75600	21034
5,76012	21375
5,76425	19765
5,76837	19632
5,77248	19720
5,77662	20248
5,78073	19352
5,78485	20227
5,78898	20181
5,79310	19837
5,79722	18544
5,80133	19851
5,80547	19091
5,80958	18417
5,81370	17809
5,81783	18556
5,82195	18837
5,82607	18766
5,83020	19003
5,83432	18314
5,83843	18830
5,84257	19201
5,84668	18778
5,85080	17577
5,85493	19340
5,85905	18188
5,86317	17959
5,86730	18337
5,87142	18418
5,87553	17619
5,87967	18108
5,88378	17140
5,88790	17977
5,89202	16708
5,89615	18635
5,90027	17526
5,90438	18131
5,90852	17723
5,91263	17863
5,91675	18247
5,92088	16269
5,92500	16553
5,92912	17459
5,93325	17870
5,93737	16408
5,94148	16415
5,94562	16968
5,94973	15527
5,95385	17968
5,95798	17149
5,96210	17728
5,96622	17467
5,97035	17159
5,97447	15490
5,97858	16062
5,98270	16884
5,98683	16208
5,99095	17129
5,99507	16036
5,99920	16067
6,00332	17259
6,00743	17322
6,01157	18075
6,01568	17453
6,01980	18479
6,02393	17686
6,02805	15867
6,03217	18477
6,03630	17360
6,04042	18016
6,04453	15959
6,04867	17321
6,05278	16622
6,05690	15731
6,06103	16714
6,06515	17357
6,06927	18378
6,07338	20024
6,07752	21681
6,08163	26893
6,08575	35497
6,08988	44612
6,09400	57991
6,09812	72161
6,10225	84684
6,10637	94818
6,11048	99262
6,11462	103400
6,11873	103969
6,12285	103846
6,12698	101014
6,13110	98104
6,13522	91132
6,13935	89859
6,14347	83332
6,14758	82082
6,15172	79506
6,15583	73935
6,15995	69861
6,16407	67074
6,16820	63470
6,17232	63022
6,17643	57716
6,18057	56070
6,18468	54405
6,18880	51833
6,19293	47661
6,19705	45743
6,20117	42737
6,20530	45572
6,20942	40396
6,21353	39608
6,21767	39569
6,22178	38479
6,22590	35690
6,23003	33739
6,23415	33113
6,23827	31343
6,24240	30537
6,24652	27887
6,25063	26441
6,25475	24431
6,25888	24140
6,26300	23096
6,26712	22141
6,27125	21748
6,27537	20968
6,27948	20673
6,28362	19033
6,28773	17392
6,29185	18235
6,29598	17235
6,30010	16322
6,30422	16205
6,30835	16525
6,31247	14663
6,31658	14802
6,32072	15590
6,32483	15134
6,32895	14607
6,33308	15012
6,33720	15430
6,34132	14326
6,34543	13681
6,34957	13961
6,35368	14316
6,35780	13277
6,36193	13233
6,36605	13478
6,37017	13491
6,37430	12104
6,37842	12929
6,38253	12386
6,38667	12837
6,39078	12319
6,39490	12075
6,39903	13157
6,40315	12819
6,40727	12065
6,41140	13106
6,41552	12006
6,41963	12110
6,42377	11661
6,42788	12416
6,43200	12723
6,43612	12546
6,44025	12142
6,44437	12060
6,44848	12014
6,45262	11264
6,45673	11679
6,46085	13389
6,46498	11201
6,46910	12102
6,47322	11414
6,47735	11119
6,48147	10843
6,48558	11210
6,48972	10636
6,49383	11270
6,49795	11133
6,50208	11047
6,50620	11113
6,51032	11795
6,51445	10665
6,51857	11054
6,52268	9590
6,52680	10967
6,53093	10527
6,53505	10704
6,53917	10576
6,54330	10569
6,54742	11397
6,55153	9504
6,55567	11010
6,55978	10529
6,56390	10471
6,56803	10468
6,57215	10358
6,57627	10998
6,58040	10530
6,58452	9924
6,58863	10241
6,59277	10486
6,59688	9805
6,60100	10164
6,60513	10584
6,60925	10690
6,61337	10211
6,61748	9107
6,62162	10664
6,62573	10193
6,62985	10349
6,63398	10763
6,63810	10647
6,64222	9611
6,64635	10063
6,65047	10204
6,65458	10038
6,65872	9769
6,66283	9991
6,66695	9563
6,67108	9634
6,67520	9401
6,67932	10430
6,68345	11048
6,68757	9337
6,69168	9505
6,69582	10545
6,69993	10280
6,70405	9069
6,70817	9769
6,71230	9777
6,71642	9460
6,72053	9779
6,72467	10144
6,72878	9120
6,73290	9492
6,73703	9354
6,74115	9655
6,74527	8747
6,74940	8443
6,75352	9986
6,75763	8759
6,76177	9246
6,76588	9081
6,77000	9359
6,77413	9659
6,77825	9502
6,78237	8618
6,78650	9210
6,79062	9518
6,79473	10487
6,79887	10217
6,80298	9617
6,80710	9688
6,81122	8955
6,81535	8888
6,81947	10532
6,82358	10529
6,82772	9588
6,83183	11180
6,83595	10195
6,84008	10412
6,84420	9718
6,84832	8885
6,85245	9324
6,85657	9636
6,86068	9420
6,86482	10034
6,86893	10194
6,87305	9496
6,87718	9477
6,88130	8730
6,88542	9650
6,88955	9514
6,89367	9037
6,89778	10360
6,90190	8533
6,90603	9564
6,91015	10087
6,91427	9070
6,91840	8441
6,92252	8648
6,92663	9559
6,93077	10007
6,93488	9411
6,93900	9075
6,94313	8824
6,94725	8880
6,95137	8683
6,95550	8861
6,95962	8285
6,96373	7912
6,96787	9008
6,97198	8848
6,97610	7912
6,98023	7546
6,98435	8856
6,98847	9083
6,99258	8674
6,99672	8196
7,00083	9067
7,00495	8399
7,00908	9301
7,01320	7893
7,01732	8822
7,02145	9806
7,02557	9344
7,02968	9359
7,03382	10202
7,03793	9587
7,04205	9784
7,04618	9811
7,05030	10886
7,05442	10486
7,05855	10053
7,06267	10532
7,06678	10988
7,07092	9503
7,07503	9401
7,07915	8805
7,08327	9563
7,08740	9688
7,09152	8836
7,09563	8818
7,09977	9389
7,10388	8509
7,10800	8694
7,11213	9133
7,11625	9109
7,12037	8679
7,12450	9033
7,12862	7657
7,13273	9113
7,13687	7923
7,14098	7864
7,14510	8638
7,14923	7794
7,15335	7659
7,15747	8800
7,16160	8393
7,16572	8277
7,16983	8243
7,17395	7738
7,17808	8089
7,18220	8010
7,18632	7992
7,19045	8073
7,19457	7003
7,19868	7707
7,20282	8028
7,20693	7834
7,21105	7315
7,21518	8649
7,21930	8072
7,22342	7399
7,22755	7448
7,23167	6783
7,23578	7068
7,23992	6697
7,24403	7762
7,24815	7987
7,25228	7788
7,25640	7376
7,26052	7846
7,26463	7926
7,26877	8028
7,27288	7778
7,27700	7211
7,28113	7478
7,28525	7727
7,28937	7776
7,29350	7465
7,29762	8051
7,30173	7504
7,30587	7081
7,30998	7467
7,31410	7818
7,31823	7331
7,32235	6861
7,32647	7264
7,33060	7572
7,33472	7147
7,33883	7286
7,34297	6312
7,34708	6641
7,35120	7431
7,35532	8389
7,35945	7841
7,36357	6682
7,36768	7203
7,37182	7061
7,37593	6770
7,38005	7727
7,38418	8257
7,38830	7442
7,39242	6232
7,39655	6931
7,40067	6387
7,40478	7187
7,40892	7055
7,41303	6872
7,41715	7300
7,42128	7018
7,42540	7281
7,42952	6516
7,43365	7242
7,43777	6646
7,44188	6876
7,44600	6790
7,45013	6569
7,45425	6524
7,45837	6603
7,46250	7238
7,46662	7335
7,47073	6533
7,47487	7406
7,47898	7366
7,48310	8378
7,48723	7356
7,49135	7712
7,49547	7293
7,49960	6867
7,50372	7084
7,50783	7855
7,51197	6780
7,51608	7149
7,52020	7056
7,52433	6774
7,52845	8039
7,53257	6798
7,53668	6986
7,54082	7489
7,54493	6648
7,54905	7121
7,55318	6916
7,55730	6542
7,56142	6594
7,56555	6688
7,56967	7278
7,57378	6688
7,57792	7019
7,58203	6642
7,58615	6852
7,59028	6378
7,59440	7688
7,59852	6251
7,60265	6414
7,60677	7187
7,61088	6799
7,61502	9862
7,61913	12799
7,62325	21295
7,62737	34864
7,63150	50452
7,63562	81752
7,63973	121868
7,64387	178877
7,64798	232316
7,65210	288806
7,65623	349672
7,66035	397221
7,66447	426459
7,66860	452847
7,67272	459189
7,67683	462796
7,68097	449763
7,68508	426193
7,68920	407336
7,69333	381985
7,69745	355271
7,70157	332259
7,70570	307974
7,70982	286319
7,71393	264621
7,71805	240593
7,72218	222899
7,72630	207984
7,73042	189675
7,73455	170401
7,73867	156808
7,74278	142372
7,74692	124891
7,75103	113226
7,75515	101243
7,75928	89211
7,76340	78882
7,76752	71039
7,77165	63306
7,77577	56479
7,77988	50564
7,78402	43358
7,78813	39761
7,79225	35831
7,79638	31255
7,80050	29338
7,80462	27395
7,80873	23261
7,81287	22086
7,81698	19889
7,82110	19624
7,82523	16885
7,82935	16398
7,83347	14370
7,83760	13957
7,84172	12853
7,84583	12772
7,84997	12245
7,85408	12198
7,85820	11906
7,86233	11176
7,86645	10383
7,87057	9274
7,87470	8952
7,87882	9236
7,88293	9494
7,88707	8765
7,89118	9471
7,89530	9640
7,89942	9273
7,90355	8867
7,90767	9670
7,91178	10206
7,91592	9944
7,92003	9059
7,92415	9225
7,92828	9584
7,93240	9096
7,93652	8523
7,94065	8635
7,94477	7377
7,94888	7221
7,95302	7862
7,95713	7760
7,96125	7469
7,96538	7480
7,96950	7222
7,97362	7290
7,97775	6491
7,98187	7053
7,98598	6590
7,99010	6940
7,99423	6806
7,99835	6633
8,00247	6896
8,00660	5646
8,01072	5892
8,01483	6587
8,01897	6719
8,02308	6122
8,02720	6654
8,03133	5326
8,03545	6659
8,03957	6657
8,04370	6430
8,04782	6092
8,05193	5899
8,05607	6506
8,06018	5231
8,06430	5841
8,06843	5856
8,07255	6781
8,07667	6173
8,08078	6542
8,08492	6373
8,08903	5816
8,09315	5749
8,09728	5137
8,10140	5700
8,10552	6474
8,10965	6109
8,11377	6037
8,11788	5252
8,12202	5497
8,12613	5889
8,13025	5558
8,13438	5515
8,13850	5356
8,14262	5517
8,14675	6217
8,15087	5084
8,15498	5357
8,15912	5060
8,16323	5396
8,16735	5753
8,17147	5197
8,17560	5561
8,17972	5175
8,18383	4714
8,18797	5316
8,19208	5617
8,19620	5507
8,20033	5086
8,20445	4975
8,20857	4766
8,21270	4691
8,21682	5348
8,22093	5464
8,22507	5279
8,22918	4875
8,23330	4857
8,23743	4520
8,24155	5171
8,24567	5124
8,24980	5643
8,25392	6004
8,25803	4768
8,26215	5122
8,26628	4630
8,27040	5366
8,27452	5195
8,27865	4424
8,28277	4935
8,28688	4830
8,29102	4886
8,29513	4834
8,29925	4965
8,30338	5243
8,30750	5337
8,31162	5420
8,31575	5120
8,31987	5294
8,32398	5210
8,32812	5831
8,33223	5902
8,33635	5199
8,34048	4936
8,34460	5335
8,34872	5051
8,35283	4656
8,35697	4292
8,36108	5249
8,36520	4559
8,36933	5088
8,37345	5446
8,37757	5200
8,38170	5031
8,38582	4408
8,38993	4780
8,39407	4990
8,39818	5181
8,40230	4842
8,40643	4958
8,41055	4572
8,41467	5670
8,41880	4900
8,42292	5000
8,42703	4902
8,43117	4736
8,43528	5296
8,43940	4921
8,44353	4686
8,44765	5058
8,45177	4506
8,45588	5120
8,46002	5077
8,46413	4676
8,46825	4426
8,47238	4872
8,47650	4424
8,48062	4519
8,48475	4415
8,48887	4966
8,49298	4431
8,49712	4875
8,50123	5143
8,50535	4008
8,50948	4768
8,51360	4668
8,51772	4675
8,52185	4909
8,52597	4194
8,53008	5416
8,53422	4841
8,53833	4338
8,54245	4659
8,54657	4399
8,55070	4632
8,55482	4097
8,55893	4623
8,56307	4196
8,56718	4898
8,57130	3813
8,57543	4670
8,57955	4464
8,58367	4056
8,58780	4270
8,59192	4696
8,59603	6185
8,60017	8019
8,60428	12857
8,60840	21236
8,61253	32767
8,61665	50427
8,62077	77483
8,62490	107941
8,62902	145833
8,63313	182682
8,63725	222738
8,64138	253969
8,64550	283335
8,64962	300166
8,65375	312031
8,65787	311439
8,66198	300476
8,66612	289532
8,67023	272352
8,67435	252022
8,67848	232936
8,68260	215059
8,68672	194920
8,69085	176765
8,69497	157971
8,69908	144481
8,70322	121114
8,70733	108438
8,71145	95674
8,71558	84771
8,71970	74116
8,72382	61141
8,72793	55181
8,73207	47771
8,73618	43496
8,74030	35742
8,74443	33288
8,74855	27603
8,75267	24081
8,75680	22833
8,76092	19741
8,76503	17456
8,76917	16423
8,77328	13768
8,77740	13413
8,78153	12262
8,78565	11006
8,78977	11327
8,79390	10079
8,79802	10322
8,80213	9367
8,80627	8623
8,81038	8514
8,81450	8829
8,81862	8444
8,82275	8055
8,82687	8484
8,83098	8358
8,83512	8333
8,83923	7304
8,84335	7718
8,84748	7989
8,85160	7649
8,85572	7575
8,85985	7396
8,86397	7140
8,86808	6485
8,87222	6664
8,87633	7390
8,88045	6846
8,88458	6540
8,88870	6481
8,89282	5723
8,89695	6367
8,90107	5707
8,90518	5341
8,90930	6086
8,91343	5815
8,91755	5271
8,92167	5931
8,92580	5811
8,92992	5244
8,93403	5352
8,93817	4769
8,94228	4767
8,94640	4737
8,95053	4341
8,95465	4598
8,95877	3937
8,96290	5105
8,96702	4267
8,97113	4758
8,97527	4996
8,97938	5187
8,98350	4721
8,98763	4252
8,99175	4372
8,99587	4569
8,99998	4444
9,00412	4417
9,00823	3988
9,01235	5163
9,01648	4160
9,02060	4180
9,02472	4417
9,02885	4206
9,03297	4830
9,03708	5026
9,04122	5594
9,04533	5570
9,04945	5440
9,05358	5722
9,05770	5301
9,06182	5082
9,06595	4855
9,07007	4485
9,07418	5546
9,07832	4228
9,08243	4381
9,08655	3888
9,09067	4705
9,09480	3837
9,09892	4490
9,10303	3613
9,10717	4271
9,11128	3836
9,11540	4308
9,11953	2794
9,12365	3322
9,12777	3857
9,13190	3857
9,13602	3412
9,14013	3772
9,14427	3757
9,14838	3424
9,15250	4051
9,15663	4001
9,16075	3769
9,16487	3753
9,16900	4232
9,17312	3783
9,17723	3264
9,18135	4485
9,18548	3993
9,18960	3718
9,19372	3377
9,19785	3561
9,20197	3359
9,20608	4177
9,21022	3736
9,21433	3654
9,21845	3709
9,22258	3524
9,22670	3204
9,23082	4138
9,23495	3620
9,23907	3212
9,24318	3070
9,24732	4167
9,25143	3075
9,25555	3700
9,25968	3149
9,26380	3107
9,26792	3094
9,27203	3804
9,27617	3274
9,28028	2905
9,28440	3570
9,28853	3273
9,29265	2950
9,29677	3751
9,30090	3430
9,30502	3246
9,30913	3372
9,31327	3684
9,31738	3580
9,32150	3796
9,32563	3162
9,32975	3330
9,33387	3807
9,33800	3388
9,34212	3166
9,34623	3473
9,35037	3350
9,35448	3638
9,35860	3033
9,36272	3131
9,36685	3719
9,37097	2987
9,37508	3924
9,37922	3562
9,38333	3692
9,38745	3528
9,39158	3499
9,39570	3848
9,39982	3083
9,40395	3146
9,40807	2924
9,41218	3254
9,41632	3313
9,42043	2832
9,42455	3495
9,42868	3299
9,43280	2832
9,43692	3456
9,44105	3262
9,44517	3592
9,44928	3310
9,45340	3971
9,45753	3116
9,46165	3334
9,46577	3807
9,46990	3739
9,47402	3934
9,47813	3468
9,48227	3324
9,48638	4065
9,49050	3584
9,49463	3257
9,49875	3594
9,50287	3143
9,50700	3589
9,51112	3067
9,51523	3051
9,51937	3825
9,52348	2890
9,52760	3364
9,53173	3026
9,53585	3327
9,53997	3426
9,54408	3021
9,54822	3116
9,55233	3448
9,55645	3637
9,56058	3128
9,56470	3225
9,56882	3597
9,57295	3097
9,57707	3226
9,58118	3205
9,58532	3076
9,58943	3272
9,59355	2849
9,59768	2882
9,60180	3361
9,60592	3230
9,61005	2917
9,61417	3262
9,61828	3752
9,62242	3581
9,62653	3219
9,63065	3374
9,63477	3580
9,63890	3570
9,64302	3103
9,64713	3736
9,65127	3289
9,65538	4150
9,65950	3550
9,66363	4820
9,66775	5719
9,67187	7191
9,67600	12673
9,68012	20686
9,68423	38217
9,68837	64134
9,69248	103464
9,69660	162195
9,70073	237705
9,70485	329459
9,70897	425836
9,71310	522571
9,71722	620915
9,72133	697601
9,72545	748513
9,72958	787215
9,73370	792503
9,73782	786974
9,74195	743052
9,74607	694862
9,75018	631530
9,75432	561923
9,75843	492397
9,76255	434917
9,76668	370971
9,77080	314249
9,77492	265178
9,77905	226885
9,78317	191939
9,78728	157214
9,79142	131066
9,79553	110868
9,79965	93037
9,80378	78372
9,80790	64280
9,81202	57692
9,81613	48634
9,82027	42988
9,82438	37452
9,82850	34288
9,83263	30250
9,83675	26600
9,84087	23612
9,84500	21633
9,84912	20102
9,85323	17943
9,85737	17889
9,86148	15289
9,86560	15172
9,86973	13939
9,87385	13083
9,87797	11851
9,88210	12036
9,88622	11841
9,89033	10766
9,89447	11858
9,89858	9885
9,90270	9707
9,90682	8471
9,91095	8352
9,91507	8340
9,91918	8068
9,92332	7308
9,92743	7345
9,93155	8153
9,93568	5939
9,93980	6173
9,94392	6153
9,94805	7325
9,95217	5544
9,95628	5545
9,96042	4800
9,96453	5971
9,96865	5143
9,97278	6005
9,97690	5068
9,98102	5145
9,98515	4502
9,98927	5284
9,99338	4810
9,99750	4288
10,00163	5030
10,00575	4101
10,00987	4137
10,01400	4012
10,01812	3895
10,02223	4345
10,02637	4037
10,03048	3777
10,03460	4147
10,03873	4339
10,04285	4205
10,04697	4259
10,05110	4128
10,05522	3865
10,05933	3161
10,06347	3628
10,06758	3669
10,07170	3614
10,07583	3975
10,07995	4007
10,08407	3837
10,08820	3480
10,09232	3905
10,09643	3428
10,10055	3428
10,10468	3829
10,10880	3449
10,11292	3416
10,11705	3519
10,12117	2793
10,12528	3567
10,12942	3587
10,13353	3415
10,13765	3716
10,14178	3712
10,14590	3241
10,15002	2858
10,15415	3191
10,15827	3021
10,16238	2640
10,16652	2750
10,17063	3549
10,17475	2881
10,17888	2830
10,18300	3133
10,18712	2994
10,19123	3198
10,19537	3154
10,19948	2794
10,20360	3119
10,20773	3239
10,21185	2961
10,21597	2694
10,22010	3082
10,22422	3115
10,22833	2932
10,23247	2729
10,23658	3219
10,24070	3031
10,24483	3323
10,24895	2748
10,25307	2860
10,25720	3441
10,26132	3024
10,26543	3014
10,26957	3154
10,27368	2973
10,27780	3172
10,28192	3606
10,28605	3708
10,29017	4422
10,29428	4446
10,29842	4839
10,30253	4574
10,30665	3163
10,31078	4241
10,31490	3077
10,31902	3668
10,32315	3149
10,32727	2879
10,33138	2431
10,33552	2906
10,33963	3077
10,34375	3112
10,34788	2831
10,35200	3057
10,35612	2590
10,36025	2783
10,36437	2331
10,36848	2244
10,37260	3353
10,37673	2862
10,38085	2972
10,38497	2884
10,38910	3704
10,39322	4511
10,39733	4338
10,40147	4444
10,40558	5713
10,40970	6087
10,41383	5480
10,41795	5893
10,42207	6295
10,42620	6128
10,43032	6722
10,43443	5868
10,43857	6039
10,44268	5367
10,44680	5213
10,45093	4581
10,45505	4609
10,45917	4772
10,46328	4715
10,46742	4206
10,47153	3654
10,47565	3987
10,47978	4470
10,48390	3338
10,48802	2795
10,49215	3332
10,49627	2873
10,50038	3216
10,50452	2897
10,50863	2877
10,51275	2499
10,51688	2746
10,52100	2920
10,52512	2413
10,52925	2878
10,53337	2194
10,53748	2954
10,54162	2583
10,54573	2251
10,54985	2564
10,55397	2019
10,55810	2093
10,56222	2189
10,56633	2282
10,57047	2712
10,57458	2456
10,57870	1936
10,58283	2431
10,58695	2426
10,59107	2449
10,59520	2503
10,59932	2635
10,60343	2582
10,60757	2117
10,61168	3004
10,61580	2697
10,61993	2656
10,62405	2436
10,62817	2034
10,63230	2304
10,63642	2280
10,64053	2391
10,64465	2579
10,64878	1601
10,65290	2338
10,65702	2066
10,66115	2092
10,66527	2125
10,66938	2053
10,67352	2261
10,67763	2119
10,68175	2256
10,68588	2617
10,69000	2348
10,69412	2774
10,69825	2272
10,70237	2547
10,70648	1936
10,71062	2308
10,71473	1868
10,71885	2771
10,72298	2743
10,72710	2035
10,73122	1841
10,73533	2088
10,73947	2458
10,74358	2548
10,74770	1677
10,75183	2499
10,75595	2259
10,76007	2431
10,76420	2316
10,76832	2315
10,77243	1936
10,77657	1751
10,78068	2549
10,78480	2042
10,78893	1977
10,79305	2764
10,79717	2640
10,80130	2920
10,80542	3915
10,80953	6818
10,81367	10762
10,81778	20548
10,82190	33746
10,82602	54956
10,83015	89039
10,83427	133644
10,83838	183930
10,84252	244607
10,84663	305827
10,85075	364275
10,85488	414730
10,85900	449230
10,86312	473270
10,86725	467337
10,87137	453574
10,87548	421615
10,87962	385716
10,88373	343776
10,88785	292317
10,89198	250034
10,89610	209071
10,90022	171888
10,90435	143585
10,90847	113228
10,91258	92324
10,91670	79340
10,92083	62156
10,92495	53252
10,92907	44348
10,93320	35341
10,93732	31706
10,94143	27209
10,94557	23273
10,94968	20735
10,95380	18442
10,95793	16994
10,96205	15389
10,96617	12520
10,97030	12060
10,97442	11310
10,97853	10587
10,98267	9407
10,98678	9352
10,99090	7518
10,99503	7947
10,99915	7816
11,00327	7213
11,00738	6785
11,01152	6539
11,01563	6337
11,01975	5635
11,02388	5688
11,02800	5889
11,03212	4878
11,03625	4286
11,04037	4409
11,04448	4624
11,04862	4489
11,05273	4027
11,05685	4621
11,06098	3792
11,06510	3690
11,06922	3820
11,07335	4057
11,07747	3459
11,08158	3228
11,08572	2996
11,08983	3611
11,09395	3144
11,09807	3229
11,10220	3404
11,10632	2956
11,11043	3241
11,11457	2881
11,11868	2501
11,12280	2971
11,12693	2774
11,13105	3375
11,13517	3001
11,13930	3189
11,14342	2683
11,14753	2496
11,15167	2966
11,15578	2414
11,15990	2802
11,16403	3202
11,16815	2024
11,17227	2320
11,17640	2723
11,18052	2058
11,18463	2574
11,18875	2329
11,19288	2687
11,19700	2655
11,20112	2556
11,20525	2903
11,20937	2374
11,21348	2243
11,21762	2225
11,22173	2725
11,22585	2653
11,22998	2969
11,23410	2819
11,23822	2113
11,24235	1883
11,24647	2629
11,25058	2667
11,25472	2452
11,25883	2150
11,26295	1732
11,26708	2185
11,27120	1991
11,27532	2135
11,27943	2554
11,28357	2148
11,28768	2161
11,29180	2330
11,29593	1846
11,30005	1925
11,30417	2611
11,30830	1736
11,31242	1728
11,31653	1687
11,32067	1346
11,32478	2524
11,32890	1998
11,33303	1777
11,33715	2408
11,34127	1994
11,34540	1949
11,34952	1973
11,35363	1954
11,35777	2577
11,36188	2180
11,36600	1762
11,37012	2003
11,37425	2265
11,37837	1838
11,38248	2208
11,38662	2095
11,39073	1841
11,39485	1976
11,39898	1858
11,40310	1827
11,40722	1888
11,41135	2163
11,41547	2253
11,41958	3032
11,42372	3098
11,42783	3355
11,43195	4126
11,43608	3676
11,44020	3614
11,44432	3296
11,44845	3771
11,45257	3568
11,45668	3865
11,46080	2686
11,46493	2996
11,46905	2888
11,47317	2273
11,47730	2018
11,48142	1768
11,48553	2445
11,48967	2588
11,49378	2022
11,49790	2551
11,50203	1782
11,50615	2101
11,51027	1857
11,51440	2228
11,51852	1879
11,52263	2255
11,52677	1945
11,53088	1555
11,53500	1834
11,53913	1673
11,54325	2176
11,54737	2503
11,55148	2627
11,55562	2786
11,55973	2764
11,56385	2619
11,56798	2767
11,57210	4271
11,57622	3314
11,58035	3241
11,58447	2751
11,58858	3388
11,59272	2686
11,59683	2789
11,60095	2130
11,60508	2720
11,60920	2580
11,61332	2547
11,61745	2658
11,62157	2296
11,62568	1873
11,62982	1780
11,63393	1873
11,63805	2111
11,64217	1909
11,64630	1914
11,65042	1697
11,65453	1815
11,65867	1682
11,66278	2032
11,66690	1853
11,67103	2212
11,67515	1725
11,67927	2264
11,68340	1692
11,68752	1846
11,69163	1476
11,69577	1912
11,69988	1527
11,70400	1757
11,70813	1600
11,71225	1800
11,71637	1421
11,72050	1639
11,72462	1622
11,72873	1678
11,73287	1928
11,73698	1869
11,74110	1452
11,74522	1609
11,74935	2153
11,75347	1534
11,75758	1253
11,76172	1736
11,76583	1901
11,76995	1877
11,77408	1800
11,77820	2326
11,78232	1758
11,78645	2025
11,79057	1845
11,79468	1305
11,79882	1605
11,80293	1815
11,80705	1808
11,81118	1396
11,81530	1613
11,81942	1746
11,82355	2009
11,82767	1696
11,83178	1893
11,83590	1615
11,84003	1972
11,84415	1133
11,84827	1855
11,85240	1620
11,85652	1722
11,86063	2307
11,86477	2012
11,86888	1538
11,87300	1701
11,87713	1682
11,88125	1482
11,88537	1902
11,88950	1889
11,89362	1548
11,89773	1555
11,90187	2240
11,90598	1812
11,91010	1213
11,91423	1453
11,91835	975
11,92247	1838
11,92658	1822
11,93072	1959
11,93483	1522
11,93895	1779
11,94308	1606
11,94720	1880
11,95132	1984
11,95545	2896
11,95957	2720
11,96368	4692
11,96782	9915
11,97193	18018
11,97605	30244
11,98018	56307
11,98430	95075
11,98842	151113
11,99255	235334
11,99667	346602
12,00078	471059
12,00492	620451
12,00903	758899
12,01315	892571
12,01727	1014787
12,02140	1093960
12,02552	1108724
12,02963	1080478
12,03377	1022196
12,03788	920239
12,04200	805678
12,04613	670802
12,05025	559426
12,05437	456949
12,05850	359551
12,06262	286469
12,06673	226202
12,07087	182646
12,07498	147836
12,07910	120090
12,08323	97998
12,08735	82734
12,09147	70487
12,09560	58932
12,09972	50383
12,10383	44110
12,10795	39132
12,11208	34364
12,11620	32024
12,12032	28882
12,12445	26784
12,12857	23528
12,13268	21032
12,13682	19792
12,14093	18526
12,14505	17660
12,14918	16213
12,15330	16121
12,15742	14416
12,16155	13340
12,16567	13125
12,16978	13550
12,17392	12251
12,17803	11819
12,18215	11750
12,18628	12978
12,19040	10438
12,19452	11030
12,19863	10113
12,20277	10038
12,20688	9600
12,21100	8819
12,21513	8788
12,21925	8675
12,22337	7161
12,22750	7368
12,23162	6087
12,23573	6311
12,23987	5490
12,24398	5668
12,24810	5407
12,25223	4862
12,25635	4612
12,26047	4402
12,26460	4643
12,26872	3512
12,27283	4150
12,27697	4308
12,28108	3598
12,28520	3469
12,28932	3659
12,29345	3728
12,29757	3348
12,30168	3547
12,30582	3590
12,30993	3429
12,31405	2786
12,31818	3203
12,32230	2922
12,32642	2934
12,33055	2672
12,33467	3309
12,33878	2823
12,34292	2754
12,34703	2546
12,35115	3040
12,35528	2546
12,35940	2710
12,36352	2014
12,36765	2456
12,37177	2291
12,37588	2403
12,38000	1901
12,38413	2011
12,38825	2531
12,39237	2178
12,39650	2310
12,40062	1874
12,40473	2252
12,40887	2178
12,41298	2458
12,41710	2403
12,42123	2146
12,42535	2383
12,42947	2040
12,43360	2325
12,43772	2622
12,44183	2134
12,44597	1698
12,45008	1996
12,45420	2137
12,45833	2169
12,46245	1989
12,46657	2362
12,47068	2002
12,47482	1811
12,47893	2329
12,48305	1482
12,48718	2122
12,49130	1914
12,49542	1087
12,49955	1691
12,50367	1547
12,50778	2039
12,51192	2257
12,51603	1659
12,52015	1927
12,52428	2282
12,52840	1567
12,53252	1535
12,53665	2180
12,54077	1474
12,54488	1779
12,54902	1670
12,55313	1976
12,55725	2037
12,56137	2094
12,56550	1426
12,56962	1739
12,57373	2619
12,57787	1876
12,58198	2368
12,58610	2363
12,59023	2404
12,59435	3458
12,59847	3149
12,60260	3074
12,60672	3394
12,61083	2808
12,61497	2544
12,61908	2601
12,62320	1791
12,62733	2077
12,63145	2087
12,63557	1750
12,63970	2205
12,64382	1773
12,64793	2011
12,65205	1381
12,65618	2467
12,66030	2006
12,66442	1457
12,66855	2121
12,67267	1494
12,67678	1420
12,68092	1514
12,68503	1507
12,68915	1754
12,69328	1901
12,69740	2132
12,70152	2755
12,70565	3007
12,70977	3453
12,71388	3894
12,71802	3728
12,72213	3871
12,72625	2953
12,73038	2148
12,73450	1900
12,73862	1683
12,74273	1511
12,74687	1517
12,75098	1309
12,75510	1504
12,75923	1443
12,76335	1374
12,76747	1495
12,77160	1243
12,77572	1659
12,77983	1789
12,78397	2812
12,78808	4883
12,79220	11024
12,79633	19754
12,80045	36330
12,80457	60849
12,80870	94357
12,81282	137970
12,81693	201104
12,82107	270091
12,82518	340675
12,82930	405167
12,83342	456612
12,83755	488799
12,84167	518018
12,84578	512983
12,84992	484568
12,85403	439235
12,85815	391497
12,86228	331355
12,86640	282863
12,87052	237482
12,87465	186025
12,87877	150112
12,88288	120697
12,88702	97345
12,89113	80563
12,89525	65183
12,89938	53434
12,90350	44987
12,90762	37695
12,91175	31165
12,91587	27708
12,91998	24087
12,92410	21079
12,92823	20567
12,93235	17225
12,93647	15127
12,94060	14783
12,94472	12705
12,94883	11612
12,95297	10273
12,95708	9117
12,96120	8874
12,96533	8087
12,96945	7413
12,97357	7276
12,97770	5170
12,98182	5660
12,98593	6108
12,99007	5002
12,99418	5181
12,99830	4008
13,00243	4146
13,00655	3458
13,01067	3525
13,01478	2800
13,01892	3747
13,02303	2455
13,02715	3266
13,03128	3555
13,03540	2705
13,03952	2906
13,04365	3094
13,04777	2226
13,05188	2444
13,05602	2468
13,06013	1992
13,06425	2406
13,06838	2297
13,07250	2323
13,07662	2063
13,08075	2001
13,08487	1759
13,08898	1777
13,09312	1935
13,09723	2258
13,10135	2061
13,10547	1673
13,10960	1846
13,11372	1749
13,11783	2565
13,12197	3061
13,12608	5225
13,13020	8493
13,13433	18526
13,13845	30726
13,14257	53046
13,14670	85161
13,15082	131076
13,15493	192594
13,15907	264635
13,16318	343495
13,16730	423660
13,17143	495596
13,17555	548780
13,17967	578335
13,18380	584774
13,18792	556795
13,19203	513870
13,19615	458411
13,20028	389062
13,20440	321862
13,20852	263354
13,21265	206035
13,21677	162893
13,22088	126407
13,22502	97073
13,22913	82364
13,23325	66508
13,23738	54164
13,24150	46431
13,24562	36958
13,24975	33189
13,25387	28972
13,25798	25706
13,26212	21440
13,26623	19397
13,27035	16767
13,27448	16207
13,27860	13964
13,28272	13781
13,28685	11811
13,29097	10213
13,29508	10158
13,29920	8630
13,30333	9094
13,30745	8258
13,31157	8170
13,31570	6899
13,31982	5854
13,32393	6665
13,32807	6888
13,33218	5931
13,33630	4579
13,34043	4374
13,34455	4841
13,34867	3840
13,35280	5516
13,35692	3942
13,36103	4321
13,36517	4353
13,36928	3149
13,37340	3132
13,37753	3569
13,38165	2974
13,38577	3232
13,38988	3103
13,39402	2512
13,39813	3103
13,40225	3127
13,40638	2776
13,41050	2504
13,41462	2704
13,41875	2688
13,42287	2415
13,42698	2631
13,43112	2393
13,43523	2262
13,43935	2378
13,44348	2615
13,44760	1739
13,45172	1967
13,45585	1709
13,45997	2500
13,46408	1647
13,46822	2063
13,47233	1965
13,47645	2111
13,48057	2149
13,48470	1890
13,48882	1729
13,49293	1521
13,49707	1950
13,50118	1348
13,50530	1817
13,50943	1692
13,51355	1743
13,51767	1651
13,52180	1593
13,52592	2097
13,53003	1778
13,53417	2113
13,53828	1513
13,54240	1938
13,54653	1922
13,55065	1566
13,55477	1448
13,55890	1231
13,56302	1480
13,56713	1753
13,57125	1519
13,57538	1159
13,57950	1220
13,58362	1599
13,58775	1479
13,59187	1669
13,59598	2066
13,60012	1854
13,60423	1543
13,60835	1842
13,61248	2027
13,61660	1596
13,62072	1945
13,62485	2399
13,62897	1660
13,63308	1549
13,63722	1583
13,64133	2043
13,64545	1723
13,64958	1319
13,65370	2010
13,65782	1337
13,66193	1296
13,66607	1658
13,67018	1738
13,67430	1516
13,67843	1572
13,68255	1356
13,68667	1684
13,69080	1675
13,69492	1624
13,69903	1480
13,70317	1506
13,70728	1359
13,71140	1671
13,71553	1488
13,71965	1456
13,72377	1748
13,72790	1419
13,73202	1405
13,73613	1254
13,74027	1374
13,74438	1815
13,74850	1446
13,75262	1505
13,75675	1406
13,76087	1219
13,76498	1389
13,76912	1124
13,77323	1841
13,77735	1302
13,78148	1523
13,78560	1717
13,78972	1400
13,79385	1763
13,79797	1708
13,80208	1183
13,80622	1133
13,81033	1416
13,81445	1592
13,81858	1410
13,82270	1215
13,82682	919
13,83095	1476
13,83507	1204
13,83918	1468
13,84330	1488
13,84743	1184
13,85155	1588
13,85567	1636
13,85980	1203
13,86392	1125
13,86803	1444
13,87217	1195
13,87628	1154
13,88040	1206
13,88453	1558
13,88865	1268
13,89277	1075
13,89690	1593
13,90102	1278
13,90513	1215
13,90927	1648
13,91338	812
13,91750	1594
13,92163	1380
13,92575	725
13,92987	1592
13,93398	1407
13,93812	1812
13,94223	3105
13,94635	4631
13,95048	9831
13,95460	18274
13,95872	34489
13,96285	58433
13,96697	98848
13,97108	150355
13,97522	209665
13,97933	281955
13,98345	359448
13,98758	434849
13,99170	499112
13,99582	544663
13,99995	563008
14,00407	561171
14,00818	523352
14,01232	480430
14,01643	420312
14,02055	356636
14,02467	296163
14,02880	237005
14,03292	188060
14,03703	152949
14,04117	117531
14,04528	95018
14,04940	76194
14,05353	61678
14,05765	52184
14,06177	43275
14,06590	34026
14,07002	31581
14,07413	26790
14,07827	24524
14,08238	20644
14,08650	17174
14,09063	16744
14,09475	14112
14,09887	13046
14,10300	11792
14,10712	10535
14,11123	10166
14,11535	9182
14,11948	8145
14,12360	7356
14,12772	6922
14,13185	6494
14,13597	5444
14,14008	5430
14,14422	5193
14,14833	5251
14,15245	5510
14,15658	4352
14,16070	4854
14,16482	4407
14,16895	3668
14,17307	3543
14,17718	3940
14,18132	2875
14,18543	3461
14,18955	3240
14,19368	3231
14,19780	2827
14,20192	3064
14,20603	2642
14,21017	2273
14,21428	2679
14,21840	2787
14,22253	2405
14,22665	2141
14,23077	2133
14,23490	2574
14,23902	2244
14,24313	2066
14,24727	2469
14,25138	1681
14,25550	2468
14,25963	3410
14,26375	5092
14,26787	9829
14,27200	18514
14,27612	34907
14,28023	64528
14,28437	111705
14,28848	185857
14,29260	289838
14,29672	421102
14,30085	587755
14,30497	788744
14,30908	1036761
14,31322	1257023
14,31733	1491071
14,32145	1714289
14,32558	1840168
14,32970	1900339
14,33382	1874079
14,33795	1773008
14,34207	1574650
14,34618	1340736
14,35032	1096564
14,35443	863759
14,35855	670487
14,36268	526571
14,36680	406478
14,37092	314593
14,37505	248607
14,37917	201354
14,38328	165528
14,38740	138033
14,39153	116406
14,39565	99011
14,39977	85500
14,40390	75916
14,40802	67649
14,41213	59216
14,41627	53149
14,42038	47636
14,42450	43248
14,42863	40400
14,43275	37187
14,43687	34303
14,44100	29113
14,44512	29006
14,44923	27220
14,45337	24680
14,45748	22014
14,46160	22540
14,46573	19263
14,46985	18294
14,47397	17333
14,47808	16594
14,48222	16323
14,48633	14297
14,49045	13750
14,49458	12394
14,49870	13265
14,50282	12576
14,50695	11970
14,51107	10458
14,51518	9659
14,51932	9469
14,52343	9134
14,52755	8451
14,53168	8386
14,53580	7358
14,53992	6656
14,54405	7258
14,54817	6852
14,55228	5948
14,55642	5627
14,56053	5658
14,56465	5616
14,56877	5170
14,57290	5059
14,57702	4731
14,58113	5066
14,58527	4554
14,58938	3702
14,59350	5380
14,59763	3839
14,60175	3748
14,60587	3865
14,61000	3849
14,61412	3573
14,61823	4393
14,62237	3232
14,62648	2986
14,63060	3011
14,63473	4005
14,63885	2388
14,64297	2501
14,64710	2467
14,65122	2921
14,65533	2977
14,65945	2812
14,66358	3076
14,66770	2329
14,67182	2429
14,67595	2642
14,68007	3129
14,68418	2574
14,68832	2597
14,69243	2507
14,69655	1806
14,70068	2477
14,70480	1432
14,70892	2349
14,71305	1880
14,71717	1872
14,72128	2357
14,72542	2031
14,72953	2552
14,73365	2510
14,73778	1996
14,74190	2102
14,74602	1701
14,75013	2200
14,75427	2340
14,75838	2403
14,76250	1631
14,76663	2239
14,77075	2333
14,77487	2402
14,77900	1948
14,78312	2309
14,78723	2045
14,79137	1722
14,79548	1897
14,79960	2148
14,80373	1957
14,80785	1802
14,81197	2008
14,81610	1854
14,82022	1894
14,82433	1715
14,82847	1393
14,83258	1959
14,83670	1482
14,84082	1091
14,84495	1952
14,84907	2224
14,85318	1725
14,85732	1432
14,86143	2011
14,86555	2070
14,86968	2335
14,87380	2309
14,87792	2453
14,88205	2451
14,88617	1978
14,89028	1923
14,89442	2197
14,89853	1424
14,90265	2084
14,90678	1911
14,91090	1876
14,91502	1897
14,91915	1874
14,92327	2762
14,92738	3997
14,93150	6690
14,93563	12602
14,93975	24620
14,94387	40833
14,94800	69687
14,95212	110189
14,95623	164862
14,96037	239972
14,96448	312347
14,96860	397536
14,97273	472990
14,97685	552484
14,98097	592309
14,98510	603814
14,98922	581571
14,99333	533694
14,99747	484582
15,00158	411359
15,00570	345751
15,00983	281627
15,01395	222260
15,01807	178072
15,02220	140291
15,02632	111529
15,03043	90283
15,03455	72918
15,03868	62630
15,04280	50109
15,04692	42049
15,05105	35453
15,05517	31796
15,05928	27862
15,06342	24536
15,06753	22215
15,07165	20693
15,07578	19958
15,07990	17621
15,08402	16997
15,08815	16077
15,09227	12356
15,09638	12014
15,10052	10642
15,10463	10406
15,10875	9582
15,11288	10743
15,11700	10128
15,12112	9541
15,12523	9052
15,12937	8997
15,13348	9358
15,13760	8998
15,14173	9266
15,14585	7577
15,14997	7525
15,15410	6941
15,15822	6772
15,16233	6431
15,16647	5540
15,17058	5720
15,17470	4307
15,17883	4455
15,18295	4706
15,18707	3472
15,19120	4067
15,19532	3685
15,19943	3428
15,20357	2916
15,20768	3251
15,21180	3371
15,21592	3385
15,22005	2499
15,22417	1819
15,22828	2015
15,23242	2594
15,23653	2201
15,24065	2603
15,24478	1789
15,24890	2071
15,25302	1909
15,25715	1879
15,26127	2229
15,26538	1898
15,26952	1663
15,27363	2706
15,27775	1990
15,28188	1257
15,28600	1594
15,29012	1449
15,29425	1602
15,29837	1906
15,30248	1896
15,30660	1591
15,31073	1426
15,31485	2262
15,31897	1567
15,32310	1615
15,32722	1886
15,33133	2173
15,33547	1861
15,33958	1525
15,34370	1576
15,34783	2063
15,35195	1556
15,35607	2103
15,36020	1329
15,36432	1596
15,36843	1945
15,37257	2125
15,37668	2575
15,38080	4576
15,38493	8142
15,38905	18054
15,39317	30893
15,39728	54578
15,40142	90253
15,40553	142107
15,40965	205869
15,41378	288923
15,41790	384883
15,42202	476395
15,42615	562135
15,43027	628330
15,43438	662050
15,43852	669448
15,44263	640971
15,44675	586644
15,45088	509926
15,45500	427499
15,45912	351208
15,46325	280464
15,46737	213852
15,47148	170451
15,47562	135318
15,47973	105083
15,48385	83962
15,48797	69032
15,49210	57587
15,49622	47767
15,50033	41646
15,50447	34967
15,50858	29484
15,51270	26901
15,51683	23524
15,52095	21790
15,52507	18782
15,52920	17871
15,53332	15791
15,53743	14633
15,54157	13670
15,54568	12377
15,54980	10968
15,55393	10393
15,55805	9093
15,56217	8551
15,56630	9303
15,57042	8403
15,57453	6263
15,57865	7080
15,58278	6870
15,58690	7093
15,59102	6031
15,59515	6548
15,59927	6865
15,60338	5219
15,60752	5737
15,61163	5527
15,61575	4927
15,61988	4843
15,62400	5274
15,62812	4110
15,63225	5729
15,63637	3737
15,64048	4228
15,64462	3174
15,64873	3591
15,65285	4444
15,65698	3708
15,66110	3240
15,66522	3008
15,66933	3395
15,67347	3498
15,67758	2811
15,68170	2766
15,68583	2573
15,68995	2517
15,69407	2523
15,69820	2804
15,70232	2317
15,70643	2541
15,71057	2467
15,71468	1731
15,71880	1933
15,72293	2110
15,72705	1859
15,73117	2194
15,73530	1905
15,73942	2149
15,74353	1760
15,74767	1963
15,75178	2083
15,75590	2064
15,76002	2457
15,76415	2087
15,76827	1887
15,77238	2177
15,77652	2083
15,78063	2030
15,78475	2313
15,78888	1883
15,79300	1038
15,79712	1824
15,80125	1987
15,80537	2633
15,80948	1954
15,81362	2218
15,81773	2147
15,82185	1704
15,82598	1760
15,83010	2537
15,83422	1502
15,83835	1371
15,84247	1902
15,84658	1945
15,85070	1260
15,85483	1260
15,85895	1303
15,86307	1510
15,86720	1619
15,87132	1477
15,87543	1746
15,87957	1288
15,88368	1681
15,88780	1535
15,89193	1839
15,89605	2136
15,90017	1802
15,90430	2085
15,90842	1190
15,91253	2047
15,91667	1025
15,92078	1424
15,92490	2261
15,92903	1609
15,93315	1869
15,93727	1475
15,94138	1615
15,94552	1815
15,94963	1397
15,95375	1320
15,95788	1464
15,96200	1123
15,96612	1202
15,97025	1913
15,97437	1497
15,97848	1148
15,98262	1475
15,98673	1360
15,99085	1515
15,99498	1356
15,99910	1471
16,00322	1926
16,00735	2019
16,01147	1975
16,01558	1640
16,01972	2020
16,02383	2727
16,02795	4082
16,03207	6453
16,03620	11811
16,04032	23122
16,04443	40204
16,04857	72238
16,05268	115326
16,05680	175059
16,06093	247108
16,06505	330487
16,06917	421120
16,07330	505127
16,07742	583021
16,08153	623314
16,08567	645717
16,08978	633542
16,09390	591640
16,09803	534335
16,10215	457499
16,10627	381197
16,11040	309904
16,11452	249950
16,11863	199086
16,12275	156412
16,12688	124024
16,13100	99842
16,13512	78371
16,13925	64768
16,14337	53153
16,14748	45112
16,15162	38004
16,15573	32986
16,15985	29290
16,16398	26621
16,16810	22787
16,17222	19560
16,17635	19787
16,18047	15912
16,18458	15240
16,18872	13666
16,19283	11883
16,19695	10769
16,20108	11178
16,20520	10516
16,20932	9109
16,21343	8728
16,21757	8295
16,22168	8181
16,22580	7243
16,22993	7011
16,23405	8207
16,23817	7741
16,24230	7758
16,24642	8395
16,25053	10146
16,25467	10888
16,25878	11687
16,26290	11606
16,26703	13088
16,27115	14691
16,27527	15484
16,27940	14353
16,28352	13070
16,28763	12201
16,29177	12385
16,29588	11224
16,30000	9343
16,30412	8597
16,30825	7698
16,31237	6705
16,31648	5174
16,32062	4807
16,32473	4721
16,32885	3727
16,33298	4574
16,33710	3786
16,34122	3684
16,34535	3350
16,34947	2987
16,35358	2770
16,35772	2372
16,36183	3207
16,36595	2002
16,37008	2685
16,37420	1788
16,37832	2697
16,38245	2172
16,38657	2340
16,39068	1989
16,39480	1620
16,39893	1879
16,40305	2295
16,40717	2447
16,41130	1698
16,41542	1796
16,41953	1987
16,42367	2255
16,42778	2079
16,43190	2318
16,43603	1801
16,44015	1729
16,44427	1207
16,44840	2018
16,45252	2188
16,45663	3003
16,46077	4610
16,46488	8915
16,46900	17110
16,47313	31223
16,47725	56399
16,48137	93511
16,48548	152573
16,48962	225936
16,49373	332296
16,49785	464131
16,50198	627167
16,50610	804374
16,51022	983859
16,51435	1160791
16,51847	1286932
16,52258	1380062
16,52672	1449017
16,53083	1421415
16,53495	1336363
16,53908	1193166
16,54320	1000669
16,54732	814911
16,55145	651095
16,55557	505693
16,55968	393889
16,56382	301614
16,56793	236248
16,57205	192519
16,57617	159321
16,58030	130683
16,58442	106909
16,58853	93222
16,59267	78410
16,59678	68938
16,60090	59959
16,60503	52444
16,60915	50121
16,61327	44115
16,61740	40441
16,62152	35489
16,62563	32370
16,62977	32033
16,63388	26658
16,63800	25247
16,64213	23908
16,64625	21130
16,65037	19574
16,65450	18672
16,65862	17221
16,66273	17424
16,66687	15423
16,67098	14744
16,67510	12172
16,67922	12024
16,68335	12011
16,68747	10341
16,69158	11369
16,69572	10395
16,69983	9638
16,70395	9293
16,70808	9084
16,71220	8095
16,71632	8461
16,72045	7397
16,72457	6971
16,72868	7382
16,73282	5912
16,73693	6323
16,74105	6037
16,74518	6544
16,74930	5388
16,75342	5487
16,75755	5296
16,76167	4252
16,76578	4920
16,76990	4776
16,77403	4733
16,77815	5127
16,78227	4370
16,78640	4670
16,79052	3414
16,79463	3816
16,79877	3386
16,80288	3824
16,80700	4243
16,81113	3499
16,81525	3940
16,81937	3572
16,82350	5229
16,82762	7100
16,83173	12379
16,83587	22113
16,83998	39204
16,84410	67808
16,84823	109439
16,85235	162251
16,85647	226161
16,86058	304667
16,86472	401421
16,86883	487450
16,87295	576382
16,87708	644888
16,88120	685283
16,88532	688794
16,88945	654554
16,89357	602692
16,89768	532476
16,90182	455382
16,90593	374157
16,91005	299482
16,91418	243701
16,91830	190167
16,92242	150544
16,92655	123745
16,93067	99386
16,93478	80388
16,93892	65227
16,94303	56049
16,94715	48159
16,95127	41293
16,95540	35757
16,95952	33241
16,96363	26956
16,96777	25234
16,97188	24029
16,97600	21809
16,98013	18775
16,98425	15946
16,98837	15450
16,99250	14467
16,99662	14075
17,00073	13552
17,00487	15232
17,00898	17356
17,01310	23393
17,01723	34919
17,02135	54894
17,02547	90566
17,02960	143324
17,03372	219986
17,03783	323524
17,04195	462569
17,04608	612809
17,05020	788354
17,05432	964587
17,05845	1123367
17,06257	1254014
17,06668	1337379
17,07082	1348709
17,07493	1321565
17,07905	1213487
17,08318	1073300
17,08730	905885
17,09142	750261
17,09555	592170
17,09967	472298
17,10378	369974
17,10792	288201
17,11203	233022
17,11615	186273
17,12028	151238
17,12440	127825
17,12852	107833
17,13263	91687
17,13677	81109
17,14088	73453
17,14500	60162
17,14913	55434
17,15325	50358
17,15737	45109
17,16150	41309
17,16562	39481
17,16973	34807
17,17387	32726
17,17798	30438
17,18210	26297
17,18623	24550
17,19035	22190
17,19447	23755
17,19860	18916
17,20272	18698
17,20683	18319
17,21097	15857
17,21508	15450
17,21920	14502
17,22332	12317
17,22745	13071
17,23157	11528
17,23568	12638
17,23982	10488
17,24393	9359
17,24805	10032
17,25218	10470
17,25630	8412
17,26042	9057
17,26455	7383
17,26867	7617
17,27278	7731
17,27692	7412
17,28103	6824
17,28515	7631
17,28928	6411
17,29340	5657
17,29752	6486
17,30165	6874
17,30577	5661
17,30988	7567
17,31400	6901
17,31813	6890
17,32225	8492
17,32637	8868
17,33050	8791
17,33462	8248
17,33873	7330
17,34287	6367
17,34698	5627
17,35110	4828
17,35523	5089
17,35935	3436
17,36347	3779
17,36760	3986
17,37172	2289
17,37583	3019
17,37997	2801
17,38408	3901
17,38820	2838
17,39233	2733
17,39645	2895
17,40057	3181
17,40468	3264
17,40882	2833
17,41293	2839
17,41705	3436
17,42118	2428
17,42530	2960
17,42942	2751
17,43355	4049
17,43767	6336
17,44178	10383
17,44592	18392
17,45003	33664
17,45415	56989
17,45828	96014
17,46240	148200
17,46652	213944
17,47065	303994
17,47477	395590
17,47888	496069
17,48302	561212
17,48713	620637
17,49125	648321
17,49537	640705
17,49950	604553
17,50362	545483
17,50773	473685
17,51187	404984
17,51598	326279
17,52010	263061
17,52423	208487
17,52835	169205
17,53247	132312
17,53660	106176
17,54072	87679
17,54483	70496
17,54897	62675
17,55308	56406
17,55720	47471
17,56133	42025
17,56545	37236
17,56957	34904
17,57370	27674
17,57782	27246
17,58193	23185
17,58605	20630
17,59018	19818
17,59430	16935
17,59842	15860
17,60255	14445
17,60667	13349
17,61078	12917
17,61492	11084
17,61903	12041
17,62315	10416
17,62728	10146
17,63140	9615
17,63552	8522
17,63965	9385
17,64377	7819
17,64788	7565
17,65202	7241
17,65613	7068
17,66025	5462
17,66438	6882
17,66850	6173
17,67262	6596
17,67673	5431
17,68087	5137
17,68498	4705
17,68910	5344
17,69323	5476
17,69735	4834
17,70147	5515
17,70560	5261
17,70972	5849
17,71383	5369
17,71797	5599
17,72208	5098
17,72620	4707
17,73033	4734
17,73445	3700
17,73857	4814
17,74270	4136
17,74682	4191
17,75093	3686
17,75507	3410
17,75918	3557
17,76330	4328
17,76742	3917
17,77155	4097
17,77567	3731
17,77978	3493
17,78392	3956
17,78803	4181
17,79215	2841
17,79628	4315
17,80040	4299
17,80452	4123
17,80865	3192
17,81277	2579
17,81688	3281
17,82102	3391
17,82513	3490
17,82925	2906
17,83338	3423
17,83750	2832
17,84162	4103
17,84575	4187
17,84987	4595
17,85398	6751
17,85810	10225
17,86223	16489
17,86635	26746
17,87047	46827
17,87460	77523
17,87872	121517
17,88283	182032
17,88697	253780
17,89108	339558
17,89520	420707
17,89933	503672
17,90345	561874
17,90757	598475
17,91170	607909
17,91582	583010
17,91993	545101
17,92407	481392
17,92818	420488
17,93230	342187
17,93643	284116
17,94055	225915
17,94467	179342
17,94878	139913
17,95292	113194
17,95703	88450
17,96115	74723
17,96528	61930
17,96940	50120
17,97352	47527
17,97765	37550
17,98177	35142
17,98588	31171
17,99002	25707
17,99413	23827
17,99825	22252
18,00238	20443
18,00650	17921
18,01062	16689
18,01475	15455
18,01887	15088
18,02298	13688
18,02712	12454
18,03123	10953
18,03535	9869
18,03947	10021
18,04360	9937
18,04772	9274
18,05183	8258
18,05597	7474
18,06008	7167
18,06420	6803
18,06833	8430
18,07245	8108
18,07657	6356
18,08070	6823
18,08482	7412
18,08893	5691
18,09307	6175
18,09718	5809
18,10130	6469
18,10543	5809
18,10955	5363
18,11367	5792
18,11780	5163
18,12192	3776
18,12603	4745
18,13015	3636
18,13428	4734
18,13840	4165
18,14252	3297
18,14665	4033
18,15077	3912
18,15488	3664
18,15902	3574
18,16313	2626
18,16725	3534
18,17138	3020
18,17550	3574
18,17962	3564
18,18375	3419
18,18787	3059
18,19198	3451
18,19612	3125
18,20023	3039
18,20435	1624
18,20848	2655
18,21260	2987
18,21672	2989
18,22083	2239
18,22497	1686
18,22908	2847
18,23320	2323
18,23733	2759
18,24145	2612
18,24557	2539
18,24970	2499
18,25382	2398
18,25793	2538
18,26207	2306
18,26618	2625
18,27030	3190
18,27443	2655
18,27855	2368
18,28267	2372
18,28680	2987
18,29092	2637
18,29503	3050
18,29917	1990
18,30328	2871
18,30740	2700
18,31152	2512
18,31565	1381
18,31977	2419
18,32388	2039
18,32802	2303
18,33213	3695
18,33625	2399
18,34038	2595
18,34450	2155
18,34862	2613
18,35275	2370
18,35687	1713
18,36098	1949
18,36512	1800
18,36923	2917
18,37335	2014
18,37748	2779
18,38160	2185
18,38572	1489
18,38985	2608
18,39397	2466
18,39808	2495
18,40222	1757
18,40633	2421
18,41045	2062
18,41457	1962
18,41870	2401
18,42282	1789
18,42693	1948
18,43107	1379
18,43518	3043
18,43930	2917
18,44343	3023
18,44755	4179
18,45167	6903
18,45580	13392
18,45992	21463
18,46403	36890
18,46817	62328
18,47228	99848
18,47640	150409
18,48053	211096
18,48465	284417
18,48877	357206
18,49290	435410
18,49702	499888
18,50113	538280
18,50525	558280
18,50938	542120
18,51350	512783
18,51762	462835
18,52175	407084
18,52587	362688
18,52998	332784
18,53412	318180
18,53823	334921
18,54235	379906
18,54648	455212
18,55060	555421
18,55472	685334
18,55885	856865
18,56297	1030547
18,56708	1221244
18,57122	1388015
18,57533	1526060
18,57945	1620338
18,58358	1633445
18,58770	1569322
18,59182	1436540
18,59593	1223146
18,60007	1011534
18,60418	815278
18,60830	641893
18,61243	493352
18,61655	388743
18,62067	308386
18,62480	252248
18,62892	208585
18,63303	179854
18,63717	152475
18,64128	134038
18,64540	119694
18,64953	108266
18,65365	97339
18,65777	85633
18,66190	75625
18,66602	69417
18,67013	62572
18,67427	57730
18,67838	52131
18,68250	47878
18,68662	45379
18,69075	39781
18,69487	38110
18,69898	35258
18,70312	33753
18,70723	31293
18,71135	28518
18,71548	26042
18,71960	24074
18,72372	23461
18,72785	22478
18,73197	18791
18,73608	20042
18,74022	19292
18,74433	17099
18,74845	16891
18,75258	15216
18,75670	15607
18,76082	15437
18,76495	14582
18,76907	13156
18,77318	13100
18,77730	11635
18,78143	11698
18,78555	11877
18,78967	11002
18,79380	10558
18,79792	8997
18,80203	9280
18,80617	10186
18,81028	9969
18,81440	8517
18,81853	9467
18,82265	9764
18,82677	9619
18,83090	13352
18,83502	20972
18,83913	31126
18,84327	47060
18,84738	73833
18,85150	110995
18,85563	158420
18,85975	219072
18,86387	286304
18,86798	361035
18,87212	429986
18,87623	492911
18,88035	522119
18,88448	540868
18,88860	526294
18,89272	487414
18,89685	431531
18,90097	370599
18,90508	313977
18,90922	260495
18,91333	208275
18,91745	166802
18,92158	133471
18,92570	108555
18,92982	88594
18,93395	70808
18,93807	62199
18,94218	50898
18,94632	46183
18,95043	38552
18,95455	34225
18,95867	30869
18,96280	28078
18,96692	26166
18,97103	23936
18,97517	22502
18,97928	20535
18,98340	19392
18,98753	18242
18,99165	16194
18,99577	14923
18,99990	14760
19,00402	13872
19,00813	13061
19,01227	13350
19,01638	12294
19,02050	11281
19,02463	11958
19,02875	15353
19,03287	20425
19,03700	27057
19,04112	42526
19,04523	63382
19,04935	99317
19,05348	149279
19,05760	220939
19,06172	296406
19,06585	393527
19,06997	491992
19,07408	583720
19,07822	667408
19,08233	721789
19,08645	743730
19,09058	731150
19,09470	670876
19,09882	593288
19,10295	517553
19,10707	432341
19,11118	350388
19,11532	284572
19,11943	225127
19,12355	180958
19,12768	143780
19,13180	117608
19,13592	99799
19,14003	83871
19,14417	70718
19,14828	60078
19,15240	53131
19,15653	46572
19,16065	40843
19,16477	38072
19,16890	34503
19,17302	31519
19,17713	29570
19,18127	27523
19,18538	24865
19,18950	23477
19,19363	22757
19,19775	20039
19,20187	17113
19,20600	17884
19,21012	17732
19,21423	17376
19,21837	14979
19,22248	16015
19,22660	13602
19,23072	13051
19,23485	12455
19,23897	11315
19,24308	11046
19,24722	10970
19,25133	10224
19,25545	9114
19,25958	9560
19,26370	10515
19,26782	7827
19,27195	8114
19,27607	7321
19,28018	6506
19,28432	7987
19,28843	7285
19,29255	8153
19,29668	6659
19,30080	6726
19,30492	6185
19,30905	6894
19,31317	7057
19,31728	5907
19,32140	5718
19,32553	6712
19,32965	6285
19,33377	6412
19,33790	5553
19,34202	5695
19,34613	6172
19,35027	6059
19,35438	6219
19,35850	4878
19,36263	5666
19,36675	4892
19,37087	5526
19,37500	5904
19,37912	4898
19,38323	5574
19,38737	5507
19,39148	4575
19,39560	4602
19,39973	4514
19,40385	4102
19,40797	3943
19,41208	3847
19,41622	4131
19,42033	3914
19,42445	3421
19,42858	3503
19,43270	3668
19,43682	4935
19,44095	5440
19,44507	5259
19,44918	5867
19,45332	7457
19,45743	7250
19,46155	7348
19,46568	7687
19,46980	6073
19,47392	6360
19,47805	5813
19,48217	6479
19,48628	8402
19,49042	12792
19,49453	22150
19,49865	35582
19,50277	57988
19,50690	95853
19,51102	145605
19,51513	217752
19,51927	303247
19,52338	411011
19,52750	517591
19,53163	640669
19,53575	741485
19,53987	814070
19,54400	844005
19,54812	842560
19,55223	782906
19,55637	707086
19,56048	603697
19,56460	493326
19,56873	392898
19,57285	313877
19,57697	242123
19,58110	197543
19,58522	159252
19,58933	132522
19,59345	105298
19,59758	90804
19,60170	76836
19,60582	66229
19,60995	58811
19,61407	51855
19,61818	46948
19,62232	43035
19,62643	39355
19,63055	35653
19,63468	31714
19,63880	29453
19,64292	26761
19,64705	27579
19,65117	24844
19,65528	22181
19,65942	21194
19,66353	21144
19,66765	20730
19,67178	18718
19,67590	19028
19,68002	17670
19,68413	16498
19,68827	15452
19,69238	15521
19,69650	15247
19,70063	13521
19,70475	12960
19,70887	12464
19,71300	11536
19,71712	11136
19,72123	11183
19,72537	10646
19,72948	9768
19,73360	9138
19,73773	9573
19,74185	8210
19,74597	9135
19,75010	7685
19,75422	8250
19,75833	7502
19,76247	8097
19,76658	8359
19,77070	8001
19,77482	8058
19,77895	8123
19,78307	6244
19,78718	5954
19,79132	6127
19,79543	5786
19,79955	7392
19,80368	5677
19,80780	6776
19,81192	6007
19,81605	5540
19,82017	5820
19,82428	6388
19,82842	6406
19,83253	7983
19,83665	10916
19,84078	17451
19,84490	28299
19,84902	46223
19,85315	74726
19,85727	116307
19,86138	172061
19,86550	245533
19,86963	327072
19,87375	424175
19,87787	500414
19,88200	582818
19,88612	638469
19,89023	651872
19,89437	657705
19,89848	614346
19,90260	551743
19,90673	486681
19,91085	410928
19,91497	334397
19,91910	268368
19,92322	215424
19,92733	174450
19,93147	136484
19,93558	113643
19,93970	94652
19,94383	78455
19,94795	66232
19,95207	57361
19,95620	48636
19,96032	45122
19,96443	38904
19,96855	35794
19,97268	31875
19,97680	32304
19,98092	26856
19,98505	25298
19,98917	23581
19,99328	20929
19,99742	18898
20,00153	18885
20,00565	16972
20,00978	17261
20,01390	15328
20,01802	14939
20,02215	14945
20,02627	13333
20,03038	12691
20,03452	11795
20,03863	11248
20,04275	11634
20,04688	10606
20,05100	11201
20,05512	10365
20,05923	10361
20,06337	9543
20,06748	10094
20,07160	9514
20,07573	8373
20,07985	7977
20,08397	7551
20,08810	7943
20,09222	8019
20,09633	7916
20,10047	6617
20,10458	6809
20,10870	6780
20,11283	6056
20,11695	7083
20,12107	6864
20,12520	5817
20,12932	6267
20,13343	6897
20,13757	6866
20,14168	6178
20,14580	5698
20,14992	4817
20,15405	6665
20,15817	5691
20,16228	6033
20,16642	5142
20,17053	5410
20,17465	4223
20,17878	5165
20,18290	6435
20,18702	6583
20,19115	5008
20,19527	4844
20,19938	4797
20,20352	5196
20,20763	5366
20,21175	4845
20,21588	5475
20,22000	5311
20,22412	4190
20,22825	5535
20,23237	5166
20,23648	5516
20,24060	5203
20,24473	5356
20,24885	5677
20,25297	6838
20,25710	5788
20,26122	6583
20,26533	7090
20,26947	6097
20,27358	5116
20,27770	6030
20,28183	5406
20,28595	6324
20,29007	5937
20,29420	4141
20,29832	5028
20,30243	5369
20,30657	4950
20,31068	5135
20,31480	4544
20,31893	4180
20,32305	4526
20,32717	3832
20,33128	4955
20,33542	4182
20,33953	4116
20,34365	3757
20,34778	5197
20,35190	3905
20,35602	5161
20,36015	4295
20,36427	4732
20,36838	4917
20,37252	4438
20,37663	4451
20,38075	4465
20,38488	4501
20,38900	5495
20,39312	6991
20,39725	8906
20,40137	13857
20,40548	23318
20,40962	36561
20,41373	62998
20,41785	96468
20,42197	146388
20,42610	216140
20,43022	297723
20,43433	388997
20,43847	478798
20,44258	566407
20,44670	656115
20,45083	736682
20,45495	798881
20,45907	858154
20,46320	916615
20,46732	984589
20,47143	1070746
20,47557	1179640
20,47968	1286761
20,48380	1419654
20,48793	1545865
20,49205	1676523
20,49617	1780904
20,50030	1798848
20,50442	1757432
20,50853	1604954
20,51265	1412088
20,51678	1189550
20,52090	965153
20,52502	756767
20,52915	599729
20,53327	482897
20,53738	383028
20,54152	309523
20,54563	258392
20,54975	217566
20,55388	189873
20,55800	161467
20,56212	142962
20,56625	130637
20,57037	114006
20,57448	106708
20,57862	96422
20,58273	88168
20,58685	80885
20,59098	73031
20,59510	68733
20,59922	64474
20,60333	60052
20,60747	57544
20,61158	52441
20,61570	46741
20,61983	48409
20,62395	45407
20,62807	40862
20,63220	40416
20,63632	35516
20,64043	35866
20,64457	34550
20,64868	31458
20,65280	31001
20,65693	29727
20,66105	27604
20,66517	26796
20,66930	25811
20,67342	25102
20,67753	22853
20,68167	21885
20,68578	21458
20,68990	21017
20,69402	21632
20,69815	18901
20,70227	19518
20,70638	17990
20,71052	17628
20,71463	16438
20,71875	15392
20,72288	17036
20,72700	16501
20,73112	16101
20,73525	15099
20,73937	15825
20,74348	17497
20,74762	17672
20,75173	19080
20,75585	26413
20,75998	36281
20,76410	55567
20,76822	83254
20,77235	124090
20,77647	182418
20,78058	245900
20,78470	327321
20,78883	406827
20,79295	484944
20,79707	559640
20,80120	596630
20,80532	620283
20,80943	595501
20,81357	570882
20,81768	518283
20,82180	460017
20,82593	401609
20,83005	359012
20,83417	343853
20,83830	344916
20,84242	365115
20,84653	395276
20,85067	447320
20,85478	509505
20,85890	551414
20,86303	584133
20,86715	594031
20,87127	587595
20,87538	549333
20,87952	500568
20,88363	436877
20,88775	376639
20,89188	316302
20,89600	259855
20,90012	212201
20,90425	175541
20,90837	141819
20,91248	126330
20,91662	113242
20,92073	101909
20,92485	100343
20,92898	112583
20,93310	135894
20,93722	162759
20,94135	214940
20,94547	283841
20,94958	368042
20,95372	462695
20,95783	562926
20,96195	666847
20,96607	737105
20,97020	799502
20,97432	818476
20,97843	796367
20,98257	741978
20,98668	665173
20,99080	579386
20,99493	479241
20,99905	395431
21,00317	320419
21,00730	262857
21,01142	214112
21,01553	176704
21,01967	149646
21,02378	126086
21,02790	113488
21,03203	96849
21,03615	84309
21,04027	77337
21,04440	68892
21,04852	64510
21,05263	59222
21,05675	53285
21,06088	51011
21,06500	46342
21,06912	44018
21,07325	42630
21,07737	37732
21,08148	39219
21,08562	35729
21,08973	31063
21,09385	29505
21,09798	27854
21,10210	26586
21,10622	22903
21,11035	24302
21,11447	23037
21,11858	24510
21,12272	22787
21,12683	20321
21,13095	21179
21,13508	18453
21,13920	18434
21,14332	18351
21,14743	18217
21,15157	17850
21,15568	17375
21,15980	16781
21,16393	15642
21,16805	15433
21,17217	15325
21,17630	15298
21,18042	15620
21,18453	16564
21,18867	14947
21,19278	16153
21,19690	13892
21,20103	15020
21,20515	14262
21,20927	14461
21,21340	13993
21,21752	14193
21,22163	12921
21,22577	12200
21,22988	12220
21,23400	11708
21,23812	11442
21,24225	12010
21,24637	10312
21,25048	10998
21,25462	11536
21,25873	11577
21,26285	10549
21,26698	10779
21,27110	9571
21,27522	9186
21,27935	9643
21,28347	11816
21,28758	9602
21,29172	9972
21,29583	9408
21,29995	9272
21,30408	9223
21,30820	8130
21,31232	9234
21,31645	9046
21,32057	11386
21,32468	8995
21,32880	12352
21,33293	16425
21,33705	21849
21,34117	32603
21,34530	55230
21,34942	88552
21,35353	128807
21,35767	186193
21,36178	266322
21,36590	367303
21,37003	469591
21,37415	591694
21,37827	697669
21,38240	802116
21,38652	874855
21,39063	897634
21,39477	873949
21,39888	810826
21,40300	721593
21,40713	610395
21,41125	501574
21,41537	402822
21,41948	325436
21,42362	261915
21,42773	213201
21,43185	177154
21,43598	145882
21,44010	128764
21,44422	111450
21,44835	97209
21,45247	85909
21,45658	78297
21,46072	69385
21,46483	65923
21,46895	63639
21,47308	60570
21,47720	55249
21,48132	53435
21,48545	48184
21,48957	45745
21,49368	41690
21,49782	40689
21,50193	38268
21,50605	34028
21,51017	34174
21,51430	34649
21,51842	30804
21,52253	32482
21,52667	28356
21,53078	32005
21,53490	27136
21,53903	26602
21,54315	27784
21,54727	25833
21,55140	22472
21,55552	23603
21,55963	20700
21,56377	21799
21,56788	21725
21,57200	18962
21,57613	19473
21,58025	18023
21,58437	17083
21,58850	15499
21,59262	15376
21,59673	16152
21,60087	15423
21,60498	16159
21,60910	16268
21,61322	15263
21,61735	14808
21,62147	13578
21,62558	14720
21,62972	14895
21,63383	13041
21,63795	13335
21,64208	12781
21,64620	12253
21,65032	11782
21,65445	11935
21,65857	11720
21,66268	12860
21,66682	12664
21,67093	14132
21,67505	15941
21,67918	19591
21,68330	26904
21,68742	41036
21,69155	61255
21,69567	93429
21,69978	140519
21,70390	209319
21,70803	285700
21,71215	380649
21,71627	480839
21,72040	567704
21,72452	636779
21,72863	691800
21,73277	705531
21,73688	690777
21,74100	646723
21,74513	580442
21,74925	504651
21,75337	437005
21,75750	369733
21,76162	321451
21,76573	294728
21,76987	289435
21,77398	301005
21,77810	338289
21,78223	380438
21,78635	434611
21,79047	484831
21,79458	524419
21,79872	550907
21,80283	547010
21,80695	528249
21,81108	498222
21,81520	447859
21,81932	395033
21,82345	334890
21,82757	280980
21,83168	230288
21,83582	192357
21,83993	160748
21,84405	133954
21,84818	114416
21,85230	98891
21,85642	84872
21,86055	74511
21,86467	67862
21,86878	59199
21,87292	54387
21,87703	52686
21,88115	47049
21,88527	42188
21,88940	42908
21,89352	39732
21,89763	35262
21,90177	34918
21,90588	32953
21,91000	28974
21,91413	29098
21,91825	27073
21,92237	26479
21,92650	25567
21,93062	23466
21,93473	23856
21,93887	21611
21,94298	21775
21,94710	21501
21,95123	19167
21,95535	19611
21,95947	17922
21,96360	19360
21,96772	18472
21,97183	16515
21,97595	18941
21,98008	16222
21,98420	17265
21,98832	16676
21,99245	15271
21,99657	15376
22,00068	15013
22,00482	15086
22,00893	14341
22,01305	14529
22,01718	13234
22,02130	12241
22,02542	13296
22,02955	13313
22,03367	13646
22,03778	12213
22,04192	13159
22,04603	13895
22,05015	12381
22,05428	12765
22,05840	13051
22,06252	11881
22,06663	11823
22,07077	13676
22,07488	12604
22,07900	12075
22,08313	11209
22,08725	10475
22,09137	11394
22,09550	11179
22,09962	10283
22,10373	11464
22,10787	10228
22,11198	10256
22,11610	10186
22,12023	11016
22,12435	11408
22,12847	11374
22,13260	11831
22,13672	10965
22,14083	10801
22,14497	11902
22,14908	10427
22,15320	11284
22,15732	10696
22,16145	11594
22,16557	10418
22,16968	11027
22,17382	9366
22,17793	10327
22,18205	10077
22,18618	9890
22,19030	10204
22,19442	9398
22,19855	11017
22,20267	11220
22,20678	14011
22,21092	16155
22,21503	22691
22,21915	31510
22,22328	47140
22,22740	73135
22,23152	107304
22,23565	156919
22,23977	227927
22,24388	312188
22,24800	422994
22,25213	538777
22,25625	672760
22,26037	816376
22,26450	982021
22,26862	1153129
22,27273	1317843
22,27687	1477948
22,28098	1611632
22,28510	1692249
22,28923	1714446
22,29335	1630498
22,29747	1463509
22,30160	1244386
22,30572	1017648
22,30983	801788
22,31397	640942
22,31808	512608
22,32220	409851
22,32633	336826
22,33045	283891
22,33457	242267
22,33868	213270
22,34282	180790
22,34693	165327
22,35105	144449
22,35518	135656
22,35930	121547
22,36342	113270
22,36755	104948
22,37167	96838
22,37578	91831
22,37992	80946
22,38403	79197
22,38815	74567
22,39228	69129
22,39640	65358
22,40052	60465
22,40465	57666
22,40877	55336
22,41288	54188
22,41702	49904
22,42113	48342
22,42525	46451
22,42937	44718
22,43350	42280
22,43762	41958
22,44173	40173
22,44587	40490
22,44998	36014
22,45410	35614
22,45823	34407
22,46235	33864
22,46647	31675
22,47060	31331
22,47472	29238
22,47883	30600
22,48297	29435
22,48708	28446
22,49120	27494
22,49533	27626
22,49945	24898
22,50357	24659
22,50770	24698
22,51182	24126
22,51593	25254
22,52005	24928
22,52418	23927
22,52830	23184
22,53242	21962
22,53655	22348
22,54067	21533
22,54478	23704
22,54892	21699
22,55303	21966
22,55715	18983
22,56128	22806
22,56540	21216
22,56952	23413
22,57365	20649
22,57777	20189
22,58188	20467
22,58602	20469
22,59013	19655
22,59425	20885
22,59838	18249
22,60250	17840
22,60662	18294
22,61073	17402
22,61487	16940
22,61898	16586
22,62310	16437
22,62723	15706
22,63135	17193
22,63547	16105
22,63960	18161
22,64372	17110
22,64783	15056
22,65197	14990
22,65608	15913
22,66020	15971
22,66433	16643
22,66845	16770
22,67257	18713
22,67670	22864
22,68082	29784
22,68493	40443
22,68907	61257
22,69318	85700
22,69730	126668
22,70142	180725
22,70555	260330
22,70967	348426
22,71378	450252
22,71792	565013
22,72203	668982
22,72615	748252
22,73028	812022
22,73440	849644
22,73852	829063
22,74265	791910
22,74677	711895
22,75088	618643
22,75502	517569
22,75913	430660
22,76325	354062
22,76738	284670
22,77150	235265
22,77562	199189
22,77975	170088
22,78387	141264
22,78798	124260
22,79210	111112
22,79623	99544
22,80035	88550
22,80447	84807
22,80860	76365
22,81272	69541
22,81683	66860
22,82097	60251
22,82508	57340
22,82920	51608
22,83333	51650
22,83745	49899
22,84157	44402
22,84570	40990
22,84982	41128
22,85393	37865
22,85807	38977
22,86218	34962
22,86630	35562
22,87043	35648
22,87455	32090
22,87867	32782
22,88278	31223
22,88692	30403
22,89103	29923
22,89515	27553
22,89928	27474
22,90340	27808
22,90752	24796
22,91165	23801
22,91577	24390
22,91988	23633
22,92402	23265
22,92813	24341
22,93225	21876
22,93638	20786
22,94050	20714
22,94462	20288
22,94875	20837
22,95287	19991
22,95698	20063
22,96112	19432
22,96523	17979
22,96935	19444
22,97347	19587
22,97760	18247
22,98172	17624
22,98583	18062
22,98997	18215
22,99408	17746
22,99820	19637
23,00233	17470
23,00645	18765
23,01057	18476
23,01470	19684
23,01882	19046
23,02293	17126
23,02707	20497
23,03118	18859
23,03530	19068
23,03943	19965
23,04355	18682
23,04767	19410
23,05180	18913
23,05592	18868
23,06003	18714
23,06415	17253
23,06828	18160
23,07240	18561
23,07652	18311
23,08065	18862
23,08477	17051
23,08888	17406
23,09302	18390
23,09713	16576
23,10125	16950
23,10538	15955
23,10950	16698
23,11362	14855
23,11775	16919
23,12187	15996
23,12598	15434
23,13012	15639
23,13423	14133
23,13835	14301
23,14248	14467
23,14660	15799
23,15072	14603
23,15485	14238
23,15897	14417
23,16308	13566
23,16720	15110
23,17133	14836
23,17545	13542
23,17957	15386
23,18370	14245
23,18782	13823
23,19193	14113
23,19607	13826
23,20018	13473
23,20430	14665
23,20843	14823
23,21255	16756
23,21667	15456
23,22080	14187
23,22492	13798
23,22903	14290
23,23317	14544
23,23728	13984
23,24140	14532
23,24553	15164
23,24965	15027
23,25377	15225
23,25788	13646
23,26202	15834
23,26613	14978
23,27025	16159
23,27438	12154
23,27850	15330
23,28262	13715
23,28675	14959
23,29087	15688
23,29498	16434
23,29912	15689
23,30323	14634
23,30735	14514
23,31148	14866
23,31560	13490
23,31972	15874
23,32385	14615
23,32797	16117
23,33208	14484
23,33622	15331
23,34033	15091
23,34445	15375
23,34857	14043
23,35270	13714
23,35682	13510
23,36093	14122
23,36507	14456
23,36918	14245
23,37330	14894
23,37743	17082
23,38155	16174
23,38567	16879
23,38980	17446
23,39392	18466
23,39803	16966
23,40217	15934
23,40628	16129
23,41040	15746
23,41453	14926
23,41865	14265
23,42277	14764
23,42690	15041
23,43102	14431
23,43513	15117
23,43925	15018
23,44338	13823
23,44750	13604
23,45162	14474
23,45575	14144
23,45987	13867
23,46398	14371
23,46812	14287
23,47223	13620
23,47635	14577
23,48048	14144
23,48460	13808
23,48872	13503
23,49285	13445
23,49697	14634
23,50108	12504
23,50522	13549
23,50933	13411
23,51345	13416
23,51758	13453
23,52170	14059
23,52582	13804
23,52993	14622
23,53407	13382
23,53818	14377
23,54230	14126
23,54643	16461
23,55055	16276
23,55467	15758
23,55880	15005
23,56292	14465
23,56703	15264
23,57117	14856
23,57528	15173
23,57940	14660
23,58353	13178
23,58765	13674
23,59177	13702
23,59590	13593
23,60002	13880
23,60413	14198
23,60827	13111
23,61238	14384
23,61650	12714
23,62062	12878
23,62475	13852
23,62887	13564
23,63298	13988
23,63712	14404
23,64123	12535
23,64535	13490
23,64948	12134
23,65360	13053
23,65772	14120
23,66185	13768
23,66597	13171
23,67008	13399
23,67422	11285
23,67833	13087
23,68245	12457
23,68658	12852
23,69070	13113
23,69482	12693
23,69895	13188
23,70307	12770
23,70718	11521
23,71130	13454
23,71543	13051
23,71955	10553
23,72367	13321
23,72780	13679
23,73192	12585
23,73603	13096
23,74017	13082
23,74428	12043
23,74840	12568
23,75253	11861
23,75665	13456
23,76077	12983
23,76490	12180
23,76902	12255
23,77313	12738
23,77727	13155
23,78138	12613
23,78550	12587
23,78963	12265
23,79375	11534
23,79787	12182
23,80198	12697
23,80612	11925
23,81023	12278
23,81435	12787
23,81848	12524
23,82260	13933
23,82672	12329
23,83085	12602
23,83497	12272
23,83908	12742
23,84322	12193
23,84733	13903
23,85145	13561
23,85558	13322
23,85970	13092
23,86382	12283
23,86795	12507
23,87207	13966
23,87618	13597
23,88032	13333
23,88443	12532
23,88855	13020
23,89267	12121
23,89680	13241
23,90092	13712
23,90503	13675
23,90917	12192
23,91328	13216
23,91740	14072
23,92153	13267
23,92565	15166
23,92977	15224
23,93390	15749
23,93802	15800
23,94213	18033
23,94627	22284
23,95038	26604
23,95450	39305
23,95863	56577
23,96275	79866
23,96687	113607
23,97100	158495
23,97512	208153
23,97923	265330
23,98335	322304
23,98748	382616
23,99160	425182
23,99572	453285
23,99985	453560
24,00397	450193
24,00808	424361
24,01222	387094
24,01633	345833
24,02045	306981
24,02458	260650
24,02870	223058
24,03282	185072
24,03695	161808
24,04107	131704
24,04518	113671
24,04932	100049
24,05343	86872
24,05755	77105
24,06168	69654
24,06580	60988
24,06992	57877
24,07403	52610
24,07817	51340
24,08228	46843
24,08640	43265
24,09053	40425
24,09465	38311
24,09877	35758
24,10290	34152
24,10702	34204
24,11113	30973
24,11527	30995
24,11938	28351
24,12350	26381
24,12763	27636
24,13175	25066
24,13587	25910
24,14000	23998
24,14412	26536
24,14823	25273
24,15237	22519
24,15648	24359
24,16060	22700
24,16472	23535
24,16885	21315
24,17297	21187
24,17708	21498
24,18122	20592
24,18533	20426
24,18945	20868
24,19358	19557
24,19770	21061
24,20182	20073
24,20595	19608
24,21007	19275
24,21418	17290
24,21832	17159
24,22243	19314
24,22655	18384
24,23068	20126
24,23480	18453
24,23892	17639
24,24305	17492
24,24717	16645
24,25128	16526
24,25540	15443
24,25953	18057
24,26365	16185
24,26777	18253
24,27190	16460
24,27602	14673
24,28013	16223
24,28427	16590
24,28838	15242
24,29250	16307
24,29663	17660
24,30075	16223
24,30487	15142
24,30900	13396
24,31312	16183
24,31723	14745
24,32137	14054
24,32548	13995
24,32960	15432
24,33373	15655
24,33785	15373
24,34197	15806
24,34608	15246
24,35022	14967
24,35433	15156
24,35845	15286
24,36258	15922
24,36670	13980
24,37082	12932
24,37495	16474
24,37907	15731
24,38318	16475
24,38732	15535
24,39143	15282
24,39555	13703
24,39968	16558
24,40380	15612
24,40792	15268
24,41205	14779
24,41617	16337
24,42028	15250
24,42442	15396
24,42853	15386
24,43265	16542
24,43677	16054
24,44090	16453
24,44502	15767
24,44913	14110
24,45327	15485
24,45738	14578
24,46150	14837
24,46563	13992
24,46975	15327
24,47387	16018
24,47800	15069
24,48212	14198
24,48623	15088
24,49037	13860
24,49448	14714
24,49860	13198
24,50273	12926
24,50685	13517
24,51097	14505
24,51510	15246
24,51922	15418
24,52333	14740
24,52745	15016
24,53158	15709
24,53570	15278
24,53982	15805
24,54395	15476
24,54807	14801
24,55218	16150
24,55632	15738
24,56043	16304
24,56455	14311
24,56868	15429
24,57280	14983
24,57692	14966
24,58105	14027
24,58517	15097
24,58928	15410
24,59342	14283
24,59753	15459
24,60165	14470
24,60578	13648
24,60990	12601
24,61402	14530
24,61813	12698
24,62227	14792
24,62638	14548
24,63050	13859
24,63463	14926
24,63875	13784
24,64287	14067
24,64700	14402
24,65112	14337
24,65523	12408
24,65937	14092
24,66348	16490
24,66760	14196
24,67173	13912
24,67585	14598
24,67997	14212
24,68410	12536
24,68822	14171
24,69233	13802
24,69647	14713
24,70058	12621
24,70470	14910
24,70882	14839
24,71295	15569
24,71707	13987
24,72118	13807
24,72532	14072
24,72943	14872
24,73355	13175
24,73768	13963
24,74180	14467
24,74592	14846
24,75005	14925
24,75417	15201
24,75828	15697
24,76242	14350
24,76653	13730
24,77065	13943
24,77478	14270
24,77890	14924
24,78302	13384
24,78715	14803
24,79127	13668
24,79538	13177
24,79952	13312
24,80363	13660
24,80775	16295
24,81187	15338
24,81600	15416
24,82012	14201
24,82423	14279
24,82837	15135
24,83248	14762
24,83660	13425
24,84073	16728
24,84485	15802
24,84897	14609
24,85310	15481
24,85722	16101
24,86133	14782
24,86547	14903
24,86958	13117
24,87370	13524
24,87783	14624
24,88195	15578
24,88607	13919
24,89020	15655
24,89432	14574
24,89843	15536
24,90255	13631
24,90668	13071
24,91080	16094
24,91492	14936
24,91905	14169
24,92317	13804
24,92728	12473
24,93142	13579
24,93553	13918
24,93965	14435
24,94378	14854
24,94790	14582
24,95202	14413
24,95615	15105
24,96027	15377
24,96438	14281
24,96852	14601
24,97263	14432
24,97675	13758
24,98088	15567
24,98500	13542
24,98912	12106
24,99323	14763
24,99737	13770
25,00148	14822
25,00560	14237
25,00973	14269
25,01385	13950
25,01797	16014
25,02210	14405
25,02622	14082
25,03033	14940
25,03447	14914
25,03858	13532
25,04270	14072
25,04683	14511
25,05095	13513
25,05507	14900
25,05920	12796
25,06332	14484
25,06743	13338
25,07157	14405
25,07568	14972
25,07980	14642
25,08392	15597
25,08805	14654
25,09217	13541
25,09628	14706
25,10042	12779
25,10453	12725
25,10865	14025
25,11278	13528
25,11690	12631
25,12102	13179
25,12515	13598
25,12927	14148
25,13338	13584
25,13752	14440
25,14163	13540
25,14575	13226
25,14988	12762
25,15400	12680
25,15812	15056
25,16225	15355
25,16637	14025
25,17048	14318
25,17460	13001
25,17873	14361
25,18285	13812
25,18697	11579
25,19110	14316
25,19522	13017
25,19933	13543
25,20347	13180
25,20758	14423
25,21170	14260
25,21583	14730
25,21995	13901
25,22407	12740
25,22820	15052
25,23232	15066
25,23643	14347
25,24057	14966
25,24468	14076
25,24880	16142
25,25293	15301
25,25705	14257
25,26117	14149
25,26528	15178
25,26942	15367
25,27353	14911
25,27765	16312
25,28178	14482
25,28590	14731
25,29002	14147
25,29415	13749
25,29827	15085
25,30238	15542
25,30652	14458
25,31063	13300
25,31475	14776
25,31888	14700
25,32300	14618
25,32712	13453
25,33125	13266
25,33537	15012
25,33948	13914
25,34362	13910
25,34773	14734
25,35185	14051
25,35597	12921
25,36010	15606
25,36422	13890
25,36833	14036
25,37247	14987
25,37658	15222
25,38070	16482
25,38483	15469
25,38895	17086
25,39307	18451
25,39720	18557
25,40132	18840
25,40543	18957
25,40957	20035
25,41368	16085
25,41780	18102
25,42193	18362
25,42605	17928
25,43017	16786
25,43430	18599
25,43842	15984
25,44253	18183
25,44665	16351
25,45078	15418
25,45490	16039
25,45902	17266
25,46315	16590
25,46727	15698
25,47138	15502
25,47552	14948
25,47963	16895
25,48375	17613
25,48788	15433
25,49200	15885
25,49612	14925
25,50025	15008
25,50437	15271
25,50848	15600
25,51262	14486
25,51673	14767
25,52085	16287
25,52498	14654
25,52910	14752
25,53322	14086
25,53733	14684
25,54147	15304
25,54558	14538
25,54970	15177
25,55383	13930
25,55795	15488
25,56207	13741
25,56620	15013
25,57032	15197
25,57443	14225
25,57857	14328
25,58268	13394
25,58680	15214
25,59093	13296
25,59505	14468
25,59917	13201
25,60330	14654
25,60742	14570
25,61153	14111
25,61567	14409
25,61978	12490
25,62390	15895
25,62802	14423
25,63215	14628
25,63627	15176
25,64038	14419
25,64452	13318
25,64863	12475
25,65275	15192
25,65688	15306
25,66100	14871
25,66512	15077
25,66925	15388
25,67337	15044
25,67748	15357
25,68162	13328
25,68573	14073
25,68985	13184
25,69398	14968
25,69810	13834
25,70222	15206
25,70635	15848
25,71047	14840
25,71458	15151
25,71870	14769
25,72283	15856
25,72695	15258
25,73107	15991
25,73520	14239
25,73932	14222
25,74343	13319
25,74757	15505
25,75168	14266
25,75580	13466
25,75993	14031
25,76405	16023
25,76817	14849
25,77230	14243
25,77642	13688
25,78053	15177
25,78467	15858
25,78878	15422
25,79290	16307
25,79703	14860
25,80115	14130
25,80527	16021
25,80938	15853
25,81352	15058
25,81763	15444
25,82175	15926
25,82588	15107
25,83000	16644
25,83412	15260
25,83825	16373
25,84237	16039
25,84648	13737
25,85062	16000
25,85473	15414
25,85885	13772
25,86298	15721
25,86710	14948
25,87122	15055
25,87535	14419
25,87947	15796
25,88358	14726
25,88772	13960
25,89183	15929
25,89595	15106
25,90007	15996
25,90420	16568
25,90832	14784
25,91243	15179
25,91657	15121
25,92068	12863
25,92480	13449
25,92893	14913
25,93305	15498
25,93717	15115
25,94130	14362
25,94542	15407
25,94953	14054
25,95367	16208
25,95778	15422
25,96190	14151
25,96603	14784
25,97015	14540
25,97427	14581
25,97840	12895
25,98252	14151
25,98663	13617
25,99075	12759
25,99488	14210
25,99900	13317
26,00312	14149
26,00725	15163
26,01137	14924
26,01548	13317
26,01962	14110
26,02373	14747
26,02785	13814
26,03198	16624
26,03610	15238
26,04022	15240
26,04435	14094
26,04847	14894
26,05258	14501
26,05672	14756
26,06083	14160
26,06495	13743
26,06908	13368
26,07320	14253
26,07732	15120
26,08143	15296
26,08557	14848
26,08968	15209
26,09380	13890
26,09793	14404
26,10205	14476
26,10617	16031
26,11030	16937
26,11442	14516
26,11853	16092
26,12267	15054
26,12678	16808
26,13090	16356
26,13503	18777
26,13915	16248
26,14327	18602
26,14740	17026
26,15152	18701
26,15563	17558
26,15977	17627
26,16388	18829
26,16800	18260
26,17212	18404
26,17625	19192
26,18037	18639
26,18448	17739
26,18862	17109
26,19273	16511
26,19685	16059
26,20098	16139
26,20510	16395
26,20922	17224
26,21335	14336
26,21747	15435
26,22158	15759
26,22572	14759
26,22983	14100
26,23395	15212
26,23808	15355
26,24220	14813
26,24632	15144
26,25045	15458
26,25457	15122
26,25868	14721
26,26280	15660
26,26693	14972
26,27105	12404
26,27517	13861
26,27930	14584
26,28342	16394
26,28753	14504
26,29167	14935
26,29578	15586
26,29990	14722
26,30403	14613
26,30815	14434
26,31227	14255
26,31640	14664
26,32052	13460
26,32463	14089
26,32877	14126
26,33288	14940
26,33700	13993
26,34113	14221
26,34525	13886
26,34937	13736
26,35348	14669
26,35762	13767
26,36173	13813
26,36585	13253
26,36998	13560
26,37410	14932
26,37822	14203
26,38235	15132
26,38647	13307
26,39058	14776
26,39472	14013
26,39883	14374
26,40295	15710
26,40708	14942
26,41120	15465
26,41532	13383
26,41945	13813
26,42357	15218
26,42768	14745
26,43182	15316
26,43593	14573
26,44005	14960
26,44418	13630
26,44830	15341
26,45242	14375
26,45653	15532
26,46067	14893
26,46478	14956
26,46890	14864
26,47303	14308
26,47715	15225
26,48127	15123
26,48540	14518
26,48952	15173
26,49363	15003
26,49777	14183
26,50188	14928
26,50600	14215
26,51013	14904
26,51425	13498
26,51837	16498
26,52250	15759
26,52662	14395
26,53073	14209
26,53487	14723
26,53898	15092
26,54310	14297
26,54722	15643
26,55135	14369
26,55547	13730
26,55958	14324
26,56372	14914
26,56783	15418
26,57195	16200
26,57608	16578
26,58020	15521
26,58432	14898
26,58845	16773
26,59257	15755
26,59668	17829
26,60082	14907
26,60493	16833
26,60905	14957
26,61318	15410
26,61730	15781
26,62142	15674
26,62555	14582
26,62967	15314
26,63378	15303
26,63790	15636
26,64203	15293
26,64615	15159
26,65027	13678
26,65440	13211
26,65852	15240
26,66263	13098
26,66677	15502
26,67088	14010
26,67500	14372
26,67913	13893
26,68325	14246
26,68737	14648
26,69150	15038
26,69562	13293
26,69973	13777
26,70387	14707
26,70798	15770
26,71210	13923
26,71623	14672
26,72035	15211
26,72447	14683
26,72858	16124
26,73272	15938
26,73683	15872
26,74095	13505
26,74508	14495
26,74920	14720
26,75332	15643
26,75745	14569
26,76157	14940
26,76568	14056
26,76982	15563
26,77393	16038
26,77805	16104
26,78218	15701
26,78630	15333
26,79042	13333
26,79455	14916
26,79867	17078
26,80278	15250
26,80692	15692
26,81103	16230
26,81515	15466
26,81927	14130
26,82340	16042
26,82752	16193
26,83163	15730
26,83577	16198
26,83988	16570
26,84400	16770
26,84813	15938
26,85225	15718
26,85637	16493
26,86050	15790
26,86462	15914
26,86873	15623
26,87287	15207
26,87698	15008
26,88110	16796
26,88523	15021
26,88935	16448
26,89347	14982
26,89760	15743
26,90172	15880
26,90583	14282
26,90995	15362
26,91408	14450
26,91820	14959
26,92232	16098
26,92645	15190
26,93057	14108
26,93468	14726
26,93882	14668
26,94293	14831
26,94705	15410
26,95118	14529
26,95530	14281
26,95942	15983
26,96355	16540
26,96767	16815
26,97178	14459
26,97592	15861
26,98003	15702
26,98415	14323
26,98828	15251
26,99240	13896
26,99652	16252
27,00063	13642
27,00477	14379
27,00888	15350
27,01300	14448
27,01713	13558
27,02125	13577
27,02537	16429
27,02950	14387
27,03362	15685
27,03773	14851
27,04187	15202
27,04598	15065
27,05010	14495
27,05423	14337
27,05835	14193
27,06247	15419
27,06660	12964
27,07072	15925
27,07483	16769
27,07897	14916
27,08308	14812
27,08720	15043
27,09132	13146
27,09545	14931
27,09957	16861
27,10368	16947
27,10782	15344
27,11193	14715
27,11605	15210
27,12018	16277
27,12430	16003
27,12842	15608
27,13255	15403
27,13667	14978
27,14078	15196
27,14492	16626
27,14903	14637
27,15315	16289
27,15728	15473
27,16140	15291
27,16552	14336
27,16965	15279
27,17377	14729
27,17788	16965
27,18200	15512
27,18613	15039
27,19025	13876
27,19437	14952
27,19850	14964
27,20262	15928
27,20673	15396
27,21087	17531
27,21498	14863
27,21910	14503
27,22323	13995
27,22735	14544
27,23147	16651
27,23560	15500
27,23972	14344
27,24383	15022
27,24797	15709
27,25208	14685
27,25620	14742
27,26033	14790
27,26445	14577
27,26857	13781
27,27268	13750
27,27682	15397
27,28093	15012
27,28505	14438
27,28918	14733
27,29330	14836
27,29742	14649
27,30155	13316
27,30567	17131
27,30978	14896
27,31392	15848
27,31803	13712
27,32215	15017
27,32628	13589
27,33040	13431
27,33452	16811
27,33865	14647
27,34277	15701
27,34688	15731
27,35102	14788
27,35513	14219
27,35925	14312
27,36337	13766
27,36750	14059
27,37162	14784
27,37573	14926
27,37987	16052
27,38398	15457
27,38810	14726
27,39223	16615
27,39635	14253
27,40047	15313
27,40460	13623
27,40872	14553
27,41283	15451
27,41697	15321
27,42108	14914
27,42520	14518
27,42933	14544
27,43345	15024
27,43757	12930
27,44170	14629
27,44582	13478
27,44993	15299
27,45405	16204
