D:\MassHunter\GCMS\1\data\Amal\Constant flow\130C\130C_1ml-min_6C-min_2.D Mon Sep 02 17:16:55 2024
Start of data points
5,19092	385129
5,19503	484454
5,19915	620512
5,20327	756096
5,20740	871329
5,21152	977828
5,21563	1030581
5,21977	1035101
5,22388	1061468
5,22800	1047556
5,23213	1037836
5,23625	1024775
5,24037	994501
5,24450	974145
5,24862	954560
5,25273	924338
5,25687	904427
5,26098	865418
5,26510	840183
5,26923	818242
5,27335	803721
5,27747	774101
5,28160	745153
5,28572	727834
5,28983	701030
5,29395	679974
5,29808	653235
5,30220	635096
5,30632	605445
5,31045	593170
5,31457	569081
5,31868	542262
5,32282	526730
5,32693	509828
5,33105	492132
5,33518	475493
5,33930	461798
5,34342	438509
5,34755	412617
5,35167	400937
5,35578	378187
5,35992	358706
5,36403	337053
5,36815	313748
5,37228	303169
5,37640	283285
5,38052	270227
5,38463	249669
5,38877	239300
5,39288	226536
5,39700	219017
5,40113	208235
5,40525	194967
5,40937	185142
5,41350	180535
5,41762	177796
5,42173	166744
5,42587	162017
5,42998	156800
5,43410	149532
5,43823	145848
5,44235	140898
5,44647	135554
5,45060	130393
5,45472	129543
5,45883	127674
5,46297	122873
5,46708	118988
5,47120	119835
5,47532	115924
5,47945	111997
5,48357	111041
5,48768	111284
5,49182	112506
5,49593	109568
5,50005	106994
5,50418	107065
5,50830	102455
5,51242	101527
5,51655	99835
5,52067	100688
5,52478	101030
5,52892	99863
5,53303	99799
5,53715	98968
5,54128	96440
5,54540	95540
5,54952	97690
5,55365	96343
5,55777	97505
5,56188	94504
5,56600	96671
5,57013	93634
5,57425	95204
5,57837	94367
5,58250	96733
5,58662	93226
5,59073	92585
5,59487	93260
5,59898	95519
5,60310	93301
5,60723	89203
5,61135	92000
5,61547	90608
5,61960	95165
5,62372	92167
5,62783	92240
5,63197	90119
5,63608	90583
5,64020	89295
5,64433	86857
5,64845	90738
5,65257	88464
5,65668	88287
5,66082	88706
5,66493	89770
5,66905	86379
5,67318	87626
5,67730	87788
5,68142	87552
5,68555	87481
5,68967	85491
5,69378	86086
5,69792	84412
5,70203	87680
5,70615	85094
5,71028	84030
5,71440	84241
5,71852	82606
5,72265	82236
5,72677	80865
5,73088	81186
5,73502	81598
5,73913	82279
5,74325	80664
5,74737	81937
5,75150	81531
5,75562	78259
5,75973	82348
5,76387	79397
5,76798	78606
5,77210	75881
5,77623	77110
5,78035	77768
5,78447	77585
5,78860	78036
5,79272	78945
5,79683	76790
5,80097	76370
5,80508	77657
5,80920	76091
5,81333	75612
5,81745	76219
5,82157	77475
5,82570	75242
5,82982	76748
5,83393	75594
5,83805	76247
5,84218	78912
5,84630	76661
5,85042	78498
5,85455	80081
5,85867	76254
5,86278	76314
5,86692	75134
5,87103	74635
5,87515	75979
5,87928	75915
5,88340	72962
5,88752	71683
5,89165	73792
5,89577	71712
5,89988	73327
5,90402	74637
5,90813	73320
5,91225	72759
5,91638	70937
5,92050	74458
5,92462	72173
5,92873	70400
5,93287	71603
5,93698	73198
5,94110	71471
5,94523	71722
5,94935	70909
5,95347	69816
5,95760	71846
5,96172	71232
5,96583	69734
5,96997	71438
5,97408	69796
5,97820	67760
5,98233	65697
5,98645	68911
5,99057	69265
5,99470	67974
5,99882	68127
6,00293	67594
6,00707	66340
6,01118	66730
6,01530	66593
6,01942	68176
6,02355	67152
6,02767	68049
6,03178	68082
6,03592	68222
6,04003	67794
6,04415	66197
6,04828	66520
6,05240	63107
6,05652	66930
6,06065	65337
6,06477	65664
6,06888	64353
6,07302	67018
6,07713	72070
6,08125	85661
6,08538	112161
6,08950	159801
6,09362	245479
6,09775	357572
6,10187	505892
6,10598	663373
6,11010	829784
6,11423	969951
6,11835	1086425
6,12247	1156353
6,12660	1200357
6,13072	1218900
6,13483	1205210
6,13897	1197414
6,14308	1161932
6,14720	1142282
6,15133	1101964
6,15545	1069234
6,15957	1033747
6,16370	989629
6,16782	953399
6,17193	919440
6,17607	878626
6,18018	843791
6,18430	815820
6,18843	780839
6,19255	740709
6,19667	710451
6,20078	684497
6,20492	636782
6,20903	610783
6,21315	574352
6,21728	550119
6,22140	513918
6,22552	483401
6,22965	442758
6,23377	416102
6,23788	380101
6,24202	353471
6,24613	323036
6,25025	296925
6,25438	277231
6,25850	251210
6,26262	225975
6,26675	213612
6,27087	197300
6,27498	177101
6,27912	167101
6,28323	149618
6,28735	140646
6,29148	131771
6,29560	124825
6,29972	118049
6,30383	110595
6,30797	100220
6,31208	97393
6,31620	94259
6,32033	87195
6,32445	84737
6,32857	80536
6,33270	80513
6,33682	76711
6,34093	74580
6,34507	73548
6,34918	70246
6,35330	68492
6,35743	65846
6,36155	65428
6,36567	64826
6,36980	65471
6,37392	63128
6,37803	61695
6,38217	60536
6,38628	60699
6,39040	59825
6,39452	58409
6,39865	60007
6,40277	59640
6,40688	58075
6,41102	54955
6,41513	56998
6,41925	55247
6,42338	55417
6,42750	56013
6,43162	53606
6,43575	55458
6,43987	53559
6,44398	53386
6,44812	54720
6,45223	55126
6,45635	51830
6,46048	53220
6,46460	52962
6,46872	51254
6,47285	51780
6,47697	50454
6,48108	51173
6,48520	49623
6,48933	51616
6,49345	50747
6,49757	50225
6,50170	51490
6,50582	49943
6,50993	51588
6,51407	49932
6,51818	49360
6,52230	49728
6,52643	50305
6,53055	49353
6,53467	48406
6,53880	50383
6,54292	50434
6,54703	49957
6,55117	49430
6,55528	48003
6,55940	48743
6,56353	49035
6,56765	48147
6,57177	47901
6,57588	47570
6,58002	47358
6,58413	47745
6,58825	46898
6,59238	49332
6,59650	48596
6,60062	49921
6,60475	44127
6,60887	49100
6,61298	48661
6,61712	47702
6,62123	47489
6,62535	47179
6,62948	47545
6,63360	46454
6,63772	46445
6,64185	45736
6,64597	45694
6,65008	44113
6,65422	45356
6,65833	45557
6,66245	45665
6,66657	47373
6,67070	46214
6,67482	46006
6,67893	46437
6,68307	44586
6,68718	45179
6,69130	46407
6,69543	44028
6,69955	47610
6,70367	52980
6,70780	63991
6,71192	80090
6,71603	109940
6,72017	153275
6,72428	217071
6,72840	289923
6,73253	374645
6,73665	463562
6,74077	538626
6,74490	610326
6,74902	643319
6,75313	670451
6,75725	679726
6,76138	670166
6,76550	669429
6,76962	656946
6,77375	630984
6,77787	603181
6,78198	585933
6,78612	563056
6,79023	543683
6,79435	510493
6,79848	497012
6,80260	468502
6,80672	447364
6,81085	425782
6,81497	401518
6,81908	382318
6,82322	363994
6,82733	342408
6,83145	314992
6,83558	301475
6,83970	275774
6,84382	252710
6,84793	235046
6,85207	212665
6,85618	193168
6,86030	177118
6,86443	161629
6,86855	146176
6,87267	137083
6,87680	124267
6,88092	109807
6,88503	106704
6,88917	93752
6,89328	88828
6,89740	85701
6,90153	78308
6,90565	74948
6,90977	68999
6,91390	66330
6,91802	65621
6,92213	61592
6,92627	57964
6,93038	56287
6,93450	55222
6,93862	54310
6,94275	50755
6,94687	50188
6,95098	50891
6,95512	50329
6,95923	47225
6,96335	46761
6,96748	46630
6,97160	48704
6,97572	46911
6,97985	45718
6,98397	47124
6,98808	45478
6,99222	46496
6,99633	45727
7,00045	44911
7,00458	46552
7,00870	45242
7,01282	46355
7,01695	45112
7,02107	43775
7,02518	43145
7,02930	41977
7,03343	44729
7,03755	43482
7,04167	41793
7,04580	42914
7,04992	44373
7,05403	43246
7,05817	43725
7,06228	42321
7,06640	42446
7,07053	42861
7,07465	41353
7,07877	42398
7,08290	42535
7,08702	40189
7,09113	43141
7,09527	40539
7,09938	41273
7,10350	41975
7,10763	39606
7,11175	37766
7,11587	38310
7,11998	38208
7,12412	38806
7,12823	37786
7,13235	39470
7,13648	36990
7,14060	38184
7,14472	35994
7,14885	38084
7,15297	37282
7,15708	37117
7,16122	38340
7,16533	35413
7,16945	36802
7,17358	37452
7,17770	36622
7,18182	36670
7,18595	35981
7,19007	35932
7,19418	34990
7,19832	34913
7,20243	32935
7,20655	35707
7,21067	34557
7,21480	34760
7,21892	34551
7,22303	36683
7,22717	34700
7,23128	32789
7,23540	33814
7,23953	33975
7,24365	35021
7,24777	35661
7,25190	34177
7,25602	32878
7,26013	32051
7,26427	34124
7,26838	33241
7,27250	34442
7,27663	34482
7,28075	32881
7,28487	33380
7,28900	32599
7,29312	33789
7,29723	33018
7,30135	33577
7,30548	32553
7,30960	34731
7,31372	31831
7,31785	32740
7,32197	32837
7,32608	33476
7,33022	33005
7,33433	34795
7,33845	33501
7,34258	32321
7,34670	32940
7,35082	34275
7,35495	33421
7,35907	35812
7,36318	32257
7,36732	34901
7,37143	34101
7,37555	31491
7,37968	33811
7,38380	33653
7,38792	31747
7,39203	32817
7,39617	31392
7,40028	32499
7,40440	32734
7,40853	32772
7,41265	34539
7,41677	33364
7,42090	33007
7,42502	32405
7,42913	32325
7,43327	33524
7,43738	37314
7,44150	41132
7,44563	55654
7,44975	79935
7,45387	125555
7,45800	201300
7,46212	297472
7,46623	438726
7,47037	604813
7,47448	798558
7,47860	980756
7,48272	1160467
7,48685	1290309
7,49097	1397847
7,49508	1472253
7,49922	1493064
7,50333	1470741
7,50745	1441123
7,51158	1405440
7,51570	1358734
7,51982	1295532
7,52395	1228225
7,52807	1165484
7,53218	1103452
7,53632	1042086
7,54043	978875
7,54455	914856
7,54868	850445
7,55280	800360
7,55692	732981
7,56105	667920
7,56517	601372
7,56928	538427
7,57340	482199
7,57753	430856
7,58165	381369
7,58577	343337
7,58990	295673
7,59402	265114
7,59813	235870
7,60227	205466
7,60638	185174
7,61050	161835
7,61463	146363
7,61875	133857
7,62287	119905
7,62700	110679
7,63112	99080
7,63523	90965
7,63937	82946
7,64348	78602
7,64760	71725
7,65173	68160
7,65585	65112
7,65997	61873
7,66408	58520
7,66822	56420
7,67233	52903
7,67645	51709
7,68058	51157
7,68470	49133
7,68882	45018
7,69295	46155
7,69707	45748
7,70118	42640
7,70532	42249
7,70943	42763
7,71355	41018
7,71768	40841
7,72180	38263
7,72592	39073
7,73005	37883
7,73417	37677
7,73828	37341
7,74242	36027
7,74653	35578
7,75065	36191
7,75477	36431
7,75890	34841
7,76302	34570
7,76713	34330
7,77127	34210
7,77538	34333
7,77950	33106
7,78363	33346
7,78775	33757
7,79187	34138
7,79600	32046
7,80012	31670
7,80423	32300
7,80837	31990
7,81248	32492
7,81660	32297
7,82073	31389
7,82485	31447
7,82897	31539
7,83310	29941
7,83722	29158
7,84133	29565
7,84547	29982
7,84958	30019
7,85370	29401
7,85782	30334
7,86195	28498
7,86607	30633
7,87018	29830
7,87432	28829
7,87843	29041
7,88255	28664
7,88668	28475
7,89080	29389
7,89492	30224
7,89905	27612
7,90317	30296
7,90728	29157
7,91142	28910
7,91553	30768
7,91965	28943
7,92378	28704
7,92790	29353
7,93202	28752
7,93615	27107
7,94027	26648
7,94438	26848
7,94850	29729
7,95263	27462
7,95675	27094
7,96087	27015
7,96500	26539
7,96912	25627
7,97323	27414
7,97737	26524
7,98148	26954
7,98560	25224
7,98973	27940
7,99385	27039
7,99797	26188
8,00210	26298
8,00622	26300
8,01033	28186
8,01447	27315
8,01858	25739
8,02270	26298
8,02683	26470
8,03095	25354
8,03507	26006
8,03918	26757
8,04332	26459
8,04743	26644
8,05155	25101
8,05568	25380
8,05980	25257
8,06392	26366
8,06805	24512
8,07217	25137
8,07628	26477
8,08042	25603
8,08453	25817
8,08865	26050
8,09278	25360
8,09690	26624
8,10102	24185
8,10515	23325
8,10927	25396
8,11338	25819
8,11752	24767
8,12163	24714
8,12575	24583
8,12987	24710
8,13400	24980
8,13812	24329
8,14223	24594
8,14637	24562
8,15048	27237
8,15460	24379
8,15873	22507
8,16285	24098
8,16697	25093
8,17110	25773
8,17522	23819
8,17933	24711
8,18347	24003
8,18758	26961
8,19170	27922
8,19583	24811
8,19995	27033
8,20407	27743
8,20820	27066
8,21232	28430
8,21643	27181
8,22055	26996
8,22468	29473
8,22880	27809
8,23292	28781
8,23705	29483
8,24117	28022
8,24528	28018
8,24942	27398
8,25353	27612
8,25765	28438
8,26178	25839
8,26590	26530
8,27002	27940
8,27415	27049
8,27827	27785
8,28238	29054
8,28652	37337
8,29063	46519
8,29475	65525
8,29888	98357
8,30300	147218
8,30712	208870
8,31123	291801
8,31537	390118
8,31948	504325
8,32360	600864
8,32773	694106
8,33185	778818
8,33597	824020
8,34010	848779
8,34422	850792
8,34833	836396
8,35247	809508
8,35658	780172
8,36070	750529
8,36483	692885
8,36895	650703
8,37307	616655
8,37720	562714
8,38132	523181
8,38543	469430
8,38957	425642
8,39368	380683
8,39780	335342
8,40192	296832
8,40605	260877
8,41017	230036
8,41428	198657
8,41842	175503
8,42253	155840
8,42665	137414
8,43078	122104
8,43490	105511
8,43902	94768
8,44315	83889
8,44727	77270
8,45138	69128
8,45552	63891
8,45963	60383
8,46375	56891
8,46788	50267
8,47200	47714
8,47612	45796
8,48025	44656
8,48437	40096
8,48848	39997
8,49260	38269
8,49673	35824
8,50085	37777
8,50497	33847
8,50910	34602
8,51322	32371
8,51733	32736
8,52147	30701
8,52558	30350
8,52970	29871
8,53383	28695
8,53795	28886
8,54207	28451
8,54620	27784
8,55032	28429
8,55443	26109
8,55857	27134
8,56268	27411
8,56680	25437
8,57093	26814
8,57505	26039
8,57917	26799
8,58328	25682
8,58742	25436
8,59153	25574
8,59565	25391
8,59978	25979
8,60390	23946
8,60802	25194
8,61215	25451
8,61627	24117
8,62038	23714
8,62452	24441
8,62863	23732
8,63275	22101
8,63688	21308
8,64100	24196
8,64512	23278
8,64925	24322
8,65337	22894
8,65748	23717
8,66162	23867
8,66573	20866
8,66985	22016
8,67397	22466
8,67810	23839
8,68222	21769
8,68633	23133
8,69047	22387
8,69458	22394
8,69870	21167
8,70283	23126
8,70695	24780
8,71107	20744
8,71520	23117
8,71932	22783
8,72343	21799
8,72757	22314
8,73168	21774
8,73580	21392
8,73993	22100
8,74405	22238
8,74817	22288
8,75230	23074
8,75642	23548
8,76053	21980
8,76465	23064
8,76878	23899
8,77290	24251
8,77702	24842
8,78115	24564
8,78527	24149
8,78938	25347
8,79352	23942
8,79763	26104
8,80175	24749
8,80588	24483
8,81000	23610
8,81412	23843
8,81825	23796
8,82237	23175
8,82648	23474
8,83062	22352
8,83473	22932
8,83885	24000
8,84298	22014
8,84710	22200
8,85122	21772
8,85533	22360
8,85947	21723
8,86358	21788
8,86770	21188
8,87183	21456
8,87595	20486
8,88007	20631
8,88420	21593
8,88832	21064
8,89243	18710
8,89657	19646
8,90068	19606
8,90480	20893
8,90893	18703
8,91305	19033
8,91717	20184
8,92130	18589
8,92542	19980
8,92953	18817
8,93367	18746
8,93778	20183
8,94190	19084
8,94602	19086
8,95015	20136
8,95427	19741
8,95838	19517
8,96252	20566
8,96663	18485
8,97075	19411
8,97488	18746
8,97900	19217
8,98312	20455
8,98725	19828
8,99137	18675
8,99548	19153
8,99962	18543
9,00373	18765
9,00785	19888
9,01198	18382
9,01610	19345
9,02022	19095
9,02435	20825
9,02847	20986
9,03258	22103
9,03670	22597
9,04083	23845
9,04495	23293
9,04907	23288
9,05320	24319
9,05732	24233
9,06143	23468
9,06557	23460
9,06968	25603
9,07380	24570
9,07793	23981
9,08205	24001
9,08617	24457
9,09030	21906
9,09442	22967
9,09853	23267
9,10267	22560
9,10678	22915
9,11090	21506
9,11503	22688
9,11915	20424
9,12327	21464
9,12738	20358
9,13152	19743
9,13563	20964
9,13975	18733
9,14388	20690
9,14800	19886
9,15212	20089
9,15625	20481
9,16037	18833
9,16448	18361
9,16862	18699
9,17273	20338
9,17685	19137
9,18098	18765
9,18510	19213
9,18922	19367
9,19335	18796
9,19747	20035
9,20158	23983
9,20572	30314
9,20983	47002
9,21395	70190
9,21807	113853
9,22220	184290
9,22632	296093
9,23043	434417
9,23457	625025
9,23868	847649
9,24280	1091901
9,24693	1332025
9,25105	1551161
9,25517	1735674
9,25930	1868316
9,26342	1927883
9,26753	1955211
9,27167	1908610
9,27578	1839151
9,27990	1736405
9,28403	1623537
9,28815	1491590
9,29227	1342812
9,29640	1211322
9,30052	1075177
9,30463	937437
9,30875	824768
9,31288	711858
9,31700	612158
9,32112	520209
9,32525	443164
9,32937	375132
9,33348	318415
9,33762	274935
9,34173	233403
9,34585	201458
9,34998	175258
9,35410	154491
9,35822	135437
9,36235	120267
9,36647	112662
9,37058	99135
9,37472	93069
9,37883	85290
9,38295	79402
9,38708	77719
9,39120	74330
9,39532	67173
9,39945	65218
9,40357	61856
9,40768	58045
9,41180	56698
9,41593	53794
9,42005	52444
9,42417	49738
9,42830	49049
9,43242	45091
9,43653	42358
9,44067	40977
9,44478	40441
9,44890	38532
9,45303	38262
9,45715	35743
9,46127	33485
9,46540	33325
9,46952	32908
9,47363	31664
9,47777	30850
9,48188	28703
9,48600	29326
9,49013	30639
9,49425	27731
9,49837	26843
9,50248	27956
9,50662	25358
9,51073	26594
9,51485	25632
9,51898	24665
9,52310	24562
9,52722	23140
9,53135	23344
9,53547	22706
9,53958	23422
9,54372	22204
9,54783	23654
9,55195	23846
9,55608	21841
9,56020	22642
9,56432	23585
9,56845	21652
9,57257	21732
9,57668	21815
9,58082	21689
9,58493	23136
9,58905	22039
9,59317	23609
9,59730	23466
9,60142	23415
9,60553	22861
9,60967	24012
9,61378	24838
9,61790	24850
9,62203	21679
9,62615	22641
9,63027	24052
9,63440	22374
9,63852	22615
9,64263	22168
9,64677	21065
9,65088	21143
9,65500	21802
9,65913	20793
9,66325	21469
9,66737	18929
9,67150	20329
9,67562	19218
9,67973	19464
9,68385	19716
9,68798	19076
9,69210	18477
9,69622	18817
9,70035	17533
9,70447	19587
9,70858	20034
9,71272	19286
9,71683	19226
9,72095	18299
9,72508	19910
9,72920	20182
9,73332	20008
9,73745	20757
9,74157	22004
9,74568	21548
9,74982	21289
9,75393	19930
9,75805	20568
9,76218	20558
9,76630	19214
9,77042	19152
9,77453	19344
9,77867	19263
9,78278	17956
9,78690	17312
9,79103	18535
9,79515	17850
9,79927	17764
9,80340	16781
9,80752	16003
9,81163	17268
9,81577	16788
9,81988	18600
9,82400	18234
9,82813	16565
9,83225	17202
9,83637	16299
9,84050	16012
9,84462	17864
9,84873	16802
9,85287	16360
9,85698	17139
9,86110	15817
9,86522	15931
9,86935	16260
9,87347	17032
9,87758	17550
9,88172	16965
9,88583	15940
9,88995	15490
9,89408	16104
9,89820	16967
9,90232	16152
9,90645	16307
9,91057	16483
9,91468	20007
9,91882	25716
9,92293	35553
9,92705	50752
9,93118	75879
9,93530	116708
9,93942	175527
9,94355	253434
9,94767	345903
9,95178	453163
9,95590	575784
9,96003	691876
9,96415	804047
9,96827	886212
9,97240	936490
9,97652	958901
9,98063	955249
9,98477	937502
9,98888	891927
9,99300	835067
9,99713	772983
10,00125	701862
10,00537	624549
10,00950	546407
10,01362	473487
10,01773	404706
10,02187	349104
10,02598	305673
10,03010	259173
10,03423	219325
10,03835	189306
10,04247	160312
10,04658	141903
10,05072	123352
10,05483	109748
10,05895	96679
10,06308	84508
10,06720	80564
10,07132	69405
10,07545	62939
10,07957	57259
10,08368	52955
10,08782	49075
10,09193	44693
10,09605	43193
10,10018	40300
10,10430	39473
10,10842	35287
10,11255	35279
10,11667	31606
10,12078	31776
10,12492	32087
10,12903	30371
10,13315	30344
10,13727	29164
10,14140	27428
10,14552	27102
10,14963	26063
10,15377	24290
10,15788	25141
10,16200	24755
10,16613	25614
10,17025	23453
10,17437	25749
10,17850	24247
10,18262	27668
10,18673	36084
10,19087	49390
10,19498	71099
10,19910	110523
10,20323	166245
10,20735	246545
10,21147	351671
10,21560	475402
10,21972	603914
10,22383	741932
10,22795	871781
10,23208	971964
10,23620	1046759
10,24032	1078837
10,24445	1090452
10,24857	1071983
10,25268	1007957
10,25682	942546
10,26093	851060
10,26505	758050
10,26918	667821
10,27330	577101
10,27742	492216
10,28155	421498
10,28567	357830
10,28978	299568
10,29392	254783
10,29803	217365
10,30215	182345
10,30628	155385
10,31040	134405
10,31452	116453
10,31863	104767
10,32277	90525
10,32688	80284
10,33100	75423
10,33513	66605
10,33925	62095
10,34337	56448
10,34750	53505
10,35162	48504
10,35573	43214
10,35987	43362
10,36398	40407
10,36810	38780
10,37223	36244
10,37635	34549
10,38047	35098
10,38460	31929
10,38872	31630
10,39283	32933
10,39697	29542
10,40108	27942
10,40520	26284
10,40932	27841
10,41345	26000
10,41757	25196
10,42168	25032
10,42582	23081
10,42993	22706
10,43405	23240
10,43818	21854
10,44230	21360
10,44642	20432
10,45055	20385
10,45467	19999
10,45878	20390
10,46292	19921
10,46703	19008
10,47115	18579
10,47528	19237
10,47940	18472
10,48352	17797
10,48765	19647
10,49177	17889
10,49588	16867
10,50000	19105
10,50413	17341
10,50825	16841
10,51237	16539
10,51650	17097
10,52062	17046
10,52473	16332
10,52887	16128
10,53298	17576
10,53710	18385
10,54123	17059
10,54535	17186
10,54947	16387
10,55360	16092
10,55772	16190
10,56183	16830
10,56597	15083
10,57008	15933
10,57420	14774
10,57833	15267
10,58245	15696
10,58657	14432
10,59068	15774
10,59482	15237
10,59893	15271
10,60305	15020
10,60718	15428
10,61130	16152
10,61542	15468
10,61955	16889
10,62367	14891
10,62778	15939
10,63192	14163
10,63603	14783
10,64015	15461
10,64428	14319
10,64840	14351
10,65252	15470
10,65665	14176
10,66077	15373
10,66488	14835
10,66902	15237
10,67313	13567
10,67725	14916
10,68137	14782
10,68550	14369
10,68962	14538
10,69373	13902
10,69787	14643
10,70198	14281
10,70610	13736
10,71023	14223
10,71435	13987
10,71847	14638
10,72260	14560
10,72672	13949
10,73083	14753
10,73497	15402
10,73908	16024
10,74320	14747
10,74733	14769
10,75145	13988
10,75557	14790
10,75970	14602
10,76382	16665
10,76793	15468
10,77205	14398
10,77618	14791
10,78030	14393
10,78442	14997
10,78855	15304
10,79267	13258
10,79678	15024
10,80092	15589
10,80503	14055
10,80915	14641
10,81328	15685
10,81740	14452
10,82152	15895
10,82565	14866
10,82977	14998
10,83388	13682
10,83802	15460
10,84213	13348
10,84625	15147
10,85038	14777
10,85450	13536
10,85862	13467
10,86273	14669
10,86687	14046
10,87098	13136
10,87510	14241
10,87923	13976
10,88335	13882
10,88747	13712
10,89160	14266
10,89572	14609
10,89983	13857
10,90397	13787
10,90808	13396
10,91220	14359
10,91633	15350
10,92045	16025
10,92457	19568
10,92870	28449
10,93282	41729
10,93693	62974
10,94107	97803
10,94518	150998
10,94930	225066
10,95343	322841
10,95755	444200
10,96167	579625
10,96578	715709
10,96992	841293
10,97403	946247
10,97815	1019800
10,98228	1052964
10,98640	1069928
10,99052	1035170
10,99465	991650
10,99877	892194
11,00288	809292
11,00702	709925
11,01113	619074
11,01525	528061
11,01938	448299
11,02350	380071
11,02762	321540
11,03175	265644
11,03587	223118
11,03998	191682
11,04412	164415
11,04823	143648
11,05235	120827
11,05647	106171
11,06060	93789
11,06472	84290
11,06883	74420
11,07297	68637
11,07708	62327
11,08120	56007
11,08533	52876
11,08945	50565
11,09357	46403
11,09770	45690
11,10182	40627
11,10593	37838
11,11007	35765
11,11418	33676
11,11830	33630
11,12243	31772
11,12655	29113
11,13067	30980
11,13480	28368
11,13892	28313
11,14303	28284
11,14715	25169
11,15128	26948
11,15540	26764
11,15952	25012
11,16365	22610
11,16777	23139
11,17188	24772
11,17602	23578
11,18013	24243
11,18425	26230
11,18838	34319
11,19250	47031
11,19662	74461
11,20075	126108
11,20487	208821
11,20898	348352
11,21312	544059
11,21723	810037
11,22135	1143911
11,22548	1522785
11,22960	1973825
11,23372	2428017
11,23783	2847822
11,24197	3238610
11,24608	3478348
11,25020	3645981
11,25433	3658663
11,25845	3532530
11,26257	3257570
11,26670	2968756
11,27082	2581761
11,27493	2216892
11,27907	1870963
11,28318	1548653
11,28730	1262615
11,29143	1046049
11,29555	866749
11,29967	725066
11,30380	596530
11,30792	513751
11,31203	431231
11,31617	367980
11,32028	319687
11,32440	276409
11,32852	243436
11,33265	220517
11,33677	193140
11,34088	171819
11,34502	155941
11,34913	141515
11,35325	130233
11,35738	117679
11,36150	106964
11,36562	100563
11,36975	91518
11,37387	86082
11,37798	80407
11,38212	74567
11,38623	72267
11,39035	65019
11,39448	62131
11,39860	61018
11,40272	58995
11,40685	53405
11,41097	53494
11,41508	49756
11,41920	49447
11,42333	46516
11,42745	44894
11,43157	42458
11,43570	42116
11,43982	39029
11,44393	39108
11,44807	37278
11,45218	35049
11,45630	34329
11,46043	31548
11,46455	32962
11,46867	31883
11,47280	32081
11,47692	29302
11,48103	30035
11,48517	27674
11,48928	28932
11,49340	25898
11,49753	26635
11,50165	26332
11,50577	25960
11,50988	25293
11,51402	24602
11,51813	23810
11,52225	22498
11,52638	23014
11,53050	22397
11,53462	22182
11,53875	20774
11,54287	20282
11,54698	20574
11,55112	20331
11,55523	20467
11,55935	19724
11,56348	20458
11,56760	19686
11,57172	20249
11,57585	18072
11,57997	19707
11,58408	17743
11,58822	20066
11,59233	20308
11,59645	19223
11,60057	18420
11,60470	19147
11,60882	18172
11,61293	17722
11,61707	17757
11,62118	18904
11,62530	16559
11,62943	17545
11,63355	18164
11,63767	16712
11,64180	18088
11,64592	19735
11,65003	19634
11,65417	17356
11,65828	17062
11,66240	17168
11,66653	18562
11,67065	17670
11,67477	16486
11,67890	15949
11,68302	16082
11,68713	17396
11,69125	14891
11,69538	15423
11,69950	14531
11,70362	15127
11,70775	14993
11,71187	14236
11,71598	15488
11,72012	15173
11,72423	16338
11,72835	14020
11,73248	14345
11,73660	14876
11,74072	14435
11,74485	15902
11,74897	16302
11,75308	15181
11,75722	15602
11,76133	16024
11,76545	16857
11,76958	15758
11,77370	15476
11,77782	17540
11,78193	15034
11,78607	16667
11,79018	14719
11,79430	15605
11,79843	15651
11,80255	17253
11,80667	18202
11,81080	20884
11,81492	26461
11,81903	37801
11,82317	59045
11,82728	95753
11,83140	144405
11,83553	219438
11,83965	321189
11,84377	449433
11,84790	589725
11,85202	737651
11,85613	885846
11,86027	992271
11,86438	1084791
11,86850	1132487
11,87262	1134804
11,87675	1091302
11,88087	1019494
11,88498	926934
11,88912	826374
11,89323	718462
11,89735	606405
11,90148	525466
11,90560	436372
11,90972	366772
11,91385	305173
11,91797	254913
11,92208	216405
11,92622	185696
11,93033	156825
11,93445	134306
11,93858	118387
11,94270	108041
11,94682	93432
11,95095	82896
11,95507	79278
11,95918	72043
11,96330	67370
11,96743	59520
11,97155	57883
11,97567	58416
11,97980	54985
11,98392	53912
11,98803	55383
11,99217	50948
11,99628	49898
12,00040	49273
12,00453	46607
12,00865	47295
12,01277	41630
12,01690	40714
12,02102	39284
12,02513	36148
12,02927	35051
12,03338	33789
12,03750	31488
12,04163	29831
12,04575	26516
12,04987	26138
12,05398	26443
12,05812	23377
12,06223	23907
12,06635	22953
12,07048	23445
12,07460	22814
12,07872	19509
12,08285	20970
12,08697	20498
12,09108	20346
12,09522	19443
12,09933	20020
12,10345	18610
12,10758	19292
12,11170	19272
12,11582	20151
12,11995	19050
12,12407	19438
12,12818	19253
12,13232	18241
12,13643	17904
12,14055	17743
12,14467	18614
12,14880	17471
12,15292	16666
12,15703	16916
12,16117	16453
12,16528	16304
12,16940	15914
12,17353	14862
12,17765	15408
12,18177	16810
12,18590	14590
12,19002	16132
12,19413	15417
12,19827	16970
12,20238	17066
12,20650	20527
12,21063	26179
12,21475	37246
12,21887	56147
12,22300	92091
12,22712	146122
12,23123	225582
12,23535	332497
12,23948	467586
12,24360	631517
12,24772	811087
12,25185	969929
12,25597	1114722
12,26008	1236600
12,26422	1286768
12,26833	1283983
12,27245	1237935
12,27658	1146056
12,28070	1026677
12,28482	892831
12,28895	762480
12,29307	644499
12,29718	540794
12,30132	451247
12,30543	376112
12,30955	311184
12,31368	260289
12,31780	221910
12,32192	185708
12,32603	159449
12,33017	139997
12,33428	123262
12,33840	108892
12,34253	96219
12,34665	84839
12,35077	78956
12,35490	69626
12,35902	63715
12,36313	58407
12,36727	56294
12,37138	50900
12,37550	47848
12,37963	45689
12,38375	42494
12,38787	41128
12,39200	39642
12,39612	37299
12,40023	33460
12,40437	32181
12,40848	30233
12,41260	31295
12,41672	29099
12,42085	28209
12,42497	25714
12,42908	25247
12,43322	24944
12,43733	24933
12,44145	24019
12,44558	22238
12,44970	22395
12,45382	22408
12,45795	20965
12,46207	22727
12,46618	19058
12,47032	21857
12,47443	20095
12,47855	20445
12,48268	19717
12,48680	18928
12,49092	17639
12,49505	18403
12,49917	18184
12,50328	17926
12,50742	16529
12,51153	17536
12,51565	17076
12,51977	17381
12,52390	16331
12,52802	16960
12,53213	17405
12,53627	17113
12,54038	16094
12,54450	16222
12,54863	15605
12,55275	14897
12,55687	15137
12,56100	15645
12,56512	15419
12,56923	15655
12,57337	14099
12,57748	15086
12,58160	14524
12,58573	15775
12,58985	14688
12,59397	14722
12,59810	15312
12,60222	14903
12,60633	14928
12,61045	14963
12,61458	15174
12,61870	15821
12,62282	15175
12,62695	14521
12,63107	14559
12,63518	13372
12,63932	15126
12,64343	13867
12,64755	15274
12,65168	14832
12,65580	14987
12,65992	13032
12,66405	14045
12,66817	13951
12,67228	14025
12,67642	13216
12,68053	13280
12,68465	13233
12,68878	13951
12,69290	14511
12,69702	13742
12,70113	12857
12,70527	12426
12,70938	12771
12,71350	12341
12,71763	12977
12,72175	12779
12,72587	13796
12,73000	11233
12,73412	12523
12,73823	13609
12,74237	12945
12,74648	12374
12,75060	12986
12,75473	9918
12,75885	14908
12,76297	13373
12,76710	12827
12,77122	13019
12,77533	12751
12,77947	13395
12,78358	13181
12,78770	12210
12,79182	12512
12,79595	13169
12,80007	13707
12,80418	15156
12,80832	14552
12,81243	15091
12,81655	15129
12,82068	14748
12,82480	15917
12,82892	18699
12,83305	24983
12,83717	32700
12,84128	49207
12,84542	78492
12,84953	119142
12,85365	190298
12,85778	283816
12,86190	407680
12,86602	557057
12,87015	712555
12,87427	881203
12,87838	1032933
12,88250	1152577
12,88663	1226519
12,89075	1248927
12,89487	1233069
12,89900	1139452
12,90312	1023044
12,90723	910546
12,91137	790887
12,91548	667453
12,91960	562248
12,92373	472408
12,92785	393437
12,93197	331011
12,93610	278032
12,94022	229669
12,94433	198184
12,94847	170632
12,95258	147930
12,95670	127531
12,96083	113978
12,96495	100170
12,96907	90875
12,97318	81125
12,97732	74451
12,98143	67275
12,98555	63248
12,98968	54765
12,99380	54901
12,99792	48519
13,00205	45868
13,00617	44571
13,01028	41780
13,01442	40066
13,01853	38206
13,02265	35205
13,02678	32752
13,03090	32320
13,03502	30407
13,03915	31085
13,04327	28512
13,04738	28911
13,05152	27390
13,05563	25039
13,05975	24069
13,06387	23694
13,06800	23591
13,07212	22975
13,07623	22128
13,08037	20858
13,08448	21056
13,08860	20659
13,09273	18890
13,09685	19993
13,10097	19877
13,10510	18796
13,10922	18526
13,11333	19254
13,11747	18341
13,12158	18041
13,12570	18845
13,12983	18130
13,13395	20566
13,13807	20103
13,14220	21913
13,14632	21165
13,15043	24037
13,15455	25546
13,15868	27389
13,16280	28547
13,16692	28245
13,17105	27725
13,17517	29018
13,17928	26749
13,18342	26622
13,18753	26048
13,19165	25469
13,19578	23122
13,19990	23517
13,20402	23172
13,20815	20432
13,21227	22783
13,21638	22576
13,22052	27794
13,22463	39333
13,22875	59916
13,23288	98672
13,23700	164634
13,24112	265808
13,24523	416682
13,24937	632797
13,25348	896935
13,25760	1210451
13,26173	1567277
13,26585	1921338
13,26997	2267527
13,27410	2561598
13,27822	2746051
13,28233	2812959
13,28647	2794539
13,29058	2647798
13,29470	2406263
13,29883	2102132
13,30295	1792203
13,30707	1506745
13,31120	1250540
13,31532	1023553
13,31943	845464
13,32357	698443
13,32768	581708
13,33180	487337
13,33592	418641
13,34005	353942
13,34417	301929
13,34828	261674
13,35242	226937
13,35653	204411
13,36065	187495
13,36478	167608
13,36890	152315
13,37302	136944
13,37715	121840
13,38127	113245
13,38538	107498
13,38952	94996
13,39363	91481
13,39775	84071
13,40188	77711
13,40600	72854
13,41012	67786
13,41425	63729
13,41837	60390
13,42248	57809
13,42660	54776
13,43073	51315
13,43485	49463
13,43897	47477
13,44310	46068
13,44722	42613
13,45133	42115
13,45547	40630
13,45958	39225
13,46370	39193
13,46783	35657
13,47195	35161
13,47607	34947
13,48020	33491
13,48432	32426
13,48843	31716
13,49257	32075
13,49668	29027
13,50080	28305
13,50493	28783
13,50905	27334
13,51317	28987
13,51728	26249
13,52142	26440
13,52553	26096
13,52965	24257
13,53378	25150
13,53790	24770
13,54202	23211
13,54615	24986
13,55027	23369
13,55438	23052
13,55852	23469
13,56263	22417
13,56675	23059
13,57088	23102
13,57500	26148
13,57912	33894
13,58325	43347
13,58737	65237
13,59148	98258
13,59562	155271
13,59973	232097
13,60385	347573
13,60797	495506
13,61210	654264
13,61622	834647
13,62033	1015650
13,62447	1157238
13,62858	1284268
13,63270	1335460
13,63683	1324484
13,64095	1274171
13,64507	1170062
13,64920	1049370
13,65332	926028
13,65743	789822
13,66157	682523
13,66568	554968
13,66980	466505
13,67393	392685
13,67805	330574
13,68217	280369
13,68630	238272
13,69042	205904
13,69453	181143
13,69865	158211
13,70278	140220
13,70690	122105
13,71102	109731
13,71515	99057
13,71927	89304
13,72338	81616
13,72752	75446
13,73163	70175
13,73575	66365
13,73988	59097
13,74400	57200
13,74812	55434
13,75225	56329
13,75637	60648
13,76048	71809
13,76462	94910
13,76873	133604
13,77285	202189
13,77698	312210
13,78110	473134
13,78522	697042
13,78933	968317
13,79347	1279584
13,79758	1636120
13,80170	1973589
13,80583	2302026
13,80995	2543219
13,81407	2689535
13,81820	2722893
13,82232	2629951
13,82643	2445646
13,83057	2190694
13,83468	1908891
13,83880	1620803
13,84293	1364734
13,84705	1131668
13,85117	934017
13,85530	783247
13,85942	655750
13,86353	548657
13,86767	467856
13,87178	396640
13,87590	345847
13,88002	295503
13,88415	267929
13,88827	233750
13,89238	207318
13,89652	185605
13,90063	168260
13,90475	153240
13,90888	136678
13,91300	129503
13,91712	119315
13,92125	110769
13,92537	103597
13,92948	97787
13,93362	87634
13,93773	83314
13,94185	77570
13,94598	75559
13,95010	70466
13,95422	65641
13,95835	62607
13,96247	60565
13,96658	58204
13,97070	54661
13,97483	54357
13,97895	53619
13,98307	50823
13,98720	48941
13,99132	46423
13,99543	43280
13,99957	43187
14,00368	39641
14,00780	40878
14,01193	38960
14,01605	39751
14,02017	37339
14,02430	34236
14,02842	35318
14,03253	32089
14,03667	33382
14,04078	32359
14,04490	30316
14,04903	31634
14,05315	28218
14,05727	29969
14,06138	29055
14,06552	28698
14,06963	27727
14,07375	27188
14,07788	25101
14,08200	26679
14,08612	24777
14,09025	24118
14,09437	24970
14,09848	26109
14,10262	24298
14,10673	24233
14,11085	23282
14,11498	23178
14,11910	22767
14,12322	21812
14,12735	23313
14,13147	20985
14,13558	20592
14,13972	21643
14,14383	21334
14,14795	21738
14,15208	21487
14,15620	21736
14,16032	22480
14,16443	24550
14,16857	30517
14,17268	41922
14,17680	63606
14,18093	94949
14,18505	144629
14,18917	224936
14,19330	331922
14,19742	465876
14,20153	620960
14,20567	795784
14,20978	956631
14,21390	1108374
14,21803	1211059
14,22215	1250751
14,22627	1274482
14,23040	1250210
14,23452	1214015
14,23863	1193486
14,24277	1219761
14,24688	1297783
14,25100	1436210
14,25512	1648250
14,25925	1921387
14,26337	2236321
14,26748	2535821
14,27162	2788875
14,27573	2958120
14,27985	3037829
14,28398	2961699
14,28810	2782763
14,29222	2512544
14,29635	2208213
14,30047	1891934
14,30458	1578763
14,30872	1310945
14,31283	1087292
14,31695	893928
14,32108	746481
14,32520	634033
14,32932	538738
14,33345	463239
14,33757	400703
14,34168	351487
14,34580	308875
14,34993	273050
14,35405	250510
14,35817	220591
14,36230	199745
14,36642	182956
14,37053	163421
14,37467	151408
14,37878	142315
14,38290	129197
14,38703	118223
14,39115	114107
14,39527	105482
14,39940	99279
14,40352	92358
14,40763	88692
14,41177	87469
14,41588	81038
14,42000	76864
14,42413	75674
14,42825	71361
14,43237	68137
14,43648	65532
14,44062	62842
14,44473	61473
14,44885	58346
14,45298	55724
14,45710	54718
14,46122	52575
14,46535	48540
14,46947	48014
14,47358	48717
14,47772	43149
14,48183	46323
14,48595	46739
14,49008	43248
14,49420	42191
14,49832	40113
14,50245	40355
14,50657	40031
14,51068	36511
14,51482	38386
14,51893	37449
14,52305	35589
14,52717	35783
14,53130	35516
14,53542	33071
14,53953	32538
14,54367	31391
14,54778	31783
14,55190	31261
14,55603	30625
14,56015	30833
14,56427	29786
14,56840	26352
14,57252	30499
14,57663	32771
14,58077	36359
14,58488	46879
14,58900	59813
14,59313	92348
14,59725	140164
14,60137	205853
14,60550	299726
14,60962	423479
14,61373	569701
14,61785	734731
14,62198	888591
14,62610	1022273
14,63022	1128005
14,63435	1187481
14,63847	1192650
14,64258	1142264
14,64672	1053808
14,65083	958891
14,65495	842840
14,65908	717575
14,66320	617157
14,66732	512857
14,67145	431395
14,67557	367460
14,67968	312248
14,68382	264963
14,68793	219762
14,69205	193964
14,69618	171401
14,70030	151456
14,70442	132905
14,70853	118018
14,71267	106204
14,71678	95126
14,72090	86331
14,72503	84938
14,72915	73859
14,73327	70800
14,73740	66705
14,74152	61727
14,74563	58553
14,74977	54333
14,75388	53048
14,75800	50637
14,76213	46738
14,76625	46348
14,77037	43382
14,77450	41999
14,77862	41509
14,78273	41038
14,78687	38061
14,79098	37233
14,79510	36591
14,79922	36153
14,80335	34433
14,80747	33545
14,81158	32666
14,81572	33291
14,81983	31647
14,82395	30349
14,82808	30596
14,83220	31473
14,83632	30753
14,84045	28170
14,84457	27667
14,84868	26449
14,85282	26098
14,85693	25056
14,86105	25750
14,86518	25340
14,86930	23072
14,87342	24289
14,87755	21389
14,88167	25119
14,88578	24908
14,88990	24067
14,89403	22515
14,89815	21727
14,90227	20668
14,90640	22193
14,91052	22138
14,91463	21148
14,91877	21243
14,92288	20086
14,92700	21529
14,93113	19876
14,93525	19382
14,93937	21359
14,94350	19747
14,94762	19651
14,95173	19559
14,95587	19855
14,95998	21532
14,96410	19834
14,96823	18688
14,97235	20201
14,97647	20572
14,98058	19901
14,98472	20011
14,98883	18196
14,99295	19579
14,99708	18631
15,00120	17195
15,00532	17176
15,00945	19271
15,01357	19888
15,01768	17390
15,02182	17988
15,02593	18548
15,03005	18240
15,03418	18494
15,03830	19347
15,04242	19508
15,04655	18775
15,05067	18420
15,05478	16696
15,05892	17684
15,06303	17466
15,06715	18467
15,07127	17598
15,07540	16885
15,07952	18890
15,08363	17119
15,08777	17956
15,09188	19031
15,09600	17283
15,10013	18415
15,10425	18092
15,10837	16139
15,11250	16786
15,11662	18024
15,12073	18144
15,12487	17219
15,12898	18665
15,13310	18371
15,13723	17186
15,14135	18245
15,14547	18606
15,14960	16956
15,15372	17534
15,15783	19926
15,16195	25043
15,16608	32601
15,17020	47105
15,17432	73611
15,17845	112517
15,18257	170254
15,18668	252647
15,19082	358971
15,19493	499808
15,19905	661620
15,20318	815724
15,20730	967949
15,21142	1132965
15,21555	1280148
15,21967	1430002
15,22378	1602387
15,22792	1787614
15,23203	2012367
15,23615	2295499
15,24028	2577045
15,24440	2875344
15,24852	3158071
15,25263	3350442
15,25677	3455069
15,26088	3428190
15,26500	3255471
15,26913	2963808
15,27325	2618852
15,27737	2274076
15,28150	1902040
15,28562	1587932
15,28973	1313225
15,29387	1104029
15,29798	926248
15,30210	775990
15,30623	665625
15,31035	572736
15,31447	490378
15,31860	427295
15,32272	376191
15,32683	339661
15,33097	302772
15,33508	270058
15,33920	247353
15,34332	223809
15,34745	204692
15,35157	189298
15,35568	174820
15,35982	163171
15,36393	153367
15,36805	138896
15,37218	133457
15,37630	127149
15,38042	121131
15,38455	115215
15,38867	114800
15,39278	111067
15,39692	106672
15,40103	102793
15,40515	98754
15,40928	96091
15,41340	90581
15,41752	81648
15,42165	81462
15,42577	77215
15,42988	73540
15,43400	70543
15,43813	66249
15,44225	65283
15,44637	60994
15,45050	60565
15,45462	56833
15,45873	54459
15,46287	52346
15,46698	50379
15,47110	50190
15,47523	47358
15,47935	45558
15,48347	44106
15,48760	43670
15,49172	43375
15,49583	43174
15,49997	39657
15,50408	40511
15,50820	40032
15,51233	40388
15,51645	41149
15,52057	39607
15,52468	40119
15,52882	43047
15,53293	50443
15,53705	59406
15,54118	82895
15,54530	120783
15,54942	175502
15,55355	250226
15,55767	354514
15,56178	486515
15,56592	621448
15,57003	759907
15,57415	886678
15,57828	986463
15,58240	1036109
15,58652	1057081
15,59065	1020253
15,59477	953028
15,59888	874466
15,60302	772384
15,60713	661334
15,61125	568217
15,61537	480083
15,61950	406284
15,62362	342534
15,62773	294648
15,63187	251020
15,63598	215018
15,64010	187543
15,64423	164483
15,64835	146660
15,65247	129962
15,65660	115617
15,66072	104606
15,66483	97828
15,66897	86563
15,67308	82597
15,67720	74510
15,68133	70330
15,68545	66623
15,68957	62514
15,69370	59918
15,69782	56239
15,70193	56896
15,70605	54948
15,71018	61037
15,71430	68843
15,71842	85141
15,72255	117399
15,72667	168785
15,73078	242331
15,73492	352747
15,73903	493198
15,74315	665388
15,74728	863480
15,75140	1048022
15,75552	1219137
15,75965	1361086
15,76377	1436394
15,76788	1444079
15,77202	1412204
15,77613	1305211
15,78025	1179393
15,78438	1036133
15,78850	899405
15,79262	765238
15,79675	649627
15,80087	548867
15,80498	465666
15,80910	399999
15,81323	342679
15,81735	293576
15,82147	259379
15,82560	226415
15,82972	197698
15,83383	184985
15,83797	163117
15,84208	146512
15,84620	134592
15,85033	124239
15,85445	116908
15,85857	108072
15,86270	99450
15,86682	91799
15,87093	87664
15,87507	83168
15,87918	78111
15,88330	74716
15,88743	70689
15,89155	68883
15,89567	63852
15,89978	62468
15,90392	58846
15,90803	58544
15,91215	55221
15,91628	53133
15,92040	49167
15,92452	46477
15,92865	46387
15,93277	46666
15,93688	44272
15,94102	43964
15,94513	41266
15,94925	39827
15,95338	39705
15,95750	39081
15,96162	37248
15,96575	38059
15,96987	35021
15,97398	35983
15,97812	35752
15,98223	32860
15,98635	34694
15,99047	32946
15,99460	32518
15,99872	32549
16,00283	34125
16,00697	30618
16,01108	31326
16,01520	30371
16,01933	31060
16,02345	30411
16,02757	29715
16,03170	30427
16,03582	28727
16,03993	27467
16,04407	26916
16,04818	27561
16,05230	28122
16,05643	28478
16,06055	28025
16,06467	25881
16,06880	27547
16,07292	24509
16,07703	25830
16,08115	24390
16,08528	27125
16,08940	25106
16,09352	24403
16,09765	24533
16,10177	25266
16,10588	24583
16,11002	24648
16,11413	23876
16,11825	24663
16,12238	24315
16,12650	24395
16,13062	25697
16,13475	23400
16,13887	25386
16,14298	28059
16,14712	30740
16,15123	35515
16,15535	51027
16,15948	77356
16,16360	120879
16,16772	190453
16,17183	288841
16,17597	429055
16,18008	599819
16,18420	817371
16,18833	1035969
16,19245	1244576
16,19657	1431462
16,20070	1544256
16,20482	1615783
16,20893	1594435
16,21307	1493133
16,21718	1357718
16,22130	1195072
16,22543	1028653
16,22955	874809
16,23367	741040
16,23780	623160
16,24192	524528
16,24603	448565
16,25017	387329
16,25428	331377
16,25840	291386
16,26252	252321
16,26665	232158
16,27077	201045
16,27488	183668
16,27902	166706
16,28313	150853
16,28725	138470
16,29138	124938
16,29550	119992
16,29962	110576
16,30375	104675
16,30787	96264
16,31198	91427
16,31612	84382
16,32023	79106
16,32435	78985
16,32848	75764
16,33260	72132
16,33672	69237
16,34085	66152
16,34497	65156
16,34908	61866
16,35320	62237
16,35733	55236
16,36145	57753
16,36557	56116
16,36970	51125
16,37382	50378
16,37793	51227
16,38207	48171
16,38618	44610
16,39030	43524
16,39443	42918
16,39855	39790
16,40267	42447
16,40680	38621
16,41092	38664
16,41503	37987
16,41917	38241
16,42328	36269
16,42740	36501
16,43153	34296
16,43565	35513
16,43977	34087
16,44388	34467
16,44802	34174
16,45213	33994
16,45625	34695
16,46038	33381
16,46450	29621
16,46862	31347
16,47275	30807
16,47687	30204
16,48098	30530
16,48512	29690
16,48923	30653
16,49335	29508
16,49748	34413
16,50160	37326
16,50572	38542
16,50985	52019
16,51397	72990
16,51808	109619
16,52222	164930
16,52633	245230
16,53045	362566
16,53457	498375
16,53870	680046
16,54282	836959
16,54693	1005431
16,55107	1143752
16,55518	1224170
16,55930	1268669
16,56343	1255541
16,56755	1189710
16,57167	1092514
16,57580	974230
16,57992	842491
16,58403	730461
16,58817	618383
16,59228	527464
16,59640	442913
16,60053	382709
16,60465	325753
16,60877	287363
16,61290	247439
16,61702	216716
16,62113	189457
16,62525	169934
16,62938	153230
16,63350	142658
16,63762	125388
16,64175	114721
16,64587	108429
16,64998	99680
16,65412	90688
16,65823	85863
16,66235	79962
16,66648	74033
16,67060	70749
16,67472	68216
16,67885	66074
16,68297	61833
16,68708	59063
16,69122	56932
16,69533	52697
16,69945	52740
16,70358	49782
16,70770	49325
16,71182	46996
16,71593	45167
16,72007	47056
16,72418	43668
16,72830	41994
16,73243	40803
16,73655	41145
16,74067	39640
16,74480	37336
16,74892	38853
16,75303	36941
16,75717	35636
16,76128	35682
16,76540	35904
16,76953	34410
16,77365	36142
16,77777	31981
16,78190	34047
16,78602	30919
16,79013	31132
16,79427	32540
16,79838	31411
16,80250	30687
16,80662	30288
16,81075	28128
16,81487	29327
16,81898	28763
16,82312	30633
16,82723	29317
16,83135	28920
16,83548	27707
16,83960	27719
16,84372	28937
16,84785	29041
16,85197	26813
16,85608	26135
16,86022	27134
16,86433	25341
16,86845	25985
16,87258	26634
16,87670	26436
16,88082	25908
16,88495	25779
16,88907	25530
16,89318	23278
16,89730	26146
16,90143	26396
16,90555	26670
16,90967	25406
16,91380	24736
16,91792	24761
16,92203	27607
16,92617	25161
16,93028	26010
16,93440	25657
16,93853	25020
16,94265	25711
16,94677	25510
16,95090	25882
16,95502	25464
16,95913	25435
16,96327	25622
16,96738	24928
16,97150	25346
16,97563	22941
16,97975	24254
16,98387	23800
16,98798	24630
16,99212	25135
16,99623	26648
17,00035	23535
17,00448	23906
17,00860	21914
17,01272	23346
17,01685	24132
17,02097	23143
17,02508	23595
17,02922	21036
17,03333	22381
17,03745	23172
17,04158	25004
17,04570	24085
17,04982	24746
17,05395	26725
17,05807	28451
17,06218	36157
17,06632	46430
17,07043	65718
17,07455	102690
17,07867	164757
17,08280	262253
17,08692	400919
17,09103	590458
17,09517	850146
17,09928	1153550
17,10340	1519998
17,10753	1917835
17,11165	2317803
17,11577	2725977
17,11990	3124536
17,12402	3476522
17,12813	3797708
17,13227	3958472
17,13638	4064774
17,14050	3988445
17,14463	3747326
17,14875	3384362
17,15287	3004150
17,15700	2608545
17,16112	2208374
17,16523	1861012
17,16935	1556053
17,17348	1309166
17,17760	1125710
17,18172	950511
17,18585	830261
17,18997	723403
17,19408	637768
17,19822	559741
17,20233	501591
17,20645	448878
17,21058	399143
17,21470	370534
17,21882	339948
17,22295	308912
17,22707	282385
17,23118	263072
17,23532	237076
17,23943	226894
17,24355	206275
17,24768	198542
17,25180	186192
17,25592	180424
17,26005	166261
17,26417	159505
17,26828	150294
17,27240	145326
17,27653	135059
17,28065	133446
17,28477	126185
17,28890	119768
17,29302	114039
17,29713	106805
17,30127	108962
17,30538	102743
17,30950	100236
17,31363	95958
17,31775	94914
17,32187	89580
17,32600	86550
17,33012	84045
17,33423	80362
17,33837	79954
17,34248	76967
17,34660	76268
17,35073	73701
17,35485	71410
17,35897	71066
17,36308	68625
17,36722	66514
17,37133	63802
17,37545	64612
17,37958	61482
17,38370	61567
17,38782	61627
17,39195	58366
17,39607	54964
17,40018	56229
17,40432	60186
17,40843	61427
17,41255	68423
17,41668	85022
17,42080	107419
17,42492	148407
17,42905	209047
17,43317	296497
17,43728	411877
17,44142	558942
17,44553	713911
17,44965	865232
17,45377	1006279
17,45790	1118173
17,46202	1169885
17,46613	1188846
17,47027	1150890
17,47438	1084645
17,47850	999223
17,48263	919854
17,48675	843601
17,49087	768696
17,49500	753466
17,49912	764668
17,50323	793270
17,50737	869845
17,51148	960317
17,51560	1045693
17,51973	1119168
17,52385	1184640
17,52797	1219973
17,53210	1207184
17,53622	1157034
17,54033	1078632
17,54445	987994
17,54858	876219
17,55270	776760
17,55682	685837
17,56095	590452
17,56507	515234
17,56918	467053
17,57332	430770
17,57743	420998
17,58155	441565
17,58568	486312
17,58980	568463
17,59392	691000
17,59805	859493
17,60217	1029348
17,60628	1228750
17,61042	1393195
17,61453	1531946
17,61865	1604911
17,62278	1593676
17,62690	1536990
17,63102	1428530
17,63513	1299106
17,63927	1160492
17,64338	1011733
17,64750	874764
17,65163	757435
17,65575	652056
17,65987	563101
17,66400	492024
17,66812	440933
17,67223	386703
17,67637	343956
17,68048	315094
17,68460	287455
17,68873	255468
17,69285	244266
17,69697	222224
17,70110	205445
17,70522	191468
17,70933	175114
17,71347	165403
17,71758	158836
17,72170	149938
17,72582	139150
17,72995	134452
17,73407	130422
17,73818	119809
17,74232	116457
17,74643	109531
17,75055	103045
17,75468	101580
17,75880	98066
17,76292	93462
17,76705	91994
17,77117	87844
17,77528	83319
17,77942	84707
17,78353	78983
17,78765	75452
17,79178	73707
17,79590	70525
17,80002	67702
17,80415	68850
17,80827	66044
17,81238	66209
17,81650	65572
17,82063	62611
17,82475	60795
17,82887	60391
17,83300	57510
17,83712	59433
17,84123	58349
17,84537	54645
17,84948	55595
17,85360	54731
17,85773	54034
17,86185	52545
17,86597	50457
17,87010	50469
17,87422	49156
17,87833	51075
17,88247	52585
17,88658	47865
17,89070	47330
17,89483	48457
17,89895	46018
17,90307	46173
17,90718	46435
17,91132	44972
17,91543	43984
17,91955	41931
17,92368	43999
17,92780	42500
17,93192	41147
17,93605	43466
17,94017	41179
17,94428	43208
17,94842	42432
17,95253	44442
17,95665	43637
17,96078	45363
17,96490	50713
17,96902	55673
17,97315	67669
17,97727	86153
17,98138	115459
17,98552	166088
17,98963	245471
17,99375	359350
17,99787	499913
18,00200	679222
18,00612	873680
18,01023	1079563
18,01437	1286167
18,01848	1451422
18,02260	1578795
18,02673	1619686
18,03085	1567508
18,03497	1469333
18,03910	1338860
18,04322	1173806
18,04733	1016456
18,05147	883259
18,05558	754488
18,05970	659663
18,06383	565656
18,06795	495800
18,07207	436954
18,07620	384471
18,08032	345201
18,08443	310035
18,08855	284659
18,09268	257603
18,09680	240235
18,10092	220648
18,10505	202927
18,10917	193672
18,11328	175982
18,11742	164273
18,12153	158241
18,12565	149007
18,12978	143709
18,13390	135303
18,13802	127593
18,14215	124589
18,14627	116675
18,15038	111148
18,15452	107351
18,15863	104458
18,16275	105953
18,16688	99881
18,17100	96321
18,17512	93734
18,17923	88699
18,18337	87785
18,18748	85693
18,19160	81458
18,19573	81047
18,19985	79270
18,20397	75795
18,20810	72606
18,21222	71034
18,21633	73364
18,22047	71902
18,22458	68765
18,22870	68669
18,23283	66012
18,23695	66598
18,24107	64635
18,24520	60552
18,24932	61530
18,25343	61910
18,25757	59701
18,26168	58948
18,26580	59144
18,26992	55293
18,27405	53648
18,27817	56030
18,28228	56969
18,28642	54304
18,29053	53089
18,29465	52358
18,29878	51855
18,30290	49020
18,30702	50688
18,31115	50510
18,31527	53353
18,31938	58996
18,32352	68533
18,32763	82338
18,33175	112751
18,33588	155219
18,34000	230143
18,34412	318819
18,34825	450583
18,35237	607029
18,35648	785356
18,36060	961945
18,36473	1137654
18,36885	1251980
18,37297	1332164
18,37710	1344185
18,38122	1291664
18,38533	1200527
18,38947	1089398
18,39358	974086
18,39770	854183
18,40183	741109
18,40595	658111
18,41007	591604
18,41420	555376
18,41832	528505
18,42243	548126
18,42657	593866
18,43068	665866
18,43480	751521
18,43893	854244
18,44305	949726
18,44717	1047001
18,45128	1098585
18,45542	1121976
18,45953	1106897
18,46365	1061327
18,46778	982990
18,47190	901645
18,47602	802593
18,48015	699311
18,48427	610804
18,48838	531997
18,49252	456674
18,49663	402809
18,50075	353863
18,50488	310324
18,50900	278747
18,51312	248735
18,51725	227176
18,52137	209107
18,52548	192924
18,52962	172916
18,53373	161326
18,53785	150242
18,54197	141066
18,54610	131466
18,55022	123569
18,55433	121901
18,55847	112444
18,56258	108689
18,56670	105277
18,57083	100690
18,57495	95503
18,57907	92333
18,58320	89131
18,58732	87513
18,59143	84632
18,59557	83608
18,59968	79646
18,60380	77742
18,60793	75415
18,61205	74587
18,61617	72023
18,62030	71881
18,62442	68525
18,62853	68556
18,63265	65936
18,63678	64220
18,64090	64014
18,64502	64597
18,64915	62228
18,65327	62432
18,65738	57634
18,66152	60742
18,66563	58630
18,66975	54963
18,67388	57867
18,67800	57292
18,68212	55162
18,68625	54308
18,69037	51859
18,69448	54905
18,69862	53511
18,70273	53487
18,70685	53514
18,71098	51002
18,71510	51765
18,71922	52602
18,72333	47433
18,72747	48011
18,73158	50175
18,73570	50778
18,73983	46852
18,74395	49358
18,74807	46051
18,75220	48418
18,75632	45802
18,76043	47707
18,76457	46125
18,76868	44967
18,77280	48400
18,77693	44492
18,78105	45202
18,78517	42878
18,78930	42024
18,79342	44602
18,79753	43514
18,80167	40824
18,80578	43784
18,80990	44658
18,81402	41578
18,81815	45561
18,82227	43757
18,82638	43097
18,83052	42234
18,83463	48143
18,83875	50222
18,84288	56668
18,84700	71570
18,85112	98112
18,85525	130986
18,85937	190410
18,86348	275865
18,86762	402444
18,87173	570144
18,87585	795294
18,87998	1054259
18,88410	1378407
18,88822	1730430
18,89235	2102202
18,89647	2460396
18,90058	2777190
18,90472	3011832
18,90883	3107690
18,91295	3075321
18,91707	2901295
18,92120	2604457
18,92532	2293271
18,92943	1997107
18,93357	1694758
18,93768	1445646
18,94180	1248822
18,94593	1077320
18,95005	932248
18,95417	813537
18,95830	722042
18,96242	637477
18,96653	580186
18,97067	522923
18,97478	472115
18,97890	430472
18,98303	400128
18,98715	363685
18,99127	342614
18,99540	313651
18,99952	294142
19,00363	277873
19,00775	260677
19,01188	248221
19,01600	235426
19,02012	219843
19,02425	212318
19,02837	199775
19,03248	191878
19,03662	185795
19,04073	178205
19,04485	167261
19,04898	162795
19,05310	159741
19,05722	153003
19,06135	147956
19,06547	142950
19,06958	136789
19,07372	133063
19,07783	127848
19,08195	127748
19,08608	123979
19,09020	119970
19,09432	116646
19,09843	111252
19,10257	109664
19,10668	107809
19,11080	106649
19,11493	103624
19,11905	102664
19,12317	99286
19,12730	97303
19,13142	95012
19,13553	97562
19,13967	92854
19,14378	93199
19,14790	89201
19,15203	89714
19,15615	88097
19,16027	82480
19,16440	84483
19,16852	83614
19,17263	81333
19,17677	82104
19,18088	79035
19,18500	78649
19,18912	76797
19,19325	75820
19,19737	75701
19,20148	72441
19,20562	77427
19,20973	74054
19,21385	72056
19,21798	69417
19,22210	71939
19,22622	69699
19,23035	69429
19,23447	69289
19,23858	69434
19,24272	69071
19,24683	66817
19,25095	66723
19,25508	66591
19,25920	67891
19,26332	66312
19,26745	64443
19,27157	62796
19,27568	64669
19,27980	60497
19,28393	60279
19,28805	59349
19,29217	61622
19,29630	62257
19,30042	63347
19,30453	64453
19,30867	71177
19,31278	86253
19,31690	104506
19,32103	137487
19,32515	189109
19,32927	258556
19,33340	354648
19,33752	491814
19,34163	650492
19,34577	840871
19,34988	1026803
19,35400	1205169
19,35813	1339363
19,36225	1432696
19,36637	1459837
19,37048	1422011
19,37462	1358341
19,37873	1229792
19,38285	1105760
19,38698	980310
19,39110	868499
19,39522	759428
19,39935	664959
19,40347	585127
19,40758	526112
19,41172	464568
19,41583	412783
19,41995	378018
19,42408	342199
19,42820	316109
19,43232	287375
19,43645	265483
19,44057	256555
19,44468	232519
19,44882	218859
19,45293	210717
19,45705	193689
19,46117	188006
19,46530	176708
19,46942	169948
19,47353	161574
19,47767	157244
19,48178	146906
19,48590	142224
19,49003	136381
19,49415	131613
19,49827	126840
19,50240	129188
19,50652	118316
19,51063	118232
19,51477	115318
19,51888	111722
19,52300	109572
19,52713	102724
19,53125	105837
19,53537	101830
19,53950	100581
19,54362	99399
19,54773	94210
19,55185	98790
19,55598	92248
19,56010	89312
19,56422	87800
19,56835	85320
19,57247	85373
19,57658	84472
19,58072	80574
19,58483	78695
19,58895	82143
19,59308	80186
19,59720	77636
19,60132	78003
19,60545	75427
19,60957	75421
19,61368	72631
19,61782	70969
19,62193	67074
19,62605	71169
19,63018	69898
19,63430	69795
19,63842	68800
19,64253	70788
19,64667	66255
19,65078	67504
19,65490	65450
19,65903	66397
19,66315	65539
19,66727	65317
19,67140	66358
19,67552	66361
19,67963	64643
19,68377	63471
19,68788	66693
19,69200	65708
19,69613	69444
19,70025	71099
19,70437	72215
19,70850	73152
19,71262	81919
19,71673	88051
19,72087	92606
19,72498	101651
19,72910	109936
19,73322	120033
19,73735	119555
19,74147	125016
19,74558	128464
19,74972	123695
19,75383	122909
19,75795	119465
19,76208	113587
19,76620	109068
19,77032	101703
19,77445	94292
19,77857	90476
19,78268	84879
19,78682	80039
19,79093	79058
19,79505	74058
19,79918	69454
19,80330	69279
19,80742	65932
19,81155	65538
19,81567	61553
19,81978	61722
19,82390	64061
19,82803	58170
19,83215	59358
19,83627	61154
19,84040	57194
19,84452	58377
19,84863	60055
19,85277	59709
19,85688	57792
19,86100	58203
19,86513	55971
19,86925	59816
19,87337	57906
19,87750	52977
19,88162	56924
19,88573	56520
19,88987	56439
19,89398	57765
19,89810	53670
19,90223	55161
19,90635	53216
19,91047	55665
19,91458	55629
19,91872	56582
19,92283	56360
19,92695	55373
19,93108	55342
19,93520	54513
19,93932	53115
19,94345	53701
19,94757	51634
19,95168	54431
19,95582	53122
19,95993	57135
19,96405	55895
19,96818	53585
19,97230	52934
19,97642	53913
19,98055	53940
19,98467	55874
19,98878	53166
19,99292	52092
19,99703	52771
20,00115	50339
20,00527	53661
20,00940	53443
20,01352	51635
20,01763	51498
20,02177	50647
20,02588	53259
20,03000	53882
20,03413	53141
20,03825	52801
20,04237	54800
20,04650	54031
20,05062	51520
20,05473	51901
20,05887	52465
20,06298	51721
20,06710	51958
20,07123	52643
20,07535	52666
20,07947	53552
20,08360	55447
20,08772	51840
20,09183	53016
20,09595	51640
20,10008	53031
20,10420	49912
20,10832	53761
20,11245	52226
20,11657	54969
20,12068	52621
20,12482	51815
20,12893	54572
20,13305	51656
20,13718	52823
20,14130	52682
20,14542	52977
20,14955	53757
20,15367	53041
20,15778	51577
20,16192	52268
20,16603	53185
20,17015	53266
20,17428	50899
20,17840	53367
20,18252	53221
20,18663	54762
20,19077	54637
20,19488	54081
20,19900	52804
20,20313	50880
20,20725	52560
20,21137	52821
20,21550	53993
20,21962	52377
20,22373	52618
20,22787	51288
20,23198	54510
20,23610	52424
20,24023	53295
20,24435	48708
20,24847	52353
20,25260	52379
20,25672	53325
20,26083	54666
20,26497	50760
20,26908	52619
20,27320	52039
20,27732	52302
20,28145	51879
20,28557	51795
20,28968	51776
20,29382	51646
20,29793	53003
20,30205	54796
20,30618	51853
20,31030	51146
20,31442	52591
20,31855	49895
20,32267	48756
20,32678	54030
20,33092	49975
20,33503	53968
20,33915	49981
20,34328	51828
20,34740	53580
20,35152	52302
20,35565	49819
20,35977	52261
20,36388	49549
20,36800	50609
20,37213	51585
20,37625	53794
20,38037	52945
20,38450	49157
20,38862	52674
20,39273	50184
20,39687	52317
20,40098	52860
20,40510	51893
20,40923	51189
20,41335	50105
20,41747	49673
20,42160	51457
20,42572	49097
20,42983	49494
20,43397	50046
20,43808	50962
20,44220	49511
20,44633	50883
20,45045	50532
20,45457	49697
20,45870	49089
20,46282	53288
20,46693	52799
20,47105	49917
20,47518	48643
20,47930	48748
20,48342	49624
20,48755	53192
20,49167	51227
20,49578	52021
20,49992	50232
20,50403	54275
20,50815	52905
20,51228	53113
20,51640	51715
20,52052	54805
20,52465	51063
20,52877	54258
20,53288	52012
20,53702	52174
20,54113	50969
20,54525	52522
20,54938	54024
20,55350	53326
20,55762	53625
20,56173	55865
20,56587	54275
20,56998	54489
20,57410	57656
20,57823	61245
20,58235	67623
20,58647	76113
20,59060	100070
20,59472	126783
20,59883	165145
20,60297	217574
20,60708	282848
20,61120	378876
20,61533	463388
20,61945	562162
20,62357	652511
20,62770	734244
20,63182	782587
20,63593	807361
20,64007	802052
20,64418	783793
20,64830	726532
20,65242	686191
20,65655	625542
20,66067	559189
20,66478	506892
20,66892	449563
20,67303	399827
20,67715	355184
20,68128	313282
20,68540	282646
20,68952	255136
20,69365	229465
20,69777	208158
20,70188	189530
20,70602	180858
20,71013	166269
20,71425	153910
20,71838	146460
20,72250	138232
20,72662	130327
20,73075	125387
20,73487	120367
20,73898	116778
20,74310	111270
20,74723	106280
20,75135	103605
20,75547	97130
20,75960	95707
20,76372	89712
20,76783	91696
20,77197	86207
20,77608	85921
20,78020	82872
20,78433	84735
20,78845	79272
20,79257	80948
20,79670	78733
20,80082	75162
20,80493	75093
20,80907	76005
20,81318	73745
20,81730	73115
20,82143	72666
20,82555	73288
20,82967	70433
20,83378	69598
20,83792	65858
20,84203	68125
20,84615	65538
20,85028	66432
20,85440	68580
20,85852	66256
20,86265	64076
20,86677	65095
20,87088	65299
20,87502	66420
20,87913	67391
20,88325	62880
20,88738	62413
20,89150	62409
20,89562	64107
20,89975	59697
20,90387	63121
20,90798	60999
20,91212	63086
20,91623	62910
20,92035	60492
20,92447	62422
20,92860	60149
20,93272	58796
20,93683	60515
20,94097	57879
20,94508	61890
20,94920	59736
20,95333	58673
20,95745	59074
20,96157	59327
20,96570	57400
20,96982	58567
20,97393	58812
20,97807	56955
20,98218	58565
20,98630	56929
20,99043	58984
20,99455	58889
20,99867	59301
21,00280	56020
21,00692	60050
21,01103	58869
21,01515	60391
21,01928	58476
21,02340	61971
21,02752	54245
21,03165	59713
21,03577	60062
21,03988	58498
21,04402	57648
21,04813	58197
21,05225	57767
21,05638	55535
21,06050	56013
21,06462	59296
21,06875	56929
21,07287	55728
21,07698	58931
21,08112	57491
21,08523	54419
21,08935	57409
21,09348	57010
21,09760	58158
21,10172	56106
21,10583	57324
21,10997	56138
