D:\MassHunter\GCMS\1\data\Amal\Constant flow\130C\130C_1ml-min_6C-min_3.D Mon Sep 16 14:02:50 2024
Start of data points
4,94093,1767355
4,94507,1678308
4,94918,1590601
4,95330,1516449
4,95743,1432020
4,96155,1367564
4,96567,1288633
4,96978,1234968
4,97392,1166253
4,97803,1110974
4,98215,1054360
4,98628,1000636
4,99040,954830
4,99452,906860
4,99865,866654
5,00277,829862
5,00688,788850
5,01102,766416
5,01513,718581
5,01925,673693
5,02338,650849
5,02750,615642
5,03162,588212
5,03575,570788
5,03987,541874
5,04398,515114
5,04812,493448
5,05223,477203
5,05635,454090
5,06047,437870
5,06460,423708
5,06872,404395
5,07283,393964
5,07697,371535
5,08108,365580
5,08520,351801
5,08933,329894
5,09345,325590
5,09757,314703
5,10170,303685
5,10582,291900
5,10993,287451
5,11407,275064
5,11818,265643
5,12230,255225
5,12643,252937
5,13055,249100
5,13467,236806
5,13880,239343
5,14292,232077
5,14703,222762
5,15115,223410
5,15528,219530
5,15940,214022
5,16352,208083
5,16765,197807
5,17177,199083
5,17588,199882
5,18002,201981
5,18413,212946
5,18825,240392
5,19238,306286
5,19650,405491
5,20062,538468
5,20475,685321
5,20887,795999
5,21298,900783
5,21712,951208
5,22123,962726
5,22535,950303
5,22948,935249
5,23360,898830
5,23772,859528
5,24183,828020
5,24597,798941
5,25008,762681
5,25420,732490
5,25833,693355
5,26245,669848
5,26657,644293
5,27070,624337
5,27482,593129
5,27893,578772
5,28307,547988
5,28718,533468
5,29130,512352
5,29543,493568
5,29955,476373
5,30367,463954
5,30780,435813
5,31192,420058
5,31603,404957
5,32017,392724
5,32428,378368
5,32840,365274
5,33252,347623
5,33665,339413
5,34077,327077
5,34488,312394
5,34902,301177
5,35313,286119
5,35725,277408
5,36138,266887
5,36550,254615
5,36962,240703
5,37375,233160
5,37787,217284
5,38198,208704
5,38612,199717
5,39023,189515
5,39435,177772
5,39848,173615
5,40260,167015
5,40672,157445
5,41085,151416
5,41497,144473
5,41908,140721
5,42320,134860
5,42733,132150
5,43145,126768
5,43557,122249
5,43970,119577
5,44382,117772
5,44793,114197
5,45207,112578
5,45618,109648
5,46030,106111
5,46443,106159
5,46855,100061
5,47267,99388
5,47680,99840
5,48092,97461
5,48503,93356
5,48917,91897
5,49328,92030
5,49740,91013
5,50153,89087
5,50565,87985
5,50977,88823
5,51388,86825
5,51802,84411
5,52213,87837
5,52625,84643
5,53038,85626
5,53450,82640
5,53862,83317
5,54275,83599
5,54687,82401
5,55098,78753
5,55512,82485
5,55923,81081
5,56335,81658
5,56748,80802
5,57160,81129
5,57572,81260
5,57985,81360
5,58397,79429
5,58808,79910
5,59222,79956
5,59633,80416
5,60045,82322
5,60457,78257
5,60870,77278
5,61282,77885
5,61693,79253
5,62107,76128
5,62518,77091
5,62930,77774
5,63343,77426
5,63755,76710
5,64167,77335
5,64580,74673
5,64992,77094
5,65403,74928
5,65817,73291
5,66228,72177
5,66640,73568
5,67053,73399
5,67465,71945
5,67877,73837
5,68290,73456
5,68702,71403
5,69113,71321
5,69527,71464
5,69938,71409
5,70350,70370
5,70762,69851
5,71175,70652
5,71587,67853
5,71998,71577
5,72412,68861
5,72823,66864
5,73235,69524
5,73648,68985
5,74060,69516
5,74472,66742
5,74885,65999
5,75297,67264
5,75708,64090
5,76122,67760
5,76533,67051
5,76945,63082
5,77358,65940
5,77770,65503
5,78182,67306
5,78595,63812
5,79007,66605
5,79418,66598
5,79830,66559
5,80243,64716
5,80655,63866
5,81067,66234
5,81480,64272
5,81892,61590
5,82303,63997
5,82717,65315
5,83128,63789
5,83540,63344
5,83953,65024
5,84365,66551
5,84777,65379
5,85190,66753
5,85602,65987
5,86013,64601
5,86427,64894
5,86838,61696
5,87250,63052
5,87663,63594
5,88075,65607
5,88487,62843
5,88898,64673
5,89312,61200
5,89723,62911
5,90135,61818
5,90548,61367
5,90960,60634
5,91372,58655
5,91785,58534
5,92197,60328
5,92608,59556
5,93022,58700
5,93433,58351
5,93845,59348
5,94258,58442
5,94670,60303
5,95082,59849
5,95495,57712
5,95907,58551
5,96318,56105
5,96732,55607
5,97143,56352
5,97555,57785
5,97967,57518
5,98380,58591
5,98792,56866
5,99203,57849
5,99617,56499
6,00028,56282
6,00440,56440
6,00853,55959
6,01265,55263
6,01677,53234
6,02090,55692
6,02502,57115
6,02913,56629
6,03327,55256
6,03738,53490
6,04150,56649
6,04563,53275
6,04975,57176
6,05387,54995
6,05800,55236
6,06212,55667
6,06623,55297
6,07035,55400
6,07448,58752
6,07860,67721
6,08272,87475
6,08685,126351
6,09097,184564
6,09508,284971
6,09922,411908
6,10333,561128
6,10745,726156
6,11158,876165
6,11570,1002719
6,11982,1078247
6,12395,1133705
6,12807,1132948
6,13218,1117851
6,13632,1094783
6,14043,1058745
6,14455,1011008
6,14868,971708
6,15280,926804
6,15692,881948
6,16103,845702
6,16517,793396
6,16928,759705
6,17340,726850
6,17753,691509
6,18165,653977
6,18577,613824
6,18990,586836
6,19402,556856
6,19813,530103
6,20227,504717
6,20638,472041
6,21050,453406
6,21463,424691
6,21875,395061
6,22287,373399
6,22700,351921
6,23112,331405
6,23523,310469
6,23937,292650
6,24348,267529
6,24760,249350
6,25172,226186
6,25585,210721
6,25997,192706
6,26408,183249
6,26822,165859
6,27233,155063
6,27645,143241
6,28058,133847
6,28470,122469
6,28882,116262
6,29295,108527
6,29707,101492
6,30118,97270
6,30532,91872
6,30943,87512
6,31355,81115
6,31768,78883
6,32180,74156
6,32592,72280
6,33005,69571
6,33417,68709
6,33828,66698
6,34240,62188
6,34653,61086
6,35065,61436
6,35477,58418
6,35890,57260
6,36302,56351
6,36713,55313
6,37127,56037
6,37538,54885
6,37950,52839
6,38363,51128
6,38775,51465
6,39187,49964
6,39600,49509
6,40012,51585
6,40423,50384
6,40837,49155
6,41248,48344
6,41660,47568
6,42073,49522
6,42485,46131
6,42897,46921
6,43308,45823
6,43722,47687
6,44133,45390
6,44545,45745
6,44958,45946
6,45370,42567
6,45782,44166
6,46195,46323
6,46607,44628
6,47018,43287
6,47432,44680
6,47843,46436
6,48255,42899
6,48668,43352
6,49080,42566
6,49492,42726
6,49905,44441
6,50317,42645
6,50728,43455
6,51142,42676
6,51553,40509
6,51965,39376
6,52377,40319
6,52790,42588
6,53202,41558
6,53613,41033
6,54027,41023
6,54438,41537
6,54850,41346
6,55263,40434
6,55675,44350
6,56087,39778
6,56500,40326
6,56912,41030
6,57323,40521
6,57737,41382
6,58148,40364
6,58560,40720
6,58973,41020
6,59385,40118
6,59797,38216
6,60210,40189
6,60622,37573
6,61033,39061
6,61445,39322
6,61858,37772
6,62270,39317
6,62682,38132
6,63095,38511
6,63507,37915
6,63918,37917
6,64332,38314
6,64743,38328
6,65155,38070
6,65568,38834
6,65980,38388
6,66392,37076
6,66805,36788
6,67217,38954
6,67628,35595
6,68042,36897
6,68453,35543
6,68865,37193
6,69278,37339
6,69690,39848
6,70102,42344
6,70513,52472
6,70927,67165
6,71338,93209
6,71750,138210
6,72163,194841
6,72575,269483
6,72987,360347
6,73400,437628
6,73812,509355
6,74223,572622
6,74637,610659
6,75048,641444
6,75460,650912
6,75873,638741
6,76285,624868
6,76697,600734
6,77110,576952
6,77522,548131
6,77933,528395
6,78347,500769
6,78758,476608
6,79170,446564
6,79582,429662
6,79995,399307
6,80407,384233
6,80818,359439
6,81232,341463
6,81643,322145
6,82055,298354
6,82468,281914
6,82880,267913
6,83292,244545
6,83705,232121
6,84117,211780
6,84528,196330
6,84942,181685
6,85353,166845
6,85765,149828
6,86178,140646
6,86590,131194
6,87002,117961
6,87415,109404
6,87827,99574
6,88238,91775
6,88650,88415
6,89063,81833
6,89475,77558
6,89887,72012
6,90300,68108
6,90712,65339
6,91123,59081
6,91537,56282
6,91948,56937
6,92360,54511
6,92773,50665
6,93185,49865
6,93597,47781
6,94010,46561
6,94422,46595
6,94833,45270
6,95247,43156
6,95658,42194
6,96070,42280
6,96483,40607
6,96895,39700
6,97307,39405
6,97718,40054
6,98132,38879
6,98543,40679
6,98955,43089
6,99368,39629
6,99780,40516
7,00192,39613
7,00605,39696
7,01017,36981
7,01428,38637
7,01842,37660
7,02253,37419
7,02665,37563
7,03078,35255
7,03490,38283
7,03902,37276
7,04315,36631
7,04727,36943
7,05138,37270
7,05552,38960
7,05963,37381
7,06375,36401
7,06787,34893
7,07200,36723
7,07612,36554
7,08023,37309
7,08437,36497
7,08848,36386
7,09260,37433
7,09673,34193
7,10085,34690
7,10497,34417
7,10910,34736
7,11322,32901
7,11733,33349
7,12147,33728
7,12558,33407
7,12970,34620
7,13383,31809
7,13795,33387
7,14207,31623
7,14620,31560
7,15032,31786
7,15443,31763
7,15855,30430
7,16268,31695
7,16680,31020
7,17092,29334
7,17505,30240
7,17917,29809
7,18328,31281
7,18742,29812
7,19153,31050
7,19565,29096
7,19978,29999
7,20390,28860
7,20802,29227
7,21215,30105
7,21627,29216
7,22038,29847
7,22452,29800
7,22863,28064
7,23275,28867
7,23688,28503
7,24100,29080
7,24512,27867
7,24923,27623
7,25337,26910
7,25748,27139
7,26160,26768
7,26573,27492
7,26985,28269
7,27397,28879
7,27810,27303
7,28222,27376
7,28633,26671
7,29047,26511
7,29458,26714
7,29870,27629
7,30283,28368
7,30695,27178
7,31107,27445
7,31520,27206
7,31932,26650
7,32343,28318
7,32757,26995
7,33168,26170
7,33580,28854
7,33992,26551
7,34405,28877
7,34817,26588
7,35228,27213
7,35642,27423
7,36053,26677
7,36465,27681
7,36878,27106
7,37290,26525
7,37702,27401
7,38115,27045
7,38527,27273
7,38938,28673
7,39352,25544
7,39763,27409
7,40175,26966
7,40588,25626
7,41000,27113
7,41412,28957
7,41825,27067
7,42237,25035
7,42648,26040
7,43062,28183
7,43473,32710
7,43885,40098
7,44297,53977
7,44710,83467
7,45122,130212
7,45533,209823
7,45947,321135
7,46358,463164
7,46770,634272
7,47183,824263
7,47595,996455
7,48007,1159781
7,48420,1281935
7,48832,1384340
7,49243,1427030
7,49657,1445991
7,50068,1434029
7,50480,1399470
7,50893,1344185
7,51305,1290773
7,51717,1227451
7,52130,1146558
7,52542,1075190
7,52953,1005581
7,53365,950887
7,53778,883033
7,54190,811987
7,54602,753501
7,55015,698542
7,55427,650614
7,55838,596586
7,56252,536610
7,56663,486323
7,57075,437716
7,57488,393418
7,57900,355480
7,58312,313899
7,58725,285205
7,59137,251242
7,59548,226057
7,59962,199576
7,60373,180702
7,60785,165452
7,61198,145314
7,61610,134483
7,62022,119702
7,62433,109740
7,62847,97661
7,63258,90703
7,63670,83279
7,64083,79268
7,64495,75807
7,64907,69342
7,65320,65110
7,65732,61535
7,66143,56769
7,66557,57373
7,66968,53326
7,67380,52589
7,67793,48283
7,68205,48471
7,68617,45575
7,69030,44642
7,69442,44591
7,69853,41659
7,70267,41328
7,70678,39729
7,71090,39289
7,71502,37302
7,71915,35758
7,72327,36522
7,72738,34334
7,73152,34155
7,73563,32948
7,73975,32993
7,74388,33811
7,74800,33797
7,75212,33093
7,75625,34209
7,76037,31619
7,76448,30908
7,76862,31279
7,77273,30301
7,77685,31502
7,78098,31083
7,78510,28727
7,78922,30016
7,79335,28456
7,79747,28916
7,80158,28953
7,80570,28371
7,80983,29030
7,81395,27893
7,81807,26141
7,82220,27385
7,82632,27054
7,83043,27940
7,83457,24590
7,83868,26533
7,84280,25670
7,84693,27113
7,85105,26342
7,85517,25016
7,85930,24957
7,86342,26466
7,86753,24805
7,87167,26102
7,87578,25151
7,87990,24623
7,88403,24441
7,88815,24518
7,89227,25093
7,89638,26634
7,90052,25263
7,90463,23955
7,90875,24647
7,91288,24346
7,91700,24529
7,92112,24109
7,92525,25197
7,92937,23693
7,93348,24713
7,93762,23021
7,94173,23856
7,94585,24886
7,94998,22860
7,95410,23564
7,95822,23184
7,96235,24235
7,96647,22154
7,97058,22769
7,97472,23609
7,97883,21720
7,98295,22790
7,98707,23143
7,99120,21895
7,99532,21241
7,99943,22811
8,00357,23412
8,00768,22856
8,01180,23424
8,01593,23427
8,02005,22270
8,02417,22581
8,02830,22421
8,03242,21910
8,03653,22724
8,04067,21641
8,04478,22194
8,04890,22268
8,05303,22354
8,05715,22939
8,06127,22037
8,06540,24200
8,06952,21624
8,07363,23183
8,07775,23043
8,08188,22200
8,08600,22211
8,09012,22555
8,09425,21968
8,09837,22597
8,10248,22559
8,10662,20323
8,11073,21014
8,11485,22785
8,11898,20905
8,12310,21282
8,12722,22103
8,13135,21109
8,13547,20445
8,13958,22027
8,14372,21130
8,14783,20788
8,15195,19075
8,15608,21530
8,16020,20229
8,16432,20233
8,16843,20673
8,17257,20694
8,17668,22668
8,18080,22337
8,18493,21980
8,18905,24118
8,19317,24449
8,19730,25012
8,20142,24765
8,20553,25041
8,20967,24489
8,21378,26418
8,21790,25918
8,22203,27567
8,22615,27606
8,23027,27010
8,23440,27019
8,23852,27349
8,24263,26971
8,24677,25780
8,25088,25900
8,25500,26110
8,25912,26826
8,26325,24667
8,26737,25785
8,27148,25910
8,27562,27472
8,27973,31459
8,28385,39051
8,28798,53500
8,29210,77221
8,29622,117336
8,30035,173866
8,30447,246682
8,30858,330165
8,31272,435600
8,31683,537700
8,32095,634972
8,32508,725448
8,32920,773673
8,33332,808191
8,33745,834024
8,34157,831863
8,34568,809123
8,34980,782262
8,35393,752269
8,35805,711785
8,36217,671429
8,36630,622283
8,37042,570709
8,37453,525254
8,37867,473508
8,38278,428550
8,38690,389335
8,39103,344436
8,39515,312663
8,39927,279832
8,40340,244594
8,40752,216744
8,41163,187297
8,41577,167213
8,41988,149420
8,42400,135072
8,42813,115959
8,43225,105726
8,43637,96754
8,44048,82388
8,44462,77235
8,44873,71661
8,45285,63810
8,45698,60247
8,46110,55020
8,46522,50200
8,46935,49975
8,47347,46496
8,47758,43604
8,48172,42779
8,48583,38720
8,48995,37656
8,49408,35539
8,49820,35072
8,50232,35690
8,50645,30971
8,51057,32033
8,51468,32332
8,51882,30328
8,52293,29830
8,52705,29263
8,53117,28119
8,53530,28255
8,53942,26150
8,54353,25582
8,54767,27074
8,55178,27775
8,55590,26012
8,56003,24783
8,56415,25958
8,56827,25484
8,57240,24774
8,57652,23122
8,58063,23153
8,58477,23267
8,58888,22928
8,59300,23692
8,59713,23040
8,60125,21831
8,60537,21377
8,60950,21541
8,61362,22025
8,61773,21972
8,62185,22377
8,62598,21381
8,63010,22454
8,63422,20825
8,63835,21110
8,64247,21428
8,64658,21369
8,65072,20010
8,65483,21531
8,65895,20441
8,66308,19775
8,66720,18965
8,67132,19579
8,67545,19939
8,67957,19570
8,68368,17958
8,68782,18721
8,69193,20056
8,69605,18527
8,70018,18891
8,70430,20320
8,70842,19856
8,71253,19490
8,71667,19060
8,72078,19596
8,72490,19950
8,72903,18742
8,73315,17831
8,73727,19817
8,74140,19508
8,74552,20792
8,74963,20358
8,75377,19479
8,75788,20684
8,76200,19442
8,76613,20536
8,77025,20036
8,77437,21871
8,77850,23397
8,78262,21743
8,78673,21857
8,79087,21629
8,79498,21188
8,79910,22215
8,80322,22669
8,80735,22013
8,81147,20146
8,81558,20197
8,81972,20375
8,82383,19704
8,82795,20398
8,83208,20487
8,83620,18438
8,84032,20111
8,84445,18273
8,84857,19207
8,85268,18755
8,85682,19846
8,86093,17565
8,86505,18074
8,86918,19415
8,87330,18638
8,87742,17876
8,88155,17715
8,88567,15906
8,88978,18032
8,89390,16942
8,89803,17085
8,90215,17420
8,90627,16930
8,91040,17710
8,91452,16429
8,91863,16782
8,92277,16633
8,92688,16929
8,93100,17630
8,93513,15739
8,93925,16494
8,94337,16046
8,94750,15485
8,95162,16898
8,95573,16898
8,95987,16285
8,96398,16124
8,96810,16279
8,97223,17155
8,97635,15700
8,98047,15284
8,98460,15641
8,98872,15987
8,99283,15272
8,99695,15912
9,00108,14319
9,00520,16905
9,00932,16651
9,01345,15767
9,01757,17531
9,02168,18544
9,02582,18083
9,02993,18473
9,03405,20695
9,03818,19268
9,04230,19390
9,04642,20097
9,05055,20787
9,05467,21501
9,05878,20406
9,06292,20516
9,06703,19994
9,07115,21176
9,07528,20419
9,07940,19530
9,08352,20621
9,08763,20441
9,09177,20264
9,09588,20842
9,10000,19519
9,10413,19795
9,10825,18571
9,11237,17627
9,11650,17898
9,12062,17488
9,12473,17287
9,12887,17690
9,13298,15944
9,13710,16882
9,14123,16937
9,14535,17524
9,14947,17136
9,15360,15427
9,15772,16829
9,16183,17689
9,16597,16372
9,17008,15645
9,17420,16031
9,17832,16930
9,18245,16960
9,18657,17413
9,19068,18127
9,19482,21608
9,19893,25731
9,20305,38403
9,20718,59662
9,21130,95237
9,21542,160890
9,21955,253689
9,22367,388810
9,22778,557233
9,23192,765989
9,23603,1019746
9,24015,1255835
9,24428,1495403
9,24840,1657767
9,25252,1816022
9,25665,1904200
9,26077,1956285
9,26488,1946503
9,26900,1901012
9,27313,1806956
9,27725,1700752
9,28137,1569943
9,28550,1440833
9,28962,1300590
9,29373,1149848
9,29787,1015798
9,30198,886912
9,30610,758954
9,31023,658113
9,31435,569060
9,31847,494245
9,32260,426140
9,32672,362842
9,33083,309653
9,33497,270496
9,33908,232907
9,34320,205171
9,34733,181630
9,35145,160005
9,35557,145902
9,35968,129689
9,36382,114015
9,36793,109567
9,37205,99028
9,37618,91310
9,38030,86897
9,38442,80363
9,38855,76828
9,39267,72784
9,39678,68760
9,40092,67062
9,40503,64435
9,40915,60816
9,41328,59813
9,41740,56405
9,42152,53432
9,42565,51290
9,42977,48835
9,43388,46812
9,43802,45040
9,44213,43815
9,44625,42684
9,45037,41029
9,45450,38866
9,45862,36492
9,46273,35341
9,46687,35454
9,47098,33118
9,47510,34289
9,47923,31730
9,48335,30218
9,48747,29911
9,49160,28987
9,49572,29321
9,49983,28459
9,50397,28606
9,50808,26283
9,51220,25991
9,51633,25405
9,52045,23860
9,52457,24166
9,52870,23298
9,53282,23285
9,53693,23107
9,54105,23628
9,54518,24520
9,54930,20781
9,55342,22375
9,55755,23410
9,56167,23108
9,56578,20157
9,56992,23374
9,57403,22325
9,57815,21298
9,58228,23248
9,58640,22781
9,59052,23319
9,59465,26021
9,59877,25121
9,60288,24770
9,60702,23633
9,61113,23448
9,61525,23453
9,61938,25275
9,62350,23719
9,62762,23629
9,63173,24113
9,63587,23976
9,63998,22077
9,64410,23616
9,64823,22358
9,65235,21136
9,65647,20851
9,66060,19102
9,66472,20812
9,66883,18166
9,67297,19201
9,67708,19611
9,68120,18120
9,68533,19405
9,68945,20003
9,69357,17883
9,69770,17375
9,70182,18007
9,70593,18689
9,71007,18174
9,71418,18127
9,71830,19177
9,72242,19770
9,72655,19346
9,73067,18967
9,73478,19400
9,73892,19867
9,74303,18677
9,74715,19906
9,75128,20418
9,75540,17662
9,75952,18711
9,76365,17897
9,76777,17433
9,77188,18458
9,77602,18002
9,78013,17148
9,78425,16113
9,78838,16464
9,79250,16720
9,79662,16363
9,80075,15730
9,80487,16258
9,80898,16930
9,81310,15438
9,81723,15986
9,82135,16762
9,82547,16693
9,82960,15138
9,83372,15822
9,83783,16286
9,84197,15301
9,84608,15564
9,85020,14699
9,85433,16283
9,85845,13949
9,86257,15184
9,86670,14780
9,87082,14953
9,87493,13507
9,87907,15024
9,88318,14259
9,88730,14578
9,89143,15427
9,89555,14807
9,89967,14413
9,90378,15261
9,90792,18388
9,91203,22365
9,91615,31574
9,92028,47050
9,92440,70985
9,92852,106895
9,93265,159021
9,93677,231379
9,94088,321113
9,94502,427154
9,94913,539098
9,95325,653527
9,95738,751049
9,96150,851561
9,96562,905925
9,96975,940672
9,97387,956392
9,97798,934823
9,98212,904487
9,98623,837622
9,99035,781919
9,99447,709100
9,99860,630997
10,00272,566090
10,00683,498132
10,01097,432444
10,01508,379446
10,01920,326124
10,02333,281104
10,02745,238642
10,03157,206833
10,03570,180277
10,03982,153238
10,04393,137709
10,04807,121517
10,05218,105143
10,05630,96493
10,06043,87964
10,06455,80150
10,06867,70235
10,07280,65161
10,07692,58593
10,08103,56347
10,08515,51712
10,08928,49533
10,09340,46560
10,09752,42700
10,10165,40451
10,10577,41322
10,10988,36954
10,11402,34734
10,11813,35293
10,12225,33463
10,12638,32888
10,13050,30890
10,13462,28795
10,13875,28905
10,14287,26816
10,14698,27926
10,15112,28070
10,15523,27573
10,15935,25583
10,16348,24917
10,16760,25610
10,17172,25830
10,17583,32071
10,17997,36292
10,18408,52473
10,18820,73225
10,19233,112273
10,19645,168056
10,20057,250550
10,20470,343137
10,20882,471065
10,21293,603998
10,21707,745889
10,22118,877486
10,22530,970361
10,22943,1059463
10,23355,1112271
10,23767,1137247
10,24180,1100889
10,24592,1063036
10,25003,985993
10,25417,899573
10,25828,811761
10,26240,707986
10,26652,624482
10,27065,535338
10,27477,460265
10,27888,391242
10,28302,333937
10,28713,284661
10,29125,242932
10,29538,205700
10,29950,181168
10,30362,154855
10,30775,134360
10,31187,119331
10,31598,107732
10,32012,94473
10,32423,82744
10,32835,79638
10,33248,71440
10,33660,65431
10,34072,62837
10,34485,55931
10,34897,53146
10,35308,49506
10,35720,44563
10,36133,44366
10,36545,41500
10,36957,41209
10,37370,38066
10,37782,38251
10,38193,36571
10,38607,35858
10,39018,33146
10,39430,31615
10,39843,30302
10,40255,27663
10,40667,30098
10,41080,28149
10,41492,28153
10,41903,28451
10,42317,25194
10,42728,25904
10,43140,25303
10,43553,23656
10,43965,25396
10,44377,22651
10,44788,24583
10,45202,21909
10,45613,21223
10,46025,20508
10,46438,21692
10,46850,20498
10,47262,18480
10,47675,19014
10,48087,19577
10,48498,18570
10,48912,18976
10,49323,17924
10,49735,19534
10,50148,17446
10,50560,19797
10,50972,17301
10,51385,17002
10,51797,16826
10,52208,16586
10,52622,16625
10,53033,18224
10,53445,16680
10,53857,17011
10,54270,16526
10,54682,16252
10,55093,16661
10,55507,15685
10,55918,16116
10,56330,15979
10,56743,15963
10,57155,14435
10,57567,14567
10,57980,14465
10,58392,13961
10,58803,14712
10,59217,14588
10,59628,13989
10,60040,14791
10,60453,13741
10,60865,14596
10,61277,14433
10,61690,14885
10,62102,13635
10,62513,15203
10,62925,14200
10,63338,13941
10,63750,14560
10,64162,13093
10,64575,13269
10,64987,14704
10,65398,13780
10,65812,13932
10,66223,14937
10,66635,12756
10,67048,13677
10,67460,12550
10,67872,14054
10,68285,13456
10,68697,13892
10,69108,14085
10,69522,13491
10,69933,13986
10,70345,12549
10,70758,12851
10,71170,15314
10,71582,14642
10,71995,14110
10,72407,14257
10,72818,13856
10,73230,14576
10,73643,14302
10,74055,13462
10,74467,12908
10,74880,14864
10,75292,13427
10,75703,14158
10,76117,15033
10,76528,12288
10,76940,13821
10,77353,12710
10,77765,12841
10,78177,14447
10,78590,14331
10,79002,14415
10,79413,13767
10,79827,14569
10,80238,13891
10,80650,13947
10,81063,13795
10,81475,13957
10,81887,12986
10,82298,13606
10,82712,12560
10,83123,13931
10,83535,13302
10,83948,13246
10,84360,13042
10,84772,12943
10,85185,13007
10,85597,12989
10,86008,11890
10,86422,12641
10,86833,12384
10,87245,13191
10,87658,11368
10,88070,12480
10,88482,14025
10,88895,11936
10,89307,12857
10,89718,11469
10,90132,13840
10,90543,12955
10,90955,14197
10,91367,16781
10,91780,20498
10,92192,29276
10,92603,41962
10,93017,65867
10,93428,99387
10,93840,153086
10,94253,233453
10,94665,325639
10,95077,439145
10,95490,565069
10,95902,708348
10,96313,834551
10,96727,936531
10,97138,1026091
10,97550,1078573
10,97963,1080242
10,98375,1054356
10,98787,997173
10,99200,935132
10,99612,841374
11,00023,752986
11,00435,657106
11,00848,567701
11,01260,481864
11,01672,411952
11,02085,352667
11,02497,295645
11,02908,250534
11,03322,218014
11,03733,181974
11,04145,160001
11,04558,141562
11,04970,126342
11,05382,110289
11,05795,95699
11,06207,88875
11,06618,78982
11,07032,73000
11,07443,67889
11,07855,63317
11,08268,56578
11,08680,52485
11,09092,49277
11,09503,48342
11,09917,44155
11,10328,42561
11,10740,40494
11,11153,38369
11,11565,35196
11,11977,34484
11,12390,33015
11,12802,33530
11,13213,30380
11,13627,29483
11,14038,28613
11,14450,30696
11,14863,28470
11,15275,27222
11,15687,27143
11,16100,27145
11,16512,26925
11,16923,26005
11,17337,28807
11,17748,31911
11,18160,39664
11,18572,58788
11,18985,91998
11,19397,157031
11,19808,252544
11,20222,404408
11,20633,614383
11,21045,896149
11,21458,1257247
11,21870,1660854
11,22282,2100139
11,22695,2588930
11,23107,3022413
11,23518,3440737
11,23932,3703392
11,24343,3844190
11,24755,3859737
11,25168,3756777
11,25580,3484819
11,25992,3173910
11,26405,2812901
11,26817,2412655
11,27228,2056873
11,27640,1710366
11,28053,1441542
11,28465,1186432
11,28877,994594
11,29290,836751
11,29702,704176
11,30113,600685
11,30527,512987
11,30938,440232
11,31350,382442
11,31763,340754
11,32175,303874
11,32587,269786
11,33000,237293
11,33412,215734
11,33823,200626
11,34237,184029
11,34648,164532
11,35060,152230
11,35473,140659
11,35885,128526
11,36297,121402
11,36708,114470
11,37122,101207
11,37533,99045
11,37945,95332
11,38358,90798
11,38770,82929
11,39182,80329
11,39595,75068
11,40007,71567
11,40418,69853
11,40832,65482
11,41243,63926
11,41655,61507
11,42068,57692
11,42480,56258
11,42892,55253
11,43305,51288
11,43717,50839
11,44128,47890
11,44542,46066
11,44953,44457
11,45365,41186
11,45777,42196
11,46190,39513
11,46602,36730
11,47013,37115
11,47427,37026
11,47838,37202
11,48250,34109
11,48663,33193
11,49075,31904
11,49487,32706
11,49900,31233
11,50312,29849
11,50723,29294
11,51137,29098
11,51548,29608
11,51960,26208
11,52373,26380
11,52785,26505
11,53197,25625
11,53610,25549
11,54022,23932
11,54433,24209
11,54845,24128
11,55258,22567
11,55670,22549
11,56082,23020
11,56495,23219
11,56907,22741
11,57318,22453
11,57732,22980
11,58143,21617
11,58555,23006
11,58968,21450
11,59380,20240
11,59792,21084
11,60205,19618
11,60617,20032
11,61028,20036
11,61442,20543
11,61853,20626
11,62265,20438
11,62678,20560
11,63090,19822
11,63502,20327
11,63913,20167
11,64327,19137
11,64738,20519
11,65150,20349
11,65563,19422
11,65975,18910
11,66387,19303
11,66800,17565
11,67212,18412
11,67623,17732
11,68037,15939
11,68448,17564
11,68860,16296
11,69273,17012
11,69685,15911
11,70097,16222
11,70510,15783
11,70922,15657
11,71333,15406
11,71747,14979
11,72158,16322
11,72570,16198
11,72982,14824
11,73395,15565
11,73807,16403
11,74218,15456
11,74632,16412
11,75043,16083
11,75455,16314
11,75868,17127
11,76280,18403
11,76692,16070
11,77105,16868
11,77517,15486
11,77928,17322
11,78342,15483
11,78753,15462
11,79165,16488
11,79578,16400
11,79990,17855
11,80402,20951
11,80815,31861
11,81227,45444
11,81638,70119
11,82050,106307
11,82463,161962
11,82875,246916
11,83287,349171
11,83700,478157
11,84112,618923
11,84523,773548
11,84937,912082
11,85348,1034786
11,85760,1125934
11,86173,1171949
11,86585,1166281
11,86997,1137606
11,87410,1060632
11,87822,970564
11,88233,862490
11,88647,759959
11,89058,659871
11,89470,562796
11,89883,480976
11,90295,398605
11,90707,338453
11,91118,284204
11,91532,244581
11,91943,208844
11,92355,183155
11,92768,162346
11,93180,141256
11,93592,125841
11,94005,111338
11,94417,99818
11,94828,95043
11,95242,85922
11,95653,78392
11,96065,73789
11,96478,69729
11,96890,70611
11,97302,67691
11,97715,65811
11,98127,67570
11,98538,64391
11,98952,62704
11,99363,60588
11,99775,59684
12,00187,57948
12,00600,53364
12,01012,51345
12,01423,51024
12,01837,46194
12,02248,43597
12,02660,40461
12,03073,42239
12,03485,36569
12,03897,36777
12,04310,34193
12,04722,32114
12,05133,30452
12,05547,28335
12,05958,28499
12,06370,28310
12,06783,26560
12,07195,25970
12,07607,24685
12,08020,24468
12,08432,23955
12,08843,22727
12,09255,23084
12,09668,22171
12,10080,21531
12,10492,21644
12,10905,21550
12,11317,20055
12,11728,20771
12,12142,20649
12,12553,20166
12,12965,19447
12,13378,18997
12,13790,20178
12,14202,18557
12,14615,19265
12,15027,19503
12,15438,18522
12,15852,17448
12,16263,17310
12,16675,17392
12,17088,17390
12,17500,16560
12,17912,18064
12,18323,17757
12,18737,15714
12,19148,17297
12,19560,20692
12,19973,24605
12,20385,32025
12,20797,50997
12,21210,78881
12,21622,127232
12,22033,191556
12,22447,291585
12,22858,422275
12,23270,573558
12,23683,754346
12,24095,928118
12,24507,1098304
12,24920,1243311
12,25332,1340015
12,25743,1388086
12,26157,1371242
12,26568,1318657
12,26980,1229935
12,27392,1104353
12,27805,967932
12,28217,827860
12,28628,707676
12,29042,597089
12,29453,499826
12,29865,416844
12,30278,348742
12,30690,297335
12,31102,248999
12,31515,213340
12,31927,182757
12,32338,162228
12,32752,146194
12,33163,128494
12,33575,116980
12,33988,103003
12,34400,94476
12,34812,87951
12,35225,79408
12,35637,73649
12,36048,68216
12,36462,66061
12,36873,59514
12,37285,55801
12,37697,53032
12,38110,50985
12,38522,47810
12,38933,44805
12,39347,41391
12,39758,40243
12,40170,37386
12,40583,37813
12,40995,34181
12,41407,32951
12,41820,33094
12,42232,30301
12,42643,30124
12,43057,28835
12,43468,29361
12,43880,28293
12,44293,27430
12,44705,28040
12,45117,25403
12,45530,25156
12,45942,25101
12,46353,24939
12,46765,23860
12,47178,23944
12,47590,22669
12,48002,24128
12,48415,20663
12,48827,23963
12,49238,23226
12,49652,21974
12,50063,22100
12,50475,20728
12,50888,21210
12,51300,20487
12,51712,19318
12,52125,19449
12,52537,18851
12,52948,17869
12,53362,16509
12,53773,16917
12,54185,18110
12,54598,16234
12,55010,16601
12,55422,16898
12,55833,16676
12,56247,16558
12,56658,15482
12,57070,15985
12,57483,15215
12,57895,17786
12,58307,15619
12,58720,16353
12,59132,15200
12,59543,15112
12,59957,16587
12,60368,14232
12,60780,15871
12,61193,14865
12,61605,14055
12,62017,15253
12,62430,14392
12,62842,15160
12,63253,16295
12,63667,14642
12,64078,14631
12,64490,15214
12,64902,13280
12,65315,15985
12,65727,15048
12,66138,14206
12,66552,13758
12,66963,15056
12,67375,13516
12,67788,13135
12,68200,13152
12,68612,12699
12,69025,12330
12,69437,12815
12,69848,13888
12,70262,13769
12,70673,13892
12,71085,12902
12,71498,12099
12,71910,12312
12,72322,13163
12,72735,11204
12,73147,11243
12,73558,10665
12,73970,11805
12,74383,11286
12,74795,11741
12,75207,11803
12,75620,11901
12,76032,11925
12,76443,12180
12,76857,13163
12,77268,12226
12,77680,12529
12,78093,13331
12,78505,12237
12,78917,12521
12,79330,12021
12,79742,13687
12,80153,14877
12,80567,12946
12,80978,14186
12,81390,13971
12,81803,16626
12,82215,19833
12,82627,26287
12,83038,39698
12,83452,62669
12,83863,98211
12,84275,157401
12,84688,239291
12,85100,351565
12,85512,495257
12,85925,653088
12,86337,821296
12,86748,991731
12,87162,1138085
12,87573,1238300
12,87985,1297122
12,88398,1310489
12,88810,1262231
12,89222,1196538
12,89635,1077271
12,90047,953141
12,90458,826575
12,90872,715294
12,91283,606126
12,91695,509454
12,92107,429896
12,92520,360094
12,92932,303692
12,93343,261331
12,93757,221619
12,94168,193472
12,94580,167894
12,94993,147755
12,95405,134224
12,95817,117664
12,96230,108074
12,96642,95515
12,97053,87976
12,97467,79336
12,97878,74583
12,98290,68158
12,98703,63254
12,99115,59653
12,99527,55761
12,99940,52755
13,00352,50230
13,00763,47043
13,01175,44968
13,01588,42817
13,02000,40729
13,02412,37332
13,02825,38281
13,03237,35647
13,03648,33174
13,04062,33435
13,04473,31694
13,04885,30021
13,05298,30891
13,05710,28849
13,06122,28609
13,06535,26539
13,06947,25404
13,07358,24890
13,07772,23086
13,08183,24277
13,08595,23263
13,09008,23893
13,09420,22730
13,09832,20874
13,10243,21444
13,10657,21731
13,11068,22527
13,11480,22248
13,11893,21626
13,12305,20654
13,12717,22815
13,13130,22876
13,13542,26288
13,13953,28817
13,14367,30311
13,14778,32227
13,15190,35105
13,15603,36454
13,16015,36637
13,16427,38068
13,16840,39403
13,17252,37247
13,17663,37743
13,18077,35303
13,18488,34544
13,18900,32037
13,19312,30863
13,19725,31406
13,20137,29412
13,20548,29759
13,20962,34092
13,21373,43355
13,21785,59363
13,22198,92166
13,22610,150897
13,23022,244514
13,23435,372798
13,23847,559769
13,24258,799934
13,24672,1103210
13,25083,1469013
13,25495,1860229
13,25908,2254150
13,26320,2607639
13,26732,2906353
13,27145,3102322
13,27557,3117356
13,27968,3043743
13,28380,2855608
13,28793,2580868
13,29205,2251314
13,29617,1948948
13,30030,1635369
13,30442,1350160
13,30853,1116120
13,31267,928096
13,31678,781218
13,32090,646600
13,32503,558928
13,32915,471793
13,33327,410970
13,33740,362854
13,34152,312084
13,34563,277734
13,34977,244172
13,35388,223035
13,35800,199138
13,36213,185029
13,36625,170633
13,37037,154984
13,37448,145835
13,37862,131972
13,38273,121676
13,38685,113456
13,39098,106647
13,39510,96205
13,39922,95677
13,40335,87001
13,40747,83937
13,41158,78218
13,41572,75369
13,41983,72091
13,42395,67507
13,42808,65827
13,43220,61585
13,43632,58870
13,44045,57834
13,44457,53460
13,44868,50023
13,45282,51262
13,45693,49155
13,46105,44472
13,46517,45770
13,46930,42006
13,47342,41216
13,47753,39476
13,48167,39007
13,48578,38921
13,48990,35074
13,49403,36853
13,49815,34255
13,50227,34095
13,50640,33363
13,51052,30376
13,51463,30194
13,51877,29834
13,52288,30501
13,52700,28737
13,53113,29580
13,53525,29423
13,53937,27703
13,54350,28380
13,54762,25664
13,55173,25779
13,55585,26465
13,55998,27651
13,56410,28558
13,56822,35310
13,57235,43871
13,57647,59692
13,58058,89673
13,58472,140063
13,58883,213130
13,59295,314315
13,59708,450860
13,60120,608908
13,60532,789044
13,60945,976974
13,61357,1159424
13,61768,1309097
13,62182,1421957
13,62593,1457297
13,63005,1419269
13,63418,1358506
13,63830,1253621
13,64242,1120446
13,64653,976641
13,65067,844191
13,65478,715802
13,65890,613726
13,66303,507918
13,66715,430074
13,67127,364747
13,67540,315990
13,67952,266753
13,68363,238845
13,68777,206481
13,69188,180503
13,69600,159599
13,70013,142927
13,70425,128326
13,70837,117784
13,71250,109253
13,71662,98221
13,72073,92530
13,72487,86595
13,72898,80936
13,73310,77042
13,73722,70004
13,74135,71241
13,74547,73968
13,74958,80012
13,75372,99736
13,75783,132610
13,76195,193321
13,76608,288945
13,77020,426202
13,77432,626677
13,77845,894238
13,78257,1219034
13,78668,1577153
13,79082,1952715
13,79493,2294758
13,79905,2605618
13,80318,2810943
13,80730,2917987
13,81142,2907694
13,81555,2792237
13,81967,2556284
13,82378,2287652
13,82790,2006942
13,83203,1706602
13,83615,1456766
13,84027,1200954
13,84440,1010523
13,84852,854630
13,85263,721093
13,85677,613618
13,86088,528036
13,86500,453018
13,86913,397043
13,87325,348280
13,87737,309080
13,88150,271923
13,88562,248861
13,88973,231158
13,89387,204729
13,89798,187411
13,90210,173082
13,90623,159390
13,91035,145421
13,91447,141697
13,91858,128733
13,92272,120219
13,92683,113082
13,93095,106753
13,93508,100063
13,93920,94690
13,94332,87128
13,94745,85529
13,95157,83805
13,95568,80200
13,95982,74134
13,96393,69103
13,96805,68963
13,97218,65153
13,97630,63220
13,98042,62493
13,98455,55914
13,98867,54415
13,99278,51784
13,99692,48854
14,00103,48452
14,00515,48214
14,00928,45130
14,01340,45273
14,01752,42422
14,02163,43635
14,02577,41376
14,02988,38411
14,03400,37882
14,03813,38644
14,04225,37011
14,04637,36960
14,05050,33697
14,05462,34466
14,05873,33438
14,06287,32627
14,06698,33099
14,07110,30443
14,07523,30595
14,07935,31194
14,08347,29114
14,08760,30840
14,09172,27331
14,09583,28664
14,09997,26629
14,10408,27195
14,10820,24663
14,11232,25292
14,11645,28471
14,12057,25686
14,12468,24228
14,12882,24240
14,13293,22647
14,13705,22294
14,14118,23001
14,14530,22997
14,14942,24872
14,15355,25843
14,15767,29459
14,16178,40324
14,16592,56563
14,17003,83370
14,17415,126229
14,17828,191021
14,18240,290341
14,18652,417823
14,19065,567679
14,19477,734153
14,19888,920269
14,20300,1091327
14,20713,1229668
14,21125,1313329
14,21537,1365167
14,21950,1372444
14,22362,1362565
14,22773,1359588
14,23187,1384944
14,23598,1454619
14,24010,1600223
14,24423,1798235
14,24835,2080461
14,25247,2384519
14,25660,2703334
14,26072,2990551
14,26483,3215043
14,26897,3348733
14,27308,3323062
14,27720,3178040
14,28133,2953043
14,28545,2634989
14,28957,2309091
14,29368,1960684
14,29782,1637983
14,30193,1365365
14,30605,1143714
14,31018,958300
14,31430,808501
14,31842,689617
14,32255,590140
14,32667,517592
14,33078,454859
14,33492,404505
14,33903,359652
14,34315,319850
14,34728,295401
14,35140,264438
14,35552,245041
14,35965,223921
14,36377,204829
14,36788,190650
14,37202,176886
14,37613,164927
14,38025,154112
14,38437,144240
14,38850,133768
14,39262,125483
14,39673,119229
14,40087,113475
14,40498,109486
14,40910,105034
14,41323,99703
14,41735,98179
14,42147,91150
14,42560,86719
14,42972,84271
14,43383,81444
14,43797,79525
14,44208,77165
14,44620,70133
14,45033,68655
14,45445,67758
14,45857,64641
14,46270,62083
14,46682,61395
14,47093,57012
14,47505,56465
14,47918,55829
14,48330,52540
14,48742,51229
14,49155,48674
14,49567,50544
14,49978,46261
14,50392,47895
14,50803,45872
14,51215,47416
14,51628,43878
14,52040,44599
14,52452,39633
14,52865,39532
14,53277,41886
14,53688,39202
14,54102,39263
14,54513,35268
14,54925,35940
14,55338,33397
14,55750,32874
14,56162,35952
14,56573,34472
14,56987,39151
14,57398,48240
14,57810,65553
14,58223,90002
14,58635,132472
14,59047,193610
14,59460,287294
14,59872,396980
14,60283,539781
14,60697,692870
14,61108,851953
14,61520,1018554
14,61933,1133300
14,62345,1223426
14,62757,1254691
14,63170,1250150
14,63582,1196698
14,63993,1086826
14,64407,980442
14,64818,867546
14,65230,746415
14,65642,631803
14,66055,544105
14,66467,459003
14,66878,394958
14,67292,335596
14,67703,287348
14,68115,247033
14,68528,217365
14,68940,187889
14,69352,173786
14,69765,152334
14,70177,136086
14,70588,128754
14,71002,117549
14,71413,105444
14,71825,98966
14,72238,92060
14,72650,84061
14,73062,78960
14,73475,73342
14,73887,73058
14,74298,68294
14,74710,65171
14,75123,60424
14,75535,57785
14,75947,58294
14,76360,55136
14,76772,53329
14,77183,52548
14,77597,51460
14,78008,47168
14,78420,47791
14,78833,47085
14,79245,43841
14,79657,44052
14,80070,42305
14,80482,40473
14,80893,39535
14,81307,37988
14,81718,35827
14,82130,35389
14,82543,35679
14,82955,35011
14,83367,35223
14,83778,32679
14,84192,32196
14,84603,31577
14,85015,30076
14,85428,29183
14,85840,28599
14,86252,29068
14,86665,26664
14,87077,29069
14,87488,27059
14,87902,25296
14,88313,26466
14,88725,27155
14,89138,24991
14,89550,25542
14,89962,24525
14,90375,23196
14,90787,23730
14,91198,22575
14,91612,24527
14,92023,23021
14,92435,23179
14,92847,21508
14,93260,22780
14,93672,22639
14,94083,21622
14,94497,20831
14,94908,20748
14,95320,21425
14,95733,20834
14,96145,20881
14,96557,20682
14,96970,19294
14,97382,19582
14,97793,19987
14,98207,20451
14,98618,20312
14,99030,18240
14,99443,19368
14,99855,19318
15,00267,18731
15,00680,21012
15,01092,19347
15,01503,18665
15,01915,19664
15,02328,17904
15,02740,19307
15,03152,18322
15,03565,19713
15,03977,16142
15,04388,18631
15,04802,18754
15,05213,18317
15,05625,18010
15,06038,17571
15,06450,16962
15,06862,17225
15,07275,18484
15,07687,16734
15,08098,18060
15,08512,18423
15,08923,18662
15,09335,16252
15,09748,16210
15,10160,18124
15,10572,15765
15,10983,16328
15,11397,16832
15,11808,16313
15,12220,16857
15,12633,14951
15,13045,16381
15,13457,16894
15,13870,16338
15,14282,17552
15,14693,18957
15,15107,22156
15,15518,29227
15,15930,43834
15,16343,62704
15,16755,99271
15,17167,148857
15,17580,226199
15,17992,327569
15,18403,452143
15,18817,601211
15,19228,757111
15,19640,942353
15,20052,1123804
15,20465,1316371
15,20877,1508527
15,21288,1708392
15,21702,1928936
15,22113,2184710
15,22525,2482182
15,22938,2767274
15,23350,3127420
15,23762,3402716
15,24175,3644912
15,24587,3793285
15,24998,3810984
15,25412,3694430
15,25823,3439345
15,26235,3076938
15,26648,2673629
15,27060,2274767
15,27472,1915511
15,27885,1600303
15,28297,1338268
15,28708,1118999
15,29120,946710
15,29533,805386
15,29945,691218
15,30357,599315
15,30770,528619
15,31182,477077
15,31593,419762
15,32007,378967
15,32418,340220
15,32830,313786
15,33243,286468
15,33655,259483
15,34067,239056
15,34480,224377
15,34892,205281
15,35303,196906
15,35717,184443
15,36128,170928
15,36540,163193
15,36953,161032
15,37365,153246
15,37777,149338
15,38188,147582
15,38602,140625
15,39013,139897
15,39425,130828
15,39838,126428
15,40250,121886
15,40662,116908
15,41075,112803
15,41487,106049
15,41898,102346
15,42312,97285
15,42723,92127
15,43135,87043
15,43548,82496
15,43960,79090
15,44372,75592
15,44785,69681
15,45197,68121
15,45608,66350
15,46022,65004
15,46433,61436
15,46845,59533
15,47257,59214
15,47670,56210
15,48082,53496
15,48493,53354
15,48907,50483
15,49318,51439
15,49730,50757
15,50143,48050
15,50555,46759
15,50967,45419
15,51380,47730
15,51792,49515
15,52203,55600
15,52617,65249
15,53028,82749
15,53440,113672
15,53853,167393
15,54265,236151
15,54677,327809
15,55090,445826
15,55502,572800
15,55913,714334
15,56325,847644
15,56738,966700
15,57150,1035998
15,57562,1086784
15,57975,1089297
15,58387,1044669
15,58798,967328
15,59212,880466
15,59623,784844
15,60035,677117
15,60448,586470
15,60860,499790
15,61272,426086
15,61685,365883
15,62097,313015
15,62508,269460
15,62922,234970
15,63333,207874
15,63745,183730
15,64158,163707
15,64570,144868
15,64982,135442
15,65395,122309
15,65807,113886
15,66218,104685
15,66630,93574
15,67043,87401
15,67455,82341
15,67867,80804
15,68280,75424
15,68692,75153
15,69103,71490
15,69517,71178
15,69928,73380
15,70340,85160
15,70753,103957
15,71165,130801
15,71577,185568
15,71990,264245
15,72402,379062
15,72813,518186
15,73227,694805
15,73638,897641
15,74050,1095583
15,74463,1303087
15,74875,1452489
15,75287,1540625
15,75698,1574720
15,76112,1568106
15,76523,1478214
15,76935,1359216
15,77348,1208990
15,77760,1061993
15,78172,909693
15,78585,773740
15,78997,662715
15,79408,559233
15,79822,475146
15,80233,410328
15,80645,359417
15,81058,311985
15,81470,276922
15,81882,247181
15,82295,225645
15,82707,199930
15,83118,180970
15,83532,168960
15,83943,155034
15,84355,142151
15,84767,130941
15,85180,123298
15,85592,116853
15,86003,108877
15,86417,101750
15,86828,93835
15,87240,92939
15,87653,85708
15,88065,81091
15,88477,78699
15,88890,73672
15,89302,70872
15,89713,69038
15,90127,66020
15,90538,63710
15,90950,59601
15,91363,58483
15,91775,57321
15,92187,56036
15,92600,55218
15,93012,52565
15,93423,50658
15,93835,49741
15,94248,48943
15,94660,47427
15,95072,45411
15,95485,44702
15,95897,43514
15,96308,42747
15,96722,41031
15,97133,40451
15,97545,39309
15,97958,37432
15,98370,37092
15,98782,37774
15,99195,36519
15,99607,35593
16,00018,34378
16,00432,35397
16,00843,35608
16,01255,34359
16,01668,33562
16,02080,32158
16,02492,33069
16,02903,30858
16,03317,32154
16,03728,31857
16,04140,30390
16,04553,29739
16,04965,29623
16,05377,30002
16,05790,27452
16,06202,28643
16,06613,27970
16,07027,28837
16,07438,26053
16,07850,28264
16,08263,27460
16,08675,27060
16,09087,26542
16,09500,26995
16,09912,26016
16,10323,26800
16,10737,25353
16,11148,26397
16,11560,25554
16,11972,25505
16,12385,25766
16,12797,26398
16,13208,29378
16,13622,34053
16,14033,42873
16,14445,63421
16,14858,94526
16,15270,145511
16,15682,227254
16,16095,341780
16,16507,499566
16,16918,691026
16,17332,916961
16,17743,1150445
16,18155,1392425
16,18568,1574974
16,18980,1698183
16,19392,1751147
16,19805,1728699
16,20217,1635436
16,20628,1492472
16,21040,1327341
16,21453,1150643
16,21865,985719
16,22277,825316
16,22690,701177
16,23102,603138
16,23513,511880
16,23927,436239
16,24338,383944
16,24750,334440
16,25163,292236
16,25575,264792
16,25987,234380
16,26400,213680
16,26812,195391
16,27223,179202
16,27637,163989
16,28048,153524
16,28460,141637
16,28873,133587
16,29285,125000
16,29697,116092
16,30108,110023
16,30522,101963
16,30933,96496
16,31345,93327
16,31758,85204
16,32170,84602
16,32582,79964
16,32995,79732
16,33407,75420
16,33818,73224
16,34232,73304
16,34643,71349
16,35055,67572
16,35468,63507
16,35880,63279
16,36292,62410
16,36705,55660
16,37117,55247
16,37528,53253
16,37942,53282
16,38353,50093
16,38765,49687
16,39177,48531
16,39590,47016
16,40002,45212
16,40413,46021
16,40827,42282
16,41238,42574
16,41650,40786
16,42063,41467
16,42475,39375
16,42887,39400
16,43300,39586
16,43712,40634
16,44123,39084
16,44537,38517
16,44948,38475
16,45360,37066
16,45773,35865
16,46185,37557
16,46597,33205
16,47010,35282
16,47422,33394
16,47833,31992
16,48245,33450
16,48658,35591
16,49070,37045
16,49482,42744
16,49895,54382
16,50307,73082
16,50718,107511
16,51132,161575
16,51543,248945
16,51955,356604
16,52368,499461
16,52780,672022
16,53192,842703
16,53605,1019899
16,54017,1175888
16,54428,1289274
16,54842,1343381
16,55253,1348845
16,55665,1301717
16,56078,1213439
16,56490,1097899
16,56902,981599
16,57313,842876
16,57727,732716
16,58138,622722
16,58550,535835
16,58963,456524
16,59375,396502
16,59787,339310
16,60200,298212
16,60612,261249
16,61023,236186
16,61437,206139
16,61848,189311
16,62260,169355
16,62673,153180
16,63085,146484
16,63497,131387
16,63910,123057
16,64322,114680
16,64733,104161
16,65147,100954
16,65558,96263
16,65970,87972
16,66382,84170
16,66795,81040
16,67207,77148
16,67618,73003
16,68032,68232
16,68443,66032
16,68855,62630
16,69268,60192
16,69680,59224
16,70092,57733
16,70505,57045
16,70917,53959
16,71328,50861
16,71742,50023
16,72153,48342
16,72565,48194
16,72978,47630
16,73390,43245
16,73802,42639
16,74215,45035
16,74627,41330
16,75038,40519
16,75450,38901
16,75863,39576
16,76275,39786
16,76687,37399
16,77100,38231
16,77512,38137
16,77923,36521
16,78337,35682
16,78748,34680
16,79160,35204
16,79573,32190
16,79985,31847
16,80397,32441
16,80810,30795
16,81222,32242
16,81633,30486
16,82047,29467
16,82458,30617
16,82870,29221
16,83283,29845
16,83695,30139
16,84107,29251
16,84518,29246
16,84932,28656
16,85343,27969
16,85755,29193
16,86168,26880
16,86580,28044
16,86992,26633
16,87405,28942
16,87817,27774
16,88228,26167
16,88642,25787
16,89053,26297
16,89465,26479
16,89878,25791
16,90290,27632
16,90702,26756
16,91115,26807
16,91527,27981
16,91938,26558
16,92352,28508
16,92763,27316
16,93175,29086
16,93587,26632
16,94000,25463
16,94412,28381
16,94823,26181
16,95237,25633
16,95648,25138
16,96060,23794
16,96473,27161
16,96885,23254
16,97297,23622
16,97710,25524
16,98122,22382
16,98533,25477
16,98947,23971
16,99358,23554
16,99770,24136
17,00183,22961
17,00595,22776
17,01007,23907
17,01420,22304
17,01832,22460
17,02243,21276
17,02655,23763
17,03068,23031
17,03480,22464
17,03892,23445
17,04305,26026
17,04717,28833
17,05128,32810
17,05542,46348
17,05953,66603
17,06365,98435
17,06778,163016
17,07190,258091
17,07602,396908
17,08015,601770
17,08427,859023
17,08838,1188559
17,09252,1572071
17,09663,2013310
17,10075,2479701
17,10488,2929230
17,10900,3368212
17,11312,3734153
17,11723,4031911
17,12137,4238133
17,12548,4357302
17,12960,4329239
17,13373,4146153
17,13785,3816361
17,14197,3428436
17,14610,2992586
17,15022,2544921
17,15433,2159897
17,15847,1814712
17,16258,1534454
17,16670,1299116
17,17083,1115634
17,17495,962285
17,17907,839804
17,18320,742915
17,18732,660193
17,19143,583017
17,19557,530746
17,19968,478507
17,20380,438801
17,20792,399239
17,21205,368000
17,21617,340066
17,22028,319292
17,22442,292043
17,22853,275972
17,23265,253730
17,23678,239782
17,24090,227126
17,24502,215077
17,24915,202014
17,25327,191861
17,25738,183326
17,26152,172183
17,26563,167127
17,26975,158649
17,27388,146877
17,27800,145665
17,28212,139391
17,28625,134073
17,29037,128596
17,29448,126442
17,29862,116370
17,30273,114896
17,30685,110614
17,31097,106332
17,31510,103866
17,31922,99734
17,32333,96471
17,32747,93029
17,33158,92899
17,33570,86913
17,33983,87589
17,34395,82305
17,34807,82806
17,35220,77172
17,35632,79363
17,36043,74623
17,36457,73503
17,36868,68584
17,37280,70208
17,37693,68880
17,38105,65761
17,38517,65625
17,38930,66593
17,39342,67015
17,39753,70029
17,40165,76523
17,40578,87282
17,40990,112466
17,41402,146824
17,41815,205362
17,42227,288611
17,42638,394449
17,43052,523569
17,43463,681110
17,43875,829990
17,44288,974026
17,44700,1104361
17,45112,1184235
17,45525,1242667
17,45937,1225642
17,46348,1184639
17,46762,1118539
17,47173,1032775
17,47585,953233
17,47998,882103
17,48410,840707
17,48822,829758
17,49233,842618
17,49647,902207
17,50058,970912
17,50470,1049221
17,50883,1145012
17,51295,1206108
17,51707,1266568
17,52120,1283679
17,52532,1250049
17,52943,1191135
17,53357,1102623
17,53768,1015302
17,54180,908442
17,54593,797222
17,55005,702411
17,55417,625654
17,55830,559034
17,56242,529069
17,56653,513961
17,57067,534104
17,57478,591358
17,57890,670102
17,58302,813019
17,58715,973497
17,59127,1167260
17,59538,1342502
17,59952,1532664
17,60363,1668283
17,60775,1748043
17,61188,1744462
17,61600,1705783
17,62012,1589429
17,62425,1447462
17,62837,1286931
17,63248,1136982
17,63662,993557
17,64073,864068
17,64485,741958
17,64898,648859
17,65310,569304
17,65722,504466
17,66135,446703
17,66547,403408
17,66958,369395
17,67370,329287
17,67783,302509
17,68195,277753
17,68607,257659
17,69020,240745
17,69432,221221
17,69843,213365
17,70257,197201
17,70668,183781
17,71080,175571
17,71493,168058
17,71905,157688
17,72317,153259
17,72730,139910
17,73142,137409
17,73553,128895
17,73967,123518
17,74378,119112
17,74790,113989
17,75203,111002
17,75615,106906
17,76027,102165
17,76438,96850
17,76852,95224
17,77263,90058
17,77675,89543
17,78088,84137
17,78500,86036
17,78912,79605
17,79325,79318
17,79737,78157
17,80148,74493
17,80562,75295
17,80973,72440
17,81385,69587
17,81798,69223
17,82210,66644
17,82622,65297
17,83035,65612
17,83447,63835
17,83858,65355
17,84272,61676
17,84683,61993
17,85095,61581
17,85507,59637
17,85920,59397
17,86332,59634
17,86743,57588
17,87157,54357
17,87568,54984
17,87980,54002
17,88393,53483
17,88805,53124
17,89217,52413
17,89630,51747
17,90042,51934
17,90453,49269
17,90867,47228
17,91278,46862
17,91690,46606
17,92103,47194
17,92515,48675
17,92927,48455
17,93340,46651
17,93752,48086
17,94163,48608
17,94575,49026
17,94988,53007
17,95400,59274
17,95812,70447
17,96225,88243
17,96637,114011
17,97048,158394
17,97462,223966
17,97873,322726
17,98285,462156
17,98698,630967
17,99110,828837
17,99522,1073552
17,99935,1301110
18,00347,1509912
18,00758,1682616
18,01172,1760921
18,01583,1758252
18,01995,1696615
18,02408,1569884
18,02820,1419272
18,03232,1253276
18,03643,1087901
18,04057,938470
18,04468,805203
18,04880,693083
18,05293,600078
18,05705,529531
18,06117,463377
18,06530,414323
18,06942,368062
18,07353,332730
18,07767,303710
18,08178,282115
18,08590,251061
18,09003,236818
18,09415,216542
18,09827,203484
18,10240,191784
18,10652,178620
18,11063,171111
18,11477,160386
18,11888,157158
18,12300,148216
18,12712,142319
18,13125,131941
18,13537,127066
18,13948,124965
18,14362,118950
18,14773,116888
18,15185,112472
18,15598,111180
18,16010,107651
18,16422,102219
18,16835,101216
18,17247,100974
18,17658,95702
18,18072,94016
18,18483,89613
18,18895,86515
18,19308,83464
18,19720,81041
18,20132,80032
18,20545,78601
18,20957,77218
18,21368,74679
18,21780,76724
18,22193,73277
18,22605,71058
18,23017,70158
18,23430,67374
18,23842,65256
18,24253,66776
18,24667,65077
18,25078,63773
18,25490,63204
18,25903,62160
18,26315,62760
18,26727,61988
18,27140,58108
18,27552,56019
18,27963,57654
18,28377,55062
18,28788,55596
18,29200,56373
18,29613,54230
18,30025,54006
18,30437,57005
18,30848,60878
18,31262,69683
18,31673,89009
18,32085,116010
18,32498,166695
18,32910,246059
18,33322,345685
18,33735,477993
18,34147,638978
18,34558,832663
18,34972,1004840
18,35383,1165294
18,35795,1296811
18,36208,1367702
18,36620,1399265
18,37032,1378231
18,37445,1302725
18,37857,1200373
18,38268,1073455
18,38682,953906
18,39093,835585
18,39505,743088
18,39917,654581
18,40330,598981
18,40742,571481
18,41153,572022
18,41567,597908
18,41978,654783
18,42390,738881
18,42803,832872
18,43215,924082
18,43627,1010964
18,44040,1085607
18,44452,1119860
18,44863,1125522
18,45277,1103431
18,45688,1047034
18,46100,973039
18,46513,892657
18,46925,784471
18,47337,700381
18,47750,613306
18,48162,545376
18,48573,471563
18,48985,415975
18,49398,369291
18,49810,327807
18,50222,290115
18,50635,269234
18,51047,250297
18,51458,223106
18,51872,206147
18,52283,188419
18,52695,176161
18,53108,166155
18,53520,155635
18,53932,148256
18,54345,138798
18,54757,133623
18,55168,125262
18,55582,120049
18,55993,116560
18,56405,109554
18,56818,107455
18,57230,103464
18,57642,98979
18,58053,95301
18,58467,95483
18,58878,89184
18,59290,88136
18,59703,82955
18,60115,83028
18,60527,78682
18,60940,77222
18,61352,77847
18,61763,72217
18,62177,71929
18,62588,72194
18,63000,69937
18,63413,67960
18,63825,68816
18,64237,66777
18,64650,65582
18,65062,63769
18,65473,61986
18,65887,60352
18,66298,59483
18,66710,61852
18,67122,57725
18,67535,60406
18,67947,58604
18,68358,57514
18,68772,58192
18,69183,57657
18,69595,54129
18,70008,57715
18,70420,55104
18,70832,54341
18,71245,53266
18,71657,51930
18,72068,52453
18,72482,50732
18,72893,52621
18,73305,52244
18,73718,46474
18,74130,47403
18,74542,47389
18,74955,46647
18,75367,47704
18,75778,44055
18,76190,48177
18,76603,44824
18,77015,46934
18,77427,45867
18,77840,45355
18,78252,43025
18,78663,42445
18,79077,45284
18,79488,44997
18,79900,44012
18,80313,45271
18,80725,43635
18,81137,45216
18,81550,45546
18,81962,46830
18,82373,49415
18,82787,58423
18,83198,71987
18,83610,90326
18,84023,122196
18,84435,176840
18,84847,251305
18,85260,370617
18,85672,525807
18,86083,727456
18,86495,983887
18,86908,1282112
18,87320,1638691
18,87732,2040114
18,88145,2438920
18,88557,2816815
18,88968,3110643
18,89382,3328710
18,89793,3398599
18,90205,3310597
18,90618,3109484
18,91030,2822681
18,91442,2465485
18,91855,2126147
18,92267,1807597
18,92678,1536860
18,93092,1316909
18,93503,1129264
18,93915,994100
18,94328,865349
18,94740,761606
18,95152,675142
18,95563,613909
18,95977,550062
18,96388,498797
18,96800,460195
18,97213,421825
18,97625,392937
18,98037,361972
18,98450,335393
18,98862,314699
18,99273,292932
18,99687,280039
19,00098,267594
19,00510,247866
19,00923,240146
19,01335,224604
19,01747,218081
19,02160,205537
19,02572,199460
19,02983,190182
19,03397,180867
19,03808,176057
19,04220,166990
19,04632,164209
19,05045,158636
19,05457,150298
19,05868,148714
19,06282,142353
19,06693,140274
19,07105,131213
19,07518,129146
19,07930,126761
19,08342,124674
19,08755,117245
19,09167,115574
19,09578,113571
19,09992,110745
19,10403,106737
19,10815,107771
19,11228,100946
19,11640,101846
19,12052,100021
19,12465,98738
19,12877,94474
19,13288,92481
19,13700,89702
19,14113,89695
19,14525,89071
19,14937,87353
19,15350,85455
19,15762,81544
19,16173,83894
19,16587,82529
19,16998,81205
19,17410,79680
19,17823,79163
19,18235,77321
19,18647,77651
19,19060,75549
19,19472,76132
19,19883,75369
19,20297,73019
19,20708,73647
19,21120,71967
19,21533,73369
19,21945,72117
19,22357,66186
19,22768,67884
19,23182,70009
19,23593,68191
19,24005,69039
19,24418,68460
19,24830,67754
19,25242,67305
19,25655,63523
19,26067,61273
19,26478,63445
19,26892,63126
19,27303,63610
19,27715,63877
19,28128,62505
19,28540,61382
19,28952,67327
19,29365,68754
19,29777,78459
19,30188,92945
19,30602,120940
19,31013,165029
19,31425,222929
19,31837,313064
19,32250,424797
19,32662,584842
19,33073,765587
19,33487,975674
19,33898,1174767
19,34310,1354763
19,34723,1492632
19,35135,1577072
19,35547,1586054
19,35960,1543258
19,36372,1446179
19,36783,1320539
19,37197,1185501
19,37608,1037647
19,38020,915830
19,38433,802142
19,38845,705283
19,39257,617425
19,39670,542926
19,40082,487707
19,40493,434131
19,40905,392108
19,41318,360166
19,41730,328319
19,42142,303990
19,42555,277400
19,42967,255096
19,43378,244642
19,43792,227578
19,44203,213450
19,44615,203993
19,45028,197851
19,45440,180629
19,45852,179689
19,46265,166360
19,46677,159390
19,47088,153854
19,47502,149654
19,47913,143537
19,48325,138146
19,48738,128770
19,49150,127037
19,49562,124059
19,49973,119307
19,50387,117937
19,50798,115270
19,51210,112220
19,51623,109834
19,52035,103653
19,52447,104225
19,52860,100236
19,53272,100917
19,53683,99470
19,54097,96711
19,54508,93212
19,54920,93882
19,55333,90180
19,55745,85514
19,56157,88725
19,56570,83082
19,56982,82949
19,57393,82940
19,57807,79172
19,58218,79057
19,58630,76363
19,59042,76537
19,59455,72936
19,59867,75157
19,60278,75612
19,60692,72163
19,61103,71091
19,61515,68677
19,61928,66282
19,62340,68374
19,62752,69546
19,63165,70661
19,63577,67495
19,63988,66625
19,64402,66448
19,64813,67467
19,65225,65777
19,65638,67445
19,66050,66948
19,66462,67634
19,66875,65045
19,67287,66172
19,67698,69022
19,68110,69349
19,68523,68885
19,68935,70132
19,69347,72952
19,69760,77800
19,70172,80664
19,70583,84735
19,70997,93606
19,71408,98964
19,71820,109722
19,72233,114800
19,72645,122108
19,73057,128104
19,73470,129363
19,73882,130200
19,74293,126648
19,74707,123367
19,75118,119816
19,75530,112546
19,75943,103017
19,76355,101430
19,76767,94179
19,77178,89183
19,77592,82372
19,78003,77449
19,78415,74837
19,78828,69424
19,79240,68120
19,79652,66199
19,80065,65298
19,80477,62585
19,80888,62394
19,81302,60260
19,81713,57720
19,82125,56393
19,82538,56567
19,82950,55517
19,83362,56980
19,83775,54412
19,84187,56689
19,84598,55101
19,85012,56265
19,85423,58412
19,85835,52745
19,86247,53064
19,86660,55156
19,87072,54061
19,87483,53913
19,87897,52730
19,88308,52018
19,88720,54758
19,89133,52294
19,89545,52827
19,89957,50779
19,90370,51872
19,90782,53396
19,91193,54221
19,91607,53236
19,92018,50694
19,92430,49807
19,92843,51883
19,93255,53968
19,93667,53555
19,94080,52171
19,94492,52428
19,94903,50617
19,95315,53313
19,95728,50609
19,96140,51675
19,96552,50744
19,96965,50806
19,97377,50809
19,97788,51006
19,98202,47458
19,98613,49805
19,99025,50945
19,99438,48284
19,99850,48934
20,00262,47875
20,00675,47760
20,01087,51360
20,01498,49209
20,01912,50365
20,02323,42359
20,02735,47751
20,03148,48404
20,03560,47420
20,03972,46536
20,04383,48860
20,04797,48665
20,05208,47724
20,05620,50315
20,06033,48097
20,06445,48785
20,06857,47501
20,07270,48889
20,07682,44106
20,08093,48710
20,08507,48782
20,08918,45646
20,09330,48656
20,09743,50310
20,10155,45567
20,10567,46197
20,10980,47182
20,11392,44828
20,11803,49481
20,12217,50171
20,12628,46838
20,13040,48584
20,13452,48677
20,13865,47941
20,14277,45911
20,14688,47827
20,15102,45395
20,15513,46962
20,15925,48873
20,16338,50294
20,16750,48579
20,17162,47696
20,17575,47150
20,17987,50016
20,18398,49388
20,18812,48727
20,19223,49286
20,19635,48277
20,20048,48913
20,20460,47777
20,20872,46963
20,21285,48139
20,21697,45561
20,22108,45944
20,22520,47540
20,22933,48812
20,23345,48890
20,23757,46167
20,24170,45918
20,24582,49424
20,24993,45742
20,25407,45370
20,25818,45552
20,26230,46035
20,26643,47893
20,27055,46652
20,27467,43878
20,27880,49532
20,28292,46992
20,28703,42540
20,29117,46811
20,29528,48479
20,29940,45498
20,30353,43642
20,30765,46266
20,31177,48544
20,31588,44718
20,32002,44420
20,32413,43666
20,32825,45682
20,33238,43996
20,33650,45692
20,34062,45764
20,34475,44961
20,34887,42324
20,35298,47405
20,35712,44042
20,36123,44502
20,36535,44726
20,36948,43449
20,37360,45660
20,37772,46116
20,38185,44623
20,38597,46014
20,39008,43392
20,39422,45009
20,39833,45894
20,40245,45280
20,40657,45511
20,41070,42885
20,41482,45757
20,41893,43058
20,42307,42879
20,42718,42431
20,43130,44659
20,43543,44125
20,43955,44527
20,44367,46382
20,44780,45302
20,45192,44507
20,45603,45758
20,46017,43333
20,46428,44874
20,46840,44401
20,47253,44632
20,47665,44319
20,48077,46861
20,48490,44206
20,48902,42364
20,49313,45353
20,49727,44219
20,50138,44681
20,50550,43880
20,50962,45584
20,51375,47322
20,51787,46594
20,52198,45579
20,52612,46236
20,53023,47545
20,53435,48516
20,53848,47351
20,54260,44962
20,54672,45815
20,55085,47730
20,55497,48621
20,55908,49046
20,56322,53547
20,56733,55570
20,57145,61070
20,57558,73262
20,57970,90710
20,58382,118479
20,58795,153362
20,59207,205598
20,59618,271602
20,60030,347644
20,60443,440647
20,60855,531500
20,61267,603650
20,61680,682835
20,62092,741411
20,62503,774636
20,62917,785852
20,63328,758031
20,63740,728958
20,64153,678777
20,64565,623675
20,64977,562698
20,65390,506967
20,65802,456597
20,66213,400770
20,66627,363442
20,67038,324820
20,67450,286466
20,67863,260546
20,68275,236752
20,68687,215544
20,69098,198220
20,69512,187422
20,69923,171281
20,70335,163749
20,70748,151815
20,71160,143668
20,71572,135437
20,71985,128863
20,72397,123884
20,72808,118986
20,73222,109407
20,73633,106532
20,74045,101238
20,74458,99983
20,74870,96978
20,75282,94074
20,75695,90300
20,76107,91628
20,76518,88178
20,76932,84271
20,77343,81959
20,77755,83613
20,78167,79485
20,78580,78640
20,78992,79140
20,79403,76319
20,79817,72187
20,80228,73145
20,80640,72254
20,81053,72375
20,81465,68908
20,81877,70422
20,82290,66916
20,82702,70352
20,83113,64368
20,83527,68516
20,83938,64244
20,84350,62491
20,84763,64898
20,85175,62492
20,85587,61190
20,86000,60606
20,86412,62359
20,86823,63670
20,87235,58440
20,87648,58033
20,88060,60852
20,88472,58456
20,88885,62197
20,89297,55914
20,89708,59425
20,90122,57894
20,90533,56938
20,90945,59148
20,91358,59398
20,91770,54250
20,92182,57665
20,92595,55716
20,93007,56212
20,93418,53959
20,93832,56644
20,94243,55941
20,94655,54440
20,95068,52263
20,95480,54549
20,95892,54640
20,96303,52998
20,96717,52444
20,97128,52538
20,97540,55006
20,97953,54900
20,98365,54002
20,98777,53724
20,99190,52643
20,99602,53349
21,00013,56165
21,00427,53888
21,00838,56188
21,01250,51409
21,01663,53127
21,02075,56598
21,02487,53357
21,02900,53426
21,03312,51143
21,03723,54399
21,04137,51459
21,04548,52426
21,04960,51690
21,05372,51731
21,05785,51167
21,06197,53458
21,06608,53325
21,07022,55324
21,07433,51720
21,07845,50472
21,08258,52800
21,08670,51165
21,09082,50988
21,09495,49077
21,09907,50774
21,10318,52999
21,10732,49440
21,11143,51832
21,11555,50295
21,11968,51135
21,12380,52049
21,12792,51573
21,13205,48703
