D:\MassHunter\GCMS\1\data\Amal\Constant flow\140C\140C_1ml-min_10C-min_1.D Fri Jul 26 15:21:03 2024
Start of data points
5,04138	140672
5,04583	132519
5,05027	129744
5,05472	124620
5,05915	122337
5,06360	115920
5,06805	113693
5,07248	111519
5,07693	107283
5,08137	103980
5,08582	100091
5,09025	99391
5,09470	96427
5,09913	93628
5,10358	90376
5,10802	87021
5,11247	85332
5,11690	84995
5,12135	79482
5,12578	81725
5,13023	79880
5,13467	78014
5,13912	72805
5,14355	74743
5,14800	72427
5,15243	70659
5,15688	70197
5,16132	69476
5,16577	69199
5,17020	66759
5,17465	67097
5,17908	66982
5,18353	63569
5,18797	62033
5,19242	61680
5,19687	61237
5,20130	61807
5,20575	60715
5,21018	59496
5,21463	59937
5,21907	59240
5,22352	57620
5,22795	62526
5,23240	79017
5,23683	111497
5,24128	175681
5,24572	257610
5,25017	353245
5,25460	427274
5,25905	480757
5,26348	501756
5,26793	504766
5,27237	490898
5,27682	471369
5,28125	455896
5,28570	435694
5,29013	418789
5,29458	399871
5,29902	394556
5,30347	373669
5,30790	367865
5,31235	351862
5,31680	332344
5,32123	318648
5,32568	310822
5,33012	292974
5,33457	279141
5,33900	272149
5,34345	257558
5,34788	242802
5,35233	231370
5,35677	222502
5,36122	211109
5,36565	200414
5,37010	193423
5,37453	183361
5,37898	167492
5,38342	162130
5,38787	148145
5,39230	143547
5,39675	131049
5,40118	119046
5,40563	110681
5,41007	104035
5,41452	95783
5,41895	90849
5,42340	85821
5,42783	79653
5,43228	73683
5,43673	70638
5,44117	66441
5,44562	61630
5,45005	61188
5,45450	58715
5,45893	54977
5,46338	54406
5,46782	51346
5,47227	51539
5,47670	48921
5,48115	46022
5,48558	44457
5,49003	45940
5,49447	44460
5,49892	42646
5,50335	39781
5,50780	42581
5,51223	40367
5,51668	40822
5,52112	39527
5,52557	41137
5,53000	41718
5,53445	39789
5,53888	40167
5,54333	39322
5,54777	39777
5,55222	40094
5,55667	39170
5,56110	38422
5,56555	41347
5,56998	49165
5,57443	64330
5,57887	97491
5,58332	142053
5,58775	201677
5,59220	259576
5,59663	297781
5,60108	325672
5,60552	339345
5,60997	329073
5,61440	321912
5,61885	312969
5,62328	300500
5,62773	286786
5,63217	278201
5,63662	262652
5,64105	254989
5,64550	242022
5,64993	232088
5,65438	220445
5,65882	213101
5,66327	200417
5,66770	190352
5,67215	183555
5,67660	169341
5,68103	165497
5,68548	150624
5,68992	144120
5,69437	133890
5,69880	127811
5,70325	122632
5,70768	111939
5,71213	102466
5,71657	96770
5,72102	88766
5,72545	83492
5,72990	77333
5,73433	70489
5,73878	65592
5,74322	64056
5,74767	59083
5,75210	53496
5,75655	52579
5,76098	50059
5,76543	47787
5,76987	45193
5,77432	44020
5,77875	44736
5,78320	40059
5,78763	40251
5,79208	38010
5,79653	37990
5,80097	35696
5,80542	37846
5,80985	34980
5,81430	34128
5,81873	35679
5,82318	34744
5,82762	33107
5,83207	33142
5,83650	33774
5,84095	32642
5,84538	31277
5,84983	32817
5,85427	31042
5,85872	31605
5,86315	31621
5,86760	30955
5,87203	30173
5,87648	29860
5,88092	31243
5,88537	30743
5,88980	29994
5,89425	32224
5,89868	31101
5,90313	30585
5,90757	31893
5,91202	30919
5,91645	29770
5,92090	30646
5,92535	31044
5,92978	30180
5,93423	30743
5,93867	31320
5,94312	30775
5,94755	31003
5,95200	29450
5,95643	30025
5,96088	30586
5,96532	35724
5,96977	47390
5,97420	77086
5,97865	137177
5,98308	233005
5,98753	364537
5,99197	499612
5,99642	622201
6,00085	714954
6,00530	773166
6,00973	780207
6,01418	763349
6,01862	729457
6,02307	696586
6,02750	662610
6,03195	634016
6,03638	604088
6,04083	575432
6,04528	539013
6,04972	506622
6,05417	474658
6,05860	451467
6,06305	413331
6,06748	386909
6,07193	354908
6,07637	324276
6,08082	303730
6,08525	279007
6,08970	254180
6,09413	226275
6,09858	199793
6,10302	177552
6,10747	157786
6,11190	136698
6,11635	119489
6,12078	102919
6,12523	91552
6,12967	82319
6,13412	74662
6,13855	64646
6,14300	60165
6,14743	52621
6,15188	48822
6,15632	45718
6,16077	43848
6,16522	38296
6,16965	35998
6,17410	33602
6,17853	33599
6,18298	30504
6,18742	29329
6,19187	29928
6,19630	28755
6,20075	27223
6,20518	27978
6,20963	25353
6,21407	24793
6,21852	26240
6,22295	25506
6,22740	25156
6,23183	25666
6,23628	23262
6,24072	23319
6,24517	23603
6,24960	24574
6,25405	22894
6,25848	22275
6,26293	22543
6,26737	22331
6,27182	23416
6,27625	22408
6,28070	22169
6,28515	21892
6,28958	22156
6,29403	23311
6,29847	20894
6,30292	21814
6,30735	21733
6,31180	21085
6,31623	20435
6,32068	21954
6,32512	20999
6,32957	21688
6,33400	21125
6,33845	20777
6,34288	19986
6,34733	20224
6,35177	21232
6,35622	20451
6,36065	21253
6,36510	20361
6,36953	21514
6,37398	20419
6,37842	21659
6,38287	20882
6,38730	21096
6,39175	19209
6,39618	20436
6,40063	19487
6,40508	20683
6,40952	21303
6,41397	20292
6,41840	21417
6,42285	21315
6,42728	27444
6,43173	41669
6,43617	66880
6,44062	116620
6,44505	185302
6,44950	264458
6,45393	346780
6,45838	416266
6,46282	456092
6,46727	465940
6,47170	470547
6,47615	456455
6,48058	428854
6,48503	410423
6,48947	385006
6,49392	361232
6,49835	334637
6,50280	315473
6,50723	287369
6,51168	270921
6,51612	244871
6,52057	222238
6,52502	201674
6,52945	175282
6,53390	160165
6,53833	143739
6,54278	124277
6,54722	109682
6,55167	93898
6,55610	80872
6,56055	71519
6,56498	62981
6,56943	54137
6,57387	48395
6,57832	43438
6,58275	39423
6,58720	37035
6,59163	32802
6,59608	30853
6,60052	29539
6,60497	28392
6,60940	26583
6,61385	27142
6,61828	23279
6,62273	25601
6,62717	22794
6,63162	23148
6,63605	21975
6,64050	22307
6,64493	22177
6,64938	22280
6,65383	20848
6,65827	21546
6,66272	19710
6,66715	20641
6,67160	20850
6,67603	20237
6,68048	20144
6,68492	19666
6,68937	20430
6,69380	20061
6,69825	21010
6,70268	21031
6,70713	21653
6,71157	20461
6,71602	20743
6,72045	20662
6,72490	20281
6,72933	20140
6,73378	19518
6,73822	19194
6,74267	18739
6,74710	20212
6,75155	18832
6,75598	19618
6,76043	18826
6,76487	18647
6,76932	17428
6,77377	18434
6,77820	17282
6,78265	17258
6,78708	17168
6,79153	17630
6,79597	16773
6,80042	17831
6,80485	17164
6,80930	16704
6,81373	16511
6,81818	17211
6,82262	18096
6,82707	17951
6,83150	18102
6,83595	17437
6,84038	17935
6,84483	17041
6,84927	18113
6,85372	18869
6,85815	18050
6,86260	18070
6,86703	19312
6,87148	18602
6,87592	18186
6,88037	18604
6,88480	18395
6,88925	18124
6,89370	17525
6,89813	16944
6,90258	17182
6,90702	16831
6,91147	17073
6,91590	15914
6,92035	17068
6,92478	17661
6,92923	21539
6,93367	31914
6,93812	55703
6,94255	103603
6,94700	196459
6,95143	348158
6,95588	529281
6,96032	724306
6,96477	905385
6,96920	1037530
6,97365	1107234
6,97808	1122580
6,98253	1102404
6,98697	1051994
6,99142	981537
6,99585	916167
7,00030	840437
7,00473	763913
7,00918	688940
7,01363	611933
7,01807	539246
7,02252	468785
7,02695	401548
7,03140	341042
7,03583	279167
7,04028	233177
7,04472	189174
7,04917	149493
7,05360	123601
7,05805	102783
7,06248	84183
7,06693	71546
7,07137	58477
7,07582	49564
7,08025	43219
7,08470	39624
7,08913	35753
7,09358	29838
7,09802	28624
7,10247	27644
7,10690	25142
7,11135	23942
7,11578	22214
7,12023	22679
7,12467	22099
7,12912	19547
7,13357	22595
7,13800	19922
7,14245	19370
7,14688	17267
7,15133	18981
7,15577	18248
7,16022	18811
7,16465	17728
7,16910	18549
7,17353	18095
7,17798	18311
7,18242	18322
7,18687	21261
7,19130	21473
7,19575	22598
7,20018	21345
7,20463	20421
7,20907	20780
7,21352	22512
7,21795	22417
7,22240	21716
7,22683	23047
7,23128	20497
7,23572	21598
7,24017	21535
7,24460	20340
7,24905	20168
7,25350	19792
7,25793	20550
7,26238	19057
7,26682	18268
7,27127	18860
7,27570	17335
7,28015	17721
7,28458	16154
7,28903	16583
7,29347	16270
7,29792	17256
7,30235	15318
7,30680	15948
7,31123	16703
7,31568	15854
7,32012	14241
7,32457	15598
7,32900	14991
7,33345	16665
7,33788	17321
7,34233	18469
7,34677	17652
7,35122	22532
7,35565	31337
7,36010	49819
7,36453	88935
7,36898	150881
7,37343	237313
7,37787	340175
7,38232	432411
7,38675	510614
7,39120	550387
7,39563	568207
7,40008	561139
7,40452	545034
7,40897	516910
7,41340	469481
7,41785	424887
7,42228	378968
7,42673	333728
7,43117	289698
7,43562	246573
7,44005	205226
7,44450	173512
7,44893	143747
7,45338	117805
7,45782	95148
7,46227	79886
7,46670	63311
7,47115	54569
7,47558	48205
7,48003	50923
7,48447	61257
7,48892	99505
7,49335	158782
7,49780	252375
7,50225	355348
7,50668	469192
7,51113	570713
7,51557	627895
7,52002	654549
7,52445	643128
7,52890	623706
7,53333	579968
7,53778	525320
7,54222	463216
7,54667	419443
7,55110	357603
7,55555	304256
7,55998	247845
7,56443	204004
7,56887	167202
7,57332	131687
7,57775	102067
7,58220	80580
7,58663	67817
7,59108	55727
7,59552	46108
7,59997	39007
7,60440	34408
7,60885	31368
7,61328	27063
7,61773	25279
7,62218	23453
7,62662	23067
7,63107	21144
7,63550	20771
7,63995	18102
7,64438	18702
7,64883	17993
7,65327	17597
7,65772	17153
7,66215	17850
7,66660	16492
7,67103	18005
7,67548	16389
7,67992	17500
7,68437	16657
7,68880	15834
7,69325	15199
7,69768	16288
7,70213	16364
7,70657	15182
7,71102	14638
7,71545	14105
7,71990	14339
7,72433	15612
7,72878	14739
7,73322	15147
7,73767	14859
7,74212	14623
7,74655	13258
7,75100	13952
7,75543	16384
7,75988	13489
7,76432	13993
7,76877	14907
7,77320	14515
7,77765	14518
7,78208	14772
7,78653	14634
7,79097	14232
7,79542	14731
7,79985	14722
7,80430	12978
7,80873	14684
7,81318	13851
7,81762	13628
7,82207	14397
7,82650	14292
7,83095	15068
7,83538	13678
7,83983	14130
7,84427	13407
7,84872	13875
7,85315	14348
7,85760	12465
7,86205	13197
7,86648	13114
7,87093	12954
7,87537	13371
7,87982	13351
7,88425	13560
7,88870	13359
7,89313	13276
7,89758	14864
7,90202	13621
7,90647	13361
7,91090	14085
7,91535	15899
7,91978	20667
7,92423	35240
7,92867	64439
7,93312	116931
7,93755	198962
7,94200	303694
7,94643	427911
7,95088	537308
7,95532	624145
7,95977	670025
7,96420	676703
7,96865	654841
7,97308	607188
7,97753	543405
7,98198	481119
7,98642	415538
7,99087	339489
7,99530	280864
7,99975	223716
8,00418	176521
8,00863	141602
8,01307	108071
8,01752	87532
8,02195	66577
8,02640	53947
8,03083	45663
8,03528	40231
8,03972	35439
8,04417	43564
8,04860	63685
8,05305	120322
8,05748	234002
8,06193	432293
8,06637	706409
8,07082	1059856
8,07525	1466430
8,07970	1855585
8,08413	2161783
8,08858	2325808
8,09302	2342307
8,09747	2213565
8,10190	2008726
8,10635	1743758
8,11080	1462799
8,11523	1176082
8,11968	932351
8,12412	707283
8,12857	539237
8,13300	396856
8,13745	297696
8,14188	216141
8,14633	170513
8,15077	131263
8,15522	102594
8,15965	84530
8,16410	69746
8,16853	58412
8,17298	52090
8,17742	47239
8,18187	40168
8,18630	38354
8,19075	35039
8,19518	32259
8,19963	31181
8,20407	28818
8,20852	27072
8,21295	26475
8,21740	24810
8,22183	24370
8,22628	24085
8,23073	21122
8,23517	21273
8,23962	21540
8,24405	21746
8,24850	21450
8,25293	20111
8,25738	20161
8,26182	18841
8,26627	19861
8,27070	19435
8,27515	19856
8,27958	17655
8,28403	17926
8,28847	18058
8,29292	17223
8,29735	17810
8,30180	18275
8,30623	17141
8,31068	16605
8,31512	17948
8,31957	15592
8,32400	16164
8,32845	15467
8,33288	15031
8,33733	14998
8,34177	15880
8,34622	15369
8,35067	15298
8,35510	15815
8,35955	15561
8,36398	15710
8,36843	14820
8,37287	15295
8,37732	15039
8,38175	16064
8,38620	15987
8,39063	15978
8,39508	15754
8,39952	16638
8,40397	16044
8,40840	15657
8,41285	16520
8,41728	17766
8,42173	19501
8,42617	27681
8,43062	46313
8,43505	83973
8,43950	147606
8,44393	249140
8,44838	376800
8,45282	516543
8,45727	643258
8,46170	731648
8,46615	767393
8,47060	755382
8,47503	698431
8,47948	617792
8,48392	520426
8,48837	427240
8,49280	339948
8,49725	265117
8,50168	200759
8,50613	150053
8,51057	116199
8,51502	89049
8,51945	68712
8,52390	56296
8,52833	49676
8,53278	40980
8,53722	38454
8,54167	34211
8,54610	30523
8,55055	29225
8,55498	26986
8,55943	24778
8,56387	22904
8,56832	21773
8,57275	18701
8,57720	18199
8,58163	18236
8,58608	16497
8,59053	16016
8,59497	15178
8,59942	16018
8,60385	15267
8,60830	16029
8,61273	15809
8,61718	13869
8,62162	16238
8,62607	21176
8,63050	34436
8,63495	62554
8,63938	118635
8,64383	218139
8,64827	344873
8,65272	496596
8,65715	637395
8,66160	771987
8,66603	852774
8,67048	856618
8,67492	813594
8,67937	724794
8,68380	614968
8,68825	497558
8,69268	381997
8,69713	286651
8,70157	214583
8,70602	157999
8,71047	115804
8,71490	91935
8,71935	75979
8,72378	58082
8,72823	50869
8,73267	43002
8,73712	38580
8,74155	34369
8,74600	31240
8,75043	27109
8,75488	27022
8,75932	23367
8,76377	22946
8,76820	20962
8,77265	20070
8,77708	19826
8,78153	19074
8,78597	18198
8,79042	15273
8,79485	15216
8,79930	17820
8,80373	16979
8,80818	16305
8,81262	16962
8,81707	15969
8,82150	15696
8,82595	16462
8,83038	13693
8,83483	15163
8,83928	14362
8,84372	13297
8,84817	14893
8,85260	13845
8,85705	13067
8,86148	13510
8,86593	13421
8,87037	12894
8,87482	12728
8,87925	13267
8,88370	13672
8,88813	14050
8,89258	14396
8,89702	13826
8,90147	13159
8,90590	14749
8,91035	13486
8,91478	15425
8,91923	14038
8,92367	13459
8,92812	15119
8,93255	13826
8,93700	13858
8,94143	14177
8,94588	14576
8,95032	13760
8,95477	13595
8,95922	13694
8,96365	13604
8,96810	13166
8,97253	13165
8,97698	12837
8,98142	14487
8,98587	14446
8,99030	14148
8,99475	14163
8,99918	14616
9,00363	15753
9,00807	20534
9,01252	32025
9,01695	58554
9,02140	107890
9,02583	192023
9,03028	326423
9,03472	470727
9,03917	633383
9,04360	766220
9,04805	850062
9,05248	866163
9,05693	826531
9,06137	730098
9,06582	609228
9,07025	487114
9,07470	366165
9,07915	274953
9,08358	201232
9,08803	146459
9,09247	110470
9,09692	82217
9,10135	67538
9,10580	55468
9,11023	46526
9,11468	38628
9,11912	34116
9,12357	32477
9,12800	29802
9,13245	26730
9,13688	25272
9,14133	24525
9,14577	22660
9,15022	21618
9,15465	20217
9,15910	18580
9,16353	19687
9,16798	17766
9,17242	18099
9,17687	16905
9,18130	15671
9,18575	16736
9,19018	16343
9,19463	15665
9,19908	15111
9,20352	16675
9,20797	21744
9,21240	36712
9,21685	69463
9,22128	144651
9,22573	278856
9,23017	493781
9,23462	796583
9,23905	1144486
9,24350	1502049
9,24793	1792173
9,25238	1977286
9,25682	1986406
9,26127	1821134
9,26570	1527718
9,27015	1183158
9,27458	874189
9,27903	620807
9,28347	433847
9,28792	310621
9,29235	223293
9,29680	163276
9,30123	125490
9,30568	99635
9,31012	80832
9,31457	68630
9,31902	59007
9,32345	51790
9,32790	45416
9,33233	40868
9,33678	37873
9,34122	33663
9,34567	32124
9,35010	29244
9,35455	31025
9,35898	29442
9,36343	30193
9,36787	29345
9,37232	32075
9,37675	32219
9,38120	31779
9,38563	29487
9,39008	32497
9,39452	30664
9,39897	30745
9,40340	28982
9,40785	30382
9,41228	26351
9,41673	24244
9,42117	23758
9,42562	24914
9,43005	30643
9,43450	48155
9,43895	84665
9,44338	151692
9,44783	262138
9,45227	417616
9,45672	588275
9,46115	768487
9,46560	901911
9,47003	964447
9,47448	923989
9,47892	829754
9,48337	682589
9,48780	525878
9,49225	398014
9,49668	287656
9,50113	208812
9,50557	153548
9,51002	110119
9,51445	87626
9,51890	70371
9,52333	57193
9,52778	48368
9,53222	41800
9,53667	37967
9,54110	37868
9,54555	47204
9,54998	76073
9,55443	138138
9,55887	254498
9,56332	454513
9,56777	733480
9,57220	1086113
9,57665	1454942
9,58108	1736099
9,58553	1900336
9,58997	1901972
9,59442	1732027
9,59885	1443923
9,60330	1106717
9,60773	807652
9,61218	568477
9,61662	397894
9,62107	288118
9,62550	209219
9,62995	159913
9,63438	126485
9,63883	99833
9,64327	82757
9,64772	69102
9,65215	62172
9,65660	57446
9,66103	50050
9,66548	44308
9,66992	39817
9,67437	39646
9,67880	33060
9,68325	32481
9,68770	32160
9,69213	29813
9,69658	26217
9,70102	27065
9,70547	25751
9,70990	25701
9,71435	24448
9,71878	24373
9,72323	22221
9,72767	24546
9,73212	23140
9,73655	21419
9,74100	20026
9,74543	19705
9,74988	19528
9,75432	18616
9,75877	17863
9,76320	18624
9,76765	19989
9,77208	23475
9,77653	29249
9,78097	50246
9,78542	93013
9,78985	166865
9,79430	288911
9,79873	450677
9,80318	625226
9,80763	794852
9,81207	905983
9,81652	909400
9,82095	843288
9,82540	714384
9,82983	567754
9,83428	420069
9,83872	305861
9,84317	222229
9,84760	158669
9,85205	114788
9,85648	91576
9,86093	70978
9,86537	58520
9,86982	50917
9,87425	42105
9,87870	39029
9,88313	35224
9,88758	31013
9,89202	31890
9,89647	27725
9,90090	26602
9,90535	23444
9,90978	25053
9,91423	22545
9,91867	22869
9,92312	21749
9,92757	20993
9,93200	20921
9,93645	21887
9,94088	20523
9,94533	21119
9,94977	21637
9,95422	21505
9,95865	19275
9,96310	20707
9,96753	19837
9,97198	18188
9,97642	19227
9,98087	19925
9,98530	18223
9,98975	17625
9,99418	18474
9,99863	18325
10,00307	18451
10,00752	17578
10,01195	18904
10,01640	16472
10,02083	17710
10,02528	17636
10,02972	18219
10,03417	18309
10,03860	21706
10,04305	33680
10,04750	56250
10,05193	106634
10,05638	198154
10,06082	330352
10,06527	493481
10,06970	665799
10,07415	800660
10,07858	881102
10,08303	866561
10,08747	768868
10,09192	646315
10,09635	493236
10,10080	369963
10,10523	261298
10,10968	190000
10,11412	141604
10,11857	106367
10,12300	82714
10,12745	67140
10,13188	55902
10,13633	46942
10,14077	43561
10,14522	37126
10,14965	35468
10,15410	36534
10,15853	30125
10,16298	28865
10,16743	27653
10,17187	25274
10,17632	25276
10,18075	25450
10,18520	24858
10,18963	21470
10,19408	22500
10,19852	22195
10,20297	21093
10,20740	21499
10,21185	21290
10,21628	18454
10,22073	19852
10,22517	18223
10,22962	19027
10,23405	20127
10,23850	19749
10,24293	18666
10,24738	17343
10,25182	17705
10,25627	16689
10,26070	16322
10,26515	17854
10,26958	16590
10,27403	16586
10,27847	16887
10,28292	16177
10,28735	16298
10,29180	16487
10,29625	15866
10,30068	17805
10,30513	16095
10,30957	16380
10,31402	16410
10,31845	17571
10,32290	16532
10,32733	16514
10,33178	16916
10,33622	17175
10,34067	17392
10,34510	16594
10,34955	16869
10,35398	17823
10,35843	23110
10,36287	35601
10,36732	69092
10,37175	134089
10,37620	266383
10,38063	466134
10,38508	766336
10,38952	1139511
10,39397	1559341
10,39840	1965379
10,40285	2244681
10,40728	2348991
10,41173	2234813
10,41618	1971133
10,42062	1717234
10,42507	1495824
10,42950	1333778
10,43395	1190388
10,43838	1036976
10,44283	876139
10,44727	713516
10,45172	547293
10,45615	416934
10,46060	309523
10,46503	234323
10,46948	182899
10,47392	139365
10,47837	116578
10,48280	96624
10,48725	84273
10,49168	74132
10,49613	64462
10,50057	58506
10,50502	56151
10,50945	50878
10,51390	48010
10,51833	44725
10,52278	41101
10,52722	38804
10,53167	37326
10,53612	35659
10,54055	33613
10,54500	32303
10,54943	32413
10,55388	30132
10,55832	30163
10,56277	29228
10,56720	28494
10,57165	27032
10,57608	25765
10,58053	27983
10,58497	26493
10,58942	27105
10,59385	28167
10,59830	31622
10,60273	32567
10,60718	33384
10,61162	42194
10,61607	57393
10,62050	91315
10,62495	153194
10,62938	261874
10,63383	409247
10,63827	576227
10,64272	711697
10,64715	785662
10,65160	799323
10,65605	725237
10,66048	608446
10,66493	476011
10,66937	357762
10,67382	262053
10,67825	199175
10,68270	155743
10,68713	134258
10,69158	137782
10,69602	175350
10,70047	262567
10,70490	405019
10,70935	588746
10,71378	794039
10,71823	963308
10,72267	1059515
10,72712	1021010
10,73155	914995
10,73600	734154
10,74043	556498
10,74488	410924
10,74932	293856
10,75377	215010
10,75820	162404
10,76265	127188
10,76708	99572
10,77153	89293
10,77598	73728
10,78042	66386
10,78487	57208
10,78930	53037
10,79375	48695
10,79818	44507
10,80263	40296
10,80707	38971
10,81152	36234
10,81595	36020
10,82040	32068
10,82483	32207
10,82928	30945
10,83372	29494
10,83817	30045
10,84260	28984
10,84705	27501
10,85148	26705
10,85593	26285
10,86037	26945
10,86482	25965
10,86925	25453
10,87370	26616
10,87813	24448
10,88258	24223
10,88702	24693
10,89147	24250
10,89592	24725
10,90035	22746
10,90480	24599
10,90923	25163
10,91368	25303
10,91812	28312
10,92257	35059
10,92700	55627
10,93145	100774
10,93588	187107
10,94033	338103
10,94477	532581
10,94922	756124
10,95365	975768
10,95810	1139939
10,96253	1152931
10,96698	1037624
10,97142	850543
10,97587	649209
10,98030	472249
10,98475	331943
10,98918	242729
10,99363	179262
10,99807	138480
11,00252	110317
11,00695	96472
11,01140	80200
11,01583	69764
11,02028	61079
11,02473	56818
11,02917	50468
11,03362	48206
11,03805	44994
11,04250	41850
11,04693	39442
11,05138	38661
11,05582	37787
11,06027	37172
11,06470	35093
11,06915	35101
11,07358	35414
11,07803	33562
11,08247	33172
11,08692	33089
11,09135	30825
11,09580	30400
11,10023	28790
11,10468	29252
11,10912	27023
11,11357	26770
11,11800	26520
11,12245	26905
11,12688	26625
11,13133	26047
11,13577	24784
11,14022	25046
11,14467	26874
11,14910	25500
11,15355	26161
11,15798	25755
11,16243	25462
11,16687	32698
11,17132	46548
11,17575	75357
11,18020	134147
11,18463	236446
11,18908	380064
11,19352	567080
11,19797	726505
11,20240	860435
11,20685	926631
11,21128	862455
11,21573	752064
11,22017	600641
11,22462	453769
11,22905	334817
11,23350	245103
11,23793	179177
11,24238	137929
11,24682	106009
11,25127	87929
11,25570	73000
11,26015	62383
11,26460	56084
11,26903	54029
11,27348	42428
11,27792	43165
11,28237	40821
11,28680	38849
11,29125	37450
11,29568	34401
11,30013	32610
11,30457	36792
11,30902	31931
11,31345	31825
11,31790	29457
11,32233	30490
11,32678	27703
11,33122	28489
11,33567	29362
11,34010	28168
11,34455	28802
11,34898	26461
11,35343	27587
11,35787	26985
11,36232	24669
11,36675	25709
11,37120	24288
11,37563	24724
11,38008	24146
11,38453	25125
11,38897	23725
11,39342	23007
11,39785	23567
11,40230	23740
11,40673	23207
11,41118	23308
11,41562	22924
11,42007	23045
11,42450	22132
11,42895	22970
11,43338	24343
11,43783	23003
11,44227	24562
11,44672	24593
11,45115	22890
11,45560	23986
11,46003	22045
11,46448	23208
11,46892	24654
11,47337	29869
11,47780	39487
11,48225	64286
11,48668	117149
11,49113	204426
11,49557	347590
11,50002	557671
11,50447	841239
11,50890	1195640
11,51335	1555703
11,51778	1900059
11,52223	2144438
11,52667	2218614
11,53112	2058198
11,53555	1778866
11,54000	1458230
11,54443	1249976
11,54888	1127212
11,55332	1087513
11,55777	1070311
11,56220	1043506
11,56665	969795
11,57108	851632
11,57553	711534
11,57997	567137
11,58442	436309
11,58885	334595
11,59330	260672
11,59773	207295
11,60218	169333
11,60662	141925
11,61107	123901
11,61550	108968
11,61995	95618
11,62438	83775
11,62883	78827
11,63328	76971
11,63772	70528
11,64217	65361
11,64660	61790
11,65105	57839
11,65548	53841
11,65993	53684
11,66437	53361
11,66882	49925
11,67325	48200
11,67770	46247
11,68213	45961
11,68658	42793
11,69102	43383
11,69547	42910
11,69990	42178
11,70435	39845
11,70878	40372
11,71323	38586
11,71767	40964
11,72212	40948
11,72655	41806
11,73100	39760
11,73543	42644
11,73988	52252
11,74432	75085
11,74877	117849
11,75322	190249
11,75765	294210
11,76210	445584
11,76653	590438
11,77098	719532
11,77542	799007
11,77987	790235
11,78430	723636
11,78875	624073
11,79318	496692
11,79763	397345
11,80207	324457
11,80652	308381
11,81095	351722
11,81540	467482
11,81983	651466
11,82428	893305
11,82872	1169384
11,83317	1423772
11,83760	1590300
11,84205	1653416
11,84648	1577772
11,85093	1413225
11,85537	1171017
11,85982	923211
11,86425	704806
11,86870	538689
11,87315	410406
11,87758	313270
11,88203	252900
11,88647	204960
11,89092	170969
11,89535	145154
11,89980	129222
11,90423	115568
11,90868	101102
11,91312	92023
11,91757	87097
11,92200	78700
11,92645	74514
11,93088	68306
11,93533	67656
11,93977	66128
11,94422	60427
11,94865	58608
11,95310	54913
11,95753	49921
11,96198	50231
11,96642	48715
11,97087	46082
11,97530	41833
11,97975	45245
11,98418	43012
11,98863	39606
11,99308	39852
11,99752	38820
12,00197	38121
12,00640	37949
12,01085	37400
12,01528	35135
12,01973	35921
12,02417	34714
12,02862	34424
12,03305	34485
12,03750	37447
12,04193	48599
12,04638	64838
12,05082	100213
12,05527	164653
12,05970	263918
12,06415	389910
12,06858	566416
12,07303	761234
12,07747	933838
12,08192	1037118
12,08635	1049737
12,09080	954682
12,09523	799188
12,09968	637261
12,10412	493213
12,10857	370890
12,11302	285104
12,11745	226139
12,12190	182502
12,12633	150411
12,13078	130989
12,13522	113334
12,13967	99133
12,14410	90185
12,14855	80838
12,15298	75302
12,15743	70148
12,16187	65230
12,16632	62316
12,17075	58800
12,17520	56752
12,17963	50679
12,18408	53986
12,18852	48693
12,19297	49629
12,19740	47356
12,20185	45808
12,20628	43602
12,21073	45073
12,21517	42649
12,21962	42277
12,22405	39736
12,22850	41342
12,23295	39484
12,23738	38256
12,24183	38219
12,24627	35058
12,25072	37230
12,25515	33700
12,25960	35248
12,26403	33407
12,26848	33870
12,27292	34077
12,27737	32162
12,28180	31363
12,28625	33637
12,29068	32277
12,29513	32634
12,29957	32083
12,30402	36638
12,30845	39961
12,31290	52199
12,31733	78487
12,32178	129844
12,32622	209710
12,33067	318925
12,33510	470283
12,33955	619245
12,34398	747439
12,34843	824186
12,35287	828174
12,35732	781912
12,36177	669695
12,36620	543563
12,37065	431269
12,37508	334465
12,37953	259373
12,38397	204479
12,38842	160577
12,39285	136909
12,39730	113923
12,40173	101672
12,40618	87019
12,41062	78156
12,41507	77230
12,41950	79219
12,42395	91602
12,42838	118457
12,43283	167074
12,43727	234063
12,44172	327776
12,44615	427805
12,45060	531709
12,45503	596280
12,45948	628044
12,46392	604725
12,46837	556824
12,47280	480623
12,47725	393128
12,48170	319686
12,48613	256831
12,49058	198127
12,49502	158000
12,49947	130837
12,50390	111826
12,50835	94990
12,51278	82772
12,51723	75102
12,52167	68688
12,52612	62094
12,53055	55088
12,53500	51450
12,53943	51045
12,54388	50256
12,54832	45543
12,55277	45526
12,55720	43099
12,56165	41195
12,56608	40683
12,57053	40053
12,57497	37178
12,57942	38096
12,58385	37744
12,58830	34698
12,59273	35934
12,59718	35057
12,60163	34106
12,60607	33355
12,61052	35595
12,61495	34544
12,61940	36934
12,62383	42197
12,62828	52120
12,63272	69012
12,63717	108479
12,64160	171052
12,64605	265296
12,65048	404031
12,65493	581889
12,65937	811086
12,66382	1067129
12,66825	1341509
12,67270	1600638
12,67713	1783204
12,68158	1833472
12,68602	1772340
12,69047	1543875
12,69490	1265595
12,69935	980011
12,70378	756492
12,70823	577399
12,71267	452204
12,71712	354724
12,72157	304525
12,72600	245477
12,73045	210089
12,73488	188228
12,73933	163547
12,74377	148481
12,74822	136936
12,75265	121677
12,75710	112581
12,76153	108340
12,76598	94752
12,77042	90701
12,77487	83771
12,77930	82654
12,78375	76835
12,78818	72246
12,79263	70298
12,79707	67354
12,80152	65042
12,80595	62816
12,81040	60617
12,81483	55844
12,81928	57195
12,82372	58007
12,82817	54651
12,83260	53147
12,83705	52089
12,84150	47095
12,84593	48859
12,85038	48382
12,85482	47865
12,85927	46844
12,86370	46324
12,86815	44296
12,87258	42739
12,87703	41593
12,88147	40800
12,88592	43196
12,89035	39836
12,89480	39541
12,89923	38335
12,90368	37797
12,90812	39943
12,91257	35689
12,91700	38034
12,92145	36469
12,92588	37966
12,93033	36544
12,93477	37281
12,93922	37283
12,94365	35799
12,94810	35776
12,95253	35768
12,95698	34079
12,96143	35148
12,96587	34601
12,97032	37916
12,97475	40800
12,97920	45241
12,98363	58938
12,98808	84303
12,99252	120875
12,99697	184233
13,00140	272457
13,00585	388750
13,01028	517946
13,01473	647506
13,01917	768160
13,02362	835563
13,02805	854762
13,03250	802277
13,03693	705847
13,04138	617332
13,04582	491713
13,05027	408067
13,05470	331208
13,05915	265103
13,06358	221287
13,06803	183997
13,07247	158039
13,07692	134252
13,08135	122661
13,08580	110076
13,09025	96436
13,09468	91153
13,09913	83048
13,10357	77675
13,10802	72950
13,11245	67307
13,11690	63643
13,12133	60671
13,12578	56225
13,13022	56261
13,13467	52293
13,13910	51611
13,14355	53891
13,14798	48297
13,15243	50533
13,15687	49383
13,16132	48843
13,16575	45408
13,17020	46245
13,17463	44722
13,17908	43749
13,18352	42267
13,18797	42488
13,19240	41756
13,19685	42103
13,20128	42258
13,20573	38406
13,21018	40731
13,21462	40147
13,21907	37619
13,22350	37209
13,22795	36356
13,23238	35993
13,23683	36980
13,24127	36265
13,24572	34224
13,25015	34239
13,25460	33591
13,25903	33307
13,26348	33235
13,26792	34351
13,27237	34102
13,27680	34368
13,28125	32094
13,28568	31264
13,29013	32516
13,29457	33910
13,29902	30524
13,30345	31159
13,30790	30308
13,31233	32100
13,31678	32175
13,32122	31332
13,32567	29932
13,33012	30231
13,33455	33504
13,33900	30489
13,34343	31095
13,34788	31017
13,35232	31985
13,35677	31903
13,36120	31931
13,36565	31251
13,37008	32545
13,37453	32469
13,37897	31694
13,38342	29542
13,38785	30032
13,39230	28123
13,39673	29209
13,40118	28800
13,40562	29806
13,41007	31641
13,41450	27903
13,41895	27946
13,42338	28297
13,42783	28995
13,43227	28311
13,43672	27840
13,44115	29165
13,44560	27817
13,45005	29748
13,45448	27599
13,45893	27289
13,46337	29651
13,46782	28241
13,47225	27202
13,47670	29898
13,48113	29094
13,48558	27238
13,49002	27890
13,49447	28687
13,49890	28370
13,50335	29550
13,50778	28131
13,51223	29160
13,51667	27892
13,52112	29135
13,52555	28248
13,53000	27991
13,53443	32031
13,53888	28971
13,54332	28525
13,54777	29488
13,55220	29076
13,55665	28900
13,56108	29749
13,56553	27905
13,56998	29675
13,57442	28870
13,57887	28318
13,58330	29685
13,58775	27157
13,59218	27484
13,59663	27831
13,60107	29211
13,60552	28162
13,60995	28690
13,61440	28733
13,61883	28592
13,62328	30079
13,62772	25848
13,63217	27935
13,63660	29181
13,64105	28042
13,64548	27347
13,64993	28506
13,65437	27248
13,65882	27321
13,66325	27218
13,66770	28159
13,67213	27540
13,67658	28425
13,68102	26742
13,68547	27465
13,68992	29369
13,69435	28450
13,69880	29073
13,70323	28389
13,70768	25801
13,71212	29689
13,71657	26885
13,72100	26007
13,72545	28706
13,72988	27682
13,73433	29126
13,73877	27413
13,74322	26639
13,74765	27033
13,75210	27980
13,75653	25847
13,76098	25350
13,76542	26443
13,76987	26566
13,77430	27370
13,77875	30129
13,78318	26174
13,78763	27114
13,79207	28328
13,79652	27793
13,80095	27614
13,80540	27735
13,80985	28433
13,81428	27258
13,81873	28665
13,82317	29479
13,82762	28032
13,83205	27870
13,83650	26510
13,84093	27598
13,84538	27226
13,84982	28264
13,85427	28402
13,85870	28104
13,86315	27199
13,86758	28048
13,87203	26697
13,87647	26837
13,88092	26658
13,88535	26946
13,88980	28200
13,89423	26435
13,89868	26951
13,90312	27056
13,90757	25672
13,91200	28438
13,91645	28299
13,92088	27368
13,92533	27919
13,92977	26769
13,93422	27539
13,93867	27385
13,94310	25538
13,94755	26303
13,95198	28643
13,95643	27146
13,96087	26973
13,96532	27782
13,96975	26461
13,97420	28215
13,97863	26607
13,98308	27610
13,98752	26303
13,99197	26215
13,99640	27918
14,00085	26488
14,00528	26105
14,00973	25887
14,01417	26735
14,01862	27832
14,02305	26017
14,02750	28960
14,03193	26680
14,03638	27265
14,04082	29287
14,04527	28587
14,04970	32791
14,05415	33665
14,05860	45095
14,06303	58094
14,06748	79398
14,07192	111756
14,07637	160402
14,08080	218877
14,08525	279851
14,08968	346716
14,09413	406299
14,09857	439132
14,10302	452829
14,10745	450589
14,11190	424463
14,11633	394357
14,12078	337455
14,12522	291490
14,12967	250218
14,13410	213878
14,13855	174824
14,14298	148410
14,14743	127607
14,15187	112320
14,15632	97743
14,16075	87432
14,16520	78425
14,16963	71264
14,17408	66955
14,17853	60744
14,18297	56575
14,18742	55245
14,19185	51128
14,19630	49584
14,20073	49999
14,20518	44698
14,20962	45616
14,21407	42498
14,21850	39601
14,22295	40099
14,22738	40325
14,23183	36355
14,23627	37606
14,24072	37071
14,24515	36821
14,24960	36247
14,25403	36088
14,25848	35409
14,26292	34961
14,26737	35039
14,27180	34087
14,27625	35006
14,28068	33186
14,28513	34625
14,28957	33089
14,29402	33272
14,29847	32738
14,30290	31646
14,30735	31029
14,31178	31833
14,31623	31173
14,32067	32993
14,32512	32632
14,32955	31781
14,33400	31716
14,33843	31058
14,34288	30185
14,34732	30895
14,35177	30731
14,35620	30351
14,36065	30824
14,36508	30717
14,36953	31434
14,37397	30104
14,37842	30414
14,38285	28668
14,38730	28355
14,39173	29119
14,39618	31689
14,40062	28316
14,40507	30358
14,40950	27508
14,41395	27216
14,41840	29679
14,42283	29453
14,42728	29115
14,43172	29516
14,43617	30922
14,44060	28136
14,44505	29763
14,44948	28589
14,45393	29170
14,45837	28549
14,46282	27910
14,46725	28003
14,47170	28065
14,47613	28608
14,48058	29027
14,48502	29142
14,48947	27482
14,49390	28039
14,49835	29430
14,50278	30039
14,50723	28422
14,51167	28589
