D:\MassHunter\GCMS\1\data\Amal\Constant flow\110C\110C_1ml-min_10C-min_3.D Tue Sep 17 14:17:17 2024
Start of data points
5,29107,109726
5,29518,106100
5,29932,106381
5,30343,99447
5,30755,103823
5,31168,98934
5,31580,95959
5,31992,101016
5,32403,96942
5,32817,97916
5,33228,95500
5,33640,95317
5,34053,94010
5,34465,94437
5,34877,92749
5,35290,93608
5,35702,90197
5,36113,88309
5,36527,91790
5,36938,90302
5,37350,87020
5,37763,88106
5,38175,89066
5,38587,87071
5,39000,86290
5,39412,86418
5,39823,85725
5,40237,85966
5,40648,82415
5,41060,83451
5,41473,79107
5,41885,79986
5,42297,80985
5,42708,81061
5,43122,82399
5,43533,81717
5,43945,82869
5,44358,83721
5,44770,87096
5,45182,81529
5,45595,81634
5,46007,81120
5,46418,85222
5,46832,86616
5,47243,81213
5,47655,84010
5,48068,83239
5,48480,83714
5,48892,85103
5,49305,85857
5,49717,89702
5,50128,86524
5,50542,87063
5,50953,89599
5,51365,88105
5,51777,86437
5,52190,85050
5,52602,84373
5,53013,84677
5,53427,89194
5,53838,84297
5,54250,85137
5,54663,80915
5,55075,81808
5,55487,81949
5,55900,82243
5,56312,80594
5,56723,80674
5,57137,75831
5,57548,76596
5,57960,79168
5,58373,78821
5,58785,82181
5,59197,91793
5,59610,114520
5,60022,161840
5,60433,244031
5,60845,356063
5,61258,503962
5,61670,654051
5,62082,796975
5,62495,890153
5,62907,945087
5,63318,952659
5,63732,937474
5,64143,915804
5,64555,876805
5,64968,837820
5,65380,800804
5,65792,774941
5,66205,735025
5,66617,699521
5,67028,675061
5,67442,641502
5,67853,608745
5,68265,583827
5,68678,558179
5,69090,532337
5,69502,510560
5,69913,487462
5,70327,459988
5,70738,430244
5,71150,410882
5,71563,380836
5,71975,353011
5,72387,324551
5,72800,304787
5,73212,278528
5,73623,262169
5,74037,232141
5,74448,217603
5,74860,200679
5,75273,181911
5,75685,171093
5,76097,155531
5,76510,145087
5,76922,134644
5,77333,122944
5,77747,117207
5,78158,109171
5,78570,101741
5,78982,98863
5,79395,92124
5,79807,87124
5,80218,84422
5,80632,79699
5,81043,76710
5,81455,75366
5,81868,72895
5,82280,70395
5,82692,66538
5,83105,65819
5,83517,64204
5,83928,62687
5,84342,60558
5,84753,60299
5,85165,59085
5,85578,58835
5,85990,57748
5,86402,55747
5,86815,58186
5,87227,55213
5,87638,55638
5,88050,57307
5,88463,53868
5,88875,55766
5,89287,53335
5,89700,53762
5,90112,54516
5,90523,52751
5,90937,52825
5,91348,52813
5,91760,51105
5,92173,51861
5,92585,50634
5,92997,50619
5,93410,50142
5,93822,50412
5,94233,48305
5,94647,47253
5,95058,47513
5,95470,49350
5,95883,48106
5,96295,46634
5,96707,47324
5,97118,46843
5,97532,47882
5,97943,47604
5,98355,46303
5,98768,43665
5,99180,45117
5,99592,43487
6,00005,46753
6,00417,47286
6,00828,43685
6,01242,46035
6,01653,47148
6,02065,45546
6,02478,46674
6,02890,45517
6,03302,46237
6,03715,47033
6,04127,47521
6,04538,46222
6,04952,46487
6,05363,45608
6,05775,43811
6,06187,44743
6,06600,46096
6,07012,45346
6,07423,44903
6,07837,43884
6,08248,45180
6,08660,45352
6,09073,43521
6,09485,45972
6,09897,46676
6,10310,43803
6,10722,46567
6,11133,46178
6,11547,46693
6,11958,48109
6,12370,45274
6,12783,42594
6,13195,44314
6,13607,44986
6,14020,45256
6,14432,45200
6,14843,43519
6,15255,44930
6,15668,43025
6,16080,42619
6,16492,44940
6,16905,41531
6,17317,44770
6,17728,41385
6,18142,42461
6,18553,41837
6,18965,40395
6,19378,40770
6,19790,41731
6,20202,41021
6,20615,41140
6,21027,41234
6,21438,40549
6,21852,40071
6,22263,39218
6,22675,36243
6,23088,37646
6,23500,36923
6,23912,38016
6,24323,37040
6,24737,36822
6,25148,36030
6,25560,34628
6,25973,35629
6,26385,35018
6,26797,36552
6,27210,34651
6,27622,34694
6,28033,36282
6,28447,35947
6,28858,34885
6,29270,34847
6,29683,34489
6,30095,34954
6,30507,37612
6,30920,35271
6,31332,37056
6,31743,36230
6,32157,36352
6,32568,36831
6,32980,36832
6,33392,36447
6,33805,35587
6,34217,37262
6,34628,35891
6,35042,34156
6,35453,34845
6,35865,33623
6,36278,36636
6,36690,35197
6,37102,34040
6,37515,33647
6,37927,32410
6,38338,32164
6,38752,30929
6,39163,32062
6,39575,30665
6,39988,33252
6,40400,31788
6,40812,32203
6,41225,31326
6,41637,32713
6,42048,31061
6,42460,31659
6,42873,31692
6,43285,33497
6,43697,32083
6,44110,31762
6,44522,30386
6,44933,30971
6,45347,30178
6,45758,29485
6,46170,29454
6,46583,29771
6,46995,31351
6,47407,31803
6,47820,30709
6,48232,31573
6,48643,31067
6,49057,29147
6,49468,29641
6,49880,29368
6,50293,29730
6,50705,28519
6,51117,29503
6,51528,27894
6,51942,29056
6,52353,29954
6,52765,29474
6,53178,28351
6,53590,29844
6,54002,28477
6,54415,28246
6,54827,29210
6,55238,28304
6,55652,27407
6,56063,27143
6,56475,26342
6,56888,28249
6,57300,30692
6,57712,27889
6,58125,29212
6,58537,28393
6,58948,29515
6,59362,28394
6,59773,29727
6,60185,29009
6,60597,28246
6,61010,27842
6,61422,29089
6,61833,30241
6,62247,29802
6,62658,30039
6,63070,36021
6,63483,42294
6,63895,60950
6,64307,104232
6,64720,180726
6,65132,303090
6,65543,469983
6,65957,678555
6,66368,903837
6,66780,1116223
6,67193,1276069
6,67605,1378899
6,68017,1427303
6,68430,1419741
6,68842,1380243
6,69253,1305710
6,69665,1235075
6,70078,1147860
6,70490,1071620
6,70902,987695
6,71315,916610
6,71727,850659
6,72138,773004
6,72552,699159
6,72963,630597
6,73375,559589
6,73788,488580
6,74200,431536
6,74612,375176
6,75025,321471
6,75437,281604
6,75848,245617
6,76262,210174
6,76673,184510
6,77085,159369
6,77498,135347
6,77910,122356
6,78322,111311
6,78733,96388
6,79147,86695
6,79558,79539
6,79970,70923
6,80383,66599
6,80795,60797
6,81207,57520
6,81620,52408
6,82032,50593
6,82443,48352
6,82857,47160
6,83268,43922
6,83680,42090
6,84093,40559
6,84505,40501
6,84917,37215
6,85330,38646
6,85742,35675
6,86153,36479
6,86567,35137
6,86978,34281
6,87390,34184
6,87802,34145
6,88215,33396
6,88627,33428
6,89038,31472
6,89452,31905
6,89863,31188
6,90275,31604
6,90688,29989
6,91100,29477
6,91512,29606
6,91925,29347
6,92337,28836
6,92748,29725
6,93162,30130
6,93573,30068
6,93985,30462
6,94398,29502
6,94810,29449
6,95222,30340
6,95635,28842
6,96047,29110
6,96458,26054
6,96870,28047
6,97283,27654
6,97695,27069
6,98107,26925
6,98520,27581
6,98932,26834
6,99343,26237
6,99757,26039
7,00168,26124
7,00580,25527
7,00993,24986
7,01405,24927
7,01817,26187
7,02230,25483
7,02642,24683
7,03053,25732
7,03467,25351
7,03878,25696
7,04290,26257
7,04703,27404
7,05115,26243
7,05527,24442
7,05940,26272
7,06352,23973
7,06763,24475
7,07175,23921
7,07588,24126
7,08000,24415
7,08412,23530
7,08825,22700
7,09237,23622
7,09648,23197
7,10062,22481
7,10473,21796
7,10885,22679
7,11298,21691
7,11710,23516
7,12122,23964
7,12535,21573
7,12947,22428
7,13358,23051
7,13772,22736
7,14183,22143
7,14595,21378
7,15008,22334
7,15420,24649
7,15832,22810
7,16243,21445
7,16657,20942
7,17068,21543
7,17480,22670
7,17893,23497
7,18305,23794
7,18717,23725
7,19130,23455
7,19542,23080
7,19953,22158
7,20367,21206
7,20778,21553
7,21190,20725
7,21603,23939
7,22015,21062
7,22427,21476
7,22840,20837
7,23252,21130
7,23663,22110
7,24077,19809
7,24488,19440
7,24900,21246
7,25312,21474
7,25725,19800
7,26137,21718
7,26548,24562
7,26962,32641
7,27373,46487
7,27785,75355
7,28198,125188
7,28610,203371
7,29022,316015
7,29435,440295
7,29847,577529
7,30258,709128
7,30672,802482
7,31083,859584
7,31495,871256
7,31908,871884
7,32320,821780
7,32732,779110
7,33145,715232
7,33557,645551
7,33968,588184
7,34380,525339
7,34793,457868
7,35205,393722
7,35617,344078
7,36030,289555
7,36442,247906
7,36853,210463
7,37267,176836
7,37678,147143
7,38090,125207
7,38503,107002
7,38915,93581
7,39327,81280
7,39740,73057
7,40152,65272
7,40563,57670
7,40977,52158
7,41388,49427
7,41800,46080
7,42213,41700
7,42625,39879
7,43037,38869
7,43448,34639
7,43862,34173
7,44273,33687
7,44685,33083
7,45098,29929
7,45510,29748
7,45922,30110
7,46335,28905
7,46747,27518
7,47158,27682
7,47572,25933
7,47983,26410
7,48395,26111
7,48808,24608
7,49220,24137
7,49632,24877
7,50045,22859
7,50457,24040
7,50868,23489
7,51282,24392
7,51693,24442
7,52105,22595
7,52517,24218
7,52930,25805
7,53342,25451
7,53753,28442
7,54167,27857
7,54578,29280
7,54990,30708
7,55403,29600
7,55815,31115
7,56227,31034
7,56640,29122
7,57052,29391
7,57463,26497
7,57877,27741
7,58288,25007
7,58700,26065
7,59113,24287
7,59525,22620
7,59937,23691
7,60350,23170
7,60762,22848
7,61173,20477
7,61585,19238
7,61998,20430
7,62410,20779
7,62822,20417
7,63235,19498
7,63647,19524
7,64058,18703
7,64472,17659
7,64883,19300
7,65295,19566
7,65708,19176
7,66120,19638
7,66532,18846
7,66945,19177
7,67357,17139
7,67768,18950
7,68182,18464
7,68593,17548
7,69005,17767
7,69418,18234
7,69830,17483
7,70242,17696
7,70653,18205
7,71067,17236
7,71478,18639
7,71890,19073
7,72303,19154
7,72715,17946
7,73127,17733
7,73540,17446
7,73952,17225
7,74363,18094
7,74777,19117
7,75188,16460
7,75600,17841
7,76013,16945
7,76425,16620
7,76837,17658
7,77250,17566
7,77662,17909
7,78073,16911
7,78487,17255
7,78898,17309
7,79310,15619
7,79722,17439
7,80135,17956
7,80547,15911
7,80958,16674
7,81372,16693
7,81783,16805
7,82195,16277
7,82608,16524
7,83020,16598
7,83432,17254
7,83845,17024
7,84257,17188
7,84668,17102
7,85082,18204
7,85493,17246
7,85905,17637
7,86318,17448
7,86730,18544
7,87142,16715
7,87555,18048
7,87967,17409
7,88378,17643
7,88790,17853
7,89203,17404
7,89615,17906
7,90027,16333
7,90440,16666
7,90852,16588
7,91263,16329
7,91677,16822
7,92088,15927
7,92500,15719
7,92913,16356
7,93325,18804
7,93737,17424
7,94150,20651
7,94562,29042
7,94973,51755
7,95387,96457
7,95798,183462
7,96210,335088
7,96623,564519
7,97035,863684
7,97447,1184638
7,97858,1510673
7,98272,1800813
7,98683,2018153
7,99095,2109403
7,99508,2111640
7,99920,2014547
8,00332,1875390
8,00745,1674567
8,01157,1475059
8,01568,1263193
8,01982,1057458
8,02393,854805
8,02805,709811
8,03218,574077
8,03630,461119
8,04042,370290
8,04455,299063
8,04867,244021
8,05278,203711
8,05692,169471
8,06103,143133
8,06515,124801
8,06927,103728
8,07340,95469
8,07752,84301
8,08163,75495
8,08577,68469
8,08988,61197
8,09400,58427
8,09813,52640
8,10225,50132
8,10637,46839
8,11050,42762
8,11462,42142
8,11873,39964
8,12287,37772
8,12698,37081
8,13110,35758
8,13523,32338
8,13935,33818
8,14347,32558
8,14760,29150
8,15172,30141
8,15583,27879
8,15995,27381
8,16408,25822
8,16820,26284
8,17232,27009
8,17645,25477
8,18057,24461
8,18468,23551
8,18882,22969
8,19293,24651
8,19705,23221
8,20118,22131
8,20530,22142
8,20942,22985
8,21355,21549
8,21767,21889
8,22178,22644
8,22592,20488
8,23003,20997
8,23415,20878
8,23828,20065
8,24240,20178
8,24652,20487
8,25063,19798
8,25477,19797
8,25888,19431
8,26300,19539
8,26713,19134
8,27125,17665
8,27537,17483
8,27950,17962
8,28362,17990
8,28773,17227
8,29187,16262
8,29598,16749
8,30010,17143
8,30423,18075
8,30835,15655
8,31247,18270
8,31660,17954
8,32072,16624
8,32483,16304
8,32897,16453
8,33308,17319
8,33720,16140
8,34132,16480
8,34545,16416
8,34957,15876
8,35368,17753
8,35782,15957
8,36193,15787
8,36605,14938
8,37018,17508
8,37430,15992
8,37842,14785
8,38255,15743
8,38667,14249
8,39078,17019
8,39492,15756
8,39903,16609
8,40315,16011
8,40728,15463
8,41140,15553
8,41552,15833
8,41965,15845
8,42377,17531
8,42788,15985
8,43200,16711
8,43613,17099
8,44025,18497
8,44437,16573
8,44850,16632
8,45262,16314
8,45673,16768
8,46087,17386
8,46498,16214
8,46910,16851
8,47323,16038
8,47735,17159
8,48147,16229
8,48560,16096
8,48972,15052
8,49383,14419
8,49797,14813
8,50208,15611
8,50620,15859
8,51033,15396
8,51445,15633
8,51857,14964
8,52268,14603
8,52682,17009
8,53093,16027
8,53505,15686
8,53918,16727
8,54330,18862
8,54742,19232
8,55155,20353
8,55567,22366
8,55978,22916
8,56392,23692
8,56803,24961
8,57215,24867
8,57628,25246
8,58040,25085
8,58452,22959
8,58865,23689
8,59277,23022
8,59688,20998
8,60102,21047
8,60513,19414
8,60925,20219
8,61337,18658
8,61750,17389
8,62162,18579
8,62573,16842
8,62987,17578
8,63398,16452
8,63810,15987
8,64223,15721
8,64635,20170
8,65047,28973
8,65460,52755
8,65872,90723
8,66283,165256
8,66697,282701
8,67108,442273
8,67520,646767
8,67933,864890
8,68345,1058061
8,68757,1190039
8,69170,1251826
8,69582,1241219
8,69993,1156326
8,70405,1035452
8,70818,870676
8,71230,735739
8,71642,608784
8,72055,483517
8,72467,385515
8,72878,299856
8,73292,236236
8,73703,189677
8,74115,153132
8,74528,126182
8,74940,104525
8,75352,89207
8,75765,76510
8,76177,70533
8,76588,61773
8,77002,54299
8,77413,47840
8,77825,43698
8,78238,42250
8,78650,38332
8,79062,36669
8,79475,33796
8,79887,31739
8,80298,29272
8,80710,29493
8,81123,26679
8,81535,26287
8,81947,26505
8,82360,23634
8,82772,23063
8,83183,22430
8,83597,21678
8,84008,22069
8,84420,22307
8,84833,20883
8,85245,19677
8,85657,19954
8,86070,19841
8,86482,17829
8,86893,18371
8,87307,18329
8,87718,19154
8,88130,18820
8,88543,17143
8,88955,16514
8,89367,16611
8,89778,16767
8,90192,16573
8,90603,16204
8,91015,15418
8,91428,14613
8,91840,14121
8,92252,14586
8,92665,14421
8,93077,14196
8,93488,13262
8,93902,15555
8,94313,15321
8,94725,14000
8,95138,14554
8,95550,15367
8,95962,13534
8,96375,14431
8,96787,14219
8,97198,11824
8,97612,13056
8,98023,13437
8,98435,13885
8,98847,14451
8,99260,14154
8,99672,13424
9,00083,13664
9,00497,13067
9,00908,13914
9,01320,13560
9,01733,14243
9,02145,15567
9,02557,17540
9,02970,16278
9,03382,16411
9,03793,18831
9,04207,19871
9,04618,17876
9,05030,18405
9,05443,17726
9,05855,16862
9,06267,16095
9,06680,15312
9,07092,15827
9,07503,14144
9,07915,14549
9,08328,13498
9,08740,13427
9,09152,12154
9,09565,12447
9,09977,12239
9,10388,12356
9,10802,12358
9,11213,13641
9,11625,13104
9,12038,13023
9,12450,13655
9,12862,13328
9,13275,11486
9,13687,12472
9,14098,13094
9,14512,13590
9,14923,13515
9,15335,12527
9,15748,13249
9,16160,13483
9,16572,13666
9,16983,11892
9,17397,12208
9,17808,13473
9,18220,12462
9,18633,13501
9,19045,12278
9,19457,12086
9,19870,13036
9,20282,12469
9,20693,12472
9,21107,13137
9,21518,12819
9,21930,12600
9,22343,14043
9,22755,16407
9,23167,15919
9,23580,17262
9,23992,18793
9,24403,18788
9,24817,18793
9,25228,18951
9,25640,17011
9,26052,17601
9,26465,15152
9,26877,16146
9,27288,15700
9,27702,14890
9,28113,13911
9,28525,14820
9,28938,12678
9,29350,12813
9,29762,12977
9,30175,12997
9,30587,11916
9,30998,12269
9,31412,12409
9,31823,11677
9,32235,13042
9,32648,12232
9,33060,11826
9,33472,12702
9,33885,12984
9,34297,12942
9,34708,14027
9,35120,17201
9,35533,24164
9,35945,48849
9,36357,102876
9,36770,206024
9,37182,394846
9,37593,690709
9,38007,1097507
9,38418,1577643
9,38830,2056944
9,39243,2504668
9,39655,2759646
9,40067,2838989
9,40480,2739610
9,40892,2461843
9,41303,2112549
9,41717,1704088
9,42128,1337287
9,42540,1041169
9,42953,799272
9,43365,613739
9,43777,472551
9,44188,369476
9,44602,291525
9,45013,239517
9,45425,194542
9,45838,168398
9,46250,140871
9,46662,126715
9,47075,107814
9,47487,94949
9,47898,84001
9,48312,80436
9,48723,70011
9,49135,66467
9,49548,61208
9,49960,58314
9,50372,57523
9,50785,55614
9,51197,52744
9,51608,52096
9,52022,48781
9,52433,47566
9,52845,43022
9,53257,40573
9,53670,37672
9,54082,35399
9,54493,34971
9,54907,29920
9,55318,31787
9,55730,28294
9,56143,28229
9,56555,26336
9,56967,26187
9,57380,24975
9,57792,25282
9,58203,22728
9,58617,22756
9,59028,21454
9,59440,21427
9,59853,19833
9,60265,19412
9,60677,19905
9,61090,18885
9,61502,19492
9,61913,19316
9,62325,17067
9,62738,17810
9,63150,18551
9,63562,17644
9,63975,18078
9,64387,17317
9,64798,19057
9,65212,19924
9,65623,20482
9,66035,22679
9,66448,24134
9,66860,23334
9,67272,23533
9,67685,25165
9,68097,24854
9,68508,24189
9,68922,23049
9,69333,23669
9,69745,21564
9,70158,19203
9,70570,19000
9,70982,17889
9,71393,16156
9,71807,16005
9,72218,16454
9,72630,18089
9,73043,17704
9,73455,17055
9,73867,18514
9,74280,20505
9,74692,17814
9,75103,17850
9,75517,18247
9,75928,17848
9,76340,16558
9,76753,15003
9,77165,15369
9,77577,14134
9,77990,14394
9,78402,14418
9,78813,15428
9,79227,14244
9,79638,14078
9,80050,14112
9,80462,12784
9,80875,13097
9,81287,13059
9,81698,12663
9,82112,13776
9,82523,13645
9,82935,14131
9,83348,12520
9,83760,13254
9,84172,13528
9,84585,13714
9,84997,13403
9,85408,14634
9,85822,13084
9,86233,13229
9,86645,15437
9,87058,19176
9,87470,27440
9,87882,50688
9,88295,89799
9,88707,166785
9,89118,298303
9,89530,478804
9,89943,702453
9,90355,931498
9,90767,1154702
9,91180,1287502
9,91592,1347340
9,92003,1298778
9,92417,1192226
9,92828,1016223
9,93240,838251
9,93653,680162
9,94065,529623
9,94477,413665
9,94890,318262
9,95302,254895
9,95713,198849
9,96127,161509
9,96538,133886
9,96950,112840
9,97363,97699
9,97775,82124
9,98187,72419
9,98598,64395
9,99012,57596
9,99423,51515
9,99835,46079
10,00248,41715
10,00660,38345
10,01072,35260
10,01485,35207
10,01897,31767
10,02308,30585
10,02722,30037
10,03133,27062
10,03545,25922
10,03958,24902
10,04370,24325
10,04782,23641
10,05195,25246
10,05607,30856
10,06018,40777
10,06432,70601
10,06843,123631
10,07255,228939
10,07667,395544
10,08080,627609
10,08492,891587
10,08903,1149463
10,09317,1366828
10,09728,1509907
10,10140,1524482
10,10553,1421013
10,10965,1261593
10,11377,1053491
10,11790,839400
10,12202,660136
10,12613,496589
10,13027,379334
10,13438,290905
10,13850,224855
10,14263,181988
10,14675,144585
10,15087,123295
10,15500,104504
10,15912,90304
10,16323,76184
10,16735,65296
10,17148,64157
10,17560,56675
10,17972,50383
10,18385,47541
10,18797,41222
10,19208,38644
10,19622,37019
10,20033,34668
10,20445,34368
10,20858,33336
10,21270,30163
10,21682,28902
10,22095,27886
10,22507,28042
10,22918,27495
10,23332,24576
10,23743,22903
10,24155,24387
10,24568,23893
10,24980,20745
10,25392,21530
10,25803,19620
10,26217,20399
10,26628,19147
10,27040,18720
10,27453,18115
10,27865,18142
10,28277,18195
10,28690,17820
10,29102,17503
10,29513,16041
10,29927,15420
10,30338,16392
10,30750,16128
10,31163,15696
10,31575,14592
10,31987,14297
10,32400,15263
10,32812,15502
10,33223,15005
10,33637,15042
10,34048,14617
10,34460,13578
10,34873,15945
10,35285,14363
10,35697,15649
10,36108,14405
10,36522,13102
10,36933,13095
10,37345,14021
10,37758,13469
10,38170,12413
10,38582,12268
10,38995,13711
10,39407,12387
10,39818,12850
10,40232,11582
10,40643,12575
10,41055,12001
10,41468,12550
10,41880,13788
10,42292,13592
10,42705,13179
10,43117,13022
10,43528,13450
10,43942,13638
10,44353,13004
10,44765,13144
10,45177,12479
10,45590,13232
10,46002,13119
10,46413,13059
10,46827,12985
10,47238,12525
10,47650,13444
10,48063,12029
10,48475,12137
10,48887,13457
10,49300,13200
10,49712,12085
10,50123,13333
10,50537,12675
10,50948,13376
10,51360,11510
10,51773,12665
10,52185,13587
10,52597,12222
10,53010,13832
10,53422,13121
10,53833,13401
10,54245,13278
10,54658,13533
10,55070,13826
10,55482,13388
10,55895,14108
10,56307,14541
10,56718,17694
10,57132,23740
10,57543,42356
10,57955,77385
10,58368,146925
10,58780,264784
10,59192,450490
10,59605,681343
10,60017,952158
10,60428,1186789
10,60842,1379628
10,61253,1455032
10,61665,1408908
10,62078,1288127
10,62490,1116230
10,62902,911435
10,63313,715506
10,63727,559445
10,64138,421452
10,64550,323313
10,64963,252541
10,65375,199322
10,65787,161733
10,66200,129499
10,66612,109297
10,67023,94651
10,67437,82575
10,67848,72167
10,68260,63024
10,68673,56262
10,69085,51264
10,69497,49135
10,69910,45863
10,70322,41674
10,70733,39064
10,71147,35296
10,71558,33017
10,71970,33133
10,72382,31216
10,72795,31802
10,73207,29178
10,73618,27647
10,74032,33801
10,74443,55369
10,74855,104094
10,75268,210771
10,75680,427935
10,76092,794440
10,76505,1361207
10,76917,2081940
10,77328,2949715
10,77742,3812074
10,78153,4539390
10,78565,4976766
10,78978,4951925
10,79390,4575484
10,79802,3926713
10,80215,3181095
10,80627,2443564
10,81038,1843026
10,81450,1374406
10,81863,1026221
10,82275,782199
10,82687,615137
10,83100,487148
10,83512,400879
10,83923,331673
10,84337,277445
10,84748,240172
10,85160,205831
10,85573,180949
10,85985,160763
10,86397,145354
10,86810,130052
10,87222,117041
10,87633,107180
10,88047,98305
10,88458,89056
10,88870,83350
10,89283,75621
10,89695,70851
10,90107,70144
10,90518,63253
10,90932,61000
10,91343,56247
10,91755,52504
10,92168,52753
10,92580,49644
10,92992,47191
10,93405,44639
10,93817,46395
10,94228,42165
10,94642,40604
10,95053,37834
10,95465,36306
10,95878,34476
10,96290,32602
10,96702,33757
10,97115,31882
10,97527,29595
10,97938,30491
10,98352,29656
10,98763,30181
10,99175,28859
10,99587,27713
11,00000,24878
11,00412,25373
11,00823,24004
11,01237,25419
11,01648,24396
11,02060,24353
11,02473,23247
11,02885,24165
11,03297,22720
11,03710,22771
11,04122,21819
11,04533,23252
11,04947,21363
11,05358,23572
11,05770,22488
11,06183,21452
11,06595,21856
11,07007,21343
11,07420,20322
11,07832,19463
11,08243,18928
11,08655,19143
11,09068,18841
11,09480,17288
11,09892,18550
11,10305,18820
11,10717,17073
11,11128,17767
11,11542,17404
11,11953,18219
11,12365,18262
11,12778,18402
11,13190,20111
11,13602,18653
11,14015,20499
11,14427,19426
11,14838,18474
11,15252,18012
11,15663,20353
11,16075,26581
11,16488,42860
11,16900,74906
11,17312,143605
11,17723,256867
11,18137,437157
11,18548,675766
11,18960,962511
11,19373,1216007
11,19785,1420614
11,20197,1525321
11,20610,1497847
11,21022,1354732
11,21433,1169066
11,21847,950700
11,22258,747842
11,22670,572826
11,23083,443226
11,23495,337223
11,23907,268021
11,24320,208626
11,24732,171583
11,25143,139286
11,25557,118135
11,25968,101468
11,26380,90207
11,26792,77240
11,27205,72980
11,27617,70225
11,28028,65013
11,28442,58598
11,28853,57525
11,29265,54680
11,29678,51028
11,30090,48468
11,30502,45332
11,30915,41498
11,31327,38798
11,31738,35513
11,32152,34496
11,32563,33202
11,32975,30912
11,33388,28481
11,33800,30682
11,34212,29542
11,34625,31743
11,35037,33049
11,35448,33866
11,35860,37697
11,36273,35996
11,36685,40364
11,37097,37105
11,37510,37559
11,37922,36482
11,38333,33607
11,38747,30892
11,39158,29143
11,39570,25803
11,39983,25265
11,40395,25583
11,40807,28903
11,41220,40523
11,41632,67507
11,42043,127759
11,42457,244472
11,42868,428499
11,43280,688247
11,43693,995259
11,44105,1309725
11,44517,1592115
11,44928,1739068
11,45342,1740720
11,45753,1611704
11,46165,1388695
11,46578,1135582
11,46990,881367
11,47402,679882
11,47815,517043
11,48227,391019
11,48638,303139
11,49052,240875
11,49463,199540
11,49875,160369
11,50288,137127
11,50700,115851
11,51112,100332
11,51525,88823
11,51937,79838
11,52348,72930
11,52762,66149
11,53173,60813
11,53585,56637
11,53997,51801
11,54410,48416
11,54822,47483
11,55233,42108
11,55647,39209
11,56058,39201
11,56470,38557
11,56883,37050
11,57295,32941
11,57707,33430
11,58120,33530
11,58532,31021
11,58943,29500
11,59357,28616
11,59768,27762
11,60180,27286
11,60593,27500
11,61005,27446
11,61417,26517
11,61830,25442
11,62242,24098
11,62653,25376
11,63065,26294
11,63478,23993
11,63890,25851
11,64302,25597
11,64715,25341
11,65127,25876
11,65538,24406
11,65952,23851
11,66363,24552
11,66775,23801
11,67188,22737
11,67600,22678
11,68012,23051
11,68425,21689
11,68837,21249
11,69248,19533
11,69662,19807
11,70073,18953
11,70485,19449
11,70898,19143
11,71310,18302
11,71722,18572
11,72133,18277
11,72547,17821
11,72958,17666
11,73370,17718
11,73783,16470
11,74195,17571
11,74607,15910
11,75020,16832
11,75432,16799
11,75843,17140
11,76257,16507
11,76668,16095
11,77080,16211
11,77493,15592
11,77905,17532
11,78317,15506
11,78730,17649
11,79142,16633
11,79553,17144
11,79967,16930
11,80378,16097
11,80790,17558
11,81202,19794
11,81615,22969
11,82027,30572
11,82438,58820
11,82852,103126
11,83263,197993
11,83675,356546
11,84088,588021
11,84500,881532
11,84912,1186922
11,85325,1443873
11,85737,1601748
11,86148,1656557
11,86562,1577934
11,86973,1391030
11,87385,1162732
11,87798,917538
11,88210,709148
11,88622,532628
11,89035,416359
11,89447,326845
11,89858,253504
11,90270,209929
11,90683,171455
11,91095,142434
11,91507,122819
11,91920,105326
11,92332,94251
11,92743,83689
11,93157,74164
11,93568,68952
11,93980,63286
11,94393,58414
11,94805,55075
11,95217,52423
11,95630,46007
11,96042,45225
11,96453,40913
11,96867,38910
11,97278,37767
11,97690,36088
11,98103,35205
11,98515,32628
11,98927,31922
11,99340,33828
11,99752,31612
12,00163,28845
12,00575,28318
12,00988,29138
12,01400,28624
12,01812,25994
12,02225,26563
12,02637,24871
12,03048,23074
12,03462,25304
12,03873,23923
12,04285,24448
12,04698,25499
12,05110,29068
12,05522,39207
12,05935,70585
12,06347,133978
12,06758,277837
12,07172,516073
12,07583,890184
12,07995,1422018
12,08408,2076090
12,08820,2792145
12,09232,3439248
12,09643,3783386
12,10057,3879007
12,10468,3647009
12,10880,3150743
12,11293,2565399
12,11705,2003122
12,12117,1538019
12,12530,1165804
12,12942,891283
12,13353,705728
12,13767,561364
12,14178,455753
12,14590,380996
12,15003,325924
12,15415,278363
12,15827,241840
12,16240,211168
12,16652,183077
12,17063,162891
12,17477,146528
12,17888,132746
12,18300,121622
12,18712,110660
12,19125,98434
12,19537,92722
12,19948,85202
12,20362,84036
12,20773,74739
12,21185,72923
12,21598,65362
12,22010,64427
12,22422,60649
12,22835,57324
12,23247,56335
12,23658,55023
12,24072,49271
12,24483,50157
12,24895,48290
12,25308,47304
12,25720,45958
12,26132,43084
12,26545,43390
12,26957,42511
12,27368,39962
12,27780,41930
12,28193,46423
12,28605,55779
12,29017,87875
12,29430,145819
12,29842,261959
12,30253,448037
12,30667,714893
12,31078,1040657
12,31490,1371442
12,31903,1648284
12,32315,1807187
12,32727,1813745
12,33140,1681858
12,33552,1454360
12,33963,1198420
12,34377,957387
12,34788,739373
12,35200,571284
12,35613,440464
12,36025,352528
12,36437,281422
12,36848,232497
12,37262,193569
12,37673,165481
12,38085,147473
12,38498,128554
12,38910,115501
12,39322,103184
12,39735,99799
12,40147,98981
12,40558,117681
12,40972,171083
12,41383,283980
12,41795,498481
12,42208,853859
12,42620,1369172
12,43032,1982511
12,43445,2647332
12,43857,3249707
12,44268,3585071
12,44682,3677208
12,45093,3437652
12,45505,2991912
12,45917,2467227
12,46330,1946980
12,46742,1495567
12,47153,1140797
12,47567,885859
12,47978,688667
12,48390,548763
12,48803,450038
12,49215,371677
12,49627,314521
12,50040,267437
12,50452,235770
12,50863,204232
12,51277,187289
12,51688,168644
12,52100,150057
12,52513,138158
12,52925,123729
12,53337,114393
12,53750,105897
12,54162,100993
12,54573,95050
12,54985,90428
12,55398,83632
12,55810,76368
12,56222,75683
12,56635,71316
12,57047,67266
12,57458,65438
12,57872,63281
12,58283,59875
12,58695,58164
12,59108,54952
12,59520,53542
12,59932,52883
12,60345,50513
12,60757,46616
12,61168,48532
12,61582,44049
12,61993,42877
12,62405,42653
12,62818,41339
12,63230,40935
12,63642,41837
12,64053,40107
12,64467,41208
12,64878,42122
12,65290,54861
12,65703,81055
12,66115,134485
12,66527,240104
12,66940,411784
12,67352,659627
12,67763,988353
12,68177,1336414
12,68588,1684460
12,69000,2004561
12,69413,2274933
12,69825,2567712
12,70237,2974969
12,70650,3455796
12,71062,3925552
12,71473,4304143
12,71887,4473113
12,72298,4266950
12,72710,3786463
12,73122,3185695
12,73535,2517603
12,73947,1937539
12,74358,1479309
12,74772,1139385
12,75183,878682
12,75595,709079
12,76008,570705
12,76420,477314
12,76832,403504
12,77245,349089
12,77657,306962
12,78068,266959
12,78482,240934
12,78893,213900
12,79305,192874
12,79718,180169
12,80130,165340
12,80542,152540
12,80955,138794
12,81367,131936
12,81778,124271
12,82190,116985
12,82603,109339
12,83015,104583
12,83427,100942
12,83840,96333
12,84252,95111
12,84663,89780
12,85077,85923
12,85488,83644
12,85900,81115
12,86313,77102
12,86725,76095
12,87137,74511
12,87550,71078
12,87962,68146
12,88373,65274
12,88787,62944
12,89198,61307
12,89610,60277
12,90023,57710
12,90435,54032
12,90847,54823
12,91258,52186
12,91672,52604
12,92083,56275
12,92495,68017
12,92908,89162
12,93320,140726
12,93732,241344
12,94145,397822
12,94557,629334
12,94968,915848
12,95382,1201630
12,95793,1435901
12,96205,1564909
12,96618,1559299
12,97030,1446801
12,97442,1270906
12,97855,1054589
12,98267,852178
12,98678,661832
12,99092,514988
12,99503,408544
12,99915,331136
13,00327,270904
13,00740,223596
13,01152,189263
13,01563,162837
13,01977,146999
13,02388,129682
13,02800,117255
13,03213,106850
13,03625,98287
13,04037,89904
13,04450,87984
13,04862,81590
13,05273,76106
13,05687,76302
13,06098,69161
13,06510,65552
13,06923,62570
13,07335,59526
13,07747,57311
13,08160,55517
13,08572,55311
13,08983,51721
13,09395,49741
13,09808,47498
13,10220,46438
13,10632,46603
13,11045,43774
13,11457,43579
13,11868,42573
13,12282,42850
13,12693,43079
13,13105,38470
13,13518,40362
13,13930,38399
13,14342,37730
13,14755,36924
13,15167,38343
13,15578,36426
13,15992,35643
13,16403,37189
13,16815,34238
13,17228,35519
13,17640,32208
13,18052,34644
13,18463,33329
13,18877,34492
13,19288,35363
13,19700,34320
13,20113,33677
13,20525,34178
13,20937,34354
13,21350,34020
13,21762,33797
13,22173,33926
13,22587,36031
13,22998,32884
13,23410,31854
13,23823,32615
13,24235,32167
13,24647,32015
13,25060,30928
13,25472,30647
13,25883,28653
13,26297,30549
13,26708,30333
13,27120,32716
13,27532,40539
13,27945,62002
13,28357,111201
13,28768,208026
13,29182,409936
13,29593,761396
13,30005,1295631
13,30418,2064177
13,30830,2996014
13,31242,3978981
13,31655,4837461
13,32067,5427765
13,32478,5546868
13,32892,5252220
13,33303,4625682
13,33715,3899119
13,34128,3154370
13,34540,2504564
13,34952,1965076
13,35365,1534217
13,35777,1205589
13,36188,940154
13,36600,776151
13,37013,644819
13,37425,533135
13,37837,454478
13,38250,399910
13,38662,345111
13,39073,306057
13,39487,272115
13,39898,246787
13,40310,224496
13,40723,208081
13,41135,186314
13,41547,175010
13,41960,163479
13,42372,155201
13,42783,145058
13,43197,132886
13,43608,127082
13,44020,120616
13,44433,113695
13,44845,108094
13,45257,101561
13,45668,97098
13,46082,93660
13,46493,90236
13,46905,87306
13,47318,82506
13,47730,82757
13,48142,74759
13,48555,79604
13,48967,75694
13,49378,71488
13,49792,70054
13,50203,70201
13,50615,68323
13,51028,66159
13,51440,68408
13,51852,75911
13,52265,95137
13,52677,137149
13,53088,210710
13,53502,339830
13,53913,528729
13,54325,762072
13,54737,1020283
13,55150,1223379
13,55562,1359905
13,55973,1397246
13,56387,1337991
13,56798,1179554
13,57210,1002791
13,57623,808038
13,58035,657414
13,58447,523711
13,58860,410628
13,59272,331254
13,59683,278563
13,60097,234670
13,60508,214794
13,60920,219887
13,61333,258123
13,61745,344406
13,62157,518628
13,62570,780732
13,62982,1108574
13,63393,1481817
13,63807,1806734
13,64218,2010794
13,64630,2055793
13,65042,1937690
13,65455,1713596
13,65867,1431705
13,66278,1155597
13,66692,923431
13,67103,729839
13,67515,579155
13,67928,478056
13,68340,399664
13,68752,329180
13,69165,284464
13,69577,249636
13,69988,225280
13,70402,200692
13,70813,180846
13,71225,159933
13,71638,147346
13,72050,139904
13,72462,130217
13,72875,121016
13,73287,115613
13,73698,112433
13,74110,102767
13,74523,99271
13,74935,95256
13,75347,87363
13,75760,89398
13,76172,83677
13,76583,78923
13,76997,76448
13,77408,75081
13,77820,70266
13,78233,69023
13,78645,70267
13,79057,69225
13,79470,66503
13,79882,65542
13,80293,64567
13,80707,61794
13,81118,59898
13,81530,59527
13,81943,60406
13,82355,58989
13,82767,55932
13,83178,57896
13,83592,55973
13,84003,54117
13,84415,57200
13,84828,55878
13,85240,57892
13,85652,76029
13,86065,108039
13,86477,181287
13,86888,316600
13,87302,548174
13,87713,881132
13,88125,1291391
13,88538,1741656
13,88950,2086119
13,89362,2266922
13,89775,2274833
13,90187,2071759
13,90598,1770152
13,91012,1443125
13,91423,1136167
13,91835,898761
13,92247,712987
13,92660,577236
13,93072,469995
13,93483,396475
13,93897,341104
13,94308,293780
13,94720,256066
13,95133,229419
13,95545,208621
13,95957,189368
13,96370,171612
13,96782,160595
13,97193,146818
13,97607,138355
13,98018,132276
13,98430,123156
13,98843,115357
13,99255,109892
13,99667,107503
14,00080,105241
14,00492,100339
14,00903,100076
14,01315,95683
14,01728,89147
14,02140,88363
14,02552,84971
14,02965,83150
14,03377,78587
14,03788,79211
14,04202,75716
14,04613,75164
14,05025,74132
14,05438,71946
14,05850,71932
14,06262,70383
14,06675,68168
14,07087,65454
14,07498,63580
14,07912,62478
14,08323,62107
14,08735,61315
14,09148,63145
14,09560,67093
14,09972,74432
14,10383,99989
14,10797,152186
14,11208,248390
14,11620,414800
14,12033,650194
14,12445,964719
14,12857,1290578
14,13270,1537401
14,13682,1692820
14,14093,1709722
14,14507,1607243
14,14918,1420184
14,15330,1186254
14,15743,960579
14,16155,773609
14,16567,612998
14,16980,496002
14,17392,401453
14,17803,332174
14,18217,283784
14,18628,252316
14,19040,214365
14,19452,195655
14,19865,173526
14,20277,160135
14,20688,149111
14,21102,133274
14,21513,128992
14,21925,121273
14,22338,114182
14,22750,102510
14,23162,103188
14,23575,96997
14,23987,91350
14,24398,91237
14,24812,83043
14,25223,86367
14,25635,81956
14,26048,78042
14,26460,74290
14,26872,73885
14,27285,71913
14,27697,72752
14,28108,68308
14,28520,67901
14,28933,64118
14,29345,64101
14,29757,61545
14,30170,61241
14,30582,60528
14,30993,58834
14,31407,57195
14,31818,56283
14,32230,53069
14,32643,56079
14,33055,55244
14,33467,54058
14,33880,53242
14,34292,53801
14,34703,54363
14,35117,50553
14,35528,50546
14,35940,52209
14,36353,54338
14,36765,53574
14,37177,56060
14,37588,50879
14,38002,50914
14,38413,51891
14,38825,49167
14,39238,51393
14,39650,47137
14,40062,48173
14,40475,48339
14,40887,50110
14,41298,50949
14,41712,56064
14,42123,67349
14,42535,95326
14,42948,149538
14,43360,256917
14,43772,453365
14,44185,773013
14,44597,1243200
14,45008,1853317
14,45422,2601790
14,45833,3345281
14,46245,4059016
14,46657,4560957
14,47070,4736885
14,47482,4626417
14,47893,4288879
14,48307,3852967
14,48718,3480863
14,49130,3178837
14,49543,2935913
14,49955,2684697
14,50367,2419465
14,50780,2127537
14,51192,1822227
14,51603,1521736
14,52017,1279620
14,52428,1049039
14,52840,883975
14,53253,742856
14,53665,635759
14,54077,546241
14,54490,481548
14,54902,427691
14,55313,387532
14,55725,347493
14,56138,321837
14,56550,292502
14,56962,272310
14,57375,254661
14,57787,233630
14,58198,220395
14,58612,211458
14,59023,200655
14,59435,191216
14,59848,176111
14,60260,171126
14,60672,164930
14,61085,156345
14,61497,154341
14,61908,143981
14,62322,137768
14,62733,136495
14,63145,131441
14,63558,126338
14,63970,121960
14,64382,119611
14,64793,115960
14,65207,114801
14,65618,112702
14,66030,108699
14,66443,111546
14,66855,109604
14,67267,110887
14,67680,119121
14,68092,139425
14,68503,177575
14,68917,258452
14,69328,379996
14,69740,562533
14,70153,784979
14,70565,1027779
14,70977,1257734
14,71390,1426302
14,71802,1488256
14,72213,1451090
14,72627,1331124
14,73038,1182344
14,73450,1023493
14,73862,873928
14,74275,790003
14,74687,763684
14,75098,822776
14,75512,968985
14,75923,1203537
14,76335,1511662
14,76748,1885670
14,77160,2300469
14,77572,2649374
14,77985,2960263
14,78397,3109508
14,78808,3089368
14,79222,2941144
14,79633,2647172
14,80045,2315968
14,80458,1957047
14,80870,1629880
14,81282,1345338
14,81695,1098508
14,82107,913359
14,82518,779230
14,82930,673022
14,83343,589338
14,83755,519442
14,84167,457732
14,84580,420502
14,84992,376820
14,85403,352209
14,85817,325144
14,86228,292061
14,86640,275765
14,87053,257630
14,87465,244955
14,87877,226915
14,88290,213756
14,88702,205905
14,89113,190642
14,89527,183421
14,89938,170525
14,90350,164332
14,90763,156265
14,91175,154904
14,91587,144222
14,91998,138348
14,92412,137536
14,92823,130968
14,93235,123858
14,93648,122299
14,94060,118601
14,94472,115287
14,94885,110636
14,95297,110154
14,95708,108042
14,96122,105060
14,96533,104257
14,96945,98721
14,97358,98584
14,97770,94398
14,98182,98117
14,98595,100947
14,99007,111624
14,99418,134392
14,99832,187069
15,00243,261582
15,00655,405380
15,01067,620528
15,01480,912546
15,01892,1261783
15,02303,1613386
15,02717,1918442
15,03128,2099117
15,03540,2128084
15,03953,2023685
15,04365,1807822
15,04777,1560235
15,05190,1319289
15,05602,1080248
15,06013,909751
15,06427,758856
15,06838,652603
15,07250,556272
15,07663,487589
15,08075,432683
15,08487,387913
15,08900,354105
15,09312,323798
15,09723,295359
15,10135,269066
15,10548,249903
15,10960,231839
15,11372,223107
15,11785,207904
15,12197,195350
15,12608,180338
15,13022,178878
15,13433,167367
15,13845,160452
15,14258,160680
15,14670,154219
15,15082,146485
15,15495,148695
15,15907,140265
15,16318,137713
15,16732,134499
15,17143,130071
15,17555,126405
15,17968,122698
15,18380,122929
15,18792,115820
15,19205,111251
15,19617,110948
15,20028,102482
15,20440,101766
15,20853,102430
15,21265,97216
15,21677,94855
15,22090,96554
15,22502,92386
15,22913,92116
15,23327,85792
15,23738,89519
15,24150,87599
15,24563,86820
15,24975,87467
15,25387,91672
15,25800,101941
15,26212,130979
15,26623,174681
15,27037,253513
15,27448,381647
15,27860,562741
15,28273,805644
15,28685,1071312
15,29097,1327890
15,29508,1497464
15,29922,1606881
15,30333,1613201
15,30745,1519992
15,31158,1371470
15,31570,1199748
15,31982,1025201
15,32395,872145
15,32807,729604
15,33218,618939
15,33632,534071
15,34043,453508
15,34455,407701
15,34868,354786
15,35280,322796
15,35692,291986
15,36105,277717
15,36517,273570
15,36928,285758
15,37342,319758
15,37753,380041
15,38165,484935
15,38577,625677
15,38990,775535
15,39402,942120
15,39813,1061067
15,40227,1135429
15,40638,1166792
15,41050,1130030
15,41463,1057178
15,41875,944788
15,42287,834986
15,42700,717614
15,43112,612194
15,43523,525682
15,43937,454095
15,44348,388427
15,44760,343012
15,45173,307000
15,45585,269875
15,45997,244733
15,46410,223676
15,46822,203056
15,47233,190220
15,47645,179114
15,48058,166581
15,48470,156389
15,48882,148206
15,49295,139496
15,49707,135186
15,50118,128240
15,50532,127976
15,50943,119239
15,51355,113664
15,51768,112553
15,52180,109096
15,52592,108257
15,53005,104535
15,53417,97796
15,53828,95101
15,54242,96940
15,54653,97044
15,55065,92273
15,55478,91190
15,55890,90641
15,56302,88679
15,56713,92780
15,57127,94050
15,57538,96321
15,57950,119092
15,58363,147338
15,58775,203742
15,59187,297176
15,59600,457497
15,60012,695904
15,60423,1029509
15,60837,1460685
15,61248,1984207
15,61660,2591534
15,62073,3124856
15,62485,3583276
15,62897,3866347
15,63310,3885437
15,63722,3672077
15,64133,3284862
15,64547,2850666
15,64958,2402866
15,65370,2012649
15,65782,1684467
15,66195,1406649
15,66607,1191704
15,67018,1036419
15,67432,901135
15,67843,795970
15,68255,715869
15,68668,637209
15,69080,580267
15,69492,526206
15,69905,480247
15,70317,440724
15,70728,409527
15,71142,380024
15,71553,360893
15,71965,342832
15,72378,316186
15,72790,295834
15,73202,282676
15,73615,269143
15,74027,257523
15,74438,242054
15,74850,234636
15,75263,223196
15,75675,210028
15,76087,208926
15,76500,193261
15,76912,189560
15,77323,184913
15,77737,178798
15,78148,170590
15,78560,167394
15,78973,160046
15,79385,154471
15,79797,152104
15,80210,149321
15,80622,146110
15,81033,141286
15,81447,139333
15,81858,133897
15,82270,131652
15,82683,126291
15,83095,125788
15,83507,124285
15,83918,119549
15,84332,116763
15,84743,116714
15,85155,114099
15,85568,112448
15,85980,107703
15,86392,105724
15,86805,105405
15,87217,102698
15,87628,102598
15,88042,101142
15,88453,98744
15,88865,100132
15,89278,97101
15,89690,98535
15,90102,96340
15,90515,92882
15,90927,94518
15,91338,95129
15,91752,93576
15,92163,95918
15,92575,99378
15,92987,107373
15,93400,132880
15,93812,163111
15,94223,226709
15,94637,318703
15,95048,457239
15,95460,647355
15,95873,880860
15,96285,1132719
15,96697,1366838
15,97110,1570006
15,97522,1690990
15,97933,1715091
15,98347,1656158
15,98758,1532433
15,99170,1385971
15,99583,1228507
15,99995,1069959
16,00407,934520
16,00820,807019
16,01232,711275
16,01643,614122
16,02055,558799
16,02468,493281
16,02880,443845
16,03292,400288
16,03705,371236
16,04117,333373
16,04528,312116
16,04942,292714
16,05353,272805
16,05765,254154
16,06178,238366
16,06590,226730
16,07002,215524
16,07415,205654
16,07827,195475
16,08238,187623
16,08652,179631
16,09063,175413
16,09475,168724
16,09888,163162
16,10300,158403
16,10712,149850
16,11123,143251
16,11537,141520
16,11948,137847
16,12360,134056
16,12773,133207
16,13185,130414
16,13597,124989
16,14010,124296
16,14422,122414
16,14833,118637
16,15247,112652
16,15658,112931
16,16070,112147
16,16483,111463
16,16895,106591
16,17307,101740
16,17720,101664
16,18132,101326
16,18543,100769
16,18957,98280
16,19368,95653
16,19780,92110
16,20192,94342
16,20605,93038
16,21017,89273
16,21428,91940
16,21842,90620
16,22253,88272
16,22665,91685
16,23078,85300
16,23490,83657
16,23902,86548
16,24315,80949
16,24727,82450
16,25138,84224
16,25552,81779
16,25963,76855
16,26375,79763
16,26788,76718
16,27200,76514
16,27612,75184
16,28025,74406
16,28437,74966
16,28848,75760
16,29260,76740
16,29673,73808
16,30085,78998
16,30497,73527
16,30910,75114
16,31322,71773
16,31733,74446
16,32147,76130
16,32558,74691
16,32970,73917
16,33383,70416
16,33795,72352
16,34207,68772
16,34620,69327
16,35032,67635
16,35443,67229
16,35857,69002
16,36268,67024
16,36680,66130
16,37093,65159
16,37505,63594
16,37917,62565
16,38328,61276
16,38742,64303
16,39153,64061
16,39565,61818
16,39978,61140
16,40390,63541
16,40802,63671
16,41215,63848
16,41627,60680
16,42038,63656
16,42452,61223
16,42863,65805
16,43275,69483
16,43688,72125
16,44100,79793
16,44512,88303
16,44925,98611
16,45337,104284
16,45748,106416
16,46162,117046
16,46573,121296
16,46985,122073
16,47397,122925
16,47810,116399
16,48222,116898
16,48633,107509
16,49047,102939
16,49458,97694
16,49870,90455
16,50283,87559
16,50695,83288
16,51107,78125
16,51520,76019
16,51932,72031
16,52343,73753
16,52757,70130
16,53168,67956
16,53580,67667
16,53993,65456
16,54405,65681
16,54817,63802
16,55230,63150
16,55642,62526
16,56053,65421
16,56465,59559
16,56878,62538
16,57290,57090
16,57702,60488
16,58115,61216
16,58527,56983
16,58938,58718
16,59352,55583
16,59763,55876
16,60175,57585
16,60588,57090
16,61000,56048
16,61412,57859
16,61825,54352
16,62237,55998
16,62648,57996
16,63062,56113
16,63473,57338
16,63885,54636
16,64298,57723
16,64710,54914
16,65122,55380
16,65533,55346
16,65947,57366
16,66358,57151
16,66770,57847
16,67183,54965
16,67595,54720
16,68007,53007
16,68420,54981
16,68832,54246
16,69243,52024
16,69657,49986
16,70068,50049
16,70480,51120
16,70893,51802
16,71305,51367
16,71717,51834
16,72130,51557
16,72542,52777
16,72953,52130
16,73367,49850
16,73778,53840
16,74190,51214
16,74602,54760
16,75015,52625
16,75427,53514
16,75838,53355
16,76252,52461
16,76663,52097
16,77075,52286
16,77488,51654
16,77900,51850
16,78312,52797
16,78725,49639
16,79137,52308
16,79548,51321
16,79962,50691
16,80373,50060
16,80785,50755
16,81198,50149
16,81610,50862
16,82022,49930
16,82435,48809
16,82847,52024
16,83258,50183
16,83672,48680
16,84083,51457
16,84495,46629
16,84907,48080
16,85320,48465
16,85732,52146
16,86143,48275
16,86557,50644
16,86968,51030
16,87380,50207
16,87793,48910
16,88205,48168
16,88617,47898
16,89030,48060
16,89442,48157
16,89853,48155
16,90267,48405
16,90678,48612
16,91090,49441
16,91503,48193
16,91915,52052
16,92327,48884
16,92740,48938
16,93152,48788
16,93563,48251
16,93975,49395
16,94388,48628
16,94800,47163
16,95212,49832
16,95625,49525
16,96037,49277
16,96448,48841
16,96862,50589
16,97273,49361
16,97685,50519
16,98098,50651
16,98510,48639
16,98922,46878
16,99335,52175
16,99747,53764
17,00158,54671
17,00572,60011
17,00983,71037
17,01395,88125
17,01808,118573
17,02220,155142
17,02632,201702
17,03043,273160
17,03457,349649
17,03868,435023
17,04280,529040
17,04693,607777
17,05105,671324
17,05517,713747
17,05930,727986
17,06342,714675
17,06753,683693
17,07167,640609
17,07578,583606
17,07990,535716
17,08403,474752
17,08815,429688
17,09227,385968
17,09640,346420
17,10052,310877
17,10463,279489
17,10877,255282
17,11288,229864
17,11700,211203
17,12112,194515
17,12525,182947
17,12937,169951
17,13348,159341
17,13762,147623
17,14173,143821
17,14585,135236
17,14998,127407
17,15410,120904
17,15822,117451
17,16235,110815
17,16647,107043
17,17058,103186
17,17472,97924
17,17883,98345
17,18295,95822
17,18708,91614
17,19120,88425
17,19532,86569
17,19945,84600
17,20357,81430
17,20768,81974
17,21180,81903
17,21593,78962
17,22005,78761
17,22417,73569
17,22830,71871
17,23242,72791
17,23653,75421
17,24067,69891
17,24478,70696
17,24890,69818
17,25303,70002
17,25715,68498
17,26127,66279
17,26540,66845
17,26952,63322
17,27363,66746
17,27777,66512
17,28188,64559
17,28600,64176
17,29013,60938
17,29425,62263
17,29837,61953
17,30248,61199
17,30662,64581
17,31073,60794
17,31485,60060
17,31898,59305
17,32310,59957
17,32722,59055
17,33135,61592
17,33547,59514
17,33958,54591
17,34372,58347
17,34783,54382
17,35195,53969
17,35608,55751
17,36020,56824
17,36432,56198
17,36845,53907
17,37257,54272
17,37668,54299
17,38082,54917
17,38493,51228
17,38905,54165
17,39317,52988
17,39730,52606
17,40142,53954
17,40553,51611
17,40967,52146
17,41378,51518
17,41790,51021
17,42203,50973
17,42615,52309
17,43027,49755
17,43440,50373
17,43852,50327
17,44263,51388
17,44677,51160
17,45088,50196
17,45500,51442
17,45913,52352
17,46325,50215
17,46737,50941
17,47150,50289
17,47562,48753
17,47973,50014
17,48385,46988
17,48798,50833
17,49210,50206
17,49622,49322
17,50035,50302
17,50447,49062
17,50858,49080
17,51272,47229
17,51683,47783
17,52095,48500
17,52508,48877
17,52920,49536
17,53332,48603
17,53745,47528
17,54157,48424
17,54568,49388
17,54982,46314
17,55393,49425
17,55805,47934
17,56218,48352
17,56630,47807
17,57042,48486
17,57453,47449
17,57867,47770
17,58278,48174
17,58690,47404
17,59103,48284
17,59515,47514
17,59927,48286
17,60340,47982
17,60752,48326
17,61163,47123
17,61577,48604
17,61988,49033
17,62400,44873
17,62813,48986
17,63225,46264
17,63637,48414
17,64050,45271
17,64462,46027
17,64873,46180
17,65287,46902
17,65698,45342
17,66110,48154
17,66522,46343
17,66935,48310
17,67347,48723
17,67758,45637
17,68172,48180
17,68583,47064
17,68995,47075
17,69408,48437
17,69820,48405
17,70232,48735
17,70645,47840
17,71057,49883
17,71468,46775
17,71882,45469
17,72293,47074
17,72705,46043
17,73118,46860
17,73530,47485
17,73942,47826
17,74355,46590
17,74767,46091
17,75178,49664
17,75590,48363
17,76003,46253
17,76415,45109
17,76827,45722
17,77240,48433
17,77652,47226
17,78063,46160
17,78477,45144
17,78888,45541
17,79300,45264
17,79713,44733
17,80125,44076
17,80537,48506
17,80950,46765
17,81362,47395
17,81773,46239
17,82187,45414
17,82598,45599
17,83010,47067
17,83423,45760
17,83835,45479
17,84247,44867
17,84658,44583
17,85072,46490
17,85483,46787
17,85895,44771
17,86308,46053
17,86720,46020
17,87132,45518
17,87545,45653
17,87957,43655
17,88368,45170
17,88782,45977
17,89193,44608
17,89605,44351
17,90018,45927
17,90430,42848
17,90842,44572
17,91255,46414
17,91667,42316
17,92078,45543
17,92492,43497
17,92903,44163
17,93315,45406
17,93727,48788
17,94140,46002
17,94552,43959
17,94963,46637
17,95377,44116
17,95788,45646
17,96200,44513
17,96613,45703
17,97025,42017
17,97437,43882
17,97850,44769
17,98262,42717
17,98673,43893
17,99087,44152
17,99498,44652
17,99910,44404
18,00323,44417
18,00735,44931
18,01147,44183
18,01560,43450
18,01972,42756
18,02383,44416
18,02795,43310
18,03208,44426
18,03620,43071
18,04032,46916
18,04445,48020
18,04857,43810
18,05268,45652
18,05682,46972
18,06093,48368
18,06505,47754
18,06918,44215
18,07330,45949
18,07742,47656
18,08155,45901
18,08567,45524
18,08978,46733
18,09392,44912
18,09803,43316
18,10215,44654
18,10628,44025
18,11040,45319
18,11452,46908
18,11863,47237
18,12277,46973
18,12688,45103
18,13100,45675
18,13513,45340
18,13925,44125
18,14337,41536
18,14750,46010
18,15162,45089
18,15573,44400
18,15987,46331
18,16398,45625
18,16810,45508
18,17223,44350
18,17635,47296
18,18047,43933
18,18460,42976
18,18872,48431
18,19283,44357
18,19697,43829
18,20108,43535
18,20520,45168
18,20932,41960
18,21345,42549
18,21757,44861
18,22168,45211
18,22582,44279
18,22993,42543
18,23405,43521
18,23818,43893
18,24230,41442
18,24642,42663
18,25055,42222
18,25467,44166
18,25878,45068
18,26292,44094
18,26703,45485
18,27115,42626
18,27528,46665
18,27940,44875
18,28352,45183
18,28765,44547
18,29177,44309
18,29588,45052
18,30002,43157
18,30413,42439
18,30825,44486
18,31237,44378
18,31650,43544
18,32062,42982
18,32473,42333
18,32887,43599
18,33298,41166
18,33710,43569
18,34123,42636
18,34535,45023
18,34947,42075
18,35360,41104
18,35772,43104
18,36183,41564
18,36597,41483
18,37008,42470
18,37420,39908
18,37833,40914
18,38245,42119
18,38657,41919
18,39070,44270
18,39482,43772
18,39893,40551
18,40305,40081
18,40718,41094
18,41130,41092
18,41542,42240
18,41955,40581
18,42367,40306
18,42778,41547
18,43192,41672
18,43603,40947
18,44015,44095
18,44428,41211
18,44840,40747
18,45252,40933
18,45665,43472
18,46077,43971
18,46488,44180
18,46902,46030
18,47313,41273
18,47725,43573
18,48138,42731
18,48550,42167
18,48962,43838
18,49373,44519
18,49787,44018
18,50198,43678
18,50610,43863
18,51023,43935
18,51435,44344
18,51847,42924
18,52260,41316
18,52672,45901
18,53083,43778
18,53497,44275
18,53908,42175
18,54320,40410
18,54733,44799
18,55145,43341
18,55557,45038
18,55970,43406
18,56382,40080
18,56793,46849
18,57207,44717
18,57618,41765
18,58030,39309
18,58442,42628
18,58855,41591
18,59267,41246
18,59678,43603
18,60092,42508
18,60503,40548
18,60915,41173
18,61328,42604
18,61740,42717
18,62152,40398
18,62565,43920
18,62977,39184
18,63388,41075
18,63802,42910
18,64213,42113
18,64625,41717
18,65038,42420
18,65450,38239
18,65862,41471
18,66275,39311
18,66687,42392
18,67098,40228
18,67510,44043
18,67923,40983
18,68335,41044
18,68747,41053
18,69160,42262
18,69572,40312
18,69983,43404
18,70397,41857
18,70808,42372
18,71220,42017
18,71633,40771
18,72045,42274
18,72457,38620
18,72870,41047
18,73282,39232
18,73693,40047
18,74107,40560
18,74518,40867
18,74930,41671
18,75343,41456
18,75755,41036
18,76167,40061
18,76578,40502
18,76992,40216
18,77403,38420
18,77815,42572
18,78228,39637
18,78640,39233
18,79052,39964
18,79465,38662
18,79877,40354
18,80288,40362
18,80702,39697
18,81113,42070
18,81525,41566
18,81938,40079
18,82350,39347
18,82762,38745
18,83175,40483
18,83587,38189
18,83998,38830
18,84412,40486
18,84823,39582
18,85235,40839
18,85647,40503
18,86060,38890
18,86472,40660
18,86883,39633
18,87297,41131
18,87708,39400
18,88120,39896
18,88533,38105
18,88945,37996
18,89357,41075
18,89770,40537
18,90182,41441
18,90593,40849
18,91007,42737
18,91418,41571
18,91830,38185
18,92243,41353
18,92655,39606
18,93067,40721
18,93480,39142
18,93892,39696
18,94303,44580
18,94715,39193
18,95128,41514
18,95540,41027
18,95952,40359
18,96365,42163
18,96777,40681
18,97188,43005
18,97602,40323
18,98013,39551
18,98425,39870
18,98838,38730
18,99250,40087
18,99662,39116
19,00075,38163
19,00487,41130
19,00898,39203
19,01312,38826
19,01723,37869
19,02135,40909
19,02548,38036
19,02960,38920
19,03372,38590
19,03783,39367
19,04197,37619
19,04608,40898
19,05020,37004
19,05433,38084
19,05845,39929
19,06257,40660
19,06670,39953
19,07082,38747
19,07493,40693
19,07907,41000
19,08318,40619
19,08730,39579
19,09143,43188
19,09555,40943
19,09967,41366
19,10380,43080
19,10792,40494
19,11203,44108
19,11617,41836
19,12028,44456
19,12440,40900
19,12852,41821
19,13265,42790
19,13677,43816
19,14088,43482
19,14502,42313
19,14913,40632
19,15325,43642
19,15738,40326
19,16150,44020
19,16562,40641
19,16975,38868
19,17387,38035
19,17798,44058
19,18212,42409
19,18623,39506
19,19035,40921
19,19448,40485
19,19860,42027
19,20272,41519
19,20685,41344
19,21097,38804
19,21508,39400
19,21920,41577
19,22333,40573
19,22745,40462
19,23157,42412
19,23570,40960
19,23982,40104
19,24393,41489
19,24807,40267
19,25218,40539
19,25630,41678
19,26043,41506
19,26455,38800
19,26867,38703
19,27280,40633
19,27692,40067
19,28103,42991
19,28517,40904
19,28928,40282
19,29340,40214
19,29753,39588
19,30165,40918
19,30577,42782
19,30988,39860
19,31402,38245
19,31813,39397
19,32225,42829
19,32638,40059
19,33050,40127
19,33462,39923
19,33875,40024
19,34287,40745
19,34698,40512
19,35112,39778
19,35523,41717
19,35935,38350
19,36348,42076
19,36760,38068
19,37172,41273
19,37585,40364
19,37997,41113
19,38408,38795
19,38822,39895
19,39233,39467
19,39645,36099
19,40057,40127
19,40470,36227
19,40882,37708
19,41293,39286
19,41707,41321
19,42118,41302
19,42530,40966
19,42943,41244
19,43355,42608
19,43767,40739
19,44180,41225
19,44592,41041
19,45003,41684
19,45417,42566
19,45828,44161
19,46240,42536
19,46653,42439
19,47065,44901
19,47477,41607
19,47890,45367
19,48302,42609
19,48713,46025
19,49125,43595
19,49538,43295
19,49950,42514
19,50362,44220
19,50775,42104
19,51187,42881
19,51598,40277
19,52012,45206
19,52423,43306
19,52835,40750
19,53248,41525
19,53660,42211
19,54072,39095
19,54485,40833
19,54897,41680
19,55308,41299
19,55722,39222
19,56133,38928
19,56545,39301
19,56958,38134
19,57370,37341
19,57782,39591
19,58193,36758
19,58607,37694
19,59018,40022
19,59430,36120
19,59843,38536
19,60255,38866
19,60667,40176
