D:\MassHunter\GCMS\1\data\Amal\Constant flow\100C\100C_1ml-min_6C-min_3.D Wed Sep 18 17:11:19 2024
Start of data points
5,64085	208519
5,64497	189833
5,64910	188118
5,65322	186531
5,65733	172876
5,66147	169037
5,66558	162013
5,66970	157782
5,67383	156385
5,67795	154883
5,68207	148169
5,68620	142827
5,69032	134843
5,69443	134048
5,69855	130730
5,70268	130976
5,70680	126205
5,71092	121757
5,71505	122532
5,71917	120985
5,72328	116237
5,72742	114156
5,73153	112733
5,73565	110992
5,73978	108123
5,74390	106974
5,74802	102438
5,75215	102881
5,75627	98001
5,76038	102608
5,76452	99597
5,76863	98260
5,77275	95124
5,77688	94487
5,78100	90800
5,78512	93001
5,78923	91565
5,79337	92551
5,79748	90190
5,80160	90071
5,80573	86913
5,80985	85801
5,81397	88256
5,81810	87757
5,82222	86670
5,82633	85063
5,83047	84843
5,83458	84617
5,83870	84555
5,84283	83364
5,84695	80984
5,85107	83485
5,85520	82744
5,85932	81025
5,86343	81991
5,86757	80435
5,87168	81027
5,87580	79829
5,87992	80348
5,88405	78441
5,88817	77502
5,89228	77296
5,89642	79367
5,90053	77457
5,90465	74668
5,90878	76028
5,91290	77086
5,91702	76447
5,92115	76203
5,92527	75425
5,92938	75614
5,93352	74387
5,93763	75556
5,94175	75324
5,94588	72545
5,95000	74323
5,95412	75685
5,95825	72753
5,96237	69076
5,96648	71296
5,97060	71879
5,97473	69096
5,97885	72133
5,98297	68512
5,98710	71892
5,99122	70609
5,99533	67657
5,99947	68945
6,00358	67090
6,00770	68593
6,01183	67909
6,01595	65859
6,02007	70182
6,02420	69469
6,02832	66721
6,03243	66243
6,03657	69930
6,04068	68440
6,04480	67748
6,04893	68569
6,05305	67035
6,05717	68092
6,06130	66502
6,06542	66483
6,06953	66807
6,07365	66603
6,07778	64974
6,08190	63868
6,08602	65579
6,09015	65973
6,09427	64757
6,09838	66715
6,10252	63581
6,10663	63756
6,11075	62880
6,11488	63887
6,11900	63813
6,12312	63699
6,12725	62957
6,13137	62719
6,13548	63479
6,13962	62624
6,14373	62760
6,14785	60002
6,15198	61842
6,15610	60565
6,16022	60806
6,16433	60296
6,16847	60428
6,17258	60901
6,17670	61944
6,18083	60966
6,18495	60672
6,18907	62151
6,19320	61179
6,19732	60996
6,20143	61955
6,20557	58723
6,20968	60433
6,21380	58996
6,21793	58396
6,22205	58094
6,22617	60102
6,23030	58782
6,23442	58873
6,23853	58360
6,24267	58125
6,24678	58979
6,25090	58979
6,25502	59203
6,25915	57406
6,26327	58728
6,26738	57834
6,27152	55508
6,27563	54793
6,27975	57798
6,28388	57069
6,28800	58088
6,29212	60188
6,29625	57295
6,30037	58866
6,30448	60023
6,30862	61800
6,31273	60830
6,31685	61163
6,32098	62650
6,32510	64098
6,32922	61992
6,33335	62130
6,33747	61640
6,34158	62502
6,34570	59344
6,34983	58056
6,35395	61265
6,35807	59308
6,36220	62426
6,36632	60760
6,37043	61817
6,37457	63785
6,37868	64930
6,38280	67224
6,38693	67102
6,39105	65006
6,39517	64682
6,39930	67587
6,40342	65973
6,40753	65322
6,41167	66320
6,41578	65063
6,41990	64521
6,42403	65503
6,42815	63801
6,43227	64003
6,43638	65622
6,44052	64303
6,44463	65240
6,44875	60706
6,45288	62046
6,45700	63078
6,46112	57120
6,46525	60011
6,46937	57738
6,47348	59884
6,47762	60084
6,48173	58020
6,48585	55558
6,48998	57408
6,49410	55344
6,49822	56244
6,50235	56235
6,50647	54863
6,51058	53927
6,51472	55136
6,51883	54653
6,52295	54635
6,52707	53082
6,53120	53136
6,53532	50089
6,53943	51365
6,54357	49751
6,54768	50340
6,55180	51765
6,55593	48943
6,56005	48205
6,56417	48175
6,56830	51245
6,57242	49027
6,57653	48741
6,58067	47985
6,58478	47365
6,58890	48566
6,59303	46762
6,59715	46547
6,60127	45106
6,60540	47639
6,60952	45128
6,61363	45465
6,61775	42853
6,62188	44878
6,62600	42931
6,63012	45675
6,63425	44903
6,63837	43019
6,64248	44199
6,64662	43054
6,65073	41744
6,65485	44641
6,65898	42061
6,66310	44206
6,66722	42610
6,67135	41430
6,67547	42351
6,67958	42533
6,68372	41563
6,68783	44642
6,69195	43954
6,69608	50977
6,70020	61141
6,70432	83067
6,70843	116771
6,71257	174857
6,71668	255846
6,72080	367467
6,72493	502061
6,72905	635863
6,73317	785905
6,73730	928489
6,74142	1038054
6,74553	1117032
6,74967	1162206
6,75378	1170420
6,75790	1162737
6,76203	1136425
6,76615	1101538
6,77027	1058174
6,77440	1006123
6,77852	957980
6,78263	894281
6,78677	842373
6,79088	797093
6,79500	757469
6,79912	698143
6,80325	661629
6,80737	625782
6,81148	584326
6,81562	542753
6,81973	507959
6,82385	479137
6,82798	446139
6,83210	414255
6,83622	383013
6,84035	353053
6,84447	327811
6,84858	296723
6,85272	276276
6,85683	250514
6,86095	226737
6,86508	212836
6,86920	192048
6,87332	177344
6,87745	163823
6,88157	148147
6,88568	136360
6,88980	128798
6,89393	120286
6,89805	113644
6,90217	100979
6,90630	97065
6,91042	90342
6,91453	85606
6,91867	82257
6,92278	76326
6,92690	71730
6,93103	67615
6,93515	67504
6,93927	64125
6,94340	62703
6,94752	60950
6,95163	58477
6,95577	55808
6,95988	55869
6,96400	51395
6,96813	51683
6,97225	50806
6,97637	50021
6,98048	48463
6,98462	48963
6,98873	45863
6,99285	45005
6,99698	43442
7,00110	42813
7,00522	42254
7,00935	44831
7,01347	41418
7,01758	42919
7,02172	41350
7,02583	40645
7,02995	40892
7,03408	40928
7,03820	39560
7,04232	39552
7,04645	38372
7,05057	40957
7,05468	39858
7,05882	39568
7,06293	38472
7,06705	37060
7,07117	37244
7,07530	36357
7,07942	36998
7,08353	37197
7,08767	37140
7,09178	34431
7,09590	36057
7,10003	36074
7,10415	36288
7,10827	35677
7,11240	36033
7,11652	35022
7,12063	34983
7,12477	33456
7,12888	35348
7,13300	34033
7,13713	32708
7,14125	34007
7,14537	34836
7,14950	35035
7,15362	33623
7,15773	32816
7,16185	34453
7,16598	31829
7,17010	32566
7,17422	32767
7,17835	32041
7,18247	32702
7,18658	33726
7,19072	31945
7,19483	32674
7,19895	31985
7,20308	32448
7,20720	31979
7,21132	33284
7,21545	31434
7,21957	31606
7,22368	29647
7,22782	31911
7,23193	30038
7,23605	32402
7,24018	30079
7,24430	29488
7,24842	31065
7,25253	32302
7,25667	30160
7,26078	30267
7,26490	31101
7,26903	31008
7,27315	31687
7,27727	31201
7,28140	29576
7,28552	28408
7,28963	29699
7,29377	28489
7,29788	30754
7,30200	31590
7,30613	30711
7,31025	29799
7,31437	29581
7,31850	30248
7,32262	29100
7,32673	29713
7,33087	29162
7,33498	29324
7,33910	28565
7,34322	29826
7,34735	29194
7,35147	30378
7,35558	30109
7,35972	30397
7,36383	28128
7,36795	29581
7,37208	31049
7,37620	30811
7,38032	30683
7,38445	31132
7,38857	30716
7,39268	30740
7,39682	31494
7,40093	31078
7,40505	29833
7,40918	30858
7,41330	31387
7,41742	30256
7,42155	31757
7,42567	30080
7,42978	30668
7,43390	30013
7,43803	29863
7,44215	27952
7,44627	29214
7,45040	29440
7,45452	28489
7,45863	29405
7,46277	28029
7,46688	29653
7,47100	28320
7,47513	29898
7,47925	27842
7,48337	27554
7,48750	28345
7,49162	28010
7,49573	27175
7,49987	27662
7,50398	25704
7,50810	27395
7,51223	26381
7,51635	27001
7,52047	26343
7,52458	25884
7,52872	27953
7,53283	26700
7,53695	26244
7,54108	26505
7,54520	29733
7,54932	26065
7,55345	26195
7,55757	25481
7,56168	26171
7,56582	26001
7,56993	25818
7,57405	25987
7,57818	24823
7,58230	24803
7,58642	25243
7,59055	26275
7,59467	24546
7,59878	26353
7,60292	24537
7,60703	25699
7,61115	26887
7,61527	25623
7,61940	26684
7,62352	27192
7,62763	27903
7,63177	27115
7,63588	26469
7,64000	25679
7,64413	27593
7,64825	27709
7,65237	28683
7,65650	26992
7,66062	27407
7,66473	25968
7,66887	27619
7,67298	26076
7,67710	26385
7,68123	26920
7,68535	25160
7,68947	26571
7,69360	25683
7,69772	27036
7,70183	25584
7,70597	26657
7,71008	25519
7,71420	25698
7,71832	26034
7,72245	25871
7,72657	26603
7,73068	25233
7,73482	25304
7,73893	24696
7,74305	25552
7,74718	25284
7,75130	23706
7,75542	24328
7,75955	23815
7,76367	24144
7,76778	24736
7,77192	25281
7,77603	24998
7,78015	24882
7,78428	26501
7,78840	26037
7,79252	25847
7,79665	25327
7,80077	24100
7,80488	25468
7,80900	26598
7,81313	25031
7,81725	25433
7,82137	28423
7,82550	27517
7,82962	27391
7,83373	27373
7,83787	29011
7,84198	28076
7,84610	26941
7,85023	29043
7,85435	28054
7,85847	24937
7,86260	26903
7,86672	26648
7,87083	25656
7,87497	26673
7,87908	24920
7,88320	26435
7,88733	26732
7,89145	25453
7,89557	24927
7,89968	24359
7,90382	23322
7,90793	23814
7,91205	24147
7,91618	23957
7,92030	23690
7,92442	23303
7,92855	22512
7,93267	24217
7,93678	22877
7,94092	24140
7,94503	22408
7,94915	23136
7,95328	23293
7,95740	23184
7,96152	22521
7,96565	22262
7,96977	24182
7,97388	23006
7,97802	22636
7,98213	21576
7,98625	22855
7,99037	21674
7,99450	21977
7,99862	21229
8,00273	22204
8,00687	21555
8,01098	20774
8,01510	21355
8,01923	20930
8,02335	20168
8,02747	22032
8,03160	19673
8,03572	20840
8,03983	22199
8,04397	21735
8,04808	20725
8,05220	20776
8,05633	21374
8,06045	21873
8,06457	21174
8,06870	19692
8,07282	20953
8,07693	19985
8,08105	21923
8,08518	20448
8,08930	22162
8,09342	20038
8,09755	21517
8,10167	21682
8,10578	21458
8,10992	19916
8,11403	20455
8,11815	20196
8,12228	20603
8,12640	20074
8,13052	21204
8,13465	20768
8,13877	20145
8,14288	20108
8,14702	20616
8,15113	20101
8,15525	20009
8,15938	21080
8,16350	20339
8,16762	19359
8,17173	21179
8,17587	18711
8,17998	19661
8,18410	20397
8,18823	19523
8,19235	20254
8,19647	21510
8,20060	20343
8,20472	21605
8,20883	21375
8,21297	19529
8,21708	20108
8,22120	19652
8,22533	19633
8,22945	19230
8,23357	19916
8,23770	20586
8,24182	19761
8,24593	20552
8,25007	19068
8,25418	19321
8,25830	17860
8,26242	20058
8,26655	19185
8,27067	18625
8,27478	19051
8,27892	20061
8,28303	18939
8,28715	19045
8,29128	19613
8,29540	18662
8,29952	18895
8,30365	18782
8,30777	18971
8,31188	19553
8,31602	18456
8,32013	18793
8,32425	18337
8,32838	19936
8,33250	19569
8,33662	19328
8,34075	19451
8,34487	18862
8,34898	19377
8,35310	19453
8,35723	20017
8,36135	19797
8,36547	19128
8,36960	21400
8,37372	19925
8,37783	18981
8,38197	20908
8,38608	20678
8,39020	20790
8,39433	19137
8,39845	20707
8,40257	19684
8,40670	21292
8,41082	19640
8,41493	21035
8,41907	21225
8,42318	20089
8,42730	20920
8,43143	20123
8,43555	21247
8,43967	18517
8,44378	20467
8,44792	20671
8,45203	19716
8,45615	21672
8,46028	19389
8,46440	18785
8,46852	19127
8,47265	18334
8,47677	18632
8,48088	17822
8,48502	18472
8,48913	17929
8,49325	18223
8,49738	18204
8,50150	18654
8,50562	17788
8,50975	17696
8,51387	16547
8,51798	18583
8,52212	17415
8,52623	17860
8,53035	18179
8,53447	18240
8,53860	18096
8,54272	18713
8,54683	16629
8,55097	17449
8,55508	17435
8,55920	18604
8,56333	18263
8,56745	17388
8,57157	18487
8,57570	18124
8,57982	16515
8,58393	18104
8,58807	18104
8,59218	18620
8,59630	17142
8,60043	15934
8,60455	17561
8,60867	18603
8,61280	19668
8,61692	20674
8,62103	23890
8,62515	30496
8,62928	44998
8,63340	68611
8,63752	107165
8,64165	165121
8,64577	259682
8,64988	378491
8,65402	532634
8,65813	704855
8,66225	897576
8,66638	1099401
8,67050	1282186
8,67462	1464802
8,67875	1582480
8,68287	1665649
8,68698	1698560
8,69112	1694449
8,69523	1646429
8,69935	1580952
8,70348	1508643
8,70760	1399604
8,71172	1312255
8,71583	1200558
8,71997	1092172
8,72408	982220
8,72820	884493
8,73233	794166
8,73645	706167
8,74057	623229
8,74470	547751
8,74882	489998
8,75293	424404
8,75707	374833
8,76118	324290
8,76530	289353
8,76943	257595
8,77355	222817
8,77767	203374
8,78180	180146
8,78592	161418
8,79003	144852
8,79417	132997
8,79828	120381
8,80240	112334
8,80652	102488
8,81065	92493
8,81477	87443
8,81888	80559
8,82302	76311
8,82713	69888
8,83125	66969
8,83538	60756
8,83950	58626
8,84362	57131
8,84775	53901
8,85187	51199
8,85598	49430
8,86012	45963
8,86423	46806
8,86835	45775
8,87248	42241
8,87660	43440
8,88072	41919
8,88485	38537
8,88897	35696
8,89308	35233
8,89720	33929
8,90133	34425
8,90545	31683
8,90957	33689
8,91370	30976
8,91782	30642
8,92193	30673
8,92607	28574
8,93018	29022
8,93430	27579
8,93843	27693
8,94255	28212
8,94667	26659
8,95080	25628
8,95492	25483
8,95903	25669
8,96317	25801
8,96728	25861
8,97140	22955
8,97553	25256
8,97965	21976
8,98377	23757
8,98788	22961
8,99202	22297
8,99613	22328
9,00025	22493
9,00438	22811
9,00850	21846
9,01262	20394
9,01675	23748
9,02087	22168
9,02498	22599
9,02912	23601
9,03323	20944
9,03735	20103
9,04148	21695
9,04560	20737
9,04972	20719
9,05385	20956
9,05797	21096
9,06208	21937
9,06622	20511
9,07033	20189
9,07445	21011
9,07857	20429
9,08270	20574
9,08682	20628
9,09093	20969
9,09507	20129
9,09918	20086
9,10330	18545
9,10743	20486
9,11155	20045
9,11567	18843
9,11980	18715
9,12392	19488
9,12803	18193
9,13217	19021
9,13628	18379
9,14040	18965
9,14453	18524
9,14865	18878
9,15277	16995
9,15690	18260
9,16102	20538
9,16513	19041
9,16925	18192
9,17338	18567
9,17750	19160
9,18162	18063
9,18575	19216
9,18987	18635
9,19398	17723
9,19812	17730
9,20223	16938
9,20635	17187
9,21048	18173
9,21460	17372
9,21872	18864
9,22285	16580
9,22697	17792
9,23108	18657
9,23522	17030
9,23933	17243
9,24345	16363
9,24758	16320
9,25170	16940
9,25582	17437
9,25995	16005
9,26407	15790
9,26818	15886
9,27230	16449
9,27643	16774
9,28055	15596
9,28467	16331
9,28880	16461
9,29292	15345
9,29703	16417
9,30117	15571
9,30528	16274
9,30940	15981
9,31353	16128
9,31765	14556
9,32177	16355
9,32590	16271
9,33002	15256
9,33413	16046
9,33827	16077
9,34238	16149
9,34650	14950
9,35063	16067
9,35475	15570
9,35887	16585
9,36298	15051
9,36712	15967
9,37123	14444
9,37535	16477
9,37948	15718
9,38360	16463
9,38772	15015
9,39185	15563
9,39597	15083
9,40008	14477
9,40422	15784
9,40833	15189
9,41245	14885
9,41658	14614
9,42070	16310
9,42482	15761
9,42895	15299
9,43307	15050
9,43718	15236
9,44132	14611
9,44543	14060
9,44955	13682
9,45367	13541
9,45780	14817
9,46192	13670
9,46603	15276
9,47017	14788
9,47428	15212
9,47840	14057
9,48253	14685
9,48665	14443
9,49077	14254
9,49490	14516
9,49902	15343
9,50313	14508
9,50727	14480
9,51138	15296
9,51550	15139
9,51963	15222
9,52375	16327
9,52787	16512
9,53200	16142
9,53612	15996
9,54023	16566
9,54435	16080
9,54848	16999
9,55260	15786
9,55672	16790
9,56085	15084
9,56497	15306
9,56908	15311
9,57322	16108
9,57733	16319
9,58145	16151
9,58558	14924
9,58970	16420
9,59382	16933
9,59795	14617
9,60207	14779
9,60618	15569
9,61032	14340
9,61443	14502
9,61855	14623
9,62268	13976
9,62680	14300
9,63092	13501
9,63503	14456
9,63917	13227
9,64328	14203
9,64740	14237
9,65153	13057
9,65565	12884
9,65977	13648
9,66390	12995
9,66802	12844
9,67213	12468
9,67627	13242
9,68038	12957
9,68450	12893
9,68863	12209
9,69275	12153
9,69687	12924
9,70100	13406
9,70512	13123
9,70923	11675
9,71337	12535
9,71748	11961
9,72160	12127
9,72572	12950
9,72985	12232
9,73397	13322
9,73808	13909
9,74222	13597
9,74633	12885
9,75045	12427
9,75458	13907
9,75870	13804
9,76282	12881
9,76695	13863
9,77107	18645
9,77518	20054
9,77932	28619
9,78343	42120
9,78755	65583
9,79168	102252
9,79580	151035
9,79992	217826
9,80405	302125
9,80817	409044
9,81228	527343
9,81640	644766
9,82053	752675
9,82465	849060
9,82877	936504
9,83290	986134
9,83702	1001292
9,84113	987318
9,84527	959109
9,84938	902580
9,85350	844392
9,85763	766242
9,86175	687151
9,86587	622194
9,87000	549135
9,87412	475115
9,87823	412824
9,88237	367227
9,88648	308330
9,89060	275821
9,89473	236981
9,89885	204168
9,90297	177264
9,90708	162636
9,91122	141101
9,91533	127339
9,91945	109332
9,92358	103332
9,92770	93171
9,93182	83782
9,93595	76585
9,94007	75200
9,94418	66735
9,94832	62448
9,95243	57453
9,95655	55559
9,96068	51147
9,96480	50902
9,96892	46052
9,97305	44169
9,97717	42465
9,98128	39784
9,98542	38299
9,98953	35863
9,99365	35822
9,99777	33380
10,00190	33612
10,00602	32287
10,01013	29490
10,01427	28319
10,01838	28283
10,02250	27857
10,02663	26396
10,03075	24009
10,03487	24296
10,03900	23741
10,04312	24088
10,04723	22254
10,05137	23716
10,05548	22224
10,05960	22750
10,06373	21719
10,06785	21733
10,07197	21526
10,07610	20243
10,08022	21306
10,08433	20720
10,08845	18854
10,09258	19263
10,09670	18414
10,10082	18303
10,10495	18501
10,10907	18357
10,11318	17749
10,11732	17091
10,12143	16749
10,12555	17327
10,12968	16787
10,13380	15982
10,13792	16696
10,14205	15793
10,14617	15500
10,15028	15326
10,15442	15456
10,15853	13634
10,16265	15879
10,16678	16587
10,17090	16412
10,17502	13312
10,17913	15328
10,18327	14127
10,18738	14920
10,19150	14575
10,19563	14989
10,19975	14131
10,20387	14582
10,20800	14040
10,21212	14179
10,21623	14936
10,22037	13279
10,22448	14488
10,22860	14007
10,23273	13384
10,23685	12941
10,24097	13829
10,24510	12044
10,24922	13503
10,25333	14939
10,25747	15287
10,26158	14314
10,26570	14086
10,26982	15884
10,27395	14987
10,27807	17289
10,28218	16016
10,28632	18106
10,29043	16758
10,29455	17761
10,29868	17053
10,30280	17155
10,30692	16627
10,31105	16236
10,31517	16875
10,31928	16143
10,32342	15108
10,32753	14723
10,33165	14282
10,33578	13484
10,33990	12765
10,34402	12877
10,34815	12739
10,35227	13137
10,35638	12569
10,36050	13347
10,36463	12323
10,36875	12382
10,37287	12050
10,37700	11793
10,38112	11728
10,38523	12397
10,38937	12181
10,39348	12683
10,39760	12422
10,40173	12001
10,40585	11760
10,40997	11932
10,41410	12381
10,41822	10831
10,42233	12494
10,42647	12428
10,43058	10621
10,43470	11531
10,43883	11267
10,44295	11067
10,44707	12039
10,45118	11409
10,45532	10973
10,45943	11876
10,46355	11762
10,46768	11170
10,47180	10882
10,47592	11426
10,48005	10979
10,48417	12088
10,48828	10038
10,49242	11193
10,49653	12743
10,50065	10835
10,50478	10839
10,50890	11127
10,51302	9899
10,51715	11215
10,52127	11259
10,52538	10651
10,52952	10410
10,53363	11628
10,53775	10847
10,54187	11761
10,54600	11571
10,55012	12409
10,55423	11071
10,55837	11738
10,56248	12251
10,56660	11601
10,57073	11678
10,57485	11730
10,57897	11264
10,58310	12553
10,58722	11055
10,59133	11054
10,59547	11383
10,59958	10444
10,60370	11471
10,60783	10822
10,61195	11459
10,61607	10192
10,62020	10894
10,62432	10129
10,62843	10140
10,63255	10558
10,63668	9941
10,64080	11975
10,64492	10764
10,64905	9569
10,65317	11563
10,65728	9879
10,66142	10433
10,66553	10766
10,66965	9510
10,67378	9561
10,67790	10187
10,68202	11256
10,68615	11327
10,69027	10449
10,69438	11016
10,69852	9483
10,70263	11127
10,70675	10647
10,71088	9272
10,71500	9767
10,71912	11553
10,72323	10085
10,72737	10680
10,73148	11405
10,73560	10722
10,73973	11251
10,74385	12606
10,74797	10994
10,75210	11231
10,75622	10922
10,76033	11000
10,76447	11376
10,76858	11448
10,77270	10963
10,77683	11629
10,78095	11707
10,78507	11893
10,78920	11347
10,79332	10978
10,79743	10637
10,80157	11339
10,80568	10321
10,80980	10254
10,81392	10030
10,81805	11195
10,82217	10292
10,82628	10231
10,83042	10515
10,83453	11176
10,83865	10844
10,84278	11582
10,84690	12121
10,85102	11756
10,85515	11573
10,85927	11167
10,86338	11190
10,86752	11165
10,87163	11178
10,87575	11322
10,87988	10546
10,88400	11306
10,88812	11096
10,89225	11036
10,89637	10527
10,90048	11186
10,90460	12253
10,90873	10700
10,91285	11873
10,91697	10581
10,92110	10445
10,92522	9643
10,92933	11231
10,93347	10287
10,93758	10000
10,94170	9809
10,94583	9309
10,94995	9968
10,95407	11246
10,95820	9504
10,96232	9585
10,96643	9458
10,97057	10445
10,97468	11428
10,97880	12182
10,98293	17213
10,98705	23719
10,99117	37737
10,99530	67437
10,99942	114484
11,00353	183029
11,00765	290791
11,01178	442222
11,01590	637788
11,02002	881617
11,02415	1141772
11,02827	1437879
11,03238	1715019
11,03652	1952924
11,04063	2137054
11,04475	2276071
11,04888	2306386
11,05300	2287448
11,05712	2194886
11,06125	2037066
11,06537	1866599
11,06948	1662455
11,07362	1443558
11,07773	1251656
11,08185	1073840
11,08598	914256
11,09010	780634
11,09422	655929
11,09833	555716
11,10247	480282
11,10658	410640
11,11070	352221
11,11483	308258
11,11895	267858
11,12307	233538
11,12720	211386
11,13132	187966
11,13543	169885
11,13957	149723
11,14368	134751
11,14780	125269
11,15193	112550
11,15605	104907
11,16017	100163
11,16430	91049
11,16842	82665
11,17253	78263
11,17667	70935
11,18078	69429
11,18490	63345
11,18902	61226
11,19315	58415
11,19727	54216
11,20138	50070
11,20552	49259
11,20963	48130
11,21375	45953
11,21788	43582
11,22200	41971
11,22612	41008
11,23025	39077
11,23437	37559
11,23848	35917
11,24262	34659
11,24673	33302
11,25085	33044
11,25498	33273
11,25910	29479
11,26322	29595
11,26735	27261
11,27147	27779
11,27558	27406
11,27970	26315
11,28383	23626
11,28795	25352
11,29207	25335
11,29620	23017
11,30032	23410
11,30443	22579
11,30857	22533
11,31268	23213
11,31680	22236
11,32093	21760
11,32505	19715
11,32917	19746
11,33330	20892
11,33742	18578
11,34153	19344
11,34567	18437
11,34978	18933
11,35390	19469
11,35803	16676
11,36215	16888
11,36627	17285
11,37038	18177
11,37452	17532
11,37863	15902
11,38275	15028
11,38688	17146
11,39100	16676
11,39512	15030
11,39925	15688
11,40337	15775
11,40748	14925
11,41162	15785
11,41573	15548
11,41985	15060
11,42398	15962
11,42810	15103
11,43222	13582
11,43635	13301
11,44047	12675
11,44458	13184
11,44872	14552
11,45283	12856
11,45695	12525
11,46107	13422
11,46520	13785
11,46932	12559
11,47343	12374
11,47757	12605
11,48168	13423
11,48580	12149
11,48993	12521
11,49405	13885
11,49817	12711
11,50230	13568
11,50642	11805
11,51053	11403
11,51467	12016
11,51878	11606
11,52290	12364
11,52703	10841
11,53115	12580
11,53527	12319
11,53940	11564
11,54352	12051
11,54763	12368
11,55175	11760
11,55588	11902
11,56000	11209
11,56412	10757
11,56825	10833
11,57237	11116
11,57648	11322
11,58062	10376
11,58473	10829
11,58885	12083
11,59298	9948
11,59710	12269
11,60122	11893
11,60535	12055
11,60947	10623
11,61358	11858
11,61772	12658
11,62183	11793
11,62595	12321
11,63008	12438
11,63420	12158
11,63832	11758
11,64243	12805
11,64657	14050
11,65068	12950
11,65480	12643
11,65893	13843
11,66305	14792
11,66717	16359
11,67130	16494
11,67542	17494
11,67953	18947
11,68367	19773
11,68778	20146
11,69190	21433
11,69603	20869
11,70015	22604
11,70427	23652
11,70840	23577
11,71252	22704
11,71663	22485
11,72077	21123
11,72488	19536
11,72900	19276
11,73312	17159
11,73725	18951
11,74137	15866
11,74548	15692
11,74962	15461
11,75373	14100
11,75785	14116
11,76198	13204
11,76610	13208
11,77022	12600
11,77435	12553
11,77847	11908
11,78258	11172
11,78672	11499
11,79083	9238
11,79495	10411
11,79908	10501
11,80320	10987
11,80732	11335
11,81145	10708
11,81557	9655
11,81968	9749
11,82380	10255
11,82793	10413
11,83205	9851
11,83617	10337
11,84030	9156
11,84442	10153
11,84853	8756
11,85267	8274
11,85678	9157
11,86090	9225
11,86503	8688
11,86915	8935
11,87327	9837
11,87740	8712
11,88152	8814
11,88563	9884
11,88977	8803
11,89388	9462
11,89800	8741
11,90213	9580
11,90625	9721
11,91037	8751
11,91448	8920
11,91862	9258
11,92273	9611
11,92685	7796
11,93098	8599
11,93510	8387
11,93922	9589
11,94335	8410
11,94747	8170
11,95158	8503
11,95572	8920
11,95983	8791
11,96395	9481
11,96808	9737
11,97220	9037
11,97632	9253
11,98045	8075
11,98457	8333
11,98868	9287
11,99282	8563
11,99693	8812
12,00105	8702
12,00517	8467
12,00930	8285
12,01342	9464
12,01753	8138
12,02167	8377
12,02578	7933
12,02990	7863
12,03403	8293
12,03815	8725
12,04227	8465
12,04640	8829
12,05052	9392
12,05463	8684
12,05877	8248
12,06288	8975
12,06700	8595
12,07113	9849
12,07525	8921
12,07937	9033
12,08350	7859
12,08762	9354
12,09173	8550
12,09585	8945
12,09998	7874
12,10410	9426
12,10822	9001
12,11235	9235
12,11647	8001
12,12058	8525
12,12472	7984
12,12883	8566
12,13295	8976
12,13708	8174
12,14120	8976
12,14532	9042
12,14945	9189
12,15357	9098
12,15768	9155
12,16182	8367
12,16593	8946
12,17005	9590
12,17418	8921
12,17830	8548
12,18242	10418
12,18653	8856
12,19067	9533
12,19478	9195
12,19890	8136
12,20303	8833
12,20715	9179
12,21127	9935
12,21540	10309
12,21952	12287
12,22363	17083
12,22777	29059
12,23188	41868
12,23600	69643
12,24013	112659
12,24425	178854
12,24837	275158
12,25250	392918
12,25662	537097
12,26073	699787
12,26487	853919
12,26898	1016141
12,27310	1151330
12,27722	1246413
12,28135	1275904
12,28547	1277397
12,28958	1205410
12,29372	1135905
12,29783	1027928
12,30195	920451
12,30608	794952
12,31020	683362
12,31432	584943
12,31845	487636
12,32257	416454
12,32668	356675
12,33082	298235
12,33493	252624
12,33905	217497
12,34318	187843
12,34730	164653
12,35142	142666
12,35555	127739
12,35967	112303
12,36378	100273
12,36790	91618
12,37203	83514
12,37615	75816
12,38027	67254
12,38440	63286
12,38852	59609
12,39263	52833
12,39677	51963
12,40088	47467
12,40500	44912
12,40913	42011
12,41325	40330
12,41737	38088
12,42150	36217
12,42562	32855
12,42973	31133
12,43387	29623
12,43798	29109
12,44210	27191
12,44623	26243
12,45035	25866
12,45447	24599
12,45858	23283
12,46272	23573
12,46683	22753
12,47095	21075
12,47508	21650
12,47920	19853
12,48332	19279
12,48745	19066
12,49157	17782
12,49568	17236
12,49982	16709
12,50393	16376
12,50805	15526
12,51218	15480
12,51630	16571
12,52042	15142
12,52455	15482
12,52867	14565
12,53278	14017
12,53692	16021
12,54103	14449
12,54515	13940
12,54927	13441
12,55340	12298
12,55752	13320
12,56163	12732
12,56577	13155
12,56988	12837
12,57400	12627
12,57813	12840
12,58225	12141
12,58637	11657
12,59050	11408
12,59462	11376
12,59873	12313
12,60287	11541
12,60698	12546
12,61110	12053
12,61523	12351
12,61935	10856
12,62347	12044
12,62760	11320
12,63172	11380
12,63583	11018
12,63997	10872
12,64408	11117
12,64820	9573
12,65232	10163
12,65645	10961
12,66057	10352
12,66468	9938
12,66882	9753
12,67293	9384
12,67705	9131
12,68118	9726
12,68530	9440
12,68942	9993
12,69355	8639
12,69767	9727
12,70178	9473
12,70592	8998
12,71003	9264
12,71415	8062
12,71828	8740
12,72240	8491
12,72652	8931
12,73065	8588
12,73477	9130
12,73888	8797
12,74300	8431
12,74713	7886
12,75125	8787
12,75537	8559
12,75950	8219
12,76362	8937
12,76773	8923
12,77187	8245
12,77598	7761
12,78010	8198
12,78423	8502
12,78835	6870
12,79247	8151
12,79660	8910
12,80072	8563
12,80483	9378
12,80897	8631
12,81308	8765
12,81720	8961
12,82133	8736
12,82545	7649
12,82957	8477
12,83368	8331
12,83782	7686
12,84193	7840
12,84605	7664
12,85018	8416
12,85430	8409
12,85842	7435
12,86255	7467
12,86667	8922
12,87078	9682
12,87492	10340
12,87903	10340
12,88315	11586
12,88728	10332
12,89140	12209
12,89552	12670
12,89965	13275
12,90377	12700
12,90788	13208
12,91202	12893
12,91613	11951
12,92025	11321
12,92437	9754
12,92850	11526
12,93262	10629
12,93673	10702
12,94087	10212
12,94498	10231
12,94910	10954
12,95323	10748
12,95735	11563
12,96147	12606
12,96560	13867
12,96972	11934
12,97383	12978
12,97797	14455
12,98208	13930
12,98620	14739
12,99033	14480
12,99445	14516
12,99857	13952
13,00270	12483
13,00682	11114
13,01093	11030
13,01505	11361
13,01918	10663
13,02330	9739
13,02742	10487
13,03155	9266
13,03567	9673
13,03978	8005
13,04392	8692
13,04803	9369
13,05215	8621
13,05628	8311
13,06040	7931
13,06452	8453
13,06865	8065
13,07277	7820
13,07688	7862
13,08102	7130
13,08513	7695
13,08925	7858
13,09338	7254
13,09750	7386
13,10162	7394
13,10573	7350
13,10987	7948
13,11398	7266
13,11810	7344
13,12223	7146
13,12635	7254
13,13047	8169
13,13460	7602
13,13872	7061
13,14283	6790
13,14697	8430
13,15108	7254
13,15520	7067
13,15933	7129
13,16345	7673
13,16757	7855
13,17170	6973
13,17582	7025
13,17993	7362
13,18407	6937
13,18818	6953
13,19230	7910
13,19642	8052
13,20055	7732
13,20467	7144
13,20878	7690
13,21292	8551
13,21703	7633
13,22115	7694
13,22528	8764
13,22940	8366
13,23352	8037
13,23765	8527
13,24177	7919
13,24588	7127
13,25002	7243
13,25413	8049
13,25825	6878
13,26238	7084
13,26650	7663
13,27062	6586
13,27475	7332
13,27887	8141
13,28298	7181
13,28710	7347
13,29123	6711
13,29535	6723
13,29947	6800
13,30360	6969
13,30772	6466
13,31183	7231
13,31597	7157
13,32008	6588
13,32420	8038
13,32833	7071
13,33245	6494
13,33657	7194
13,34070	7159
13,34482	6430
13,34893	6135
13,35307	6599
13,35718	6464
13,36130	6133
13,36543	6214
13,36955	6943
13,37367	7026
13,37778	7663
13,38192	9541
13,38603	8969
13,39015	9386
13,39428	9665
13,39840	11643
13,40252	12359
13,40665	13678
13,41077	15296
13,41488	15489
13,41902	16207
13,42313	16618
13,42725	15497
13,43138	14993
13,43550	14818
13,43962	15447
13,44375	15998
13,44787	17896
13,45198	23888
13,45612	32655
13,46023	55254
13,46435	93418
13,46847	154068
13,47260	251032
13,47672	406510
13,48083	615136
13,48497	871561
13,48908	1189212
13,49320	1535797
13,49733	1917623
13,50145	2242149
13,50557	2526642
13,50970	2747423
13,51382	2839851
13,51793	2826633
13,52207	2678976
13,52618	2485995
13,53030	2211234
13,53443	1946184
13,53855	1665511
13,54267	1404383
13,54680	1181145
13,55092	984285
13,55503	813866
13,55915	704008
13,56328	589343
13,56740	503335
13,57152	424466
13,57565	366975
13,57977	319286
13,58388	283826
13,58802	253638
13,59213	223104
13,59625	198858
13,60038	180954
13,60450	170054
13,60862	151849
13,61275	141851
13,61687	129933
13,62098	121603
13,62512	110383
13,62923	103095
13,63335	93491
13,63748	89773
13,64160	84993
13,64572	76786
13,64983	71676
13,65397	69200
13,65808	62566
13,66220	61020
13,66633	57309
13,67045	51765
13,67457	53714
13,67870	48531
13,68282	45812
13,68693	46141
13,69107	42501
13,69518	41385
13,69930	38803
13,70343	36233
13,70755	33865
13,71167	33864
13,71580	32327
13,71992	32850
13,72403	30710
13,72817	28029
13,73228	27913
13,73640	27166
13,74052	24624
13,74465	23862
13,74877	23353
13,75288	23300
13,75702	23761
13,76113	21882
13,76525	20712
13,76938	21418
13,77350	23105
13,77762	18953
13,78175	20289
13,78587	19531
13,78998	19469
13,79412	19092
13,79823	18730
13,80235	16671
13,80648	17487
13,81060	16882
13,81472	17117
13,81885	15973
13,82297	15040
13,82708	14568
13,83120	13646
13,83533	15403
13,83945	14850
13,84357	15302
13,84770	14423
13,85182	13441
13,85593	14675
13,86007	13786
13,86418	14525
13,86830	13226
13,87243	14592
13,87655	15098
13,88067	13929
13,88480	13524
13,88892	14271
13,89303	13664
13,89717	12880
13,90128	13153
13,90540	12426
13,90953	12811
13,91365	13574
13,91777	11269
13,92188	12041
13,92602	9825
13,93013	11494
13,93425	10534
13,93838	11231
13,94250	9292
13,94662	8919
13,95075	10505
13,95487	9483
13,95898	9502
13,96312	9730
13,96723	10509
13,97135	9681
13,97548	9143
13,97960	9492
13,98372	10616
13,98785	9798
13,99197	9778
13,99608	8062
14,00022	8904
14,00433	8334
14,00845	9889
14,01257	8608
14,01670	8585
14,02082	8850
14,02493	8526
14,02907	8573
14,03318	9013
14,03730	9366
14,04143	9092
14,04555	8120
14,04967	8674
14,05380	8601
14,05792	8481
14,06203	9280
14,06617	9750
14,07028	8848
14,07440	9396
14,07853	8281
14,08265	9800
14,08677	9662
14,09090	9810
14,09502	10582
14,09913	10254
14,10325	11738
14,10738	12227
14,11150	11540
14,11562	12191
14,11975	10916
14,12387	10868
14,12798	11835
14,13212	11034
14,13623	11831
14,14035	10179
14,14448	9599
14,14860	9250
14,15272	9996
14,15685	9079
14,16097	7924
14,16508	8604
14,16922	8720
14,17333	9471
14,17745	8559
14,18158	7583
14,18570	8461
14,18982	8353
14,19395	7883
14,19807	8073
14,20218	7103
14,20630	7276
14,21043	7721
14,21455	6830
14,21867	7569
14,22280	6830
14,22692	7136
14,23103	8094
14,23517	7246
14,23928	7762
14,24340	6653
14,24753	7534
14,25165	7965
14,25577	7242
14,25990	6415
14,26402	7013
14,26813	7767
14,27227	7914
14,27638	8328
14,28050	7803
14,28463	8057
14,28875	7505
14,29287	9519
14,29698	10444
14,30112	14684
14,30523	21657
14,30935	36847
14,31348	62202
14,31760	100426
14,32172	156771
14,32585	246959
14,32997	359429
14,33408	503661
14,33822	672397
14,34233	828418
14,34645	1001898
14,35058	1143613
14,35470	1246715
14,35882	1291071
14,36295	1290819
14,36707	1254294
14,37118	1160161
14,37532	1050861
14,37943	931226
14,38355	817521
14,38767	697712
14,39180	593655
14,39592	504290
14,40003	425746
14,40417	358412
14,40828	308425
14,41240	261538
14,41653	223627
14,42065	194051
14,42477	171177
14,42890	148566
14,43302	133480
14,43713	119406
14,44127	106726
14,44538	96983
14,44950	90128
14,45363	78872
14,45775	73573
14,46187	66137
14,46600	62736
14,47012	56348
14,47423	55206
14,47835	50917
14,48248	46142
14,48660	45241
14,49072	41296
14,49485	38762
14,49897	38023
14,50308	37441
14,50722	38122
14,51133	35021
14,51545	36310
14,51958	35080
14,52370	34212
14,52782	36363
14,53195	37909
14,53607	36619
14,54018	35664
14,54432	33329
14,54843	34347
14,55255	30326
14,55668	29439
14,56080	27731
14,56492	25132
14,56903	24078
14,57317	22603
14,57728	21100
14,58140	20405
14,58553	19460
14,58965	17192
14,59377	16161
14,59790	14973
14,60202	16985
14,60613	15320
14,61027	15004
14,61438	14709
14,61850	14706
14,62263	14123
14,62675	12946
14,63087	12646
14,63500	13279
14,63912	11774
14,64323	11519
14,64737	12055
14,65148	12497
14,65560	14632
14,65972	17898
14,66385	26300
14,66797	37942
14,67208	65193
14,67622	104468
14,68033	169096
14,68445	258698
14,68858	391797
14,69270	551334
14,69682	740544
14,70095	931576
14,70507	1121846
14,70918	1279168
14,71332	1422316
14,71743	1498109
14,72155	1510016
14,72568	1458443
14,72980	1353531
14,73392	1217857
14,73805	1082355
14,74217	933066
14,74628	792566
14,75040	671644
14,75453	561432
14,75865	466377
14,76277	392743
14,76690	329408
14,77102	284495
14,77513	239607
14,77927	208902
14,78338	175467
14,78750	155795
14,79163	138678
14,79575	124890
14,79987	112677
14,80400	100999
14,80812	91703
14,81223	82607
14,81637	75686
14,82048	70397
14,82460	67253
14,82873	61729
14,83285	55803
14,83697	54528
14,84108	49615
14,84522	44519
14,84933	41827
14,85345	40150
14,85758	39190
14,86170	36949
14,86582	34102
14,86995	33018
14,87407	32378
14,87818	31754
14,88232	30683
14,88643	28684
14,89055	25394
14,89468	26245
14,89880	24917
14,90292	23763
14,90705	21565
14,91117	21922
14,91528	19852
14,91942	20204
14,92353	19092
14,92765	18821
14,93177	18001
14,93590	17777
14,94002	15240
14,94413	16497
14,94827	17048
14,95238	16531
14,95650	15827
14,96063	15057
14,96475	14922
14,96887	13477
14,97300	13994
14,97712	12875
14,98123	13440
14,98537	13721
14,98948	13747
14,99360	13561
14,99773	12114
15,00185	12673
15,00597	13264
15,01010	11974
15,01422	12068
15,01833	11196
15,02245	11288
15,02658	10062
15,03070	11091
15,03482	12339
15,03895	10363
15,04307	10905
15,04718	11830
15,05132	10962
15,05543	10600
15,05955	11198
15,06368	10526
15,06780	10526
15,07192	10309
15,07605	10090
15,08017	9993
15,08428	10926
15,08842	9977
15,09253	11401
15,09665	11751
15,10078	12657
15,10490	10426
15,10902	11650
15,11313	10554
15,11727	12040
15,12138	10550
15,12550	11000
15,12963	10131
15,13375	10201
15,13787	9783
15,14200	9187
15,14612	9914
15,15023	9542
15,15437	8875
15,15848	8629
15,16260	9333
15,16673	8674
15,17085	8151
15,17497	7769
15,17910	9036
15,18322	8671
15,18733	7933
15,19147	8655
15,19558	7624
15,19970	7771
15,20382	7809
15,20795	8616
15,21207	7675
15,21618	8044
15,22032	7601
15,22443	8924
15,22855	8386
15,23268	7584
15,23680	8147
15,24092	7484
15,24505	8623
15,24917	8786
15,25328	8214
15,25742	9402
15,26153	9267
15,26565	7888
15,26978	7962
15,27390	8691
15,27802	9086
15,28215	7782
15,28627	8478
15,29038	8425
15,29450	7501
15,29863	7905
15,30275	8341
15,30687	7541
15,31100	8260
15,31512	7061
15,31923	7157
15,32337	7531
15,32748	7524
15,33160	7605
15,33573	8049
15,33985	6577
15,34397	7443
15,34810	7227
15,35222	6812
15,35633	5674
15,36047	7004
15,36458	5820
15,36870	6588
15,37283	6760
15,37695	6610
15,38107	8074
15,38518	7552
15,38932	7367
15,39343	6958
15,39755	6276
15,40168	6816
15,40580	7702
15,40992	6047
15,41405	7799
15,41817	6706
15,42228	7352
15,42642	7144
15,43053	6728
15,43465	5363
15,43878	7768
15,44290	7156
15,44702	7100
15,45115	6460
15,45527	7662
15,45938	7118
15,46352	7469
15,46763	6826
15,47175	6823
15,47587	7201
15,48000	7969
15,48412	6509
15,48823	6876
15,49237	10142
15,49648	11282
15,50060	18371
15,50473	30537
15,50885	52897
15,51297	86300
15,51710	141689
15,52122	221557
15,52533	328456
15,52947	468910
15,53358	637216
15,53770	819381
15,54183	996926
15,54595	1172297
15,55007	1296127
15,55420	1375364
15,55832	1405888
15,56243	1358749
15,56655	1288806
15,57068	1173050
15,57480	1040223
15,57892	909788
15,58305	790069
15,58717	660669
15,59128	561224
15,59542	473368
15,59953	394807
15,60365	334806
15,60778	285863
15,61190	246778
15,61602	214832
15,62015	179582
15,62427	164604
15,62838	142702
15,63252	127293
15,63663	112806
15,64075	103176
15,64488	94079
15,64900	83819
15,65312	77191
15,65723	68348
15,66137	64225
15,66548	62226
15,66960	55849
15,67373	51152
15,67785	49294
15,68197	46314
15,68610	43488
15,69022	40484
15,69433	37310
15,69847	36390
15,70258	33289
15,70670	33675
15,71083	28396
15,71495	28875
15,71907	27923
15,72320	25286
15,72732	24534
15,73143	24415
15,73557	23488
15,73968	22012
15,74380	21787
15,74792	19052
15,75205	20190
15,75617	19960
15,76028	18778
15,76442	18494
15,76853	17439
15,77265	16243
15,77678	17124
15,78090	16718
15,78502	15930
15,78915	13395
15,79327	14661
15,79738	14705
15,80152	12913
15,80563	14239
15,80975	13735
15,81388	13086
15,81800	13323
15,82212	13465
15,82625	15451
15,83037	18928
15,83448	28655
15,83862	46315
15,84273	80017
15,84685	135596
15,85097	225467
15,85510	369141
15,85922	580558
15,86333	883960
15,86747	1260743
15,87158	1753737
15,87570	2304519
15,87983	2889305
15,88395	3490363
15,88807	4049046
15,89220	4488011
15,89632	4785839
15,90043	4869506
15,90457	4754246
15,90868	4445455
15,91280	4007269
15,91693	3492527
15,92105	2994549
15,92517	2507322
15,92930	2089953
15,93342	1721250
15,93753	1415309
15,94165	1188059
15,94578	995765
15,94990	845606
15,95402	719808
15,95815	617859
15,96227	542777
15,96638	470949
15,97052	414337
15,97463	377784
15,97875	332370
15,98288	300683
15,98700	271033
15,99112	249205
15,99525	226396
15,99937	208199
16,00348	191666
16,00762	175844
16,01173	161408
16,01585	151817
16,01998	141872
16,02410	131361
16,02822	122936
16,03233	118020
16,03647	106489
16,04058	102701
16,04470	97221
16,04883	90693
16,05295	84119
16,05707	80633
16,06120	76470
16,06532	72227
16,06943	67606
16,07357	64949
16,07768	61329
16,08180	59630
16,08593	56851
16,09005	53036
16,09417	51894
16,09830	49415
16,10242	48339
16,10653	46357
16,11067	43079
16,11478	42710
16,11890	38586
16,12302	39402
16,12715	36275
16,13127	37333
16,13538	34891
16,13952	32259
16,14363	34751
16,14775	31606
16,15188	28992
16,15600	28341
16,16012	28399
16,16425	27808
16,16837	27479
16,17248	24439
16,17662	26006
16,18073	25442
16,18485	24878
16,18898	24851
16,19310	23130
16,19722	22615
16,20135	21462
16,20547	21570
16,20958	21087
16,21370	20682
16,21783	19197
16,22195	18346
16,22607	19604
16,23020	17925
16,23432	18296
16,23843	17556
16,24257	17641
16,24668	16939
16,25080	16650
16,25493	16842
16,25905	15636
16,26317	15444
16,26730	14992
16,27142	15967
16,27553	13876
16,27967	16368
16,28378	13826
16,28790	14642
16,29203	14497
16,29615	13772
16,30027	14614
16,30438	15129
16,30852	14897
16,31263	12918
16,31675	14632
16,32088	13306
16,32500	13182
16,32912	15256
16,33325	14523
16,33737	14684
16,34148	15128
16,34562	13374
16,34973	13744
16,35385	13277
16,35798	12102
16,36210	12231
16,36622	13201
16,37035	10932
16,37447	12076
16,37858	12004
16,38272	10228
16,38683	12007
16,39095	11980
16,39507	12004
16,39920	11111
16,40332	11440
16,40743	12081
16,41157	10593
16,41568	10003
16,41980	10784
16,42393	10021
16,42805	10435
16,43217	12883
16,43630	12835
16,44042	12889
16,44453	12281
16,44867	12723
16,45278	13489
16,45690	12342
16,46103	13480
16,46515	13358
16,46927	11961
16,47340	12691
16,47752	11794
16,48163	13798
16,48575	13696
16,48988	14203
16,49400	16139
16,49812	17028
16,50225	22194
16,50637	29834
16,51048	44408
16,51462	64975
16,51873	101379
16,52285	157937
16,52698	240057
16,53110	350416
16,53522	495027
16,53935	670948
16,54347	861323
16,54758	1062460
16,55172	1232126
16,55583	1356999
16,55995	1424532
16,56408	1463081
16,56820	1433166
16,57232	1358036
16,57643	1233797
16,58057	1094772
16,58468	950674
16,58880	825517
16,59293	691951
16,59705	588971
16,60117	499698
16,60530	410868
16,60942	349453
16,61353	300699
16,61767	255947
16,62178	220915
16,62590	191875
16,63003	170842
16,63415	149413
16,63827	135094
16,64240	120628
16,64652	108027
16,65063	101502
16,65477	91011
16,65888	85386
16,66300	79502
16,66712	70972
16,67125	66719
16,67537	68226
16,67948	62002
16,68362	58088
16,68773	54799
16,69185	53592
16,69598	52604
16,70010	50423
16,70422	50322
16,70835	48548
16,71247	47586
16,71658	44833
16,72072	42690
16,72483	40184
16,72895	40326
16,73308	37450
16,73720	35700
16,74132	33459
16,74545	31742
16,74957	31465
16,75368	29629
16,75780	26335
16,76193	25437
16,76605	26238
16,77017	24100
16,77430	23443
16,77842	21229
16,78253	22441
16,78667	20080
16,79078	20714
16,79490	18743
16,79903	18519
16,80315	17757
16,80727	17417
16,81140	16987
16,81552	16228
16,81963	15833
16,82377	15158
16,82788	14697
16,83200	15715
16,83613	14957
16,84025	13642
16,84437	13318
16,84848	12828
16,85262	13158
16,85673	14359
16,86085	13948
16,86498	14073
16,86910	12324
16,87322	13079
16,87735	12318
16,88147	11440
16,88558	12152
16,88972	11548
16,89383	11092
16,89795	11821
16,90208	9707
16,90620	11050
16,91032	12057
16,91445	11883
16,91857	11298
16,92268	10105
16,92682	11873
16,93093	9708
16,93505	10460
16,93917	10123
16,94330	10113
16,94742	9755
16,95153	10197
16,95567	11465
16,95978	11878
16,96390	12275
16,96803	17969
16,97215	26701
16,97627	44015
16,98040	72955
16,98452	126330
16,98863	204163
16,99277	315543
16,99688	460733
17,00100	637191
17,00513	849651
17,00925	1059627
17,01337	1292925
17,01750	1454662
17,02162	1594843
17,02573	1655042
17,02985	1647762
17,03398	1587704
17,03810	1466652
17,04222	1307864
17,04635	1140427
17,05047	969126
17,05458	823327
17,05872	699618
17,06283	581620
17,06695	487252
17,07108	406179
17,07520	346845
17,07932	298277
17,08345	259452
17,08757	220625
17,09168	195045
17,09582	173041
17,09993	153752
17,10405	135758
17,10818	121616
17,11230	110078
17,11642	99366
17,12053	89509
17,12467	86623
17,12878	79576
17,13290	71372
17,13703	67304
17,14115	63920
17,14527	59853
17,14940	56183
17,15352	51696
17,15763	48206
17,16177	48219
17,16588	44645
17,17000	41902
17,17413	42721
17,17825	37233
17,18237	36235
17,18650	35439
17,19062	35234
17,19473	33678
17,19887	30573
17,20298	27222
17,20710	29275
17,21122	27639
17,21535	26922
17,21947	26212
17,22358	25154
17,22772	24407
17,23183	24497
17,23595	22944
17,24008	21176
17,24420	19710
17,24832	20065
17,25245	19776
17,25657	19731
17,26068	18909
17,26482	18054
17,26893	16099
17,27305	17509
17,27718	16153
17,28130	15509
17,28542	15299
17,28955	15366
17,29367	14240
17,29778	15114
17,30190	14077
17,30603	13632
17,31015	14191
17,31427	12615
17,31840	14061
17,32252	13564
17,32663	12673
17,33077	12513
17,33488	12730
17,33900	12427
17,34313	12264
17,34725	12783
17,35137	11523
17,35550	11143
17,35962	10338
17,36373	11117
17,36787	10905
17,37198	10746
17,37610	10399
17,38023	11096
17,38435	11999
17,38847	10191
17,39258	9422
17,39672	10626
17,40083	10997
17,40495	11658
17,40908	10647
17,41320	11661
17,41732	9353
17,42145	9771
17,42557	8474
17,42968	10029
17,43382	9232
17,43793	9253
17,44205	10019
17,44618	9356
17,45030	9579
17,45442	8326
17,45855	9693
17,46267	9985
17,46678	10606
17,47092	9419
17,47503	10382
17,47915	9194
17,48327	9645
17,48740	9435
17,49152	9058
17,49563	10339
17,49977	10186
17,50388	9281
17,50800	9080
17,51213	7666
17,51625	8037
17,52037	8235
17,52450	7943
17,52862	8394
17,53273	7834
17,53687	8086
17,54098	9127
17,54510	8505
17,54923	7079
17,55335	7678
17,55747	8263
17,56160	8147
17,56572	7917
17,56983	6978
17,57397	8469
17,57808	7678
17,58220	7074
17,58632	7714
17,59045	7536
17,59457	7705
17,59868	7768
17,60282	8585
17,60693	9046
17,61105	9377
17,61518	10679
17,61930	13819
17,62342	16753
17,62755	27570
17,63167	45731
17,63578	80724
17,63992	130313
17,64403	212750
17,64815	326500
17,65228	472588
17,65640	652668
17,66052	861067
17,66465	1081490
17,66877	1286550
17,67288	1432523
17,67700	1537837
17,68113	1571119
17,68525	1560566
17,68937	1463657
17,69350	1349346
17,69762	1207349
17,70173	1053926
17,70587	895470
17,70998	764525
17,71410	642185
17,71823	534394
17,72235	453304
17,72647	386957
17,73060	333657
17,73472	283051
17,73883	243121
17,74297	213980
17,74708	187693
17,75120	166366
17,75533	146102
17,75945	130928
17,76357	120262
17,76768	109290
17,77182	99495
17,77593	90568
17,78005	80852
17,78418	75537
17,78830	72100
17,79242	68283
17,79655	62693
17,80067	57991
17,80478	56311
17,80892	55175
17,81303	50189
17,81715	51582
17,82128	52382
17,82540	51351
17,82952	54322
17,83365	56310
17,83777	57741
17,84188	59927
17,84602	58794
17,85013	58912
17,85425	60507
17,85837	57221
17,86250	53935
17,86662	51377
17,87073	47592
17,87487	46229
17,87898	44178
17,88310	39548
17,88723	36335
17,89135	34757
17,89547	30859
17,89960	29914
17,90372	28880
17,90783	28589
17,91197	26582
17,91608	24462
17,92020	22331
17,92433	21568
17,92845	20655
17,93257	20685
17,93670	19751
17,94082	19532
17,94493	18542
17,94905	17473
17,95318	18238
17,95730	15102
17,96142	17122
17,96555	16170
17,96967	15318
17,97378	15496
17,97792	14675
17,98203	14834
17,98615	14170
17,99028	13931
17,99440	14161
17,99852	13616
18,00265	12461
18,00677	13038
18,01088	13242
18,01502	11961
18,01913	13387
18,02325	11045
18,02738	12036
18,03150	11734
18,03562	12064
18,03973	12700
18,04387	10868
18,04798	11744
18,05210	12033
18,05623	13139
18,06035	16552
18,06447	25361
18,06860	41246
18,07272	67993
18,07683	117342
18,08097	199181
18,08508	313183
18,08920	485497
18,09333	721648
18,09745	1018691
18,10157	1376716
18,10570	1777938
18,10982	2241897
18,11393	2649927
18,11807	3091473
18,12218	3383724
18,12630	3595416
18,13042	3634530
18,13455	3515787
18,13867	3258287
18,14278	2894102
18,14692	2527089
18,15103	2144983
18,15515	1808864
18,15928	1511651
18,16340	1262112
18,16752	1042880
18,17165	889867
18,17577	740513
18,17988	633793
18,18402	550519
18,18813	476101
18,19225	423516
18,19638	369819
18,20050	327782
18,20462	293103
18,20875	262472
18,21287	241222
18,21698	219480
18,22110	199500
18,22523	183461
18,22935	168973
18,23347	153109
18,23760	140260
18,24172	133547
18,24583	124120
18,24997	116405
18,25408	107647
18,25820	100528
18,26233	97415
18,26645	91706
18,27057	85011
18,27470	81161
18,27882	74363
18,28293	71310
18,28707	68580
18,29118	63588
18,29530	60941
18,29943	60429
18,30355	56243
18,30767	53386
18,31178	52434
18,31592	47847
18,32003	47630
18,32415	45400
18,32828	42603
18,33240	41252
18,33652	40274
18,34065	39012
18,34477	36879
18,34888	37897
18,35302	37304
18,35713	33079
18,36125	33384
18,36538	33359
18,36950	29251
18,37362	29525
18,37775	28744
18,38187	28420
18,38598	26338
18,39012	27683
18,39423	24645
18,39835	26249
18,40247	25292
18,40660	24864
18,41072	24050
18,41483	24508
18,41897	23568
18,42308	25597
18,42720	30249
18,43133	37364
18,43545	50321
18,43957	75420
18,44370	119605
18,44782	185187
18,45193	277067
18,45607	406562
18,46018	572116
18,46430	762052
18,46843	973794
18,47255	1176453
18,47667	1376138
18,48080	1534939
18,48492	1642030
18,48903	1666596
18,49315	1634241
18,49728	1536567
18,50140	1406634
18,50552	1257673
18,50965	1107952
18,51377	954519
18,51788	811282
18,52202	690070
18,52613	579734
18,53025	492131
18,53438	423678
18,53850	365061
18,54262	313634
18,54675	277358
18,55087	241329
18,55498	211988
18,55912	188593
18,56323	167908
18,56735	152737
18,57148	140873
18,57560	127406
18,57972	117318
18,58383	108631
18,58797	98365
18,59208	86826
18,59620	81029
18,60033	80194
18,60445	80605
18,60857	80597
18,61270	85186
18,61682	102143
18,62093	127188
18,62507	181560
18,62918	262738
18,63330	393332
18,63743	575045
18,64155	831680
18,64567	1144671
18,64980	1526550
18,65392	1948102
18,65803	2379719
18,66217	2776699
18,66628	3101457
18,67040	3318128
18,67452	3434880
18,67865	3361931
18,68277	3150348
18,68688	2886373
18,69102	2560496
18,69513	2247340
18,69925	1911783
18,70338	1608849
18,70750	1352478
18,71162	1137064
18,71575	953333
18,71987	820874
18,72398	699347
18,72812	609347
18,73223	525164
18,73635	464252
18,74048	407099
18,74460	364677
18,74872	326831
18,75285	295566
18,75697	269146
18,76108	242279
18,76520	221970
18,76933	208639
18,77345	186406
18,77757	176304
18,78170	160810
18,78582	152236
18,78993	140829
18,79407	131918
18,79818	125862
18,80230	114714
18,80643	108080
18,81055	101751
18,81467	93032
18,81880	90131
18,82292	87669
18,82703	82184
18,83117	79886
18,83528	74468
18,83940	69504
18,84353	67594
18,84765	63737
18,85177	62962
18,85588	60655
18,86002	56326
18,86413	55721
18,86825	51155
18,87238	50705
18,87650	48708
18,88062	46427
18,88475	44778
18,88887	45092
18,89298	41863
18,89712	40650
18,90123	40801
18,90535	38929
18,90948	37457
18,91360	36121
18,91772	34870
18,92185	32627
18,92597	33907
18,93008	31683
18,93422	31819
18,93833	31383
18,94245	28162
18,94657	29520
18,95070	28399
18,95482	27363
18,95893	28704
18,96307	27073
18,96718	24811
18,97130	24262
18,97543	22488
18,97955	24093
18,98367	24974
18,98780	24694
18,99192	23029
18,99603	22426
19,00017	22316
19,00428	20890
19,00840	21215
19,01253	20396
19,01665	20154
19,02077	17990
19,02490	18845
19,02902	18257
19,03313	23474
19,03725	22563
19,04138	24570
19,04550	30887
19,04962	41654
19,05375	60082
19,05787	97157
19,06198	154166
19,06612	234095
19,07023	351466
19,07435	505186
19,07848	680878
19,08260	878082
19,08672	1070836
19,09085	1262721
19,09497	1393706
19,09908	1483981
19,10322	1505163
19,10733	1467688
19,11145	1378973
19,11558	1270111
19,11970	1162972
19,12382	1063337
19,12793	986626
19,13207	959194
19,13618	989256
19,14030	1093821
19,14443	1276514
19,14855	1546232
19,15267	1871718
19,15680	2259810
19,16092	2695119
19,16503	3090712
19,16917	3422048
19,17328	3645734
19,17740	3746594
19,18153	3667100
19,18565	3439415
19,18977	3133294
19,19390	2745418
19,19802	2334961
19,20213	1994129
19,20627	1679148
19,21038	1399653
19,21450	1181948
19,21863	996161
19,22275	846422
19,22687	731125
19,23098	633338
19,23512	558409
19,23923	493874
19,24335	440010
19,24748	396021
19,25160	358180
19,25572	318051
19,25985	294232
19,26397	271079
19,26808	248506
19,27222	228150
19,27633	212578
19,28045	197262
19,28458	183439
19,28870	167611
19,29282	158006
19,29695	147988
19,30107	143987
19,30518	130492
19,30932	121505
19,31343	124966
19,31755	116258
19,32167	107217
19,32580	102851
19,32992	99418
19,33403	92581
19,33817	91702
19,34228	84169
19,34640	82020
19,35053	78897
19,35465	73698
19,35877	75085
19,36290	68736
19,36702	67488
19,37113	65980
19,37527	61288
19,37938	60013
19,38350	59343
19,38763	59616
19,39175	55771
19,39587	54518
19,40000	55432
19,40412	52519
19,40823	51030
19,41235	50232
19,41648	49466
19,42060	46124
19,42472	45246
19,42885	42835
19,43297	42869
19,43708	40490
19,44122	40003
19,44533	37914
19,44945	37649
19,45358	39344
19,45770	38836
19,46182	42817
19,46595	49834
19,47007	60921
19,47418	82270
19,47832	122034
19,48243	179119
19,48655	262971
19,49068	375743
19,49480	519948
19,49892	692294
19,50303	880011
19,50717	1060095
19,51128	1227709
19,51540	1360284
19,51953	1442369
19,52365	1444538
19,52777	1423346
19,53190	1308917
19,53602	1188002
19,54013	1053263
19,54427	920819
19,54838	785699
19,55250	680465
19,55663	580319
19,56075	490953
19,56487	421802
19,56900	367272
19,57312	313084
19,57723	274461
19,58137	243842
19,58548	217271
19,58960	192234
19,59372	171671
19,59785	155145
19,60197	142362
19,60608	129576
19,61022	119150
19,61433	109604
19,61845	101231
19,62258	94464
19,62670	88163
19,63082	81464
19,63495	76026
19,63907	73093
19,64318	67904
19,64732	63732
19,65143	60405
19,65555	58670
19,65968	55747
19,66380	54785
19,66792	52566
19,67205	50102
19,67617	49639
19,68028	46502
19,68440	44699
19,68853	44519
19,69265	43058
19,69677	43321
19,70090	41635
19,70502	40325
19,70913	38587
19,71327	35995
19,71738	36625
19,72150	33886
19,72563	34126
19,72975	33442
19,73387	32052
19,73800	31027
19,74212	29723
19,74623	28538
19,75037	27119
19,75448	28175
19,75860	24220
19,76273	25445
19,76685	25005
19,77097	22626
19,77508	22374
19,77922	23594
19,78333	21180
19,78745	22419
19,79158	21580
19,79570	19401
19,79982	21281
19,80395	21542
19,80807	19582
19,81218	18915
19,81632	18848
19,82043	19223
19,82455	18630
19,82868	19148
19,83280	17984
19,83692	18823
19,84105	16957
19,84517	18364
19,84928	16755
19,85342	17834
19,85753	16177
19,86165	15800
19,86577	15928
19,86990	17289
19,87402	16014
19,87813	16670
19,88227	17000
19,88638	14999
19,89050	15416
19,89463	15414
19,89875	14600
19,90287	15729
19,90700	14575
19,91112	16009
19,91523	14954
19,91937	14727
19,92348	14925
19,92760	13853
19,93173	16613
19,93585	13912
19,93997	12913
19,94410	15031
19,94822	15843
19,95233	14586
19,95645	14622
19,96058	12512
19,96470	12518
19,96882	14007
19,97295	14080
19,97707	14136
19,98118	13229
19,98532	14095
19,98943	12577
19,99355	12839
19,99768	13237
20,00180	12602
20,00592	12471
20,01005	13296
20,01417	12293
20,01828	10918
20,02242	12533
20,02653	10833
20,03065	11711
20,03478	11859
20,03890	12882
20,04302	11756
20,04713	11131
20,05127	13103
20,05538	14285
20,05950	18153
20,06363	24099
20,06775	34788
20,07187	56394
20,07600	86707
20,08012	141482
20,08423	218816
20,08837	317391
20,09248	455515
20,09660	599397
20,10073	759627
20,10485	915321
20,10897	1067069
20,11310	1167158
20,11722	1227826
20,12133	1251778
20,12547	1208135
20,12958	1147230
20,13370	1079674
20,13782	1006171
20,14195	955773
20,14607	935168
20,15018	966451
20,15432	1063072
20,15843	1245824
20,16255	1484887
20,16668	1819918
20,17080	2200975
20,17492	2636399
20,17905	3058645
20,18317	3446014
20,18728	3769591
20,19142	3966765
20,19553	3972968
20,19965	3819696
20,20378	3546903
20,20790	3155322
20,21202	2752399
20,21615	2341964
20,22027	2007148
20,22438	1677405
20,22850	1413658
20,23263	1203205
20,23675	1030122
20,24087	887145
20,24500	787072
20,24912	681477
20,25323	615059
20,25737	550165
20,26148	493191
20,26560	443954
20,26973	403812
20,27385	370598
20,27797	338838
20,28210	310886
20,28622	280869
20,29033	264475
20,29447	243605
20,29858	222467
20,30270	207808
20,30683	195568
20,31095	181059
20,31507	170090
20,31918	162148
20,32332	151316
20,32743	141967
20,33155	135666
20,33568	128021
20,33980	124257
20,34392	116187
20,34805	108616
20,35217	103633
20,35628	99814
20,36042	93138
20,36453	88565
20,36865	88386
20,37278	85437
20,37690	80739
20,38102	76849
20,38515	74125
20,38927	70430
20,39338	70806
20,39752	66412
20,40163	63678
20,40575	61900
20,40987	60154
20,41400	59222
20,41812	56422
20,42223	52203
20,42637	51317
20,43048	50565
20,43460	52103
20,43873	53023
20,44285	59319
20,44697	65164
20,45110	83219
20,45522	109406
20,45933	157327
20,46347	224577
20,46758	316672
20,47170	432341
20,47583	575622
20,47995	730528
20,48407	879295
20,48820	1030213
20,49232	1152534
20,49643	1202655
20,50055	1249373
20,50468	1213398
20,50880	1153553
20,51292	1066962
20,51705	961846
20,52117	848720
20,52528	737202
20,52942	634924
20,53353	548693
20,53765	469858
20,54178	406778
20,54590	349423
20,55002	302554
20,55415	262548
20,55827	232647
20,56238	207416
20,56652	183532
20,57063	166246
20,57475	153587
20,57888	137238
20,58300	126415
20,58712	117195
20,59123	110018
20,59537	100090
20,59948	92423
20,60360	87623
20,60773	83808
20,61185	76448
20,61597	75412
20,62010	68820
20,62422	64428
20,62833	64351
20,63247	65094
20,63658	61731
20,64070	64598
20,64483	71992
20,64895	87613
20,65307	111942
20,65720	157500
20,66132	225381
20,66543	322455
20,66957	455445
20,67368	629839
20,67780	840770
20,68192	1056154
20,68605	1305960
20,69017	1496065
20,69428	1634426
20,69842	1730230
20,70253	1750908
20,70665	1705692
20,71078	1592615
20,71490	1461704
20,71902	1290089
20,72315	1133550
20,72727	976505
20,73138	845624
20,73552	722789
20,73963	615424
20,74375	531457
20,74788	465711
20,75200	403132
20,75612	356395
20,76025	311682
20,76437	281115
20,76848	244498
20,77260	227914
20,77673	206392
20,78085	194476
20,78497	175174
20,78910	164463
20,79322	152511
20,79733	140199
20,80147	127804
20,80558	123941
20,80970	116039
20,81383	109712
20,81795	103426
20,82207	96318
20,82620	91497
20,83032	89737
20,83443	85646
20,83857	77306
20,84268	74033
20,84680	69843
20,85093	67887
20,85505	67157
20,85917	63402
20,86328	60373
20,86742	55579
20,87153	55194
20,87565	49777
20,87978	51322
20,88390	51490
20,88802	47466
20,89215	46842
20,89627	44993
20,90038	44604
20,90452	43153
20,90863	41204
20,91275	39746
20,91688	37979
20,92100	36322
20,92512	37068
20,92925	36366
20,93337	35522
20,93748	34131
20,94162	32371
20,94573	34075
20,94985	29670
20,95398	32885
20,95810	30765
20,96222	30690
20,96633	28980
20,97047	28995
20,97458	27623
20,97870	29772
20,98283	25492
20,98695	28145
20,99107	26103
20,99520	26579
20,99932	25526
21,00343	24887
21,00757	24591
21,01168	23987
21,01580	25577
21,01993	23795
21,02405	23577
21,02817	23267
21,03230	23465
21,03642	22047
21,04053	22525
21,04467	22637
21,04878	21560
21,05290	21051
21,05702	21646
21,06115	23252
21,06527	20161
21,06938	18584
21,07352	20754
21,07763	20802
21,08175	19900
21,08588	22947
21,09000	22974
21,09412	24187
21,09825	29611
21,10237	35986
21,10648	50315
21,11062	76846
21,11473	123783
21,11885	190714
21,12298	295349
21,12710	435365
21,13122	619679
21,13535	838721
21,13947	1106002
21,14358	1392265
21,14770	1609679
21,15183	1795718
21,15595	1881173
21,16007	1910497
21,16420	1850374
21,16832	1723620
21,17243	1546325
21,17657	1357318
21,18068	1181814
21,18480	1002099
21,18893	857813
21,19305	736064
21,19717	632730
21,20130	539664
21,20542	475379
21,20953	416041
21,21367	367560
21,21778	323377
21,22190	288683
21,22603	260339
21,23015	237581
21,23427	216679
21,23838	198469
21,24252	181743
21,24663	165915
21,25075	154610
21,25488	142867
21,25900	137438
21,26312	126868
21,26725	122748
21,27137	112999
21,27548	107470
21,27962	100218
21,28373	96162
21,28785	92830
21,29198	87387
21,29610	87746
21,30022	82214
21,30435	77785
21,30847	73825
21,31258	71132
21,31672	67336
21,32083	66098
21,32495	60655
21,32907	61778
21,33320	55344
21,33732	59275
21,34143	55613
21,34557	52073
21,34968	50491
21,35380	48916
21,35793	47238
21,36205	46569
21,36617	43453
21,37030	44031
21,37442	42031
21,37853	44149
21,38267	40995
21,38678	41102
21,39090	39669
21,39503	37348
21,39915	36958
21,40327	36341
21,40740	35559
21,41152	35172
21,41563	34700
21,41975	33262
21,42388	34415
21,42800	32438
21,43212	31046
21,43625	31984
21,44037	30685
21,44448	32854
21,44862	37404
21,45273	43352
21,45685	56272
21,46098	77672
21,46510	118538
21,46922	177333
21,47335	266291
21,47747	386046
21,48158	533574
21,48572	716296
21,48983	910384
21,49395	1106410
21,49808	1264550
21,50220	1401462
21,50632	1481682
21,51043	1507545
21,51457	1445465
21,51868	1364839
21,52280	1232038
21,52693	1093680
21,53105	961306
21,53517	835156
21,53930	712050
21,54342	615874
21,54753	531829
21,55167	459445
21,55578	399252
21,55990	348222
21,56403	311121
21,56815	274149
21,57227	243354
21,57640	223402
21,58052	199520
21,58463	180129
21,58877	160902
21,59288	152024
21,59700	139324
21,60112	126563
21,60525	121377
21,60937	111140
21,61348	101840
21,61762	98057
21,62173	92120
21,62585	85764
21,62998	79662
21,63410	78250
21,63822	72938
21,64235	69703
21,64647	67887
21,65058	63985
21,65472	60769
21,65883	60147
21,66295	59548
21,66708	56716
21,67120	52525
21,67532	49910
21,67945	49025
21,68357	48251
21,68768	44334
21,69180	44518
21,69593	43713
21,70005	41790
21,70417	41402
21,70830	38874
21,71242	39017
21,71653	36703
21,72067	35739
21,72478	36696
21,72890	34885
21,73303	34421
21,73715	33787
21,74127	31906
21,74540	32148
21,74952	30947
21,75363	29831
21,75777	30242
21,76188	31604
21,76600	29844
21,77013	28762
21,77425	28775
21,77837	28557
21,78248	26554
21,78662	27668
21,79073	27031
21,79485	27724
21,79898	26343
21,80310	25655
21,80722	27178
21,81135	25345
21,81547	24559
21,81958	23275
21,82372	25236
21,82783	24913
21,83195	23735
21,83608	22023
21,84020	24119
21,84432	24850
21,84845	22298
21,85257	25281
21,85668	23129
21,86082	24024
21,86493	25111
21,86905	23609
21,87317	23950
21,87730	23739
21,88142	25821
21,88553	23157
21,88967	22053
21,89378	22722
21,89790	22738
21,90203	23745
21,90615	23950
21,91027	21097
21,91440	21013
21,91852	19522
21,92263	20678
21,92677	18890
21,93088	18645
21,93500	19116
21,93913	19726
21,94325	19634
21,94737	19112
21,95150	18232
21,95562	21284
21,95973	18280
21,96385	18831
21,96798	19056
21,97210	19633
21,97622	17232
21,98035	18175
21,98447	18554
21,98858	19985
21,99272	19246
21,99683	18998
22,00095	19792
22,00508	20895
22,00920	22996
22,01332	28640
22,01745	36125
22,02157	50149
22,02568	76947
22,02982	118233
22,03393	185736
22,03805	279861
22,04218	403089
22,04630	562053
22,05042	764706
22,05453	984919
22,05867	1232603
22,06278	1486481
22,06690	1732769
22,07103	1960363
22,07515	2198708
22,07927	2449199
22,08340	2762730
22,08752	3063110
22,09163	3337499
22,09577	3626208
22,09988	3887230
22,10400	4115037
22,10813	4221915
22,11225	4235123
22,11637	4028366
22,12050	3720209
22,12462	3303328
22,12873	2877577
22,13287	2481860
22,13698	2098093
22,14110	1802438
22,14522	1545040
22,14935	1322222
22,15347	1153521
22,15758	991662
22,16172	875721
22,16583	769630
22,16995	698949
22,17408	618447
22,17820	562453
22,18232	510819
22,18645	470143
22,19057	433218
22,19468	399796
22,19882	366870
22,20293	339084
22,20705	316208
22,21118	297314
22,21530	280019
22,21942	260040
22,22355	246565
22,22767	233739
22,23178	218845
22,23590	208185
22,24003	193824
22,24415	187313
22,24827	177622
22,25240	171635
22,25652	162350
22,26063	152877
22,26477	149977
22,26888	143535
22,27300	137263
22,27713	128661
22,28125	126940
22,28537	122240
22,28950	117922
22,29362	113063
22,29773	108859
22,30187	101990
22,30598	102583
22,31010	98999
22,31423	94993
22,31835	90600
22,32247	87381
22,32658	85885
22,33072	81143
22,33483	84689
22,33895	78321
22,34308	78074
22,34720	74885
22,35132	74134
22,35545	72741
22,35957	72025
22,36368	74269
22,36782	76371
22,37193	91545
22,37605	106008
22,38018	138163
22,38430	191787
22,38842	265597
22,39255	373760
22,39667	502524
22,40078	656592
22,40492	826075
22,40903	993407
22,41315	1153720
22,41727	1272742
22,42140	1354217
22,42552	1373086
22,42963	1345046
22,43377	1284524
22,43788	1225528
22,44200	1141035
22,44613	1076899
22,45025	1035061
22,45437	1014165
22,45850	1043387
22,46262	1098165
22,46673	1173844
22,47087	1281268
22,47498	1361077
22,47910	1412463
22,48323	1443861
22,48735	1443971
22,49147	1395680
22,49560	1310230
22,49972	1217171
22,50383	1092513
22,50797	977024
22,51208	863075
22,51620	766166
22,52032	672667
22,52445	595620
22,52857	522119
22,53268	476550
22,53682	450418
22,54093	433302
22,54505	440934
22,54918	478267
22,55330	550995
22,55742	662035
22,56155	805150
22,56567	999592
22,56978	1199317
22,57392	1423464
22,57803	1622225
22,58215	1748813
22,58628	1839222
22,59040	1855682
22,59452	1805996
22,59865	1704594
22,60277	1561326
22,60688	1400081
22,61100	1228877
22,61513	1082863
22,61925	942390
22,62337	825948
22,62750	721265
22,63162	638101
22,63573	559498
22,63987	502451
22,64398	453480
22,64810	404716
22,65223	369326
22,65635	334241
22,66047	309947
22,66460	289701
22,66872	266169
22,67283	250443
22,67697	234795
22,68108	219088
22,68520	211280
22,68933	193094
22,69345	185103
22,69757	173715
22,70168	164485
22,70582	155836
22,70993	148361
22,71405	142739
22,71818	136371
22,72230	129989
22,72642	123060
22,73055	120302
22,73467	112575
22,73878	112374
22,74292	105594
22,74703	100396
22,75115	96972
22,75528	94497
22,75940	91043
22,76352	88578
22,76765	85714
22,77177	81316
22,77588	81262
22,78002	78366
22,78413	76979
22,78825	76085
22,79237	72425
22,79650	73162
22,80062	70165
22,80473	68308
22,80887	65453
22,81298	65784
22,81710	65983
22,82123	63875
22,82535	61340
22,82947	60158
22,83360	56933
22,83772	57503
22,84183	56769
22,84597	53466
22,85008	56580
22,85420	52497
22,85833	52001
22,86245	52663
22,86657	50553
22,87070	48631
22,87482	48682
22,87893	47182
22,88305	47590
22,88718	46470
22,89130	46995
22,89542	47506
22,89955	48964
22,90367	47027
22,90778	48982
22,91192	46733
22,91603	47480
22,92015	47428
22,92428	46695
22,92840	47778
22,93252	48330
22,93665	48824
22,94077	51642
22,94488	58878
22,94902	69048
22,95313	95586
22,95725	131033
22,96138	184982
22,96550	269212
22,96962	392039
22,97373	552852
22,97787	753494
22,98198	977410
22,98610	1224863
22,99023	1449812
22,99435	1622766
22,99847	1742027
23,00260	1797948
23,00672	1768442
23,01083	1660928
23,01497	1518330
23,01908	1370327
23,02320	1208177
23,02733	1049237
23,03145	913368
23,03557	795285
23,03970	691824
23,04382	610991
23,04793	536576
23,05207	484275
23,05618	425961
23,06030	385779
23,06442	352348
23,06855	318407
23,07267	295344
23,07678	271873
23,08092	253620
23,08503	234890
23,08915	220573
23,09328	207154
23,09740	192276
23,10152	181327
23,10565	170308
23,10977	168321
23,11388	159787
23,11802	150756
23,12213	147980
23,12625	140266
23,13038	135900
23,13450	132906
23,13862	125623
23,14275	121317
23,14687	117167
23,15098	112162
23,15510	108655
23,15923	101693
23,16335	100519
23,16747	96794
23,17160	95779
23,17572	89733
23,17983	89802
23,18397	86451
23,18808	81594
23,19220	78889
23,19633	79537
23,20045	76855
23,20457	72633
23,20870	71088
23,21282	69977
23,21693	68762
23,22107	66194
23,22518	64908
23,22930	61621
23,23343	64972
23,23755	61160
23,24167	59276
23,24578	57698
23,24992	57545
23,25403	54148
23,25815	54079
23,26228	54415
23,26640	53829
23,27052	50580
23,27465	52196
23,27877	50039
23,28288	51432
23,28702	53970
23,29113	56480
23,29525	65343
23,29938	78367
23,30350	104912
23,30762	144754
23,31175	209148
23,31587	301292
23,31998	427495
23,32412	585074
23,32823	779785
23,33235	970442
23,33647	1157309
23,34060	1320867
23,34472	1444112
23,34883	1484944
23,35297	1473202
23,35708	1416158
23,36120	1321609
23,36533	1200661
23,36945	1103324
23,37357	987395
23,37770	889770
23,38182	835709
23,38593	796535
23,39007	793955
23,39418	840283
23,39830	906316
23,40243	999139
23,40655	1090199
23,41067	1173874
23,41480	1232846
23,41892	1278004
23,42303	1297195
23,42715	1264542
23,43128	1211878
23,43540	1135107
23,43952	1040109
23,44365	938117
23,44777	832396
23,45188	735311
23,45602	649243
23,46013	571181
23,46425	506008
23,46838	451963
23,47250	397398
23,47662	364380
23,48075	321888
23,48487	293845
23,48898	266274
23,49312	243905
23,49723	225710
23,50135	209015
23,50548	200991
23,50960	180865
23,51372	172162
23,51783	162599
23,52197	151923
23,52608	147220
23,53020	135159
23,53433	129882
23,53845	125915
23,54257	118561
23,54670	112259
23,55082	107063
23,55493	103498
23,55907	97993
23,56318	99049
23,56730	94032
23,57143	92566
23,57555	85649
23,57967	83256
23,58380	82902
23,58792	79799
23,59203	76793
23,59617	73305
23,60028	71277
23,60440	71270
23,60852	68769
23,61265	66520
23,61677	67643
23,62088	64948
23,62502	59384
23,62913	62518
23,63325	60302
23,63738	60968
23,64150	58949
23,64562	58431
23,64975	56258
23,65387	58159
23,65798	53186
23,66212	55242
23,66623	53516
23,67035	54063
23,67448	53662
23,67860	51222
23,68272	52608
23,68685	51319
23,69097	51463
23,69508	47421
23,69920	47773
23,70333	47233
23,70745	48235
23,71157	45153
23,71570	45194
23,71982	44913
23,72393	42483
23,72807	42836
23,73218	41077
23,73630	42347
23,74043	41840
23,74455	39766
23,74867	43381
23,75280	41297
23,75692	38200
23,76103	40808
23,76517	40722
23,76928	41100
23,77340	40498
23,77753	38773
23,78165	40433
23,78577	41536
23,78988	38710
23,79402	37824
23,79813	36601
23,80225	38569
23,80638	38058
23,81050	41689
23,81462	40923
23,81875	45911
23,82287	54034
23,82698	64904
23,83112	86847
23,83523	124370
23,83935	175373
23,84348	248931
23,84760	356193
23,85172	520556
23,85585	715434
23,85997	980995
23,86408	1301876
23,86822	1687046
23,87233	2074183
23,87645	2494696
23,88057	2854759
23,88470	3169058
23,88882	3360701
23,89293	3377931
23,89707	3241693
23,90118	3044836
23,90530	2746531
23,90943	2412942
23,91355	2107337
23,91767	1817790
23,92180	1560997
23,92592	1347428
23,93003	1177550
23,93417	1022094
23,93828	898495
23,94240	807107
23,94653	721704
23,95065	650919
23,95477	589149
23,95890	547264
23,96302	494064
23,96713	453623
23,97125	418566
23,97538	385812
23,97950	362872
23,98362	345185
23,98775	320154
23,99187	302129
23,99598	287118
24,00012	268354
24,00423	261365
24,00835	248819
24,01248	233014
24,01660	217278
24,02072	213619
24,02485	203544
24,02897	193688
24,03308	183310
24,03722	181186
24,04133	170763
24,04545	168161
24,04958	159983
24,05370	153012
24,05782	153354
24,06195	145362
24,06607	140732
24,07018	136208
24,07430	133620
24,07843	127220
24,08255	125523
24,08667	121682
24,09080	119106
24,09492	115479
24,09903	113570
24,10317	108157
24,10728	107174
24,11140	102907
24,11553	101038
24,11965	96274
24,12377	96751
24,12790	93995
24,13202	93684
24,13613	88114
24,14027	89757
24,14438	86589
24,14850	87677
24,15263	85275
24,15675	81440
24,16087	82866
24,16498	81524
24,16912	80171
24,17323	79622
24,17735	80566
24,18148	75132
24,18560	76392
24,18972	75967
24,19385	72352
24,19797	71311
24,20208	73359
24,20622	70710
24,21033	70349
24,21445	67146
24,21858	66604
24,22270	67583
24,22682	65065
24,23095	65434
24,23507	60774
24,23918	65715
24,24332	58706
24,24743	59266
24,25155	58848
24,25567	58350
24,25980	59729
24,26392	56352
24,26803	56600
24,27217	56285
24,27628	55165
24,28040	58191
24,28453	62084
24,28865	67836
24,29277	79017
24,29690	97253
24,30102	127776
24,30513	177490
24,30927	247921
24,31338	341123
24,31750	469477
24,32163	636994
24,32575	818059
24,32987	1031238
24,33400	1217879
24,33812	1391664
24,34223	1519660
24,34635	1567927
24,35048	1560872
24,35460	1493888
24,35872	1388277
24,36285	1275680
24,36697	1134727
24,37108	1007582
24,37522	888866
24,37933	785300
24,38345	698484
24,38758	618555
24,39170	556562
24,39582	504984
24,39995	449644
24,40407	404613
24,40818	378668
24,41232	345110
24,41643	317843
24,42055	297075
24,42468	275862
24,42880	258165
24,43292	240163
24,43703	228843
24,44117	216723
24,44528	202494
24,44940	189632
24,45353	183996
24,45765	174041
24,46177	168351
24,46590	162996
24,47002	155201
24,47413	150760
24,47827	140780
24,48238	139627
24,48650	135991
24,49063	129693
24,49475	124444
24,49887	122623
24,50300	118454
24,50712	109146
24,51123	110517
24,51537	109955
24,51948	102308
24,52360	102263
24,52772	99716
24,53185	97085
24,53597	94210
24,54008	92901
24,54422	90815
24,54833	88955
24,55245	84747
24,55658	85494
24,56070	79115
24,56482	80753
24,56895	78317
24,57307	75522
24,57718	79615
24,58132	75753
24,58543	75030
24,58955	72329
24,59368	70249
24,59780	69208
24,60192	69735
24,60605	70259
24,61017	67585
24,61428	63918
24,61840	61734
24,62253	64559
24,62665	62696
24,63077	65410
24,63490	62594
24,63902	63013
24,64313	63244
24,64727	65452
24,65138	67387
24,65550	68315
24,65963	66796
24,66375	70559
24,66787	71732
24,67200	76829
24,67612	78403
24,68023	84119
24,68437	95581
24,68848	103295
24,69260	114582
24,69673	122852
24,70085	129798
24,70497	135407
24,70908	138955
24,71322	137726
24,71733	137601
24,72145	132260
24,72558	124178
24,72970	116281
24,73382	111634
24,73795	104982
24,74207	96171
24,74618	88870
24,75032	84641
24,75443	78709
24,75855	76819
24,76268	70162
24,76680	65180
24,77092	64942
24,77505	61389
24,77917	59311
24,78328	55769
24,78742	56160
24,79153	53622
24,79565	51627
24,79977	51075
24,80390	52010
24,80802	52115
24,81213	49194
24,81627	51191
24,82038	52415
24,82450	51702
24,82863	51311
24,83275	48408
24,83687	48156
24,84100	50005
24,84512	46885
24,84923	47992
24,85337	45198
24,85748	47177
24,86160	45964
24,86573	45262
24,86985	44040
24,87397	47683
24,87810	45143
24,88222	44433
24,88633	44398
24,89045	47541
24,89458	41768
24,89870	45564
24,90282	43580
24,90695	42260
24,91107	44375
24,91518	45034
24,91932	43307
24,92343	42312
24,92755	43775
24,93168	45549
24,93580	43940
24,93992	42854
24,94405	45644
24,94817	43792
24,95228	43883
24,95642	42601
24,96053	44561
24,96465	42767
24,96878	42284
24,97290	41292
24,97702	41175
24,98113	38479
24,98527	40573
24,98938	41029
24,99350	37885
24,99763	37149
25,00175	39380
25,00587	39196
25,01000	39333
25,01412	37952
25,01823	37181
25,02237	40618
25,02648	40391
25,03060	39594
25,03473	40334
25,03885	38264
25,04297	40525
25,04710	37245
25,05122	40455
25,05533	41461
25,05947	40610
25,06358	40989
25,06770	40211
25,07182	39536
25,07595	39357
25,08007	38662
25,08418	39041
25,08832	40139
25,09243	41027
25,09655	37168
25,10068	38103
25,10480	40367
25,10892	38061
25,11305	38118
25,11717	38466
25,12128	38798
25,12542	36340
25,12953	37982
25,13365	37013
25,13778	37228
25,14190	38189
25,14602	39771
25,15015	40006
25,15427	37590
25,15838	38447
25,16250	38945
25,16663	39913
25,17075	39030
25,17487	39719
25,17900	40753
25,18312	40829
25,18723	39875
25,19137	39134
25,19548	41131
25,19960	38543
25,20373	40801
25,20785	40372
25,21197	39165
25,21610	37657
25,22022	37594
25,22433	38383
25,22847	34876
25,23258	36488
25,23670	38140
25,24083	37611
25,24495	36784
25,24907	36664
25,25318	38140
25,25732	38060
25,26143	37442
25,26555	37058
25,26968	35266
25,27380	35795
25,27792	37469
25,28205	35975
25,28617	37821
25,29028	36579
25,29442	37385
25,29853	36446
25,30265	37591
25,30678	36956
25,31090	35297
25,31502	33818
25,31915	34486
25,32327	37904
25,32738	35763
25,33152	38190
25,33563	34268
25,33975	35706
25,34387	36385
25,34800	36896
25,35212	36249
25,35623	35741
25,36037	37133
25,36448	35062
25,36860	36352
25,37273	35984
25,37685	35235
25,38097	36963
25,38510	34802
25,38922	34835
25,39333	35629
25,39747	36820
25,40158	35099
25,40570	37564
25,40983	36689
25,41395	35099
25,41807	37265
25,42220	36035
25,42632	35964
25,43043	33347
25,43455	35406
25,43868	37818
25,44280	37552
25,44692	36302
25,45105	34824
25,45517	37109
25,45928	33850
25,46342	34839
25,46753	35691
25,47165	35249
25,47578	36479
25,47990	34766
25,48402	35688
25,48815	36278
25,49227	37910
25,49638	37519
25,50052	36087
25,50463	35511
25,50875	34922
25,51288	38136
25,51700	37365
25,52112	36632
25,52523	36030
25,52937	38443
25,53348	35848
25,53760	38177
25,54173	36802
25,54585	36733
25,54997	38271
25,55410	42929
25,55822	44440
25,56233	49781
25,56647	61544
25,57058	74022
25,57470	97737
25,57883	133815
25,58295	176090
25,58707	238783
25,59120	312414
25,59532	397924
25,59943	498139
25,60357	598700
25,60768	679918
25,61180	756847
25,61593	803678
25,62005	813436
25,62417	809253
25,62828	775572
25,63242	741329
25,63653	676394
25,64065	622635
25,64478	566869
25,64890	501874
25,65302	448359
25,65715	400262
25,66127	361424
25,66538	328337
25,66952	297734
25,67363	265653
25,67775	244023
25,68188	224141
25,68600	206291
25,69012	189034
25,69425	175838
25,69837	165259
25,70248	151504
25,70662	146008
25,71073	132135
25,71485	129173
25,71897	122061
25,72310	116517
25,72722	106934
25,73133	107636
25,73547	100232
25,73958	98028
25,74370	91517
25,74783	88559
25,75195	87145
25,75607	85715
25,76020	84258
25,76432	81065
25,76843	76017
25,77257	76042
25,77668	73266
25,78080	74329
25,78493	70617
25,78905	69043
25,79317	66842
25,79730	64934
25,80142	65935
25,80553	65086
25,80965	62745
25,81378	61804
25,81790	59109
25,82202	59722
25,82615	57600
25,83027	58579
25,83438	53611
25,83852	55740
25,84263	53462
25,84675	53437
25,85088	53024
25,85500	52826
25,85912	52599
25,86325	54498
25,86737	54042
25,87148	50476
25,87562	47673
25,87973	49180
25,88385	47582
25,88798	49466
25,89210	48753
25,89622	47317
25,90033	47815
25,90447	47382
25,90858	47816
25,91270	46178
25,91683	46993
25,92095	44419
25,92507	45249
25,92920	43106
25,93332	44786
25,93743	43759
25,94157	46770
25,94568	45050
25,94980	44041
25,95393	45533
25,95805	44028
25,96217	43510
25,96630	40326
25,97042	41997
25,97453	40916
25,97867	44697
25,98278	42503
25,98690	42051
25,99102	40441
25,99515	41389
25,99927	43280
26,00338	43219
26,00752	42063
26,01163	41426
26,01575	44415
26,01988	45686
26,02400	42632
26,02812	43892
26,03225	41448
26,03637	40987
26,04048	40090
26,04462	41753
26,04873	40282
26,05285	42790
26,05698	44448
26,06110	42157
26,06522	40547
26,06935	42360
26,07347	40923
26,07758	43963
26,08170	42692
26,08583	39331
26,08995	41220
26,09407	40223
26,09820	41257
26,10232	41206
26,10643	41267
26,11057	40723
26,11468	41762
26,11880	38852
26,12293	40670
26,12705	38697
26,13117	37002
26,13530	39048
26,13942	41478
26,14353	38335
26,14767	39510
26,15178	42261
26,15590	40737
26,16003	38417
26,16415	37681
26,16827	38621
26,17238	38922
26,17652	39863
26,18063	38746
26,18475	38364
26,18888	39652
26,19300	38792
26,19712	37427
26,20125	40970
26,20537	36887
26,20948	39111
26,21362	35432
26,21773	36541
26,22185	38983
26,22598	35826
26,23010	37736
26,23422	37886
26,23835	37545
26,24247	38735
26,24658	37879
26,25072	36135
26,25483	35587
26,25895	34771
26,26307	37014
26,26720	36429
26,27132	37909
26,27543	37432
26,27957	36696
26,28368	36842
26,28780	38603
26,29193	37034
26,29605	38984
26,30017	37906
26,30430	37517
26,30842	35653
26,31253	38036
26,31667	35436
26,32078	37816
26,32490	38707
26,32903	36856
26,33315	39542
26,33727	40173
26,34140	37502
26,34552	38179
26,34963	35924
26,35375	38250
26,35788	35828
26,36200	36688
26,36612	37494
26,37025	41432
26,37437	38180
26,37848	39553
26,38262	39833
26,38673	38439
26,39085	37648
26,39498	37236
26,39910	35914
26,40322	35745
26,40735	37017
26,41147	36670
26,41558	36033
26,41972	35533
26,42383	35788
26,42795	39842
26,43208	36535
26,43620	37141
26,44032	36450
26,44443	38291
26,44857	37179
26,45268	38441
26,45680	38111
26,46093	37886
26,46505	37155
26,46917	37988
26,47330	37534
26,47742	37934
26,48153	37929
26,48567	38075
26,48978	39212
26,49390	37493
26,49803	36810
26,50215	36349
26,50627	37654
26,51040	37603
26,51452	37453
26,51863	37536
26,52277	35766
26,52688	36811
26,53100	38231
26,53512	35758
26,53925	37876
26,54337	36602
26,54748	37484
26,55162	34492
26,55573	37426
26,55985	35751
26,56398	35653
26,56810	38182
26,57222	38098
26,57635	38248
26,58047	39914
26,58458	36508
26,58872	37286
26,59283	39813
26,59695	37398
26,60108	41450
26,60520	37382
26,60932	38750
26,61345	38146
26,61757	38484
26,62168	38973
26,62580	37887
26,62993	36870
26,63405	37630
26,63817	38766
26,64230	38344
26,64642	39397
26,65053	37949
26,65467	38100
26,65878	37803
26,66290	37731
26,66703	36178
26,67115	38375
26,67527	40834
26,67940	39882
26,68352	35689
26,68763	37459
26,69177	38030
26,69588	37581
26,70000	35637
26,70413	37106
26,70825	35908
26,71237	36455
26,71648	37021
26,72062	37186
26,72473	36034
26,72885	35391
26,73298	33930
26,73710	36600
26,74122	37116
26,74535	35999
26,74947	36230
26,75358	38791
26,75772	38115
26,76183	37010
26,76595	35026
26,77008	36567
26,77420	37947
26,77832	35116
26,78245	35261
26,78657	37701
26,79068	36135
26,79482	36567
26,79893	39200
26,80305	39149
26,80717	36531
26,81130	38323
26,81542	36625
26,81953	36921
26,82367	33825
26,82778	36181
26,83190	36076
26,83603	37285
26,84015	36871
26,84427	37159
26,84840	36138
26,85252	37257
26,85663	36592
26,86077	38000
26,86488	37034
26,86900	35262
26,87313	35243
26,87725	36325
26,88137	37124
26,88550	36835
26,88962	34842
26,89373	36376
26,89785	36589
26,90198	36593
26,90610	35014
26,91022	36578
26,91435	36896
26,91847	35681
26,92258	33688
26,92672	35444
26,93083	35656
26,93495	35098
26,93908	35043
26,94320	35920
26,94732	37063
26,95145	34429
26,95557	36821
26,95968	34024
26,96382	34728
26,96793	35834
26,97205	33221
26,97618	32436
26,98030	33617
26,98442	32677
26,98853	35555
26,99267	33020
26,99678	34972
27,00090	35316
27,00503	35482
27,00915	34467
27,01327	34395
27,01740	36908
27,02152	35257
27,02563	35414
27,02977	36479
27,03388	35790
27,03800	35562
27,04213	35211
27,04625	33974
27,05037	36430
27,05450	37837
27,05862	36613
27,06273	33776
27,06687	36778
27,07098	39079
27,07510	38156
27,07922	36839
27,08335	36026
27,08747	37160
27,09158	40325
27,09572	38493
27,09983	40104
27,10395	36602
27,10808	36580
27,11220	35907
27,11632	35447
27,12045	35415
27,12457	37662
27,12868	33920
27,13282	33993
27,13693	34923
27,14105	32597
27,14518	35581
27,14930	34162
27,15342	33786
27,15755	36617
27,16167	36348
27,16578	37895
27,16990	35380
27,17403	37834
27,17815	35570
27,18227	34176
27,18640	35749
27,19052	35866
27,19463	33510
27,19877	36741
27,20288	36413
27,20700	34895
27,21113	35411
27,21525	37110
27,21937	36688
27,22350	36549
27,22762	35664
27,23173	35889
27,23587	36057
27,23998	33367
27,24410	34472
27,24823	35511
27,25235	35117
27,25647	35631
27,26060	33860
27,26472	34140
27,26883	32756
27,27295	35759
27,27708	33871
27,28120	34689
27,28532	33753
27,28945	34276
27,29357	33270
27,29768	35743
27,30182	35611
27,30593	32844
27,31005	34458
27,31418	35062
27,31830	33324
27,32242	36583
27,32655	36502
27,33067	35539
27,33478	34908
27,33892	34826
27,34303	36109
27,34715	34417
27,35128	34050
27,35540	36357
27,35952	36016
27,36363	34605
27,36777	35614
27,37188	35262
27,37600	35494
27,38013	34938
27,38425	35654
27,38837	33658
27,39250	36037
27,39662	35799
27,40073	35122
27,40487	35459
27,40898	36135
27,41310	35040
27,41723	37361
27,42135	36032
27,42547	35979
27,42960	36197
27,43372	34842
27,43783	34497
27,44197	36224
27,44608	35705
27,45020	34407
27,45432	32785
27,45845	35822
27,46257	34726
27,46668	35717
27,47082	35223
27,47493	35835
27,47905	35261
27,48318	35942
27,48730	35495
27,49142	34035
27,49555	35314
27,49967	33720
27,50378	35238
27,50792	37218
27,51203	34636
27,51615	33832
27,52028	31714
27,52440	35718
27,52852	33554
27,53265	34183
27,53677	36539
27,54088	33031
27,54500	35305
27,54913	35339
27,55325	32168
27,55737	35132
27,56150	33442
27,56562	34500
27,56973	33233
27,57387	34880
27,57798	32170
27,58210	31605
27,58623	34855
27,59035	33580
27,59447	35312
27,59860	34167
27,60272	34376
27,60683	31145
27,61097	35408
27,61508	34224
27,61920	35317
27,62333	31708
27,62745	34037
27,63157	35506
27,63568	32820
27,63982	33900
27,64393	34283
27,64805	32316
27,65218	31327
27,65630	34123
27,66042	33748
27,66455	31834
27,66867	35856
27,67278	33125
27,67692	34461
27,68103	33956
27,68515	34886
27,68928	34798
27,69340	34174
27,69752	34006
27,70165	35592
27,70577	33113
27,70988	31435
27,71402	34742
27,71813	34580
27,72225	35596
27,72637	33359
27,73050	35320
27,73462	37486
27,73873	36490
27,74287	34788
27,74698	37220
27,75110	35806
27,75523	36354
27,75935	37702
27,76347	38389
27,76760	37946
27,77172	38277
27,77583	38123
27,77997	37100
27,78408	38669
27,78820	37740
27,79233	37268
27,79645	38745
27,80057	37963
27,80470	41210
27,80882	36068
27,81293	36519
27,81705	38742
27,82118	35929
27,82530	37494
27,82942	34788
27,83355	36779
27,83767	34588
27,84178	33988
27,84592	36698
27,85003	35035
27,85415	32817
27,85828	35148
27,86240	35351
27,86652	35635
27,87065	35655
27,87477	35352
27,87888	33809
27,88302	34489
27,88713	34823
27,89125	33827
27,89538	32542
27,89950	34692
27,90362	32921
27,90773	33392
27,91187	34568
27,91598	34003
27,92010	34034
27,92423	31436
27,92835	32918
27,93247	34332
27,93660	32022
27,94072	34547
27,94483	33930
27,94897	32568
27,95308	34386
27,95720	35274
27,96133	32588
27,96545	32451
27,96957	33308
27,97370	32873
27,97782	33792
27,98193	31535
27,98607	33289
27,99018	35516
27,99430	32458
27,99842	34913
28,00255	35064
28,00667	33512
28,01078	35291
28,01492	36730
28,01903	35872
28,02315	35809
28,02728	33090
28,03140	36774
28,03552	33047
28,03965	35458
28,04377	32400
28,04788	32985
28,05202	34900
28,05613	35959
28,06025	34633
28,06438	34322
28,06850	35806
28,07262	33712
28,07675	34331
28,08087	33058
28,08498	36879
28,08910	33657
28,09323	34327
28,09735	32386
28,10147	33831
28,10560	33942
28,10972	34271
28,11383	34202
28,11797	32931
28,12208	34079
28,12620	35480
28,13033	35235
28,13445	32679
28,13857	35434
28,14270	35374
28,14682	32985
28,15093	33375
28,15507	33460
28,15918	33729
28,16330	35966
28,16743	35180
28,17155	34936
28,17567	34338
28,17978	35281
28,18392	34470
28,18803	36271
28,19215	34281
28,19628	33662
28,20040	33971
28,20452	32944
28,20865	34343
28,21277	35021
28,21688	32590
28,22102	35248
28,22513	34569
28,22925	34777
28,23338	34335
28,23750	35829
28,24162	34038
28,24575	34730
28,24987	34056
28,25398	34212
28,25812	36598
28,26223	33150
28,26635	33673
28,27047	32678
28,27460	33259
28,27872	33802
28,28283	34188
28,28697	34918
28,29108	34735
28,29520	31598
28,29933	35731
28,30345	34837
28,30757	34306
28,31170	34225
28,31582	33063
28,31993	34918
28,32407	33737
28,32818	32477
28,33230	34213
28,33643	33540
28,34055	33578
28,34467	36227
28,34880	32756
28,35292	34888
28,35703	35330
28,36115	36943
28,36528	38742
28,36940	39278
28,37352	37392
28,37765	38490
28,38177	37461
28,38588	39783
28,39002	41438
28,39413	39565
28,39825	40580
28,40238	38674
28,40650	39558
28,41062	40231
28,41475	41374
28,41887	41235
28,42298	40124
28,42712	39564
28,43123	38624
28,43535	39811
28,43948	38677
28,44360	39092
28,44772	37781
28,45183	37458
28,45597	36641
28,46008	37560
28,46420	35046
28,46833	36678
28,47245	35661
28,47657	35792
28,48070	36482
28,48482	34182
28,48893	35756
28,49307	35438
28,49718	38466
28,50130	33267
28,50543	36584
28,50955	35609
28,51367	35979
28,51780	35114
28,52192	34267
28,52603	35637
28,53017	33427
28,53428	36208
28,53840	36183
28,54252	32765
28,54665	35420
28,55077	35414
28,55488	33382
28,55902	36957
28,56313	35661
28,56725	36274
28,57138	35609
28,57550	34770
28,57962	34474
28,58375	33722
28,58787	36451
28,59198	32987
28,59612	34091
28,60023	35274
28,60435	35014
28,60848	34071
28,61260	33147
28,61672	34436
28,62085	34977
28,62497	35618
28,62908	33941
28,63320	37009
28,63733	35138
28,64145	34883
28,64557	35520
28,64970	32948
28,65382	34413
28,65793	32717
28,66207	33534
28,66618	35094
28,67030	36070
28,67443	34897
28,67855	35895
28,68267	32793
28,68680	35712
28,69092	33900
28,69503	34591
28,69917	31118
28,70328	34193
28,70740	34371
28,71153	33169
28,71565	32798
28,71977	36935
28,72388	34711
28,72802	35951
28,73213	37942
28,73625	36978
28,74038	33236
28,74450	34048
28,74862	33936
28,75275	33406
28,75687	35125
28,76098	35153
28,76512	35117
28,76923	33841
28,77335	35241
28,77748	34873
28,78160	34715
28,78572	33078
28,78985	35204
28,79397	32795
28,79808	35090
28,80222	36293
28,80633	35918
28,81045	35324
28,81457	34461
28,81870	33884
28,82282	34800
28,82693	36263
28,83107	32836
28,83518	34621
28,83930	34128
28,84343	34929
28,84755	32047
28,85167	36471
28,85580	33443
28,85992	31771
28,86403	34434
28,86817	33095
28,87228	35672
28,87640	35635
28,88053	34830
28,88465	33552
28,88877	34391
28,89290	32182
28,89702	35664
28,90113	32623
28,90527	34379
28,90938	31847
28,91350	34053
28,91762	32182
28,92175	34197
28,92587	34045
28,92998	32933
28,93412	33956
28,93823	33510
28,94235	32349
28,94648	31939
28,95060	33032
28,95472	34523
28,95885	34372
28,96297	33434
28,96708	34812
28,97122	37287
28,97533	33798
28,97945	33432
28,98358	31762
28,98770	34059
28,99182	29250
28,99595	31808
29,00007	33517
29,00418	35090
29,00830	34361
29,01243	30871
29,01655	31402
29,02067	33141
29,02480	32839
29,02892	33873
29,03303	33498
29,03717	34299
29,04128	34558
29,04540	32935
29,04953	33188
29,05365	34639
29,05777	35087
29,06190	34047
29,06602	34969
29,07013	31711
29,07427	32572
29,07838	34781
29,08250	31380
29,08663	32125
29,09075	30957
29,09487	33963
29,09898	33237
29,10312	31955
29,10723	31764
29,11135	31700
29,11548	32754
29,11960	33348
29,12372	32475
29,12785	33555
29,13197	33265
29,13608	33299
29,14022	33093
29,14433	32245
29,14845	33375
29,15258	34174
29,15670	33037
29,16082	31416
29,16495	31583
29,16907	32837
29,17318	33423
29,17732	31315
29,18143	32576
29,18555	32552
29,18967	31474
29,19380	32898
29,19792	31863
29,20203	34832
29,20617	33904
29,21028	32664
29,21440	34627
29,21853	33020
29,22265	33990
29,22677	32930
29,23090	33632
29,23502	33699
29,23913	32423
29,24327	35825
29,24738	34908
29,25150	33355
29,25563	33439
29,25975	33346
29,26387	35308
29,26800	35028
29,27212	33757
29,27623	34552
29,28035	33006
29,28448	33723
29,28860	32566
29,29272	33681
29,29685	33876
29,30097	32794
29,30508	31609
29,30922	32898
