D:\MassHunter\GCMS\1\data\Amal\Constant flow\110C\110C_1ml-min_8C-min_3.D Tue Sep 17 15:05:43 2024
Start of data points
5,29107	205400
5,29520	206697
5,29932	195193
5,30343	190115
5,30755	187871
5,31168	184834
5,31580	182365
5,31992	179732
5,32405	175348
5,32817	169892
5,33228	170871
5,33642	165413
5,34053	164869
5,34465	158543
5,34878	160924
5,35290	159428
5,35702	153469
5,36115	149704
5,36527	149733
5,36938	148247
5,37352	148024
5,37763	144784
5,38175	141396
5,38588	144261
5,39000	140925
5,39412	137657
5,39823	136625
5,40237	134996
5,40648	132835
5,41060	132395
5,41473	131642
5,41885	132747
5,42297	129178
5,42710	125396
5,43122	127119
5,43533	124245
5,43947	121874
5,44358	121296
5,44770	120936
5,45183	118889
5,45595	119223
5,46007	120954
5,46420	118938
5,46832	118265
5,47243	113526
5,47657	116137
5,48068	115286
5,48480	114228
5,48892	116984
5,49305	111300
5,49717	110494
5,50128	111380
5,50542	110631
5,50953	108211
5,51365	111766
5,51778	107037
5,52190	108251
5,52602	108577
5,53015	111481
5,53427	110151
5,53838	109481
5,54252	106643
5,54663	110928
5,55075	107024
5,55488	108165
5,55900	106531
5,56312	103526
5,56725	105297
5,57137	104258
5,57548	108923
5,57960	105286
5,58373	103589
5,58785	109153
5,59197	107958
5,59610	108290
5,60022	107522
5,60433	108517
5,60847	110828
5,61258	106057
5,61670	110301
5,62083	108673
5,62495	110805
5,62907	109654
5,63320	110268
5,63732	110226
5,64143	113513
5,64557	114728
5,64968	116812
5,65380	116036
5,65793	115734
5,66205	112233
5,66617	118478
5,67028	117418
5,67442	114213
5,67853	111474
5,68265	116428
5,68678	111717
5,69090	110351
5,69502	112881
5,69915	112678
5,70327	112954
5,70738	111968
5,71152	110430
5,71563	110359
5,71975	108679
5,72388	107500
5,72800	108098
5,73212	109934
5,73625	108319
5,74037	102483
5,74448	103915
5,74862	103002
5,75273	102887
5,75685	101506
5,76097	100256
5,76510	97412
5,76922	99307
5,77333	99987
5,77747	98315
5,78158	99472
5,78570	98119
5,78983	100742
5,79395	109514
5,79807	129391
5,80220	168693
5,80632	237402
5,81043	350540
5,81457	492298
5,81868	659485
5,82280	823363
5,82693	970938
5,83105	1086848
5,83517	1150681
5,83930	1179997
5,84342	1182540
5,84753	1153484
5,85165	1113857
5,85578	1066106
5,85990	1018160
5,86402	975092
5,86815	927461
5,87227	879901
5,87638	848140
5,88052	811465
5,88463	774524
5,88875	734151
5,89288	699432
5,89700	666994
5,90112	643456
5,90525	599034
5,90937	577476
5,91348	543914
5,91762	513503
5,92173	484888
5,92585	462650
5,92998	428436
5,93410	406817
5,93822	370908
5,94233	352290
5,94647	325096
5,95058	302181
5,95470	279102
5,95883	262487
5,96295	243054
5,96707	225715
5,97120	207549
5,97532	195693
5,97943	181494
5,98357	171919
5,98768	161894
5,99180	154196
5,99593	142850
6,00005	139518
6,00417	131215
6,00830	125075
6,01242	117909
6,01653	114811
6,02067	105927
6,02478	104359
6,02890	98801
6,03302	99080
6,03715	94877
6,04127	90968
6,04538	92581
6,04952	86587
6,05363	89012
6,05775	83431
6,06188	81141
6,06600	81197
6,07012	80918
6,07425	78879
6,07837	77582
6,08248	78851
6,08662	76733
6,09073	75721
6,09485	72928
6,09898	73686
6,10310	71389
6,10722	71036
6,11135	71890
6,11547	71179
6,11958	71601
6,12370	70153
6,12783	70625
6,13195	68241
6,13607	68018
6,14020	70191
6,14432	69016
6,14843	69409
6,15257	66479
6,15668	69863
6,16080	68290
6,16493	66725
6,16905	69903
6,17317	66609
6,17730	66864
6,18142	65591
6,18553	66719
6,18967	65843
6,19378	65660
6,19790	64605
6,20203	64900
6,20615	63477
6,21027	63975
6,21438	63866
6,21852	62648
6,22263	65892
6,22675	62356
6,23088	64849
6,23500	62268
6,23912	60368
6,24325	61711
6,24737	60999
6,25148	59933
6,25562	58892
6,25973	61824
6,26385	58140
6,26798	59729
6,27210	58890
6,27622	58469
6,28035	59684
6,28447	58161
6,28858	56827
6,29272	56802
6,29683	57248
6,30095	57618
6,30507	55918
6,30920	54667
6,31332	52399
6,31743	54699
6,32157	55515
6,32568	55727
6,32980	54399
6,33393	54570
6,33805	56789
6,34217	55169
6,34630	55223
6,35042	53363
6,35453	53611
6,35867	52511
6,36278	54167
6,36690	53506
6,37103	53204
6,37515	52276
6,37927	53710
6,38340	51736
6,38752	51708
6,39163	51941
6,39575	53034
6,39988	51686
6,40400	52276
6,40812	51391
6,41225	54448
6,41637	52633
6,42048	54404
6,42462	52979
6,42873	51634
6,43285	52069
6,43698	52747
6,44110	50981
6,44522	52472
6,44935	49894
6,45347	48972
6,45758	50310
6,46172	47601
6,46583	48849
6,46995	48917
6,47408	48448
6,47820	48625
6,48232	45377
6,48645	46715
6,49057	46781
6,49468	47555
6,49880	47008
6,50293	45613
6,50705	45385
6,51117	46103
6,51530	44531
6,51942	44864
6,52353	45423
6,52767	43726
6,53178	45015
6,53590	44979
6,54003	43768
6,54415	45702
6,54827	44212
6,55240	44483
6,55652	44838
6,56063	44303
6,56477	43561
6,56888	43170
6,57300	43439
6,57713	42907
6,58125	42833
6,58537	44379
6,58948	43306
6,59362	44321
6,59773	45257
6,60185	45365
6,60598	45730
6,61010	45033
6,61422	46992
6,61835	45670
6,62247	45952
6,62658	46359
6,63072	48583
6,63483	46424
6,63895	47637
6,64308	45701
6,64720	46326
6,65132	45610
6,65545	46486
6,65957	45367
6,66368	46310
6,66782	46889
6,67193	44130
6,67605	44635
6,68017	42861
6,68430	42983
6,68842	43889
6,69253	41574
6,69667	42874
6,70078	41037
6,70490	40630
6,70903	41301
6,71315	39577
6,71727	41854
6,72140	41040
6,72552	39692
6,72963	42000
6,73377	40547
6,73788	40048
6,74200	39252
6,74613	39473
6,75025	37885
6,75437	41171
6,75850	41302
6,76262	40074
6,76673	40070
6,77085	40173
6,77498	40215
6,77910	39795
6,78322	40666
6,78735	38153
6,79147	39866
6,79558	39241
6,79972	39485
6,80383	39732
6,80795	40259
6,81208	39958
6,81620	40253
6,82032	39073
6,82445	39189
6,82857	40633
6,83268	38498
6,83682	38452
6,84093	37930
6,84505	37501
6,84918	40079
6,85330	38267
6,85742	37628
6,86153	38239
6,86567	37829
6,86978	37228
6,87390	36001
6,87803	37603
6,88215	38287
6,88627	37437
6,89040	34994
6,89452	36810
6,89863	37221
6,90277	35631
6,90688	36888
6,91100	36583
6,91513	35440
6,91925	33944
6,92337	33887
6,92750	34977
6,93162	34435
6,93573	33971
6,93987	34975
6,94398	34561
6,94810	36356
6,95222	34617
6,95635	35733
6,96047	37856
6,96458	37001
6,96872	37207
6,97283	36442
6,97695	35497
6,98108	36678
6,98520	36617
6,98932	36445
6,99345	35475
6,99757	37137
7,00168	35601
7,00582	35126
7,00993	35650
7,01405	36915
7,01818	37026
7,02230	33166
7,02642	36488
7,03055	36232
7,03467	40819
7,03878	46482
7,04290	59851
7,04703	92739
7,05115	147643
7,05527	247713
7,05940	377858
7,06352	561637
7,06763	783533
7,07177	1023060
7,07588	1235694
7,08000	1424020
7,08413	1581709
7,08825	1669379
7,09237	1679626
7,09650	1672337
7,10062	1615378
7,10473	1568986
7,10887	1483418
7,11298	1395341
7,11710	1295370
7,12123	1218108
7,12535	1132289
7,12947	1051525
7,13358	957011
7,13772	875490
7,14183	793028
7,14595	717381
7,15008	652197
7,15420	580852
7,15832	518801
7,16245	450398
7,16657	406460
7,17068	355548
7,17482	319836
7,17893	279076
7,18305	245132
7,18718	217556
7,19130	192153
7,19542	171449
7,19955	154505
7,20367	137751
7,20778	127319
7,21192	114367
7,21603	105725
7,22015	98621
7,22427	90090
7,22840	83039
7,23252	78211
7,23663	71306
7,24077	68904
7,24488	64052
7,24900	62042
7,25313	58987
7,25725	57744
7,26137	56271
7,26550	51680
7,26962	51409
7,27373	50675
7,27787	48799
7,28198	49030
7,28610	46542
7,29023	46648
7,29435	44213
7,29847	45208
7,30260	43292
7,30672	43142
7,31083	42843
7,31495	40653
7,31908	41373
7,32320	40376
7,32732	38366
7,33145	41064
7,33557	39097
7,33968	39239
7,34382	39630
7,34793	39212
7,35205	38548
7,35618	37795
7,36030	38001
7,36442	35381
7,36855	37170
7,37267	34999
7,37678	34146
7,38092	36210
7,38503	36988
7,38915	34759
7,39328	33647
7,39740	33387
7,40152	33361
7,40563	34955
7,40977	33511
7,41388	33336
7,41800	33925
7,42213	33496
7,42625	34030
7,43037	32570
7,43450	34278
7,43862	32735
7,44273	33018
7,44687	34120
7,45098	35087
7,45510	33649
7,45923	34635
7,46335	33521
7,46747	33392
7,47160	32806
7,47572	32508
7,47983	33042
7,48397	33682
7,48808	31708
7,49220	32390
7,49632	32454
7,50045	30930
7,50457	30690
7,50868	32450
7,51282	32170
7,51693	31014
7,52105	30855
7,52518	29095
7,52930	29745
7,53342	29792
7,53755	30354
7,54167	29418
7,54578	31058
7,54992	30341
7,55403	31894
7,55815	29758
7,56228	29079
7,56640	30114
7,57052	29041
7,57465	29207
7,57877	28589
7,58288	27783
7,58700	28276
7,59113	28739
7,59525	28728
7,59937	28849
7,60350	28297
7,60762	27366
7,61173	27254
7,61587	29168
7,61998	26004
7,62410	28255
7,62823	26131
7,63235	26769
7,63647	27701
7,64060	26530
7,64472	29057
7,64883	28416
7,65297	28795
7,65708	27992
7,66120	30608
7,66533	27651
7,66945	28552
7,67357	27329
7,67768	29494
7,68182	27772
7,68593	27282
7,69005	28130
7,69418	27225
7,69830	28639
7,70242	28970
7,70655	27520
7,71067	28002
7,71478	27813
7,71892	26297
7,72303	28160
7,72715	25966
7,73128	25066
7,73540	26539
7,73952	26169
7,74365	26413
7,74777	26502
7,75188	25635
7,75602	25283
7,76013	25766
7,76425	26156
7,76837	25899
7,77250	26718
7,77662	25254
7,78073	24464
7,78487	26006
7,78898	25332
7,79310	27866
7,79723	25501
7,80135	26806
7,80547	29174
7,80960	34883
7,81372	44950
7,81783	67051
7,82197	101256
7,82608	161307
7,83020	245889
7,83433	359909
7,83845	492907
7,84257	626257
7,84670	769869
7,85082	890003
7,85493	965409
7,85905	1014877
7,86318	1032287
7,86730	1012660
7,87142	973303
7,87555	928288
7,87967	867068
7,88378	790050
7,88792	723430
7,89203	658913
7,89615	590095
7,90028	527047
7,90440	458415
7,90852	401108
7,91265	350528
7,91677	301302
7,92088	259900
7,92502	224685
7,92913	197730
7,93325	168934
7,93738	146140
7,94150	130956
7,94562	114226
7,94973	103821
7,95387	90687
7,95798	82093
7,96210	74726
7,96623	67848
7,97035	62509
7,97447	58157
7,97860	56862
7,98272	52410
7,98683	49538
7,99097	47378
7,99508	45252
7,99920	44036
8,00333	42930
8,00745	40754
8,01157	39150
8,01570	38516
8,01982	37022
8,02393	35469
8,02807	35137
8,03218	33387
8,03630	33532
8,04042	33845
8,04455	30644
8,04867	30927
8,05278	32079
8,05692	32243
8,06103	30488
8,06515	31247
8,06928	33234
8,07340	33277
8,07752	31250
8,08165	34174
8,08577	32765
8,08988	31812
8,09402	33417
8,09813	31864
8,10225	31521
8,10638	31256
8,11050	32235
8,11462	31355
8,11875	30429
8,12287	30281
8,12698	30445
8,13112	31773
8,13523	30371
8,13935	29079
8,14347	28947
8,14760	29918
8,15172	31255
8,15583	31439
8,15997	31481
8,16408	31947
8,16820	30494
8,17233	28166
8,17645	29390
8,18057	30284
8,18470	27702
8,18882	27570
8,19293	27663
8,19707	26425
8,20118	25289
8,20530	25432
8,20943	26454
8,21355	24631
8,21767	24358
8,22180	23858
8,22592	24032
8,23003	23475
8,23415	21097
8,23828	23632
8,24240	21797
8,24652	22418
8,25065	24082
8,25477	21671
8,25888	22840
8,26302	22555
8,26713	21990
8,27125	22450
8,27538	21739
8,27950	21901
8,28362	22316
8,28775	22098
8,29187	21602
8,29598	23028
8,30012	21527
8,30423	23041
8,30835	21871
8,31248	21281
8,31660	20190
8,32072	21481
8,32483	21281
8,32897	21226
8,33308	20815
8,33720	21101
8,34133	20718
8,34545	20848
8,34957	21232
8,35370	19337
8,35782	22546
8,36193	21785
8,36607	20986
8,37018	20292
8,37430	20907
8,37843	22735
8,38255	21085
8,38667	20078
8,39080	19577
8,39492	21548
8,39903	20130
8,40317	21435
8,40728	21047
8,41140	19949
8,41552	19531
8,41965	21445
8,42377	20723
8,42788	20565
8,43202	19660
8,43613	20036
8,44025	20180
8,44438	21480
8,44850	20457
8,45262	20168
8,45675	20308
8,46087	19313
8,46498	21123
8,46912	21261
8,47323	20162
8,47735	20530
8,48148	20200
8,48560	19395
8,48972	20852
8,49385	20412
8,49797	19864
8,50208	19758
8,50620	21674
8,51033	20345
8,51445	20197
8,51857	21801
8,52270	22236
8,52682	21967
8,53093	20744
8,53507	22001
8,53918	19618
8,54330	21643
8,54743	20210
8,55155	19679
8,55567	20947
8,55980	20580
8,56392	19739
8,56803	19854
8,57217	19699
8,57628	19198
8,58040	20419
8,58453	20436
8,58865	19168
8,59277	19733
8,59688	19842
8,60102	18251
8,60513	19067
8,60925	20357
8,61338	20036
8,61750	21497
8,62162	19737
8,62575	20334
8,62987	18424
8,63398	21946
8,63812	29112
8,64223	40208
8,64635	63426
8,65048	113894
8,65460	200249
8,65872	338564
8,66285	545290
8,66697	818175
8,67108	1143642
8,67522	1493841
8,67933	1816016
8,68345	2101448
8,68757	2310273
8,69170	2434630
8,69582	2464333
8,69993	2396124
8,70407	2278131
8,70818	2090680
8,71230	1864360
8,71643	1643613
8,72055	1423624
8,72467	1236946
8,72880	1044604
8,73292	882448
8,73703	727328
8,74117	617273
8,74528	510110
8,74940	423479
8,75353	362494
8,75765	302023
8,76177	261327
8,76590	219098
8,77002	185915
8,77413	167731
8,77825	145845
8,78238	132714
8,78650	116199
8,79062	107269
8,79475	93615
8,79887	91546
8,80298	80783
8,80712	76185
8,81123	71195
8,81535	64750
8,81948	62267
8,82360	60803
8,82772	56587
8,83185	53020
8,83597	52115
8,84008	50890
8,84422	47344
8,84833	46192
8,85245	43311
8,85658	43116
8,86070	43581
8,86482	40368
8,86893	39740
8,87307	36802
8,87718	36700
8,88130	35467
8,88543	35135
8,88955	33771
8,89367	32478
8,89780	32303
8,90192	31635
8,90603	31533
8,91017	32939
8,91428	30756
8,91840	29119
8,92253	27961
8,92665	28172
8,93077	30111
8,93490	27986
8,93902	27341
8,94313	28414
8,94727	25197
8,95138	25312
8,95550	25629
8,95962	23813
8,96375	24295
8,96787	24567
8,97198	24456
8,97612	24241
8,98023	24149
8,98435	24708
8,98848	23429
8,99260	23578
8,99672	23132
9,00085	24138
9,00497	23125
9,00908	23655
9,01322	23036
9,01733	23369
9,02145	22369
9,02558	24130
9,02970	21715
9,03382	22284
9,03795	21713
9,04207	20648
9,04618	20078
9,05030	22050
9,05443	20065
9,05855	21198
9,06267	20963
9,06680	19960
9,07092	20526
9,07503	21937
9,07917	20441
9,08328	19142
9,08740	20896
9,09153	18541
9,09565	20152
9,09977	19694
9,10390	19804
9,10802	20733
9,11213	20652
9,11627	19881
9,12038	18738
9,12450	20218
9,12863	20255
9,13275	18291
9,13687	19601
9,14098	19538
9,14512	20272
9,14923	18359
9,15335	19734
9,15748	20511
9,16160	19245
9,16572	18867
9,16985	17625
9,17397	17647
9,17808	19776
9,18222	19697
9,18633	19370
9,19045	19530
9,19458	20482
9,19870	20930
9,20282	21359
9,20695	20685
9,21107	21142
9,21518	21211
9,21932	19907
9,22343	20209
9,22755	20130
9,23167	21862
9,23580	18082
9,23992	18623
9,24403	19669
9,24817	19651
9,25228	19445
9,25640	19827
9,26053	19699
9,26465	18556
9,26877	19535
9,27290	18108
9,27702	19188
9,28113	18325
9,28527	20145
9,28938	20558
9,29350	21010
9,29763	22183
9,30175	22689
9,30587	23713
9,31000	25281
9,31412	27266
9,31823	27609
9,32235	28694
9,32648	28077
9,33060	29168
9,33472	28019
9,33885	28729
9,34297	27522
9,34708	27850
9,35122	26229
9,35533	24255
9,35945	23874
9,36358	24570
9,36770	22791
9,37182	23058
9,37595	21643
9,38007	22857
9,38418	19480
9,38832	20139
9,39243	20287
9,39655	19661
9,40068	18729
9,40480	18472
9,40892	19101
9,41303	17698
9,41717	16990
9,42128	17929
9,42540	16942
9,42953	18080
9,43365	18246
9,43777	17148
9,44190	16160
9,44602	15915
9,45013	16684
9,45427	17297
9,45838	16123
9,46250	16249
9,46663	16783
9,47075	16112
9,47487	15472
9,47900	15479
9,48312	14962
9,48723	16286
9,49137	15771
9,49548	17356
9,49960	17603
9,50372	18493
9,50785	24510
9,51197	35238
9,51608	57673
9,52022	94770
9,52433	159336
9,52845	261104
9,53258	405877
9,53670	585285
9,54082	791345
9,54495	996295
9,54907	1179443
9,55318	1316863
9,55732	1406606
9,56143	1418885
9,56555	1374983
9,56968	1280369
9,57380	1137419
9,57792	990488
9,58205	849104
9,58617	708795
9,59028	584354
9,59440	484035
9,59853	394684
9,60265	319554
9,60677	265322
9,61090	219845
9,61502	185813
9,61913	157122
9,62327	136385
9,62738	115874
9,63150	101176
9,63563	91198
9,63975	80226
9,64387	72443
9,64800	66335
9,65212	58339
9,65623	56626
9,66037	51669
9,66448	47122
9,66860	45126
9,67273	44396
9,67685	39702
9,68097	39496
9,68510	38820
9,68922	36516
9,69333	36873
9,69745	33131
9,70158	33093
9,70570	29947
9,70982	29950
9,71395	26865
9,71807	29359
9,72218	27878
9,72632	26271
9,73043	26339
9,73455	25103
9,73868	25335
9,74280	24633
9,74692	24327
9,75105	23500
9,75517	21949
9,75928	21968
9,76342	22430
9,76753	21679
9,77165	21966
9,77578	20755
9,77990	21202
9,78402	21880
9,78813	19556
9,79227	20762
9,79638	21300
9,80050	20390
9,80463	20377
9,80875	20678
9,81287	18599
9,81700	18538
9,82112	18740
9,82523	17942
9,82937	16670
9,83348	18315
9,83760	18055
9,84173	18016
9,84585	18029
9,84997	16311
9,85410	16967
9,85822	16381
9,86233	17375
9,86647	17121
9,87058	16885
9,87470	15929
9,87882	16662
9,88295	16972
9,88707	16307
9,89118	16193
9,89532	16285
9,89943	16665
9,90355	16012
9,90768	16805
9,91180	16060
9,91592	14530
9,92005	15913
9,92417	16641
9,92828	15479
9,93242	16669
9,93653	17428
9,94065	16067
9,94478	15865
9,94890	16387
9,95302	16460
9,95715	14964
9,96127	16184
9,96538	17303
9,96950	18573
9,97363	18808
9,97775	19091
9,98187	20771
9,98600	20113
9,99012	22476
9,99423	21790
9,99837	21937
10,00248	22332
10,00660	22795
10,01073	22416
10,01485	19920
10,01897	20012
10,02310	18059
10,02722	17612
10,03133	16380
10,03547	16942
10,03958	16510
10,04370	15803
10,04783	14433
10,05195	15631
10,05607	14819
10,06018	14113
10,06432	14169
10,06843	14205
10,07255	15736
10,07668	14814
10,08080	14726
10,08492	13670
10,08905	15019
10,09317	13963
10,09728	14152
10,10142	13914
10,10553	15312
10,10965	14959
10,11378	13534
10,11790	13737
10,12202	15196
10,12615	14848
10,13027	14856
10,13438	14838
10,13852	14387
10,14263	15968
10,14675	15548
10,15087	16135
10,15500	16608
10,15912	17006
10,16323	18845
10,16737	17820
10,17148	19053
10,17560	20730
10,17973	20282
10,18385	19985
10,18797	21519
10,19210	21500
10,19622	20330
10,20033	19883
10,20447	18229
10,20858	19640
10,21270	16333
10,21683	16228
10,22095	17451
10,22507	14568
10,22920	16032
10,23332	16462
10,23743	15534
10,24155	17193
10,24568	15442
10,24980	15947
10,25392	14993
10,25805	15952
10,26217	15194
10,26628	15062
10,27042	13864
10,27453	15007
10,27865	14883
10,28278	14656
10,28690	14508
10,29102	13252
10,29515	13898
10,29927	14862
10,30338	13732
10,30752	14228
10,31163	14156
10,31575	14097
10,31988	13860
10,32400	13850
10,32812	13708
10,33223	13567
10,33637	13853
10,34048	13692
10,34460	12739
10,34873	13188
10,35285	13714
10,35697	12435
10,36110	13212
10,36522	12426
10,36933	13093
10,37347	12487
10,37758	13961
10,38170	17544
10,38583	23432
10,38995	39024
10,39407	74992
10,39820	138586
10,40232	253067
10,40643	436848
10,41057	719088
10,41468	1080542
10,41880	1530251
10,42292	1993312
10,42705	2443644
10,43117	2829677
10,43528	3090880
10,43942	3206440
10,44353	3111289
10,44765	2873115
10,45178	2566789
10,45590	2200055
10,46002	1813929
10,46415	1457103
10,46827	1171929
10,47238	933547
10,47652	754836
10,48063	606004
10,48475	484704
10,48888	403012
10,49300	338214
10,49712	290425
10,50125	247617
10,50537	217737
10,50948	191787
10,51360	168473
10,51773	151402
10,52185	139096
10,52597	120565
10,53010	111688
10,53422	104285
10,53833	96141
10,54247	86837
10,54658	81948
10,55070	74444
10,55483	71217
10,55895	65316
10,56307	59923
10,56720	55340
10,57132	52654
10,57543	51131
10,57957	48529
10,58368	45804
10,58780	42080
10,59193	40719
10,59605	41293
10,60017	38670
10,60428	35449
10,60842	34333
10,61253	33197
10,61665	32455
10,62078	32085
10,62490	31189
10,62902	29931
10,63315	30759
10,63727	28246
10,64138	29816
10,64552	28861
10,64963	29390
10,65375	26768
10,65788	28797
10,66200	27618
10,66612	29336
10,67025	28343
10,67437	30199
10,67848	30305
10,68262	31526
10,68673	29668
10,69085	30100
10,69497	29157
10,69910	31378
10,70322	28386
10,70733	27946
10,71147	25786
10,71558	25128
10,71970	21567
10,72383	23440
10,72795	23469
10,73207	20724
10,73620	21966
10,74032	20394
10,74443	19349
10,74857	18674
10,75268	18320
10,75680	18354
10,76093	18497
10,76505	16968
10,76917	18547
10,77330	19777
10,77742	18437
10,78153	18058
10,78565	16815
10,78978	17543
10,79390	16278
10,79802	16927
10,80215	16364
10,80627	16535
10,81038	15828
10,81452	16534
10,81863	16185
10,82275	16166
10,82688	17047
10,83100	15761
10,83512	16563
10,83925	17058
10,84337	16633
10,84748	17158
10,85162	17861
10,85573	19360
10,85985	19022
10,86398	19372
10,86810	18777
10,87222	19798
10,87633	19387
10,88047	18541
10,88458	17772
10,88870	18975
10,89283	16693
10,89695	15723
10,90107	15946
10,90520	15514
10,90932	15706
10,91343	15889
10,91757	15610
10,92168	15168
10,92580	15157
10,92993	13998
10,93405	15133
10,93817	14561
10,94230	13523
10,94642	14258
10,95053	14946
10,95467	12927
10,95878	14174
10,96290	13632
10,96702	15013
10,97115	12468
10,97527	12309
10,97938	13214
10,98352	14041
10,98763	13001
10,99175	13056
10,99588	12460
11,00000	14042
11,00412	14398
11,00825	13997
11,01237	13572
11,01648	17604
11,02062	21244
11,02473	31481
11,02885	52892
11,03298	92292
11,03710	162632
11,04122	268027
11,04535	429803
11,04947	627137
11,05358	850501
11,05770	1073849
11,06183	1276762
11,06595	1432713
11,07007	1484000
11,07420	1474279
11,07832	1388554
11,08243	1244015
11,08657	1084114
11,09068	916200
11,09480	749754
11,09893	615005
11,10305	491844
11,10717	390089
11,11130	321505
11,11542	266395
11,11953	226280
11,12367	193003
11,12778	169256
11,13190	146949
11,13603	131318
11,14015	118469
11,14427	104737
11,14838	93884
11,15252	83836
11,15663	73684
11,16075	65634
11,16488	60658
11,16900	56753
11,17312	52069
11,17725	48202
11,18137	45655
11,18548	41683
11,18962	39552
11,19373	38119
11,19785	35364
11,20198	35069
11,20610	32635
11,21022	31302
11,21435	31241
11,21847	30585
11,22258	27257
11,22672	24590
11,23083	26141
11,23495	25610
11,23908	25103
11,24320	23672
11,24732	24367
11,25143	24152
11,25557	25342
11,25968	29101
11,26380	35282
11,26793	51002
11,27205	89519
11,27617	155103
11,28030	260089
11,28442	409856
11,28853	621453
11,29267	874782
11,29678	1139420
11,30090	1374646
11,30503	1560417
11,30915	1662143
11,31327	1674726
11,31740	1583084
11,32152	1439911
11,32563	1239950
11,32977	1044451
11,33388	844207
11,33800	679734
11,34212	540855
11,34625	434247
11,35037	344381
11,35448	281791
11,35862	230209
11,36273	188835
11,36685	160893
11,37098	138168
11,37510	122608
11,37922	108407
11,38335	93959
11,38747	86664
11,39158	77499
11,39572	70173
11,39983	64536
11,40395	60016
11,40808	54413
11,41220	51991
11,41632	47950
11,42045	45931
11,42457	42747
11,42868	41392
11,43280	38050
11,43693	34518
11,44105	35044
11,44517	33955
11,44930	31535
11,45342	31145
11,45753	31423
11,46167	28405
11,46578	27361
11,46990	26891
11,47403	26154
11,47815	25797
11,48227	23218
11,48640	25484
11,49052	22732
11,49463	21448
11,49877	22187
11,50288	20893
11,50700	20653
11,51113	20938
11,51525	20734
11,51937	18695
11,52348	20478
11,52762	19890
11,53173	19155
11,53585	18093
11,53998	17307
11,54410	20676
11,54822	15738
11,55235	17474
11,55647	17288
11,56058	15571
11,56472	16809
11,56883	16158
11,57295	15785
11,57708	15427
11,58120	16957
11,58532	15260
11,58945	16744
11,59357	16082
11,59768	16575
11,60182	15964
11,60593	14291
11,61005	14604
11,61417	15031
11,61830	16877
11,62242	13877
11,62653	15185
11,63067	13860
11,63478	14290
11,63890	15762
11,64303	15449
11,64715	14186
11,65127	15058
11,65540	13100
11,65952	14549
11,66363	13489
11,66777	13882
11,67188	15362
11,67600	13576
11,68013	13214
11,68425	12754
11,68837	14204
11,69250	13199
11,69662	13310
11,70073	14339
11,70485	14593
11,70898	12202
11,71310	13729
11,71722	13745
11,72135	14695
11,72547	12457
11,72958	13426
11,73372	14429
11,73783	13367
11,74195	13549
11,74608	15161
11,75020	14429
11,75432	15412
11,75845	14078
11,76257	16338
11,76668	15222
11,77082	14546
11,77493	14941
11,77905	15475
11,78318	13915
11,78730	14834
11,79142	14195
11,79553	13980
11,79967	13771
11,80378	13856
11,80790	14180
11,81203	13307
11,81615	14197
11,82027	14066
11,82440	12523
11,82852	12294
11,83263	11975
11,83677	12002
11,84088	13378
11,84500	12574
11,84913	12300
11,85325	12359
11,85737	11129
11,86150	13075
11,86562	12437
11,86973	13456
11,87387	14616
11,87798	12915
11,88210	13568
11,88622	16756
11,89035	17738
11,89447	26921
11,89858	44513
11,90272	74511
11,90683	134448
11,91095	227882
11,91508	370588
11,91920	562662
11,92332	806275
11,92745	1056473
11,93157	1288419
11,93568	1468154
11,93982	1578521
11,94393	1587811
11,94805	1514085
11,95218	1367014
11,95630	1193907
11,96042	988475
11,96455	813078
11,96867	654129
11,97278	531368
11,97690	418729
11,98103	334001
11,98515	271263
11,98927	228591
11,99340	191895
11,99752	161695
12,00163	140656
12,00577	120298
12,00988	104575
12,01400	96258
12,01813	84605
12,02225	76782
12,02637	70110
12,03050	62344
12,03462	57202
12,03873	54019
12,04287	50052
12,04698	47195
12,05110	44268
12,05523	41634
12,05935	41098
12,06347	38513
12,06758	36267
12,07172	35792
12,07583	32245
12,07995	32741
12,08408	31092
12,08820	29234
12,09232	28819
12,09645	29704
12,10057	28679
12,10468	26790
12,10882	27814
12,11293	28291
12,11705	36215
12,12118	54960
12,12530	94005
12,12942	175263
12,13355	315416
12,13767	560297
12,14178	921583
12,14592	1427712
12,15003	2093122
12,15415	2873250
12,15827	3682221
12,16240	4419401
12,16652	5004125
12,17063	5316212
12,17477	5344730
12,17888	5046749
12,18300	4488761
12,18713	3807578
12,19125	3090731
12,19537	2447158
12,19950	1900892
12,20362	1486556
12,20773	1158898
12,21187	926869
12,21598	757272
12,22010	619775
12,22423	512045
12,22835	440371
12,23247	366658
12,23660	323517
12,24072	282065
12,24483	253136
12,24895	228649
12,25308	199782
12,25720	184187
12,26132	167153
12,26545	151078
12,26957	137650
12,27368	129782
12,27782	116641
12,28193	108992
12,28605	104237
12,29018	95791
12,29430	88927
12,29842	84575
12,30255	79980
12,30667	73482
12,31078	69932
12,31492	69246
12,31903	63078
12,32315	61932
12,32728	58430
12,33140	53394
12,33552	52148
12,33963	48150
12,34377	46673
12,34788	44940
12,35200	44645
12,35613	43672
12,36025	41408
12,36437	41567
12,36850	36562
12,37262	38490
12,37673	37327
12,38087	36162
12,38498	34509
12,38910	34121
12,39323	32322
12,39735	30348
12,40147	31380
12,40560	30049
12,40972	29065
12,41383	28803
12,41797	27452
12,42208	26585
12,42620	26471
12,43032	26305
12,43445	25094
12,43857	23921
12,44268	24263
12,44682	24371
12,45093	24242
12,45505	23516
12,45918	22942
12,46330	23283
12,46742	24396
12,47155	23875
12,47567	22194
12,47978	22395
12,48392	23426
12,48803	22357
12,49215	22225
12,49628	23193
12,50040	21727
12,50452	23973
12,50865	21469
12,51277	21517
12,51688	20893
12,52100	20145
12,52513	19656
12,52925	19102
12,53337	19099
12,53750	17906
12,54162	18496
12,54573	18338
12,54987	16641
12,55398	16203
12,55810	17930
12,56223	17976
12,56635	17926
12,57047	19012
12,57460	17108
12,57872	17913
12,58283	19587
12,58697	18951
12,59108	19646
12,59520	18343
12,59933	19092
12,60345	19646
12,60757	18510
12,61168	18888
12,61582	16476
12,61993	17238
12,62405	18717
12,62818	19600
12,63230	29348
12,63642	45463
12,64055	72118
12,64467	127753
12,64878	219129
12,65292	353645
12,65703	558149
12,66115	795162
12,66528	1059448
12,66940	1313669
12,67352	1527266
12,67765	1636356
12,68177	1639404
12,68588	1573832
12,69002	1432678
12,69413	1227412
12,69825	1028899
12,70237	841955
12,70650	681342
12,71062	534257
12,71473	433357
12,71887	350590
12,72298	285037
12,72710	235115
12,73123	200850
12,73535	170188
12,73947	145808
12,74360	131718
12,74772	114066
12,75183	101676
12,75597	92556
12,76008	85642
12,76420	82111
12,76833	77368
12,77245	75326
12,77657	73892
12,78070	76054
12,78482	71717
12,78893	71851
12,79307	69536
12,79718	68615
12,80130	64796
12,80542	61330
12,80955	58570
12,81367	51754
12,81778	47945
12,82192	47753
12,82603	39986
12,83015	40196
12,83428	36215
12,83840	35506
12,84252	33424
12,84665	32428
12,85077	30501
12,85488	28420
12,85902	30443
12,86313	27609
12,86725	25659
12,87138	23586
12,87550	22174
12,87962	23624
12,88375	24139
12,88787	23484
12,89198	22681
12,89610	23324
12,90023	22277
12,90435	22091
12,90847	20778
12,91260	21125
12,91672	23133
12,92083	19766
12,92497	19743
12,92908	19427
12,93320	19763
12,93733	18321
12,94145	17455
12,94557	18973
12,94970	20843
12,95382	26083
12,95793	40650
12,96207	68917
12,96618	126602
12,97030	215728
12,97443	367722
12,97855	575355
12,98267	836836
12,98678	1143292
12,99092	1450973
12,99503	1705910
12,99915	1859609
13,00328	1895538
13,00740	1797202
13,01152	1625611
13,01565	1407551
13,01977	1168255
13,02388	941323
13,02802	743687
13,03213	597950
13,03625	471290
13,04038	374069
13,04450	311371
13,04862	254571
13,05275	212062
13,05687	181675
13,06098	155653
13,06512	135953
13,06923	119634
13,07335	107580
13,07747	100350
13,08160	85998
13,08572	79128
13,08983	72967
13,09397	68763
13,09808	61511
13,10220	59652
13,10633	54621
13,11045	49755
13,11457	47475
13,11870	45200
13,12282	42520
13,12693	40400
13,13107	39779
13,13518	38314
13,13930	34829
13,14343	33254
13,14755	32205
13,15167	30479
13,15580	29751
13,15992	29593
13,16403	28690
13,16815	28655
13,17228	28032
13,17640	28064
13,18052	25959
13,18465	25952
13,18877	26850
13,19288	24897
13,19702	24987
13,20113	24780
13,20525	25549
13,20938	24046
13,21350	24131
13,21762	22653
13,22175	22121
13,22587	22364
13,22998	20391
13,23412	20896
13,23823	20750
13,24235	19018
13,24648	19108
13,25060	19838
13,25472	17258
13,25883	18362
13,26297	17773
13,26708	16460
13,27120	17639
13,27533	17596
13,27945	16608
13,28357	16835
13,28770	16929
13,29182	16985
13,29593	17123
13,30007	18388
13,30418	18803
13,30830	17007
13,31243	15852
13,31655	17338
13,32067	17537
13,32480	16467
13,32892	17413
13,33303	16976
13,33717	16377
13,34128	16128
13,34540	15389
13,34952	17128
13,35365	15542
13,35777	15197
13,36188	15783
13,36602	16317
13,37013	14443
13,37425	14484
13,37838	14648
13,38250	13781
13,38662	13773
13,39075	13668
13,39487	14244
13,39898	12945
13,40312	13702
13,40723	14563
13,41135	14515
13,41548	13568
13,41960	13578
13,42372	12736
13,42785	13075
13,43197	15421
13,43608	13289
13,44020	15055
13,44433	15786
13,44845	17215
13,45257	20513
13,45670	29986
13,46082	46426
13,46493	79517
13,46907	137736
13,47318	238546
13,47730	404150
13,48143	614248
13,48555	878299
13,48967	1155820
13,49380	1430505
13,49792	1628966
13,50203	1752382
13,50617	1764930
13,51028	1658751
13,51440	1502964
13,51853	1286091
13,52265	1063420
13,52677	865985
13,53088	706129
13,53502	555569
13,53913	441938
13,54325	359941
13,54738	297183
13,55150	242170
13,55562	207552
13,55975	176735
13,56387	152642
13,56798	134444
13,57212	120070
13,57623	106711
13,58035	96686
13,58448	85433
13,58860	76906
13,59272	71305
13,59685	65366
13,60097	63252
13,60508	56084
13,60922	54308
13,61333	51057
13,61745	48095
13,62157	45879
13,62570	42601
13,62982	40491
13,63393	40025
13,63807	37421
13,64218	36282
13,64630	34217
13,65043	31387
13,65455	29666
13,65867	31197
13,66280	30089
13,66692	29110
13,67103	28961
13,67517	25834
13,67928	27500
13,68340	25985
13,68753	25362
13,69165	25066
13,69577	24349
13,69990	23511
13,70402	23375
13,70813	20891
13,71225	21764
13,71638	23242
13,72050	22502
13,72462	21827
13,72875	21134
13,73287	24293
13,73698	27456
13,74112	29474
13,74523	32105
13,74935	37539
13,75348	44100
13,75760	49518
13,76172	58720
13,76585	77681
13,76997	113433
13,77408	180018
13,77822	297781
13,78233	487976
13,78645	783797
13,79058	1195142
13,79470	1716624
13,79882	2336388
13,80293	2938804
13,80707	3472517
13,81118	3855923
13,81530	4059425
13,81943	3960373
13,82355	3625256
13,82767	3189684
13,83180	2651078
13,83592	2153543
13,84003	1704959
13,84417	1340364
13,84828	1058595
13,85240	833165
13,85653	685670
13,86065	559437
13,86477	467223
13,86890	389466
13,87302	341883
13,87713	298452
13,88127	256267
13,88538	225832
13,88950	203577
13,89362	186092
13,89775	166730
13,90187	153641
13,90598	139563
13,91012	129007
13,91423	120421
13,91835	109976
13,92248	102717
13,92660	95826
13,93072	89767
13,93485	84411
13,93897	79974
13,94308	77118
13,94722	72796
13,95133	67273
13,95545	62908
13,95958	58630
13,96370	57567
13,96782	54071
13,97195	53671
13,97607	50978
13,98018	48678
13,98430	47046
13,98843	43182
13,99255	42773
13,99667	40162
14,00080	40822
14,00492	38962
14,00903	39065
14,01317	36886
14,01728	36776
14,02140	32747
14,02553	35079
14,02965	34260
14,03377	34153
14,03790	32976
14,04202	37496
14,04613	50640
14,05027	66135
14,05438	113339
14,05850	186599
14,06263	308584
14,06675	484717
14,07087	736681
14,07498	1015870
14,07912	1323464
14,08323	1588244
14,08735	1791508
14,09148	1873796
14,09560	1858463
14,09972	1743660
14,10385	1549662
14,10797	1335367
14,11208	1102040
14,11622	905016
14,12033	730332
14,12445	580352
14,12858	467821
14,13270	384381
14,13682	321806
14,14095	268912
14,14507	228817
14,14918	195004
14,15332	169857
14,15743	151028
14,16155	135798
14,16567	120984
14,16980	113858
14,17392	100450
14,17803	94426
14,18217	91569
14,18628	92856
14,19040	106513
14,19453	138041
14,19865	210132
14,20277	348118
14,20690	556288
14,21102	881904
14,21513	1318517
14,21927	1837428
14,22338	2418004
14,22750	2996853
14,23163	3465307
14,23575	3785294
14,23987	3849902
14,24400	3658885
14,24812	3333062
14,25223	2863232
14,25635	2360836
14,26048	1915146
14,26460	1523545
14,26872	1222232
14,27285	978984
14,27697	787984
14,28108	642964
14,28522	531239
14,28933	454728
14,29345	385945
14,29758	341347
14,30170	294943
14,30582	260790
14,30995	233121
14,31407	214090
14,31818	190663
14,32232	169609
14,32643	161682
14,33055	149295
14,33468	133676
14,33880	125510
14,34292	120659
14,34705	110889
14,35117	105742
14,35528	96020
14,35940	92206
14,36353	88002
14,36765	84399
14,37177	79231
14,37590	77192
14,38002	72783
14,38413	68318
14,38827	63682
14,39238	61469
14,39650	62360
14,40063	58399
14,40475	53706
14,40887	53764
14,41300	51696
14,41712	47193
14,42123	49002
14,42537	45378
14,42948	44489
14,43360	42969
14,43773	42340
14,44185	40465
14,44597	41860
14,45008	39451
14,45422	36545
14,45833	37206
14,46245	36691
14,46658	37231
14,47070	35753
14,47482	34843
14,47895	35173
14,48307	32829
14,48718	34096
14,49132	32038
14,49543	32967
14,49955	35637
14,50368	43001
14,50780	55421
14,51192	86782
14,51605	143491
14,52017	246523
14,52428	399295
14,52842	609497
14,53253	870976
14,53665	1148967
14,54077	1421290
14,54490	1648236
14,54902	1781862
14,55313	1865673
14,55727	1902507
14,56138	1939118
14,56550	2036023
14,56963	2256527
14,57375	2621694
14,57787	3047962
14,58200	3529689
14,58612	3981766
14,59023	4255013
14,59437	4308246
14,59848	4131575
14,60260	3728756
14,60673	3224846
14,61085	2693439
14,61497	2149716
14,61910	1703957
14,62322	1360976
14,62733	1094377
14,63145	879463
14,63558	733668
14,63970	611816
14,64382	523188
14,64795	448758
14,65207	396530
14,65618	347145
14,66032	309733
14,66443	274200
14,66855	252243
14,67268	224449
14,67680	211523
14,68092	190115
14,68505	178635
14,68917	164781
14,69328	152237
14,69742	141741
14,70153	135980
14,70565	128987
14,70978	122107
14,71390	115531
14,71802	112134
14,72213	104152
14,72627	100263
14,73038	93720
14,73450	90651
14,73863	87149
14,74275	82108
14,74687	81883
14,75100	76675
14,75512	71561
14,75923	68233
14,76337	66872
14,76748	66142
14,77160	65414
14,77573	62578
14,77985	61338
14,78397	61223
14,78810	56769
14,79222	56888
14,79633	53771
14,80047	51483
14,80458	51928
14,80870	49632
14,81282	49312
14,81695	46424
14,82107	45986
14,82518	46422
14,82932	48033
14,83343	54827
14,83755	72663
14,84168	103736
14,84580	167370
14,84992	267807
14,85405	420440
14,85817	622951
14,86228	852522
14,86642	1118877
14,87053	1373697
14,87465	1561295
14,87878	1646788
14,88290	1628237
14,88702	1533552
14,89115	1382490
14,89527	1189754
14,89938	1000161
14,90350	812692
14,90763	665651
14,91175	539914
14,91587	434372
14,92000	359750
14,92412	302684
14,92823	258296
14,93237	220963
14,93648	188280
14,94060	169386
14,94473	146456
14,94885	131750
14,95297	122760
14,95710	110505
14,96122	98978
14,96533	92511
14,96947	91552
14,97358	82555
14,97770	77726
14,98183	75203
14,98595	68287
14,99007	66662
14,99418	68283
14,99832	64305
15,00243	62029
15,00655	58885
15,01068	59017
15,01480	54608
15,01892	53663
15,02305	50912
15,02717	50543
15,03128	48740
15,03542	48120
15,03953	46205
15,04365	46824
15,04778	42007
15,05190	43180
15,05602	39776
15,06015	37640
15,06427	37933
15,06838	35928
15,07252	35899
15,07663	36590
15,08075	36006
15,08487	34969
15,08900	35529
15,09312	31800
15,09723	32963
15,10137	31879
15,10548	32394
15,10960	30270
15,11373	31950
15,11785	31474
15,12197	29900
15,12610	29209
15,13022	27147
15,13433	28676
15,13847	29417
15,14258	26333
15,14670	26073
15,15083	28651
15,15495	26047
15,15907	25111
15,16320	26513
15,16732	26126
15,17143	25582
15,17555	24296
15,17968	24751
15,18380	25006
15,18792	24670
15,19205	25196
15,19617	24159
15,20028	25183
15,20442	24209
15,20853	25539
15,21265	23623
15,21678	23715
15,22090	23566
15,22502	22720
15,22915	22266
15,23327	23167
15,23738	21822
15,24152	22551
15,24563	22902
15,24975	23858
15,25388	23241
15,25800	21656
15,26212	22363
15,26623	21674
15,27037	21867
15,27448	23136
15,27860	22805
15,28273	25635
15,28685	31739
15,29097	47711
15,29510	75662
15,29922	139125
15,30333	259709
15,30747	457016
15,31158	765850
15,31570	1204738
15,31983	1776302
15,32395	2480247
15,32807	3197282
15,33220	3925869
15,33632	4634119
15,34043	5173771
15,34457	5535021
15,34868	5560416
15,35280	5255976
15,35692	4707922
15,36105	4043723
15,36517	3336489
15,36928	2700822
15,37342	2159015
15,37753	1716766
15,38165	1367322
15,38578	1111820
15,38990	915415
15,39402	773565
15,39815	650724
15,40227	570748
15,40638	489811
15,41052	434470
15,41463	383398
15,41875	344654
15,42288	307673
15,42700	281344
15,43112	256322
15,43525	239513
15,43937	217602
15,44348	204056
15,44760	191615
15,45173	175731
15,45585	162668
15,45997	153318
15,46410	142138
15,46822	132504
15,47233	126386
15,47647	121871
15,48058	118076
15,48470	109482
15,48883	105011
15,49295	98718
15,49707	95781
15,50120	94038
15,50532	94523
15,50943	95427
15,51357	93455
15,51768	96303
15,52180	96497
15,52593	101064
15,53005	102476
15,53417	100969
15,53828	101669
15,54242	96614
15,54653	95090
15,55065	88094
15,55478	84937
15,55890	79669
15,56302	74633
15,56715	73291
15,57127	75892
15,57538	89823
15,57952	115446
15,58363	166088
15,58775	252025
15,59188	381881
15,59600	553526
15,60012	768089
15,60425	973514
15,60837	1187201
15,61248	1342250
15,61662	1421047
15,62073	1417986
15,62485	1340794
15,62897	1209238
15,63310	1061270
15,63722	887042
15,64133	731921
15,64547	595885
15,64958	489358
15,65370	397991
15,65783	333951
15,66195	281478
15,66607	239630
15,67020	202918
15,67432	179241
15,67843	160869
15,68257	146827
15,68668	132511
15,69080	124468
15,69493	122383
15,69905	130295
15,70317	159371
15,70730	205036
15,71142	301758
15,71553	454826
15,71965	666858
15,72378	942118
15,72790	1256285
15,73202	1575461
15,73615	1820239
15,74027	2000491
15,74438	2058404
15,74852	2005982
15,75263	1832561
15,75675	1596028
15,76088	1344701
15,76500	1110782
15,76912	910174
15,77325	737821
15,77737	606496
15,78148	504547
15,78562	423112
15,78973	360362
15,79385	310379
15,79798	272914
15,80210	238535
15,80622	217198
15,81033	197971
15,81447	176133
15,81858	164866
15,82270	149080
15,82683	137563
15,83095	127298
15,83507	119691
15,83920	115010
15,84332	107244
15,84743	96835
15,85157	97008
15,85568	91182
15,85980	85556
15,86393	81425
15,86805	77305
15,87217	75164
15,87630	75860
15,88042	74159
15,88453	68215
15,88867	64164
15,89278	65215
15,89690	62927
15,90103	62652
15,90515	60380
15,90927	60248
15,91338	56170
15,91752	53375
15,92163	53492
15,92575	50702
15,92988	50129
15,93400	50293
15,93812	49953
15,94225	47495
15,94637	45930
15,95048	47079
15,95462	46857
15,95873	44136
15,96285	44823
15,96698	43245
15,97110	42509
15,97522	44109
15,97935	39079
15,98347	41115
15,98758	41811
15,99172	38389
15,99583	39365
15,99995	37866
16,00407	38458
16,00820	38646
16,01232	39869
16,01643	44062
16,02057	51152
16,02468	70545
16,02880	104470
16,03293	179979
16,03705	299463
16,04117	488693
16,04530	754760
16,04942	1076484
16,05353	1446031
16,05767	1805074
16,06178	2100008
16,06590	2269203
16,07003	2266467
16,07415	2124023
16,07827	1893084
16,08240	1625831
16,08652	1342834
16,09063	1090319
16,09475	879087
16,09888	716294
16,10300	594776
16,10712	491098
16,11125	417908
16,11537	359588
16,11948	315512
16,12362	273594
16,12773	248142
16,13185	220443
16,13598	200487
16,14010	184269
16,14422	165281
16,14835	154518
16,15247	141135
16,15658	131897
16,16072	125227
16,16483	120521
16,16895	110930
16,17308	106947
16,17720	102271
16,18132	101080
16,18543	94809
16,18957	92332
16,19368	89321
16,19780	85784
16,20193	84982
16,20605	79505
16,21017	74367
16,21430	75250
16,21842	71386
16,22253	69622
16,22667	65987
16,23078	64293
16,23490	61351
16,23903	59437
16,24315	57316
16,24727	58250
16,25140	55439
16,25552	53329
16,25963	53554
16,26377	50803
16,26788	52301
16,27200	50913
16,27612	48390
16,28025	50479
16,28437	48890
16,28848	47931
16,29262	45140
16,29673	45700
16,30085	47794
16,30498	50306
16,30910	59831
16,31322	77589
16,31735	115555
16,32147	182545
16,32558	297948
16,32972	474271
16,33383	700743
16,33795	969966
16,34208	1249006
16,34620	1489436
16,35032	1677621
16,35445	1741689
16,35857	1704570
16,36268	1587963
16,36680	1428390
16,37093	1221700
16,37505	1024641
16,37917	847597
16,38330	702990
16,38742	570512
16,39153	473016
16,39567	393391
16,39978	337507
16,40390	282906
16,40803	246679
16,41215	219920
16,41627	196823
16,42040	180515
16,42452	162989
16,42863	149216
16,43277	138364
16,43688	124856
16,44100	120348
16,44513	113499
16,44925	102303
16,45337	98506
16,45748	93996
16,46162	87372
16,46573	82463
16,46985	81337
16,47398	79292
16,47810	75595
16,48222	73617
16,48635	69586
16,49047	67461
16,49458	68327
16,49872	63510
16,50283	61240
16,50695	60341
16,51108	58687
16,51520	55650
16,51932	58447
16,52345	54384
16,52757	51742
16,53168	54273
16,53582	49632
16,53993	48253
16,54405	47995
16,54817	49270
16,55230	47189
16,55642	46270
16,56053	46904
16,56467	44981
16,56878	44812
16,57290	43038
16,57703	43211
16,58115	42266
16,58527	43995
16,58940	41459
16,59352	40357
16,59763	40454
16,60177	40028
16,60588	38053
16,61000	38047
16,61413	37761
16,61825	37679
16,62237	37591
16,62650	37393
16,63062	38731
16,63473	37609
16,63885	39221
16,64298	34270
16,64710	35956
16,65122	38123
16,65535	37168
16,65947	36133
16,66358	36496
16,66772	35739
16,67183	36121
16,67595	36458
16,68008	38345
16,68420	36970
16,68832	37713
16,69245	37495
16,69657	37157
16,70068	36549
16,70482	32485
16,70893	34432
16,71305	36293
16,71718	41228
16,72130	48216
16,72542	64765
16,72953	100105
16,73367	167008
16,73778	288771
16,74190	489915
16,74603	808953
16,75015	1263958
16,75427	1878661
16,75840	2620038
16,76252	3453733
16,76663	4345450
16,77077	5174760
16,77488	5775191
16,77900	6023811
16,78313	5890081
16,78725	5445450
16,79137	4768021
16,79550	4075804
16,79962	3370534
16,80373	2757411
16,80787	2231325
16,81198	1822430
16,81610	1490246
16,82022	1239381
16,82435	1055071
16,82847	894135
16,83258	773638
16,83672	670691
16,84083	589277
16,84495	530713
16,84908	468784
16,85320	429841
16,85732	391719
16,86145	359267
16,86557	332477
16,86968	310565
16,87382	286117
16,87793	267915
16,88205	245552
16,88618	232378
16,89030	221317
16,89442	208064
16,89855	198179
16,90267	187534
16,90678	176314
16,91090	172870
16,91503	159794
16,91915	158119
16,92327	151389
16,92740	149392
16,93152	138406
16,93563	131329
16,93977	128836
16,94388	124598
16,94800	123324
16,95213	118868
16,95625	114115
16,96037	110657
16,96450	110066
16,96862	104036
16,97273	100595
16,97687	99722
16,98098	97117
16,98510	93765
16,98923	96568
16,99335	91223
16,99747	94684
17,00158	102576
17,00572	118302
17,00983	148524
17,01395	201679
17,01808	292819
17,02220	441579
17,02632	626115
17,03045	863528
17,03457	1118005
17,03868	1345198
17,04282	1517039
17,04693	1618794
17,05105	1625105
17,05518	1526371
17,05930	1389796
17,06342	1219164
17,06755	1054138
17,07167	960776
17,07578	887044
17,07992	885186
17,08403	961187
17,08815	1079816
17,09227	1233466
17,09640	1398146
17,10052	1564629
17,10463	1652240
17,10877	1702260
17,11288	1693076
17,11700	1683716
17,12113	1674919
17,12525	1728625
17,12937	1840798
17,13350	2022294
17,13762	2214005
17,14173	2389774
17,14587	2505507
17,14998	2485453
17,15410	2361572
17,15823	2147157
17,16235	1884496
17,16647	1611998
17,17060	1356398
17,17472	1136882
17,17883	953613
17,18295	792021
17,18708	686188
17,19120	599748
17,19532	525714
17,19945	466428
17,20357	414323
17,20768	379006
17,21182	343449
17,21593	315961
17,22005	292917
17,22418	266389
17,22830	251973
17,23242	231254
17,23655	220255
17,24067	203264
17,24478	194631
17,24892	185965
17,25303	175941
17,25715	166087
17,26128	159788
17,26540	152236
17,26952	149214
17,27363	140829
17,27777	132223
17,28188	130257
17,28600	126239
17,29013	122821
17,29425	117187
17,29837	116535
17,30250	111083
17,30662	106058
17,31073	107949
17,31487	101414
17,31898	97644
17,32310	95721
17,32723	99587
17,33135	90050
17,33547	87707
17,33960	88517
17,34372	85189
17,34783	83401
17,35197	86727
17,35608	79189
17,36020	82819
17,36432	78739
17,36845	75787
17,37257	79189
17,37668	76719
17,38082	79225
17,38493	78933
17,38905	81606
17,39318	85356
17,39730	103060
17,40142	131100
17,40555	186149
17,40967	276159
17,41378	430745
17,41792	663729
17,42203	950539
17,42615	1281598
17,43028	1645067
17,43440	1976097
17,43852	2210339
17,44265	2287022
17,44677	2232855
17,45088	2057206
17,45500	1808387
17,45913	1540101
17,46325	1285077
17,46737	1055592
17,47150	885188
17,47562	734680
17,47973	631064
17,48387	554943
17,48798	477137
17,49210	422917
17,49623	382872
17,50035	341001
17,50447	315467
17,50860	287660
17,51272	266174
17,51683	248301
17,52097	231797
17,52508	208359
17,52920	204683
17,53333	189081
17,53745	182121
17,54157	170189
17,54570	159662
17,54982	155152
17,55393	152014
17,55805	150969
17,56218	144976
17,56630	136681
17,57042	131983
17,57455	129209
17,57867	123369
17,58278	118270
17,58692	113946
17,59103	110239
17,59515	109772
17,59928	105817
17,60340	102347
17,60752	99397
17,61165	97107
17,61577	98974
17,61988	96835
17,62402	96264
17,62813	93276
17,63225	93291
17,63638	89662
17,64050	88522
17,64462	87232
17,64873	84897
17,65287	83960
17,65698	79808
17,66110	83223
17,66523	78417
17,66935	79756
17,67347	81209
17,67760	81892
17,68172	92347
17,68583	110758
17,68997	148976
17,69408	210779
17,69820	325788
17,70233	481537
17,70645	705079
17,71057	973124
17,71470	1247365
17,71882	1510175
17,72293	1710325
17,72707	1811611
17,73118	1807723
17,73530	1704900
17,73942	1537489
17,74355	1338399
17,74767	1140976
17,75178	962447
17,75592	810713
17,76003	690332
17,76415	591745
17,76828	501090
17,77240	448908
17,77652	407296
17,78065	397813
17,78477	414367
17,78888	469003
17,79302	562433
17,79713	680683
17,80125	837204
17,80538	992682
17,80950	1169074
17,81362	1299566
17,81775	1353063
17,82187	1355923
17,82598	1319386
17,83010	1204866
17,83423	1079691
17,83835	956547
17,84247	814935
17,84660	693781
17,85072	590187
17,85483	506380
17,85897	430706
17,86308	381417
17,86720	333886
17,87133	300205
17,87545	266126
17,87957	241596
17,88370	225566
17,88782	206999
17,89193	187747
17,89607	179185
17,90018	162659
17,90430	159073
17,90843	151309
17,91255	144959
17,91667	136966
17,92078	128937
17,92492	128901
17,92903	117952
17,93315	117014
17,93728	109572
17,94140	108780
17,94552	108680
17,94965	102710
17,95377	100404
17,95788	97748
17,96202	94593
17,96613	91701
17,97025	93043
17,97438	92846
17,97850	89397
17,98262	86249
17,98675	86116
17,99087	84274
17,99498	82148
17,99912	81532
18,00323	78058
18,00735	78410
18,01147	77334
18,01560	76850
18,01972	76702
18,02383	76647
18,02797	73609
18,03208	72855
18,03620	71889
18,04033	69123
18,04445	71032
18,04857	69045
18,05270	69632
18,05682	71434
18,06093	77714
18,06507	86595
18,06918	104912
18,07330	138993
18,07743	200608
18,08155	306959
18,08567	463651
18,08980	695526
18,09392	1016028
18,09803	1417271
18,10215	1899802
18,10628	2455999
18,11040	3010322
18,11452	3520207
18,11865	3939560
18,12277	4161206
18,12688	4144020
18,13102	3870528
18,13513	3465310
18,13925	2957623
18,14338	2484298
18,14750	2052532
18,15162	1717617
18,15575	1438624
18,15987	1215386
18,16398	1039953
18,16812	911149
18,17223	794699
18,17635	705476
18,18048	634659
18,18460	577050
18,18872	523315
18,19283	471794
18,19697	445378
18,20108	407144
18,20520	380127
18,20933	352104
18,21345	333170
18,21757	308179
18,22170	292573
18,22582	274612
18,22993	260427
18,23407	249658
18,23818	240151
18,24230	229109
18,24643	217469
18,25055	206286
18,25467	204313
18,25880	193007
18,26292	183555
18,26703	182982
18,27117	173439
18,27528	169482
18,27940	165038
18,28352	158190
18,28765	154638
18,29177	150786
18,29588	143730
18,30002	141952
18,30413	138892
18,30825	135100
18,31238	130268
18,31650	125032
18,32062	125183
18,32475	123324
18,32887	119169
18,33298	118690
18,33712	114296
18,34123	113773
18,34535	112368
18,34948	112887
18,35360	112471
18,35772	109255
18,36185	105514
18,36597	107413
18,37008	103660
18,37420	101363
18,37833	98348
18,38245	99588
18,38657	94760
18,39070	92792
18,39482	93463
18,39893	94230
18,40307	89301
18,40718	91670
18,41130	89037
18,41543	87884
18,41955	88513
18,42367	85910
18,42780	88224
18,43192	84141
18,43603	84338
18,44017	86606
18,44428	92311
18,44840	95940
18,45253	106021
18,45665	129461
18,46077	167798
18,46488	224705
18,46902	326610
18,47313	460038
18,47725	657455
18,48138	882672
18,48550	1161673
18,48962	1421915
18,49375	1638347
18,49787	1806693
18,50198	1867097
18,50612	1855067
18,51023	1730184
18,51435	1581101
18,51848	1413747
18,52260	1236345
18,52672	1057522
18,53085	927125
18,53497	798113
18,53908	697258
18,54322	612259
18,54733	538042
18,55145	485246
18,55557	430646
18,55970	401348
18,56382	365648
18,56793	327227
18,57207	304617
18,57618	286750
18,58030	268725
18,58443	249749
18,58855	238308
18,59267	219040
18,59680	211208
18,60092	203177
18,60503	189628
18,60917	184485
18,61328	176895
18,61740	171434
18,62153	165445
18,62565	154689
18,62977	152995
18,63390	145727
18,63802	144102
18,64213	138665
18,64625	136866
18,65038	133201
18,65450	127047
18,65862	121846
18,66275	118562
18,66687	118731
18,67098	117702
18,67512	111205
18,67923	109595
18,68335	108598
18,68748	106901
18,69160	103888
18,69572	101324
18,69985	102195
18,70397	93709
18,70808	95040
18,71222	96176
18,71633	94711
18,72045	90360
18,72458	91399
18,72870	91133
18,73282	88594
18,73693	86929
18,74107	87505
18,74518	84143
18,74930	86193
18,75343	82300
18,75755	81840
18,76167	82226
18,76580	80157
18,76992	79961
18,77403	78367
18,77817	81429
18,78228	79799
18,78640	78331
18,79053	80187
18,79465	79320
18,79877	80735
18,80290	78121
18,80702	78708
18,81113	80888
18,81527	81707
18,81938	81800
18,82350	79013
18,82762	79300
18,83175	78670
18,83587	78132
18,83998	75432
18,84412	75340
18,84823	72569
18,85235	73630
18,85648	73220
18,86060	71534
18,86472	68506
18,86885	69135
18,87297	66750
18,87708	66710
18,88122	64881
18,88533	64463
18,88945	66998
18,89358	65547
18,89770	65406
18,90182	71542
18,90595	71156
18,91007	78300
18,91418	87177
18,91830	93617
18,92243	102669
18,92655	113148
18,93067	119584
18,93480	132178
18,93892	134190
18,94303	138305
18,94717	138463
18,95128	136007
18,95540	131931
18,95953	122172
18,96365	117358
18,96777	110258
18,97190	103263
18,97602	97298
18,98013	94288
18,98427	82511
18,98838	84805
18,99250	79704
18,99663	76963
19,00075	70616
19,00487	71201
19,00900	69576
19,01312	66413
19,01723	66295
19,02135	66512
19,02548	63047
19,02960	61136
19,03372	59401
19,03785	61663
19,04197	59115
19,04608	60229
19,05022	61261
19,05433	62653
19,05845	60508
19,06258	60022
19,06670	58664
19,07082	60147
19,07495	61341
19,07907	58874
19,08318	59539
19,08732	59064
19,09143	58100
19,09555	56277
19,09968	58589
19,10380	54997
19,10792	56356
19,11203	54585
19,11617	54789
19,12028	56481
19,12440	53699
19,12853	54000
19,13265	54609
19,13677	53382
19,14090	55702
19,14502	53837
19,14913	55776
19,15327	53645
19,15738	53223
19,16150	52971
19,16563	54089
19,16975	54109
19,17387	53968
19,17800	56907
19,18212	52757
19,18623	53930
19,19037	56506
19,19448	53321
19,19860	54883
19,20272	56621
19,20685	54869
19,21097	54148
19,21508	51821
19,21922	54751
19,22333	53926
19,22745	52363
19,23158	53649
19,23570	52319
19,23982	52973
19,24395	54584
19,24807	51729
19,25218	50761
19,25632	50352
19,26043	53191
19,26455	50788
19,26868	49876
19,27280	50714
19,27692	50968
19,28105	50296
19,28517	52067
19,28928	47591
19,29340	50314
19,29753	50226
19,30165	52099
19,30577	50446
19,30990	49495
19,31402	49686
19,31813	48455
19,32227	50380
19,32638	49725
19,33050	48537
19,33463	48863
19,33875	49646
19,34287	49163
19,34700	48797
19,35112	50678
19,35523	50480
19,35937	49366
19,36348	50547
19,36760	50421
19,37173	50123
19,37585	51159
19,37997	46646
19,38408	49066
19,38822	50658
19,39233	48636
19,39645	50857
19,40058	50433
19,40470	49156
19,40882	50242
19,41295	52372
19,41707	49362
19,42118	48810
19,42532	49958
19,42943	49391
19,43355	47545
19,43768	48768
19,44180	47901
19,44592	48969
19,45005	47505
19,45417	47019
19,45828	50026
19,46242	48490
19,46653	45993
19,47065	48993
19,47477	49248
19,47890	48689
19,48302	47415
19,48713	47545
19,49127	47861
19,49538	46501
19,49950	47925
19,50363	48222
19,50775	46544
19,51187	48770
19,51600	46536
19,52012	46263
19,52423	46790
19,52837	49192
19,53248	46407
19,53660	46266
19,54073	48249
19,54485	47575
19,54897	49007
19,55310	48480
19,55722	47357
19,56133	50641
19,56545	45716
19,56958	48078
19,57370	50284
19,57782	50062
19,58195	48069
19,58607	50062
19,59018	54268
19,59432	60141
19,59843	68656
19,60255	82712
19,60668	111236
19,61080	147454
19,61492	202674
19,61905	274489
19,62317	355240
19,62728	462919
19,63142	559524
19,63553	660154
19,63965	742906
19,64378	811213
19,64790	843541
19,65202	848478
19,65613	816411
19,66027	775961
19,66438	725808
19,66850	662238
19,67263	591831
19,67675	531742
19,68087	468943
19,68500	425044
19,68912	375820
19,69323	338986
19,69737	305938
19,70148	283636
19,70560	255966
19,70973	226577
19,71385	212765
19,71797	195630
19,72210	178927
19,72622	170816
19,73033	157044
19,73447	149069
19,73858	141738
19,74270	137573
19,74682	129450
19,75095	121781
19,75507	117710
19,75918	116900
19,76332	109950
19,76743	105468
19,77155	102538
19,77568	98389
19,77980	97225
19,78392	93687
19,78805	92932
19,79217	89324
19,79628	86324
19,80042	83560
19,80453	84257
19,80865	84042
19,81278	82241
19,81690	81053
19,82102	75996
19,82515	76306
19,82927	75161
19,83338	72821
19,83750	72913
19,84163	68558
19,84575	67934
19,84987	69093
19,85400	66257
19,85812	66544
19,86223	67235
19,86637	66465
19,87048	66143
19,87460	63958
19,87873	64960
19,88285	64968
19,88697	63671
19,89110	61644
19,89522	63161
19,89933	62278
19,90347	59641
19,90758	62469
19,91170	60275
19,91583	57602
19,91995	62119
19,92407	60799
19,92818	58747
19,93232	57968
19,93643	57640
19,94055	58722
19,94468	55232
19,94880	55164
19,95292	57940
19,95705	56931
19,96117	51671
19,96528	59127
19,96942	56264
19,97353	55039
19,97765	54747
19,98178	52469
19,98590	55735
19,99002	52875
19,99415	52922
19,99827	54269
20,00238	53005
20,00652	55329
20,01063	52723
20,01475	54013
20,01887	52732
20,02300	51965
20,02712	52013
20,03123	51798
20,03537	49683
20,03948	52075
20,04360	48837
20,04773	53595
20,05185	52841
20,05597	50416
20,06010	50352
20,06422	53158
20,06833	51313
20,07247	52541
20,07658	54136
20,08070	51230
20,08483	53275
20,08895	50442
20,09307	51313
20,09720	52161
20,10132	53369
20,10543	51830
20,10955	51720
20,11368	51386
20,11780	52408
20,12192	49135
