D:\MassHunter\GCMS\1\data\Amal\Constant flow\150C\150C_1ml-min_7C-min_2.D Fri Aug 30 13:53:30 2024
Start of data points
4,94095	633309
4,94508	609164
4,94920	580099
4,95332	548556
4,95745	525753
4,96157	507457
4,96568	487457
4,96982	466855
4,97393	456898
4,97805	436927
4,98218	418856
4,98630	400880
4,99042	388634
4,99455	378339
4,99867	363097
5,00278	349649
5,00690	340598
5,01103	326464
5,01515	315995
5,01927	305375
5,02340	294117
5,02752	287043
5,03163	281998
5,03577	270791
5,03988	261570
5,04400	254109
5,04813	250620
5,05225	239826
5,05637	238901
5,06050	230921
5,06462	224194
5,06873	219630
5,07287	212208
5,07698	208212
5,08110	205073
5,08523	208050
5,08935	212780
5,09347	248030
5,09758	321575
5,10172	454381
5,10583	642591
5,10995	852918
5,11408	1061197
5,11820	1207213
5,12232	1312661
5,12645	1346466
5,13057	1352323
5,13468	1340043
5,13882	1306272
5,14293	1268537
5,14705	1233778
5,15118	1192853
5,15530	1160440
5,15942	1128531
5,16355	1096624
5,16767	1050594
5,17178	1014740
5,17592	984294
5,18003	949374
5,18415	915496
5,18827	879738
5,19240	855608
5,19652	825365
5,20063	787303
5,20477	760364
5,20888	733080
5,21300	707742
5,21713	681679
5,22125	658412
5,22537	630173
5,22950	600487
5,23362	573210
5,23773	555390
5,24187	534820
5,24598	513770
5,25010	492525
5,25423	471041
5,25835	451060
5,26247	426507
5,26660	398194
5,27072	382875
5,27483	356383
5,27895	334792
5,28308	321855
5,28720	294535
5,29132	277342
5,29545	265847
5,29957	244730
5,30368	236770
5,30782	219628
5,31193	209428
5,31605	197456
5,32018	189008
5,32430	183272
5,32842	174918
5,33255	166494
5,33667	156327
5,34078	151947
5,34492	148590
5,34903	142473
5,35315	137976
5,35728	132460
5,36140	131238
5,36552	127121
5,36963	124844
5,37377	119452
5,37788	120090
5,38200	114517
5,38613	113835
5,39025	111430
5,39437	106437
5,39850	107648
5,40262	104896
5,40673	103657
5,41087	105119
5,41498	112100
5,41910	131735
5,42323	165956
5,42735	233678
5,43147	321596
5,43560	423880
5,43972	539228
5,44383	624186
5,44797	687753
5,45208	726051
5,45620	744914
5,46032	735679
5,46445	733354
5,46857	712978
5,47268	697250
5,47682	671060
5,48093	657541
5,48505	637372
5,48918	613929
5,49330	594856
5,49742	575674
5,50155	554806
5,50567	531889
5,50978	526917
5,51392	499352
5,51803	481673
5,52215	475215
5,52628	452430
5,53040	440993
5,53452	417587
5,53865	402619
5,54277	389100
5,54688	376547
5,55102	357673
5,55513	348104
5,55925	336479
5,56337	320926
5,56750	307283
5,57162	285264
5,57573	277886
5,57987	260466
5,58398	251736
5,58810	232371
5,59223	223302
5,59635	205348
5,60047	196563
5,60460	185753
5,60872	171994
5,61283	162732
5,61697	154524
5,62108	147471
5,62520	143465
5,62933	135720
5,63345	126457
5,63757	123299
5,64170	116525
5,64582	113898
5,64993	109585
5,65405	107292
5,65818	104876
5,66230	97583
5,66642	97641
5,67055	92487
5,67467	93711
5,67878	91598
5,68292	88665
5,68703	87964
5,69115	88651
5,69528	84683
5,69940	84302
5,70352	82910
5,70765	79626
5,71177	78976
5,71588	79061
5,72002	78999
5,72413	76395
5,72825	78156
5,73238	78289
5,73650	75310
5,74062	74811
5,74473	76210
5,74887	73333
5,75298	72493
5,75710	74331
5,76123	73973
5,76535	72934
5,76947	71686
5,77360	74206
5,77772	71145
5,78183	72279
5,78597	71625
5,79008	71827
5,79420	71762
5,79833	70623
5,80245	70401
5,80657	72898
5,81070	79510
5,81482	93063
5,81893	126996
5,82307	199230
5,82718	311201
5,83130	484585
5,83542	700859
5,83955	926573
5,84367	1133541
5,84778	1305032
5,85192	1417575
5,85603	1476265
5,86015	1495324
5,86428	1489669
5,86840	1472151
5,87252	1429861
5,87665	1392770
5,88077	1360736
5,88488	1302178
5,88902	1256337
5,89313	1200086
5,89725	1165192
5,90138	1114136
5,90550	1080680
5,90962	1022949
5,91375	996487
5,91787	956215
5,92198	917848
5,92610	879981
5,93023	839183
5,93435	803862
5,93847	761367
5,94260	727360
5,94672	683520
5,95083	638803
5,95497	606621
5,95908	566346
5,96320	516821
5,96733	490133
5,97145	454428
5,97557	414573
5,97970	380332
5,98382	347191
5,98793	315560
5,99207	290996
5,99618	264240
6,00030	239727
6,00443	220688
6,00855	201501
6,01267	189414
6,01678	172365
6,02092	160974
6,02503	148197
6,02915	140726
6,03328	132568
6,03740	122977
6,04152	113796
6,04565	106914
6,04977	103453
6,05388	97364
6,05802	94647
6,06213	88575
6,06625	86505
6,07038	84097
6,07450	81367
6,07862	78730
6,08275	75960
6,08687	72935
6,09098	71645
6,09512	70984
6,09923	67932
6,10335	66459
6,10747	67694
6,11160	66177
6,11572	65787
6,11983	64163
6,12397	64173
6,12808	62881
6,13220	60424
6,13633	63097
6,14045	62851
6,14457	59956
6,14870	60008
6,15282	61255
6,15693	58726
6,16107	57615
6,16518	58441
6,16930	56759
6,17343	58785
6,17755	57763
6,18167	56444
6,18580	55559
6,18992	57297
6,19403	55486
6,19815	57796
6,20228	52641
6,20640	55126
6,21052	53468
6,21465	52827
6,21877	52830
6,22288	54332
6,22702	51882
6,23113	51701
6,23525	51903
6,23938	53004
6,24350	50946
6,24762	51266
6,25175	52270
6,25587	49942
6,25998	53453
6,26412	50061
6,26823	50057
6,27235	50529
6,27648	49331
6,28060	49222
6,28472	52061
6,28883	54483
6,29297	61632
6,29708	77624
6,30120	107871
6,30533	160888
6,30945	246280
6,31357	346633
6,31770	467928
6,32182	573235
6,32593	678495
6,33007	764875
6,33418	818214
6,33830	843624
6,34243	848115
6,34655	843141
6,35067	834235
6,35480	801838
6,35892	789631
6,36303	759636
6,36717	736554
6,37128	710113
6,37540	687383
6,37952	658199
6,38365	629430
6,38777	602633
6,39188	578748
6,39602	553220
6,40013	527041
6,40425	494358
6,40838	459812
6,41250	441580
6,41662	416190
6,42075	389807
6,42487	354405
6,42898	332291
6,43312	305447
6,43723	276577
6,44135	255237
6,44548	225616
6,44960	206111
6,45372	190988
6,45785	173416
6,46197	158219
6,46608	144043
6,47020	133886
6,47433	123451
6,47845	115243
6,48257	106614
6,48670	99284
6,49082	91037
6,49493	88844
6,49907	81936
6,50318	77988
6,50730	73909
6,51143	72553
6,51555	68896
6,51967	64793
6,52380	64677
6,52792	62513
6,53203	60945
6,53617	58176
6,54028	57413
6,54440	55069
6,54853	54954
6,55265	54166
6,55677	53926
6,56088	53918
6,56502	52784
6,56913	50685
6,57325	52173
6,57738	50001
6,58150	50854
6,58562	51147
6,58975	51410
6,59387	52890
6,59798	53049
6,60212	50683
6,60623	50297
6,61035	49479
6,61448	50199
6,61860	50366
6,62272	49381
6,62685	46626
6,63097	48378
6,63508	48540
6,63922	45699
6,64333	46107
6,64745	46164
6,65157	44213
6,65570	47395
6,65982	45437
6,66393	43846
6,66807	43108
6,67218	43312
6,67630	44013
6,68043	43847
6,68455	43398
6,68867	42368
6,69280	43315
6,69692	43370
6,70103	41450
6,70517	41716
6,70928	42280
6,71340	41077
6,71753	42361
6,72165	41756
6,72577	41178
6,72990	41005
6,73402	40761
6,73813	42128
6,74225	38991
6,74638	41382
6,75050	40492
6,75462	40143
6,75875	41565
6,76287	39598
6,76698	42084
6,77112	39875
6,77523	38862
6,77935	41106
6,78348	39879
6,78760	39594
6,79172	41160
6,79585	39985
6,79997	40928
6,80408	42318
6,80822	39802
6,81233	39729
6,81645	41824
6,82058	41552
6,82470	39703
6,82882	40721
6,83293	41434
6,83707	41886
6,84118	44272
6,84530	53049
6,84943	70418
6,85355	110057
6,85767	180507
6,86180	296588
6,86592	465941
6,87003	692411
6,87417	957260
6,87828	1221741
6,88240	1448082
6,88653	1633764
6,89065	1768079
6,89477	1830355
6,89890	1868893
6,90302	1872244
6,90713	1854062
6,91127	1806330
6,91538	1758232
6,91950	1693587
6,92362	1637268
6,92775	1558339
6,93187	1493108
6,93598	1419076
6,94012	1362036
6,94423	1300305
6,94835	1210683
6,95248	1143020
6,95660	1064097
6,96072	977347
6,96485	891646
6,96897	814270
6,97308	736396
6,97722	669636
6,98133	583756
6,98545	522431
6,98958	453729
6,99370	401275
6,99782	345405
7,00195	298853
7,00607	268052
7,01018	236441
7,01430	208765
7,01843	182512
7,02255	165378
7,02667	143992
7,03080	129964
7,03492	117092
7,03903	106662
7,04317	99799
7,04728	91454
7,05140	83950
7,05553	78647
7,05965	73970
7,06377	71570
7,06790	66112
7,07202	64798
7,07613	61217
7,08027	59994
7,08438	56604
7,08850	55186
7,09263	55180
7,09675	52127
7,10087	50491
7,10498	48859
7,10912	48949
7,11323	46437
7,11735	46678
7,12148	46022
7,12560	45919
7,12972	45887
7,13385	43744
7,13797	45126
7,14208	45685
7,14622	47851
7,15033	46836
7,15445	46237
7,15858	48353
7,16270	48921
7,16682	49148
7,17095	47839
7,17507	50062
7,17918	51149
7,18332	48580
7,18743	48566
7,19155	49827
7,19567	48125
7,19980	46871
7,20392	48746
7,20803	48995
7,21217	46270
7,21628	47519
7,22040	45342
7,22453	44697
7,22865	43393
7,23277	43006
7,23690	42795
7,24102	42064
7,24513	42206
7,24927	43630
7,25338	40109
7,25750	40377
7,26163	41007
7,26575	41130
7,26987	42433
7,27400	42674
7,27812	43784
7,28223	44566
7,28637	45348
7,29048	44323
7,29460	41997
7,29872	42774
7,30285	42878
7,30697	43407
7,31108	43338
7,31522	41926
7,31933	41697
7,32345	45668
7,32758	52683
7,33170	60268
7,33582	82790
7,33995	115961
7,34407	173032
7,34818	254875
7,35232	358296
7,35643	478462
7,36055	600899
7,36468	726154
7,36880	821730
7,37292	897885
7,37705	945798
7,38117	956774
7,38528	957479
7,38940	947599
7,39353	919080
7,39765	897819
7,40177	867183
7,40590	840912
7,41002	800632
7,41413	768974
7,41827	718677
7,42238	675720
7,42650	629086
7,43063	584596
7,43475	532938
7,43887	487411
7,44300	445584
7,44712	394996
7,45123	355786
7,45537	315908
7,45948	275707
7,46360	246508
7,46773	220509
7,47185	198438
7,47597	190449
7,48008	198433
7,48422	233695
7,48833	286465
7,49245	373313
7,49658	486631
7,50070	616688
7,50482	747269
7,50895	863193
7,51307	969308
7,51718	1042467
7,52132	1077818
7,52543	1093173
7,52955	1097120
7,53368	1080170
7,53780	1052043
7,54192	1010484
7,54605	980321
7,55017	942123
7,55428	894953
7,55842	857230
7,56253	800122
7,56665	744094
7,57077	690740
7,57490	620840
7,57902	561229
7,58313	499163
7,58727	448068
7,59138	394229
7,59550	345078
7,59963	297646
7,60375	262103
7,60787	229827
7,61200	197792
7,61612	171756
7,62023	147886
7,62437	132264
7,62848	112896
7,63260	104326
7,63673	92844
7,64085	86266
7,64497	79583
7,64910	71994
7,65322	70118
7,65733	66009
7,66145	60599
7,66558	57491
7,66970	53230
7,67382	53507
7,67795	49810
7,68207	48772
7,68618	45819
7,69032	44645
7,69443	45199
7,69855	42221
7,70268	42370
7,70680	41377
7,71092	39793
7,71505	39568
7,71917	39009
7,72328	39173
7,72742	37704
7,73153	38074
7,73565	37517
7,73978	36287
7,74390	37161
7,74802	37102
7,75213	34296
7,75627	33929
7,76038	33235
7,76450	34068
7,76863	33901
7,77275	32537
7,77687	30838
7,78100	32265
7,78512	30543
7,78923	31802
7,79337	29909
7,79748	32389
7,80160	29827
7,80573	30806
7,80985	30697
7,81397	31744
7,81810	31689
7,82222	28841
7,82633	30582
7,83047	29840
7,83458	29463
7,83870	30849
7,84282	28217
7,84695	29364
7,85107	30984
7,85518	30305
7,85932	30422
7,86343	29489
7,86755	26757
7,87168	28208
7,87580	28708
7,87992	28563
7,88405	28022
7,88817	27400
7,89228	27818
7,89642	27453
7,90053	27230
7,90465	27069
7,90878	26893
7,91290	28891
7,91702	26590
7,92115	27889
7,92527	28341
7,92938	27082
7,93350	27352
7,93763	27360
7,94175	27826
7,94587	27739
7,95000	26559
7,95412	28066
7,95823	27453
7,96237	26254
7,96648	26901
7,97060	27548
7,97473	26643
7,97885	26378
7,98297	25619
7,98710	27010
7,99122	27397
7,99533	30384
7,99947	32487
8,00358	45543
8,00770	64281
8,01183	100813
8,01595	151246
8,02007	224835
8,02418	337214
8,02832	464068
8,03243	607330
8,03655	747750
8,04068	876326
8,04480	971598
8,04892	1038938
8,05305	1080440
8,05717	1103149
8,06128	1101168
8,06542	1080636
8,06953	1054186
8,07365	1007208
8,07778	960559
8,08190	899935
8,08602	840657
8,09015	782170
8,09427	712749
8,09838	651487
8,10252	576419
8,10663	514885
8,11075	452278
8,11487	393693
8,11900	335990
8,12312	292133
8,12723	248371
8,13137	212598
8,13548	187510
8,13960	164615
8,14373	142034
8,14785	130115
8,15197	134231
8,15610	151249
8,16022	198201
8,16433	300864
8,16847	461936
8,17258	717990
8,17670	1045117
8,18083	1446731
8,18495	1914831
8,18907	2372241
8,19320	2821639
8,19732	3156128
8,20143	3431410
8,20555	3591200
8,20968	3681858
8,21380	3726791
8,21792	3668023
8,22205	3534912
8,22617	3419077
8,23028	3237301
8,23442	3059930
8,23853	2835734
8,24265	2598305
8,24678	2343387
8,25090	2086555
8,25502	1800346
8,25915	1575024
8,26327	1338983
8,26738	1130528
8,27152	949410
8,27563	804280
8,27975	677503
8,28388	563922
8,28800	479636
8,29212	407170
8,29623	348091
8,30037	300989
8,30448	257279
8,30860	226698
8,31273	202047
8,31685	175358
8,32097	158263
8,32510	143900
8,32922	128100
8,33333	118779
8,33747	112996
8,34158	103827
8,34570	95453
8,34983	88441
8,35395	84769
8,35807	79476
8,36220	77460
8,36632	72442
8,37043	70755
8,37457	67574
8,37868	63850
8,38280	60609
8,38692	57704
8,39105	57797
8,39517	54922
8,39928	52021
8,40342	52311
8,40753	52557
8,41165	47993
8,41578	47236
8,41990	47686
8,42402	46672
8,42815	44675
8,43227	43057
8,43638	42643
8,44052	41545
8,44463	41045
8,44875	40162
8,45288	39955
8,45700	37687
8,46112	37149
8,46525	38094
8,46937	36155
8,47348	38635
8,47760	38951
8,48173	36113
8,48585	36583
8,48997	36056
8,49410	37555
8,49822	36331
8,50233	34045
8,50647	36298
8,51058	37661
8,51470	34455
8,51883	35203
8,52295	33195
8,52707	34583
8,53120	33089
8,53532	33330
8,53943	31416
8,54357	32945
8,54768	32054
8,55180	31871
8,55593	31262
8,56005	30291
8,56417	30584
8,56828	29576
8,57242	28186
8,57653	30210
8,58065	30573
8,58478	30100
8,58890	29059
8,59302	28454
8,59715	29248
8,60127	29485
8,60538	27739
8,60952	29042
8,61363	30398
8,61775	35252
8,62188	37010
8,62600	50589
8,63012	74029
8,63425	111410
8,63837	170353
8,64248	256145
8,64662	378311
8,65073	518242
8,65485	676174
8,65897	833493
8,66310	964997
8,66722	1078710
8,67133	1165767
8,67547	1230302
8,67958	1234251
8,68370	1231977
8,68783	1208728
8,69195	1166964
8,69607	1105056
8,70020	1024657
8,70432	942570
8,70843	851812
8,71257	761215
8,71668	671243
8,72080	586494
8,72493	504053
8,72905	427154
8,73317	363167
8,73730	308501
8,74142	262719
8,74553	220996
8,74965	192138
8,75378	167322
8,75790	150126
8,76202	131092
8,76615	118094
8,77027	105582
8,77438	95648
8,77852	88137
8,78263	81209
8,78675	76360
8,79088	71326
8,79500	65188
8,79912	61281
8,80325	57164
8,80737	52512
8,81148	50159
8,81562	50281
8,81973	50706
8,82385	44976
8,82798	43463
8,83210	41490
8,83622	40832
8,84033	38363
8,84447	37441
8,84858	37634
8,85270	36431
8,85683	36016
8,86095	34049
8,86507	35037
8,86920	35282
8,87332	38606
8,87743	41966
8,88157	52208
8,88568	78394
8,88980	118029
8,89393	186827
8,89805	285367
8,90217	418282
8,90630	577471
8,91042	750199
8,91453	934359
8,91867	1095839
8,92278	1226000
8,92690	1314965
8,93103	1387304
8,93515	1390521
8,93927	1397558
8,94338	1379519
8,94752	1311856
8,95163	1238592
8,95575	1143276
8,95988	1035863
8,96400	933728
8,96812	803933
8,97225	698314
8,97637	600286
8,98048	512324
8,98462	425368
8,98873	357746
8,99285	305201
8,99698	259032
9,00110	219937
9,00522	188161
9,00935	160768
9,01347	142265
9,01758	126874
9,02172	112558
9,02583	102743
9,02995	93771
9,03407	84624
9,03820	75763
9,04232	73078
9,04643	66930
9,05057	63546
9,05468	60430
9,05880	56730
9,06293	53958
9,06705	51324
9,07117	48129
9,07530	47079
9,07942	46619
9,08353	43308
9,08767	40778
9,09178	40805
9,09590	41536
9,10003	39547
9,10415	37087
9,10827	37583
9,11240	35133
9,11652	34254
9,12063	33935
9,12475	33776
9,12888	32651
9,13300	33155
9,13712	32344
9,14125	30738
9,14537	31179
9,14948	31476
9,15362	31306
9,15773	29207
9,16185	29593
9,16598	29437
9,17010	29035
9,17422	29381
9,17835	29023
9,18247	26484
9,18658	26812
9,19072	27811
9,19483	27093
9,19895	25978
9,20308	26713
9,20720	26793
9,21132	25578
9,21543	27452
9,21957	26282
9,22368	26355
9,22780	28120
9,23193	26135
9,23605	24167
9,24017	25812
9,24430	26225
9,24842	25658
9,25253	26161
9,25667	26248
9,26078	25777
9,26490	25410
9,26903	24251
9,27315	26183
9,27727	24983
9,28140	24961
9,28552	25507
9,28963	24297
9,29377	24224
9,29788	23949
9,30200	25049
9,30612	24872
9,31025	23811
9,31437	24174
9,31848	23083
9,32262	21909
9,32673	24122
9,33085	22788
9,33498	23863
9,33910	22769
9,34322	23891
9,34735	23558
9,35147	22137
9,35558	21871
9,35972	24950
9,36383	29195
9,36795	37674
9,37208	51551
9,37620	84494
9,38032	133387
9,38445	211764
9,38857	322224
9,39268	459491
9,39680	621406
9,40093	806195
9,40505	1002255
9,40917	1161702
9,41330	1271681
9,41742	1380049
9,42153	1442035
9,42567	1441554
9,42978	1410310
9,43390	1368539
9,43803	1279404
9,44215	1177603
9,44627	1056841
9,45040	937504
9,45452	807900
9,45863	695930
9,46277	586145
9,46688	485305
9,47100	417107
9,47513	344428
9,47925	292186
9,48337	241961
9,48748	209461
9,49162	174603
9,49573	156633
9,49985	140499
9,50398	122348
9,50810	109605
9,51222	99815
9,51635	88929
9,52047	83173
9,52458	74370
9,52872	69923
9,53283	67139
9,53695	63082
9,54108	60554
9,54520	55344
9,54932	53602
9,55345	49530
9,55757	48243
9,56168	48404
9,56582	43916
9,56993	40432
9,57405	40406
9,57817	37969
9,58230	35801
9,58642	35047
9,59053	36514
9,59467	35613
9,59878	33658
9,60290	32629
9,60703	32135
9,61115	31751
9,61527	31757
9,61940	31460
9,62352	35084
9,62763	40721
9,63177	57467
9,63588	81478
9,64000	144179
9,64413	240391
9,64825	392795
9,65237	620197
9,65650	908827
9,66062	1272321
9,66473	1680569
9,66885	2094682
9,67298	2481488
9,67710	2781853
9,68122	3053422
9,68535	3204627
9,68947	3283541
9,69358	3263083
9,69772	3143412
9,70183	2923167
9,70595	2672565
9,71008	2400414
9,71420	2067956
9,71832	1746843
9,72245	1453367
9,72657	1203036
9,73068	988434
9,73482	820201
9,73893	679142
9,74305	565430
9,74718	478827
9,75130	403041
9,75542	340913
9,75953	296267
9,76367	257804
9,76778	229177
9,77190	202263
9,77603	184512
9,78015	171487
9,78427	149056
9,78840	138730
9,79252	129903
9,79663	120916
9,80077	113985
9,80488	110335
9,80900	105481
9,81313	99180
9,81725	93759
9,82137	89510
9,82550	85735
9,82962	82302
9,83373	81084
9,83787	75062
9,84198	71069
9,84610	72141
9,85022	64736
9,85435	61556
9,85847	61166
9,86258	56899
9,86672	56932
9,87083	53691
9,87495	50068
9,87908	49324
9,88320	45171
9,88732	45322
9,89145	44654
9,89557	44733
9,89968	42929
9,90382	40666
9,90793	41222
9,91205	43300
9,91618	47926
9,92030	63472
9,92442	81044
9,92855	121524
9,93267	189930
9,93678	287947
9,94090	423409
9,94503	587513
9,94915	778141
9,95327	989505
9,95740	1189179
9,96152	1367567
9,96563	1519900
9,96977	1599742
9,97388	1636455
9,97800	1610331
9,98213	1540104
9,98625	1449790
9,99037	1306370
9,99450	1143646
9,99862	992223
10,00273	850416
10,00687	718947
10,01098	607970
10,01510	507281
10,01923	422892
10,02335	352069
10,02747	296480
10,03158	252620
10,03572	216994
10,03983	192679
10,04395	168450
10,04808	151894
10,05220	136944
10,05632	123690
10,06045	113891
10,06457	110130
10,06868	123740
10,07282	147170
10,07693	210132
10,08105	308622
10,08518	465234
10,08930	698220
10,09342	1012214
10,09755	1385264
10,10167	1802019
10,10578	2206989
10,10992	2621385
10,11403	2955817
10,11815	3214317
10,12227	3336461
10,12640	3350248
10,13052	3227813
10,13463	3005800
10,13877	2731155
10,14288	2422726
10,14700	2093591
10,15113	1765292
10,15525	1469590
10,15937	1226701
10,16350	1013683
10,16762	843596
10,17173	696911
10,17587	586017
10,17998	497363
10,18410	422154
10,18823	358037
10,19235	314842
10,19647	274843
10,20060	244940
10,20472	218755
10,20883	196771
10,21295	175465
10,21708	157834
10,22120	150238
10,22532	135132
10,22945	126400
10,23357	118146
10,23768	111216
10,24182	104021
10,24593	95423
10,25005	93135
10,25418	86605
10,25830	81908
10,26242	75921
10,26655	75743
10,27067	71422
10,27478	69766
10,27892	66861
10,28303	63160
10,28715	60837
10,29128	57607
10,29540	55790
10,29952	56420
10,30363	54110
10,30777	51405
10,31188	50008
10,31600	48058
10,32013	45624
10,32425	46356
10,32837	45141
10,33250	43124
10,33662	42998
10,34073	43982
10,34487	43127
10,34898	40105
10,35310	38726
10,35723	38451
10,36135	40502
10,36547	40706
10,36960	38363
10,37372	42017
10,37783	46585
10,38197	58533
10,38608	85254
10,39020	128824
10,39432	200973
10,39845	322832
10,40257	487638
10,40668	717767
10,41082	993676
10,41493	1340545
10,41905	1743671
10,42318	2188879
10,42730	2650092
10,43142	3119567
10,43555	3551016
10,43967	3899284
10,44378	4217725
10,44792	4452851
10,45203	4491874
10,45615	4406379
10,46028	4178640
10,46440	3815117
10,46852	3407676
10,47265	2970699
10,47677	2528787
10,48088	2111773
10,48502	1742956
10,48913	1435948
10,49325	1196333
10,49737	999594
10,50150	827781
10,50562	699275
10,50973	594477
10,51387	517108
10,51798	447980
10,52210	384426
10,52623	339759
10,53035	308546
10,53447	273354
10,53860	247314
10,54272	226384
10,54683	205404
10,55097	187717
10,55508	171657
10,55920	163394
10,56333	148670
10,56745	142452
10,57157	133064
10,57570	127195
10,57982	113697
10,58393	113571
10,58805	105126
10,59218	99993
10,59630	95597
10,60042	91586
10,60455	88864
10,60867	85111
10,61278	82622
10,61692	78197
10,62103	74754
10,62515	75106
10,62928	69590
10,63340	70699
10,63752	66987
10,64165	66460
10,64577	63829
10,64988	63842
10,65402	59562
10,65813	60966
10,66225	57082
10,66638	56722
10,67050	58123
10,67462	55465
10,67873	53576
10,68287	50730
10,68698	53640
10,69110	48042
10,69523	46146
10,69935	44566
10,70347	45035
10,70760	44281
10,71172	42946
10,71583	46056
10,71997	46059
10,72408	50674
10,72820	63204
10,73233	88649
10,73645	131398
10,74057	199721
10,74470	295099
10,74882	434174
10,75293	598052
10,75707	790932
10,76118	987896
10,76530	1183303
10,76942	1368494
10,77355	1475052
10,77767	1540250
10,78178	1546574
10,78592	1469688
10,79003	1365014
10,79415	1216522
10,79828	1070069
10,80240	915607
10,80652	777531
10,81065	652601
10,81477	537903
10,81888	450514
10,82302	373931
10,82713	313302
10,83125	269008
10,83538	230362
10,83950	196433
10,84362	172528
10,84775	154268
10,85187	137914
10,85598	125685
10,86010	113824
10,86423	106207
10,86835	99092
10,87247	90101
10,87660	81973
10,88072	81424
10,88483	77651
10,88897	74023
10,89308	69006
10,89720	65380
10,90133	61967
10,90545	62417
10,90957	55154
10,91370	54715
10,91782	51189
10,92193	49429
10,92607	50042
10,93018	47986
10,93430	47209
10,93843	45071
10,94255	44569
10,94667	39863
10,95078	41929
10,95492	38588
10,95903	36437
10,96315	38021
10,96728	37020
10,97140	37744
10,97552	36355
10,97965	35148
10,98377	35080
10,98788	34321
10,99202	32489
10,99613	32650
11,00025	32561
11,00438	33236
11,00850	32707
11,01262	33480
11,01675	30828
11,02087	30606
11,02498	30917
11,02912	31863
11,03323	30807
11,03735	29735
11,04147	27978
11,04560	29865
11,04972	27716
11,05383	30044
11,05797	27846
11,06208	27251
11,06620	27940
11,07033	28767
11,07445	29420
11,07857	28679
11,08270	28807
11,08682	28233
11,09093	28700
11,09507	28970
11,09918	28338
11,10330	27604
11,10743	29040
11,11155	28185
11,11567	28934
11,11980	31899
11,12392	28696
11,12803	28160
11,13215	28589
11,13628	28991
11,14040	26883
11,14452	26635
11,14865	26069
11,15277	27322
11,15688	29060
11,16102	29225
11,16513	31176
11,16925	40225
11,17338	57621
11,17750	96402
11,18162	164641
11,18575	283826
11,18987	463031
11,19398	736668
11,19812	1111381
11,20223	1578264
11,20635	2128874
11,21048	2709376
11,21460	3299555
11,21872	3811196
11,22283	4243796
11,22697	4488191
11,23108	4585651
11,23520	4502273
11,23933	4320170
11,24345	4036966
11,24757	3689129
11,25170	3310249
11,25582	2945428
11,25993	2570448
11,26407	2218541
11,26818	1911168
11,27230	1621458
11,27643	1369318
11,28055	1152045
11,28467	967903
11,28880	819884
11,29292	696020
11,29703	600104
11,30117	511714
11,30528	450284
11,30940	400061
11,31352	352517
11,31765	310108
11,32177	282389
11,32588	259540
11,33002	233461
11,33413	218421
11,33825	201600
11,34238	185826
11,34650	172826
11,35062	157529
11,35475	150034
11,35887	143695
11,36298	131295
11,36712	126083
11,37123	117471
11,37535	113576
11,37948	106328
11,38360	102408
11,38772	97405
11,39185	95237
11,39597	89667
11,40008	86793
11,40420	85479
11,40833	80239
11,41245	77671
11,41657	74011
11,42070	74593
11,42482	68279
11,42893	67296
11,43307	66829
11,43718	63599
11,44130	63648
11,44543	59879
11,44955	59123
11,45367	58167
11,45780	57905
11,46192	54083
11,46603	55241
11,47017	51790
11,47428	52516
11,47840	53823
11,48253	56055
11,48665	58042
11,49077	65758
11,49488	80865
11,49902	106853
11,50313	147000
11,50725	211618
11,51138	312037
11,51550	445274
11,51962	605848
11,52375	794223
11,52787	987649
11,53198	1159837
11,53612	1294822
11,54023	1386776
11,54435	1404146
11,54848	1378303
11,55260	1306964
11,55672	1189796
11,56085	1048549
11,56497	899088
11,56908	760429
11,57322	638135
11,57733	533901
11,58145	441790
11,58557	371559
11,58970	313955
11,59382	266557
11,59793	232239
11,60207	208939
11,60618	194643
11,61030	191770
11,61443	212937
11,61855	254821
11,62267	337879
11,62680	465918
11,63092	641784
11,63503	855132
11,63917	1105245
11,64328	1357651
11,64740	1598562
11,65153	1762260
11,65565	1829871
11,65977	1846346
11,66390	1759127
11,66802	1605308
11,67213	1432523
11,67625	1252860
11,68038	1069686
11,68450	910346
11,68862	762156
11,69275	635278
11,69687	537513
11,70098	459410
11,70512	397788
11,70923	343331
11,71335	301681
11,71748	263232
11,72160	236719
11,72572	214114
11,72985	192645
11,73397	174514
11,73808	162822
11,74222	147492
11,74633	138483
11,75045	126627
11,75458	123147
11,75870	114367
11,76282	107624
11,76693	102233
11,77107	97522
11,77518	91180
11,77930	85429
11,78343	81959
11,78755	79584
11,79167	74863
11,79580	77410
11,79992	73546
11,80403	67626
11,80817	62829
11,81228	62307
11,81640	59773
11,82053	59482
11,82465	57657
11,82877	55917
11,83290	54430
11,83702	54070
11,84113	50775
11,84527	49608
11,84938	51125
11,85350	49801
11,85762	47639
11,86175	47405
11,86587	46992
11,86998	45357
11,87412	43974
11,87823	42745
11,88235	45443
11,88648	42745
11,89060	43358
11,89472	43707
11,89885	42182
11,90297	39884
11,90708	40499
11,91122	38616
11,91533	37098
11,91945	39484
11,92358	39267
11,92770	37653
11,93182	41157
11,93595	44106
11,94007	49741
11,94418	69982
11,94830	100352
11,95243	160167
11,95655	251437
11,96067	390478
11,96480	578769
11,96892	822486
11,97303	1102605
11,97717	1382912
11,98128	1621625
11,98540	1802102
11,98953	1871185
11,99365	1851321
11,99777	1750774
12,00190	1584692
12,00602	1401564
12,01013	1202134
12,01427	1024890
12,01838	856914
12,02250	723038
12,02663	618076
12,03075	527122
12,03487	452008
12,03898	393042
12,04312	342063
12,04723	303525
12,05135	279479
12,05548	244641
12,05960	221324
12,06372	198084
12,06785	190104
12,07197	168148
12,07608	158730
12,08022	145993
12,08433	135513
12,08845	129984
12,09258	119371
12,09670	111897
12,10082	109232
12,10495	103104
12,10907	100030
12,11318	93197
12,11732	91671
12,12143	87128
12,12555	82507
12,12968	82533
12,13380	81355
12,13792	76885
12,14203	74384
12,14617	71486
12,15028	70088
12,15440	68264
12,15853	66497
12,16265	65716
12,16677	60631
12,17090	61521
12,17502	60465
12,17913	59607
12,18327	56382
12,18738	55249
12,19150	54343
12,19563	52053
12,19975	52317
12,20387	50692
12,20800	49727
12,21212	48792
12,21623	48578
12,22037	48152
12,22448	45245
12,22860	45728
12,23272	45546
12,23685	45443
12,24097	42831
12,24508	41870
12,24922	43576
12,25333	42322
12,25745	44349
12,26158	48854
12,26570	60082
12,26982	82948
12,27395	121523
12,27807	187978
12,28218	283830
12,28632	428826
12,29043	609075
12,29455	835337
12,29868	1069342
12,30280	1282148
12,30692	1471427
12,31105	1576004
12,31517	1614973
12,31928	1581818
12,32340	1478701
12,32753	1328673
12,33165	1156155
12,33577	1006698
12,33990	852475
12,34402	717520
12,34813	599990
12,35227	506860
12,35638	433926
12,36050	367967
12,36463	318661
12,36875	284109
12,37287	247150
12,37700	217096
12,38112	190876
12,38523	176814
12,38937	162844
12,39348	147734
12,39760	136366
12,40173	125739
12,40585	117533
12,40997	111856
12,41408	104542
12,41822	99510
12,42233	92741
12,42645	83507
12,43058	82178
12,43470	79885
12,43882	78919
12,44295	75067
12,44707	73211
12,45118	71002
12,45532	64562
12,45943	65395
12,46355	63448
12,46768	61298
12,47180	57777
12,47592	55327
12,48005	55208
12,48417	54445
12,48828	56595
12,49242	51886
12,49653	51109
12,50065	49469
12,50477	50528
12,50890	48072
12,51302	46747
12,51713	47806
12,52127	46231
12,52538	46690
12,52950	44910
12,53363	45469
12,53775	44454
12,54187	43735
12,54600	42174
12,55012	44739
12,55423	41835
12,55837	41962
12,56248	41102
12,56660	39709
12,57073	37277
12,57485	39102
12,57897	36959
12,58310	37633
12,58722	39921
12,59133	39297
12,59545	36545
12,59958	38072
12,60370	34801
12,60782	37148
12,61195	35199
12,61607	36523
12,62018	37204
12,62432	36779
12,62843	36104
12,63255	36505
12,63668	35993
12,64080	34125
12,64492	34657
12,64905	34977
12,65317	36080
12,65728	32926
12,66142	33426
12,66553	34894
12,66965	31966
12,67378	34094
12,67790	32027
12,68202	35228
12,68613	36466
12,69027	39692
12,69438	45814
12,69850	62013
12,70263	90618
12,70675	141317
12,71087	225907
12,71500	365483
12,71912	557336
12,72323	839268
12,72737	1188493
12,73148	1651547
12,73560	2163848
12,73973	2731265
12,74385	3302059
12,74797	3769574
12,75210	4056356
12,75622	4188770
12,76033	4128684
12,76447	3965109
12,76858	3739571
12,77270	3503168
12,77682	3281011
12,78095	3040717
12,78507	2806010
12,78918	2558028
12,79332	2276865
12,79743	2002617
12,80155	1723207
12,80568	1494283
12,80980	1281322
12,81392	1108693
12,81805	941881
12,82217	815182
12,82628	705292
12,83042	624996
12,83453	553607
12,83865	489055
12,84278	440586
12,84690	397432
12,85102	367914
12,85515	332897
12,85927	309631
12,86338	284393
12,86750	266929
12,87163	247786
12,87575	230732
12,87987	216459
12,88400	205781
12,88812	197236
12,89223	185074
12,89637	175350
12,90048	168771
12,90460	156214
12,90873	150249
12,91285	146745
12,91697	145877
12,92110	132911
12,92522	131072
12,92933	123892
12,93347	121039
12,93758	115229
12,94170	113380
12,94583	111055
12,94995	111655
12,95407	103671
12,95818	103587
12,96232	99589
12,96643	97979
12,97055	95249
12,97468	92771
12,97880	88494
12,98292	90435
12,98705	86116
12,99117	85902
12,99528	84058
12,99942	83234
13,00353	84405
13,00765	80405
13,01178	83321
13,01590	88568
13,02002	97700
13,02415	119220
13,02827	155177
13,03238	219039
13,03652	315004
13,04063	451506
13,04475	627567
13,04887	826381
13,05300	1051469
13,05712	1251288
13,06123	1411512
13,06537	1507394
13,06948	1528575
13,07360	1471789
13,07773	1384379
13,08185	1235614
13,08597	1096669
13,09010	970681
13,09422	866665
13,09833	803531
13,10247	793664
13,10658	836117
13,11070	936006
13,11483	1072025
13,11895	1231134
13,12307	1418055
13,12720	1573596
13,13132	1694576
13,13543	1788004
13,13955	1851290
13,14368	1921896
13,14780	1985564
13,15192	2047129
13,15605	2117000
13,16017	2190191
13,16428	2248214
13,16842	2259199
13,17253	2175714
13,17665	2045502
13,18078	1864143
13,18490	1665628
13,18902	1454196
13,19315	1260258
13,19727	1079403
13,20138	926791
13,20552	810179
13,20963	705735
13,21375	617737
13,21788	553450
13,22200	488780
13,22612	443364
13,23023	404695
13,23437	360642
13,23848	333944
13,24260	304440
13,24673	286520
13,25085	269984
13,25497	252931
13,25910	233495
13,26322	221038
13,26733	210601
13,27147	196058
13,27558	184126
13,27970	173641
13,28383	170115
13,28795	159166
13,29207	154312
13,29620	146386
13,30032	140969
13,30443	135825
13,30857	129841
13,31268	127566
13,31680	119457
13,32092	115713
13,32505	110914
13,32917	106583
13,33328	105505
13,33742	104751
13,34153	100328
13,34565	95197
13,34978	94751
13,35390	91906
13,35802	88885
13,36215	90582
13,36627	85427
13,37038	83808
13,37452	84019
13,37863	82345
13,38275	80649
13,38688	80141
13,39100	74618
13,39512	74486
13,39925	72065
13,40337	70266
13,40748	72290
13,41160	68872
13,41573	70128
13,41985	67964
13,42397	68068
13,42810	72235
13,43222	73209
13,43633	75455
13,44047	88102
13,44458	106378
13,44870	139825
13,45283	188269
13,45695	270723
13,46107	392736
13,46520	549291
13,46932	763416
13,47343	1001580
13,47757	1242965
13,48168	1455849
13,48580	1619652
13,48993	1671563
13,49405	1646165
13,49817	1547629
13,50228	1390389
13,50642	1219187
13,51053	1056181
13,51465	920922
13,51878	791957
13,52290	699166
13,52702	609271
13,53115	536702
13,53527	480112
13,53938	436671
13,54352	393546
13,54763	358130
13,55175	325792
13,55588	306662
13,56000	288197
13,56412	269449
13,56825	249529
13,57237	235027
13,57648	221678
13,58062	211048
13,58473	195112
13,58885	187932
13,59297	179329
13,59710	169213
13,60122	163244
13,60533	156601
13,60947	148723
13,61358	147891
13,61770	143821
13,62183	134357
13,62595	134760
13,63007	129181
13,63420	125888
13,63832	125453
13,64243	117982
13,64657	114691
13,65068	113553
13,65480	108340
13,65893	107641
13,66305	101600
13,66717	102076
13,67130	98276
13,67542	95218
13,67953	93799
13,68365	91286
13,68778	89442
13,69190	89298
13,69602	85695
13,70015	86485
13,70427	84796
13,70838	82492
13,71252	81301
13,71663	77581
13,72075	79120
13,72488	79491
13,72900	73778
13,73312	75586
13,73725	72868
13,74137	75976
13,74548	71515
13,74962	72859
13,75373	79215
13,75785	84193
13,76198	96232
13,76610	122126
13,77022	168220
13,77433	241279
13,77847	354018
13,78258	504109
13,78670	703059
13,79083	923520
13,79495	1155232
13,79907	1338498
13,80320	1480942
13,80732	1531494
13,81143	1513431
13,81557	1432765
13,81968	1311285
13,82380	1157382
13,82793	1003505
13,83205	869088
13,83617	748237
13,84030	650582
13,84442	567487
13,84853	499439
13,85267	438659
13,85678	403156
13,86090	361478
13,86503	348334
13,86915	356585
13,87327	373846
13,87738	426165
13,88152	523433
13,88563	643287
13,88975	784965
13,89388	963837
13,89800	1130564
13,90212	1277712
13,90625	1372519
13,91037	1401255
13,91448	1382989
13,91862	1300296
13,92273	1191027
13,92685	1069498
13,93098	929830
13,93510	803895
13,93922	678885
13,94335	588135
13,94747	504183
13,95158	440029
13,95572	385563
13,95983	335903
13,96395	297756
13,96807	272417
13,97220	244691
13,97632	220612
13,98043	202418
13,98457	190233
13,98868	179051
13,99280	167870
13,99693	156049
14,00105	149697
14,00517	137805
14,00930	131732
14,01342	125140
14,01753	122278
14,02167	116903
14,02578	113586
14,02990	109431
14,03403	106135
14,03815	104230
14,04227	99980
14,04640	96984
14,05052	94252
14,05463	92274
14,05875	91863
14,06288	88314
14,06700	88088
14,07112	86676
14,07525	82041
14,07937	82629
14,08348	83795
14,08762	80265
14,09173	77204
14,09585	77165
14,09998	74178
14,10410	75514
14,10822	75459
14,11235	75151
14,11647	71764
14,12058	72141
14,12472	70543
14,12883	70100
14,13295	70300
14,13708	67458
14,14120	65651
14,14532	64072
14,14943	66114
14,15357	64606
14,15768	65654
14,16180	68752
14,16593	76522
14,17005	86205
14,17417	108167
14,17830	143692
14,18242	200288
14,18653	287356
14,19067	407659
14,19478	595071
14,19890	839673
14,20303	1167637
14,20715	1530428
14,21127	1963519
14,21540	2391660
14,21952	2806132
14,22363	3079767
14,22777	3190995
14,23188	3108754
14,23600	2880455
14,24012	2567759
14,24425	2223286
14,24837	1924324
14,25248	1643210
14,25662	1415911
14,26073	1223856
14,26485	1071953
14,26898	940090
14,27310	839817
14,27722	755575
14,28135	675826
14,28547	614623
14,28958	556458
14,29372	517681
14,29783	478455
14,30195	441270
14,30608	410715
14,31020	380040
14,31432	361625
14,31845	334893
14,32257	320762
14,32668	302581
14,33080	289995
14,33493	272282
14,33905	264132
14,34317	247213
14,34730	233535
14,35142	227527
14,35553	217305
14,35967	208768
14,36378	204552
14,36790	194850
14,37203	188705
14,37615	183867
14,38027	176290
14,38440	173627
14,38852	163876
14,39263	165104
14,39677	156083
14,40088	157258
14,40500	146967
14,40913	140520
14,41325	144043
14,41737	140659
14,42148	137623
14,42562	133251
14,42973	130475
14,43385	127410
14,43798	128146
14,44210	123861
14,44622	120496
14,45035	119684
14,45447	121446
14,45858	116025
14,46272	114845
14,46683	113447
14,47095	110633
14,47508	108285
14,47920	106735
14,48332	105715
14,48745	104205
14,49157	103706
14,49568	102834
14,49982	100246
14,50393	98584
14,50805	95778
14,51217	96105
14,51630	94253
14,52042	91329
14,52453	89149
14,52867	93102
14,53278	88485
14,53690	91082
14,54103	89875
14,54515	87515
14,54927	87201
14,55340	84776
14,55752	83905
14,56163	83458
14,56577	86262
14,56988	84790
14,57400	87811
14,57813	95456
14,58225	105435
14,58637	127329
14,59050	160277
14,59462	215024
14,59873	295111
14,60285	399940
14,60698	538313
14,61110	714442
14,61522	899144
14,61935	1088477
14,62347	1249539
14,62758	1361840
14,63172	1402892
14,63583	1395478
14,63995	1328949
14,64408	1239408
14,64820	1121231
14,65232	1006249
14,65645	895767
14,66057	788155
14,66468	707843
14,66882	632934
14,67293	563421
14,67705	519682
14,68118	466716
14,68530	423577
14,68942	395092
14,69353	359647
14,69767	333588
14,70178	308560
14,70590	292390
14,71003	281476
14,71415	264992
14,71827	249994
14,72240	236409
14,72652	224132
14,73063	214828
14,73477	203987
14,73888	198329
14,74300	189145
14,74713	177582
14,75125	172104
14,75537	169173
14,75950	160817
14,76362	155382
14,76773	153325
14,77187	147426
14,77598	143778
14,78010	138756
14,78422	136058
14,78835	132276
14,79247	128047
14,79658	129433
14,80072	123899
14,80483	121081
14,80895	117096
14,81308	116097
14,81720	114217
14,82132	113901
14,82545	109651
14,82957	109275
14,83368	105807
14,83782	103276
14,84193	103089
14,84605	102125
14,85018	99485
14,85430	98982
14,85842	97063
14,86255	94811
14,86667	92898
14,87078	93694
14,87490	90711
14,87903	91036
14,88315	89623
14,88727	87269
14,89140	88037
14,89552	85175
14,89963	85755
14,90377	85632
14,90788	82655
14,91200	82101
14,91613	82791
14,92025	82613
14,92437	80664
14,92850	84111
14,93262	81209
14,93673	79903
14,94087	80942
14,94498	80643
14,94910	81432
14,95323	80132
14,95735	77811
14,96147	74752
14,96558	77335
14,96972	79177
14,97383	77332
14,97795	74838
14,98208	73788
14,98620	73494
14,99032	74011
14,99445	70963
14,99857	72110
15,00268	67381
15,00682	71371
15,01093	65621
15,01505	70195
15,01918	70189
15,02330	69591
15,02742	69518
15,03155	68034
15,03567	73198
15,03978	76743
15,04392	81519
15,04803	84893
15,05215	98925
15,05627	105745
15,06040	116821
15,06452	125990
15,06863	135859
15,07277	142929
15,07688	148046
15,08100	152219
15,08513	148910
15,08925	146861
15,09337	142743
15,09750	134988
15,10162	122859
15,10573	119714
15,10987	107930
15,11398	101026
15,11810	93973
15,12223	90444
15,12635	83029
15,13047	84192
15,13460	77712
15,13872	76701
15,14283	75800
15,14695	68357
15,15108	68595
15,15520	68613
15,15932	66472
15,16345	66216
15,16757	64188
15,17168	62345
15,17582	63791
15,17993	63196
15,18405	61284
15,18818	62409
15,19230	62503
15,19642	61030
15,20055	60966
15,20467	59826
15,20878	60472
15,21292	58852
15,21703	57430
15,22115	57028
15,22528	60901
15,22940	58981
15,23352	60107
15,23763	59167
15,24177	59950
15,24588	58899
15,25000	54588
15,25413	60969
15,25825	56869
15,26237	56344
15,26650	55821
15,27062	57465
15,27473	56861
15,27887	54631
15,28298	55892
15,28710	55619
15,29123	55199
15,29535	56884
15,29947	56043
15,30360	57288
15,30772	55955
15,31183	56989
15,31597	56269
15,32008	56758
15,32420	53087
15,32832	54289
15,33245	55661
15,33657	56087
15,34068	54095
15,34482	57444
15,34893	60811
15,35305	55479
15,35718	53947
15,36130	57518
15,36542	54672
15,36955	52662
15,37367	54824
15,37778	54296
15,38192	55460
15,38603	56583
15,39015	56300
15,39428	52439
15,39840	54200
15,40252	56722
15,40665	53809
15,41077	51468
15,41488	52339
15,41902	52212
15,42313	51864
15,42725	53163
15,43137	55403
15,43550	54991
15,43962	51529
15,44373	53015
15,44787	50802
15,45198	51082
15,45610	51131
15,46023	52241
15,46435	51675
15,46847	51132
15,47260	54044
15,47672	54257
15,48083	53757
15,48497	52645
15,48908	54366
15,49320	50011
15,49733	51158
15,50145	51468
15,50557	51492
15,50970	52151
15,51382	52442
15,51793	51956
15,52205	52460
15,52618	52737
15,53030	55980
15,53442	57576
15,53855	52796
15,54267	52304
15,54678	51768
15,55092	54774
15,55503	54063
15,55915	54036
15,56328	51731
15,56740	51941
15,57152	54969
15,57565	51650
15,57977	53021
15,58388	51452
15,58802	52026
15,59213	50658
15,59625	50276
15,60038	50180
15,60450	53049
15,60862	51454
15,61273	50318
15,61687	50392
15,62098	49586
15,62510	49385
15,62923	54339
15,63335	52203
15,63747	51800
15,64160	47720
15,64572	50117
15,64983	49513
15,65397	52282
15,65808	49861
15,66220	51043
15,66633	51998
15,67045	52828
15,67457	49697
15,67870	49405
15,68282	51094
15,68693	51702
15,69107	48783
15,69518	50457
15,69930	48038
15,70342	49198
15,70755	51512
15,71167	49083
15,71578	50205
15,71992	50820
15,72403	51623
15,72815	50255
15,73228	49330
15,73640	50604
15,74052	52742
15,74465	50883
15,74877	53993
15,75288	50916
15,75702	52492
15,76113	52801
15,76525	56984
15,76938	59507
15,77350	68102
15,77762	81845
15,78175	100952
15,78587	136236
15,78998	175376
15,79410	237188
15,79823	316346
15,80235	405051
15,80647	509280
15,81060	611878
15,81472	701955
15,81883	768559
15,82297	840394
15,82708	854681
15,83120	840566
15,83533	812296
15,83945	754456
15,84357	699757
15,84770	638003
15,85182	570899
15,85593	517966
15,86007	457837
15,86418	405522
15,86830	368255
15,87243	332347
15,87655	305183
15,88067	274792
15,88478	249857
15,88892	228485
15,89303	206861
15,89715	199774
15,90128	184242
15,90540	169668
15,90952	158715
15,91365	151584
15,91777	141673
15,92188	136489
15,92602	132454
15,93013	124346
15,93425	121645
15,93838	116124
15,94250	115062
15,94662	111121
15,95075	106903
15,95487	103295
15,95898	101971
15,96312	98081
15,96723	93721
15,97135	95151
15,97547	90289
15,97960	91295
15,98372	89296
15,98783	83748
15,99197	84504
15,99608	78985
16,00020	81355
16,00433	77903
16,00845	81479
16,01257	78330
16,01670	79126
16,02082	75189
16,02493	72407
16,02907	73839
16,03318	74988
16,03730	71185
16,04143	73155
16,04555	69716
16,04967	70505
16,05380	66675
16,05792	71521
16,06203	68741
16,06615	66082
16,07028	66769
16,07440	67837
16,07852	65358
16,08265	64473
16,08677	65812
16,09088	64964
16,09502	64484
16,09913	59628
16,10325	64462
16,10738	60544
16,11150	62400
16,11562	62867
16,11975	58697
16,12387	60510
16,12798	58636
16,13212	60170
16,13623	58407
16,14035	58611
16,14448	58679
16,14860	58637
16,15272	59693
16,15683	59768
16,16097	57766
16,16508	58497
16,16920	60318
16,17333	58756
16,17745	58999
16,18157	58118
16,18570	56999
16,18982	56200
16,19393	57121
16,19807	56441
16,20218	54291
16,20630	58903
16,21043	57066
16,21455	56473
16,21867	55478
16,22280	58044
16,22692	55707
16,23103	53469
16,23517	56788
16,23928	55936
16,24340	54622
16,24752	55103
16,25165	55253
16,25577	54788
16,25988	55110
16,26402	54209
16,26813	57362
16,27225	57044
