D:\MassHunter\GCMS\1\data\Amal\Constant flow\150C\150C_1ml-min_3C-min_3.D Thu Sep 12 18:36:48 2024
Start of data points
4,99100	748460
4,99512	714336
4,99925	679654
5,00337	647570
5,00748	621215
5,01162	596649
5,01573	565707
5,01985	545449
5,02398	520078
5,02810	503105
5,03222	480541
5,03635	457769
5,04047	440803
5,04458	422725
5,04872	409872
5,05283	394111
5,05695	382353
5,06107	369362
5,06520	356154
5,06932	340845
5,07343	330683
5,07757	320180
5,08168	311973
5,08580	300432
5,08993	294311
5,09405	282760
5,09817	273133
5,10230	268344
5,10642	259458
5,11053	251088
5,11467	242282
5,11878	239087
5,12290	228474
5,12703	228553
5,13115	225282
5,13527	214811
5,13940	210897
5,14352	207631
5,14763	203226
5,15175	199661
5,15588	191507
5,16000	192194
5,16412	191497
5,16825	182993
5,17237	178788
5,17648	181127
5,18062	175991
5,18473	170259
5,18885	168972
5,19298	166876
5,19710	167717
5,20122	165759
5,20535	160445
5,20947	158338
5,21358	156567
5,21772	155040
5,22183	150603
5,22595	150650
5,23008	153096
5,23420	149409
5,23832	146465
5,24243	146374
5,24657	141613
5,25068	140093
5,25480	143411
5,25893	140072
5,26305	141310
5,26717	136894
5,27130	134520
5,27542	133445
5,27953	134420
5,28367	131397
5,28778	131779
5,29190	133238
5,29603	130283
5,30015	131646
5,30427	128486
5,30840	127668
5,31252	125957
5,31663	126541
5,32077	125309
5,32488	124524
5,32900	126747
5,33312	125356
5,33725	124658
5,34137	124121
5,34548	123921
5,34962	122026
5,35373	121072
5,35785	120423
5,36198	122884
5,36610	120747
5,37022	117920
5,37435	119839
5,37847	116872
5,38258	120718
5,38672	118962
5,39083	117194
5,39495	117065
5,39908	114728
5,40320	113338
5,40732	113749
5,41145	114337
5,41557	114646
5,41968	117480
5,42380	119240
5,42793	132266
5,43205	161722
5,43617	212636
5,44030	301464
5,44442	426033
5,44853	587306
5,45267	757093
5,45678	921544
5,46090	1063186
5,46503	1161774
5,46915	1228207
5,47327	1264502
5,47740	1285626
5,48152	1276361
5,48563	1258767
5,48977	1247969
5,49388	1225450
5,49800	1191037
5,50213	1162846
5,50625	1135669
5,51037	1104873
5,51448	1073506
5,51862	1047119
5,52273	1019468
5,52685	984849
5,53098	960746
5,53510	928372
5,53922	901973
5,54335	869130
5,54747	846677
5,55158	822489
5,55572	780046
5,55983	772338
5,56395	740899
5,56808	708953
5,57220	690200
5,57632	666991
5,58045	649596
5,58457	621434
5,58868	594058
5,59282	574860
5,59693	558119
5,60105	525821
5,60517	499644
5,60930	478182
5,61342	457313
5,61753	433679
5,62167	407803
5,62578	390067
5,62990	365494
5,63403	339688
5,63815	323841
5,64227	307050
5,64640	285861
5,65052	275076
5,65463	261067
5,65877	242118
5,66288	229858
5,66700	214752
5,67113	209250
5,67525	198047
5,67937	183378
5,68350	179001
5,68762	169279
5,69173	165022
5,69585	157826
5,69998	154041
5,70410	148360
5,70822	141965
5,71235	134022
5,71647	131540
5,72058	128787
5,72472	122363
5,72883	122080
5,73295	117584
5,73708	118815
5,74120	113664
5,74532	110257
5,74945	105832
5,75357	107095
5,75768	106935
5,76182	101573
5,76593	101076
5,77005	97165
5,77418	97777
5,77830	98029
5,78242	97230
5,78655	96570
5,79067	94931
5,79478	92883
5,79890	90572
5,80303	90159
5,80715	90410
5,81127	89903
5,81540	89758
5,81952	89910
5,82363	88826
5,82777	88283
5,83188	86535
5,83600	90590
5,84013	88293
5,84425	87010
5,84837	87833
5,85250	86747
5,85662	85446
5,86073	88190
5,86487	83312
5,86898	84832
5,87310	84515
5,87723	83825
5,88135	82960
5,88547	82682
5,88958	84834
5,89372	83158
5,89783	85005
5,90195	86218
5,90608	88442
5,91020	96313
5,91432	111607
5,91845	137821
5,92257	177165
5,92668	229209
5,93082	301384
5,93493	378189
5,93905	461760
5,94318	526067
5,94730	583390
5,95142	632892
5,95555	666392
5,95967	683858
5,96378	691222
5,96792	694286
5,97203	691171
5,97615	681774
5,98027	673468
5,98440	657536
5,98852	636153
5,99263	623487
5,99677	606793
6,00088	593389
6,00500	577481
6,00913	562134
6,01325	548778
6,01737	534090
6,02150	514508
6,02562	501311
6,02973	487427
6,03387	477984
6,03798	458531
6,04210	442617
6,04623	430503
6,05035	417937
6,05447	403781
6,05860	385620
6,06272	380065
6,06683	362090
6,07095	345135
6,07508	332828
6,07920	320431
6,08332	304853
6,08745	293134
6,09157	275385
6,09568	262821
6,09982	251021
6,10393	238646
6,10805	222305
6,11218	208171
6,11630	199521
6,12042	190726
6,12455	177404
6,12867	168942
6,13278	158549
6,13692	148011
6,14103	143556
6,14515	134386
6,14928	131594
6,15340	125440
6,15752	118654
6,16163	113882
6,16577	110828
6,16988	108969
6,17400	104558
6,17813	101761
6,18225	96111
6,18637	93991
6,19050	92270
6,19462	89177
6,19873	89053
6,20287	83950
6,20698	82742
6,21110	81675
6,21523	80213
6,21935	79528
6,22347	76913
6,22760	76909
6,23172	75462
6,23583	74506
6,23997	73730
6,24408	72948
6,24820	72082
6,25232	72716
6,25645	71329
6,26057	70486
6,26468	70964
6,26882	69233
6,27293	69710
6,27705	68070
6,28118	65967
6,28530	69756
6,28942	66744
6,29355	62264
6,29767	66018
6,30178	64019
6,30592	63594
6,31003	63650
6,31415	62382
6,31828	62366
6,32240	60976
6,32652	63783
6,33065	63008
6,33477	62250
6,33888	61645
6,34300	62474
6,34713	62425
6,35125	60952
6,35537	60974
6,35950	64011
6,36362	62532
6,36773	60503
6,37187	60283
6,37598	58748
6,38010	61174
6,38423	60403
6,38835	59994
6,39247	60596
6,39660	59667
6,40072	57832
6,40483	58382
6,40897	58449
6,41308	58546
6,41720	56188
6,42133	57709
6,42545	55819
6,42957	57063
6,43368	57054
6,43782	55392
6,44193	56403
6,44605	55546
6,45018	55679
6,45430	56231
6,45842	56316
6,46255	54344
6,46667	55501
6,47078	56828
6,47492	54779
6,47903	55642
6,48315	53856
6,48728	53977
6,49140	54421
6,49552	51286
6,49965	56518
6,50377	56075
6,50788	54054
6,51202	54319
6,51613	56307
6,52025	55341
6,52437	63915
6,52850	74294
6,53262	96879
6,53673	133746
6,54087	191839
6,54498	270450
6,54910	380327
6,55323	518129
6,55735	667023
6,56147	819173
6,56560	957373
6,56972	1077612
6,57383	1184572
6,57797	1260017
6,58208	1318702
6,58620	1343868
6,59033	1358769
6,59445	1345305
6,59857	1338636
6,60270	1318581
6,60682	1291652
6,61093	1265083
6,61505	1240376
6,61918	1221565
6,62330	1176427
6,62742	1150641
6,63155	1125921
6,63567	1092289
6,63978	1063455
6,64392	1031295
6,64803	998492
6,65215	986790
6,65628	943911
6,66040	914036
6,66452	882530
6,66865	850196
6,67277	810405
6,67688	787508
6,68102	757024
6,68513	719073
6,68925	685493
6,69338	646142
6,69750	615943
6,70162	580242
6,70573	551710
6,70987	511150
6,71398	470511
6,71810	440261
6,72223	413488
6,72635	382559
6,73047	348766
6,73460	324282
6,73872	298801
6,74283	274508
6,74697	256722
6,75108	236856
6,75520	217143
6,75933	210129
6,76345	188380
6,76757	179371
6,77170	162541
6,77582	152957
6,77993	145992
6,78407	133385
6,78818	124238
6,79230	119072
6,79642	114785
6,80055	109842
6,80467	106297
6,80878	100808
6,81292	92843
6,81703	87833
6,82115	89287
6,82528	84872
6,82940	80743
6,83352	76426
6,83765	76769
6,84177	73539
6,84588	70856
6,85002	69487
6,85413	68989
6,85825	66554
6,86238	63848
6,86650	64002
6,87062	60431
6,87475	62330
6,87887	59505
6,88298	57498
6,88710	60702
6,89123	59471
6,89535	56851
6,89947	56247
6,90360	56563
6,90772	55660
6,91183	53527
6,91597	54480
6,92008	52755
6,92420	51220
6,92833	54222
6,93245	52828
6,93657	51559
6,94070	50862
6,94482	49004
6,94893	51401
6,95307	50777
6,95718	51382
6,96130	50048
6,96543	49926
6,96955	48538
6,97367	49618
6,97778	47296
6,98192	46152
6,98603	48311
6,99015	46662
6,99428	49182
6,99840	43475
7,00252	46459
7,00665	46349
7,01077	45518
7,01488	44735
7,01902	44709
7,02313	44773
7,02725	44014
7,03138	45994
7,03550	45887
7,03962	46238
7,04375	42560
7,04787	42666
7,05198	42774
7,05612	43498
7,06023	41599
7,06435	42552
7,06847	42695
7,07260	43226
7,07672	41757
7,08083	42466
7,08497	41993
7,08908	44733
7,09320	41466
7,09733	42433
7,10145	42437
7,10557	42305
7,10970	40383
7,11382	41600
7,11793	42769
7,12207	40251
7,12618	40710
7,13030	38887
7,13443	39899
7,13855	37879
7,14267	41589
7,14680	39827
7,15092	39196
7,15503	40222
7,15915	42420
7,16328	39194
7,16740	40468
7,17152	39143
7,17565	41190
7,17977	40587
7,18388	41463
7,18802	40280
7,19213	39954
7,19625	38378
7,20038	40194
7,20450	40088
7,20862	39509
7,21275	38358
7,21687	38000
7,22098	37091
7,22512	38026
7,22923	39139
7,23335	38923
7,23748	37766
7,24160	38572
7,24572	38474
7,24983	35902
7,25397	38423
7,25808	38124
7,26220	37233
7,26633	39379
7,27045	38122
7,27457	37094
7,27870	37740
7,28282	39055
7,28693	35684
7,29107	38199
7,29518	38442
7,29930	39580
7,30343	42123
7,30755	48806
7,31167	54511
7,31580	67280
7,31992	87988
7,32403	117828
7,32817	157641
7,33228	211647
7,33640	273910
7,34053	340745
7,34465	410065
7,34877	478222
7,35288	547534
7,35702	593614
7,36113	644986
7,36525	669630
7,36938	694984
7,37350	706364
7,37762	717417
7,38175	717254
7,38587	714715
7,38998	707619
7,39412	697735
7,39823	683636
7,40235	675588
7,40648	657377
7,41060	654348
7,41472	633714
7,41885	622989
7,42297	606112
7,42708	586667
7,43122	573917
7,43533	555710
7,43945	543283
7,44357	525058
7,44770	504378
7,45182	490888
7,45593	462851
7,46007	442979
7,46418	418956
7,46830	401385
7,47243	379777
7,47655	354622
7,48067	336388
7,48480	310534
7,48892	295141
7,49303	269716
7,49717	250919
7,50128	234261
7,50540	215923
7,50953	201951
7,51365	184329
7,51777	173444
7,52190	158546
7,52602	148799
7,53013	136143
7,53425	128470
7,53838	119714
7,54250	112623
7,54662	105271
7,55075	98374
7,55487	91063
7,55898	86959
7,56312	81376
7,56723	78020
7,57135	73192
7,57548	70077
7,57960	68761
7,58372	65213
7,58785	62313
7,59197	61063
7,59608	58450
7,60022	56505
7,60433	52983
7,60845	54071
7,61258	53419
7,61670	51387
7,62082	48745
7,62493	47931
7,62907	50228
7,63318	47456
7,63730	46327
7,64143	46989
7,64555	45545
7,64967	43518
7,65380	43188
7,65792	42683
7,66203	41494
7,66617	41162
7,67028	40592
7,67440	41322
7,67853	40072
7,68265	40950
7,68677	39223
7,69090	39747
7,69502	38759
7,69913	39035
7,70327	38635
7,70738	36990
7,71150	36981
7,71562	38989
7,71975	36116
7,72387	36748
7,72798	37237
7,73212	35814
7,73623	37213
7,74035	37564
7,74448	35035
7,74860	36406
7,75272	36110
7,75685	35856
7,76097	35839
7,76508	35273
7,76922	34493
7,77333	34061
7,77745	34761
7,78158	35368
7,78570	34733
7,78982	35700
7,79395	36309
7,79807	34816
7,80218	36151
7,80630	37187
7,81043	35801
7,81455	36344
7,81867	35559
7,82280	36699
7,82692	33743
7,83103	35326
7,83517	33699
7,83928	36264
7,84340	34538
7,84753	35096
7,85165	35853
7,85577	33758
7,85990	35524
7,86402	33498
7,86813	33350
7,87227	34355
7,87638	33984
7,88050	32548
7,88463	34694
7,88875	31694
7,89287	33016
7,89698	33362
7,90112	32370
7,90523	33679
7,90935	33945
7,91348	31010
7,91760	30717
7,92172	33106
7,92585	30832
7,92997	33206
7,93408	31463
7,93822	30445
7,94233	30210
7,94645	30376
7,95058	29921
7,95470	30074
7,95882	30799
7,96295	30783
7,96707	30683
7,97118	30686
7,97532	30177
7,97943	29803
7,98355	32437
7,98767	29116
7,99180	29397
7,99592	28949
8,00003	30527
8,00417	31142
8,00828	29042
8,01240	29482
8,01653	29082
8,02065	28105
8,02477	29413
8,02890	28049
8,03302	28779
8,03713	29575
8,04127	28941
8,04538	28847
8,04950	29861
8,05363	30485
8,05775	29021
8,06187	28277
8,06600	28992
8,07012	28642
8,07423	29547
8,07835	28148
8,08248	28204
8,08660	29784
8,09072	27711
8,09485	26951
8,09897	28377
8,10308	27837
8,10722	28400
8,11133	26994
8,11545	27924
8,11958	29158
8,12370	28645
8,12782	29034
8,13195	28463
8,13607	29170
8,14018	27842
8,14432	28506
8,14843	27257
8,15255	28339
8,15668	28804
8,16080	29412
8,16492	30615
8,16903	30372
8,17317	30562
8,17728	30466
8,18140	30880
8,18553	31039
8,18965	31256
8,19377	31748
8,19790	31881
8,20202	31692
8,20613	32433
8,21027	32093
8,21438	31200
8,21850	31452
8,22263	30316
8,22675	29336
8,23087	30519
8,23500	31240
8,23912	31267
8,24323	29967
8,24737	32477
8,25148	33088
8,25560	36025
8,25972	42184
8,26385	50525
8,26797	67908
8,27208	95915
8,27622	134492
8,28033	190381
8,28445	268473
8,28858	354774
8,29270	469792
8,29682	596201
8,30095	732962
8,30507	873214
8,30918	1002281
8,31332	1129631
8,31743	1237966
8,32155	1324572
8,32568	1399978
8,32980	1437156
8,33392	1480714
8,33805	1499440
8,34217	1498787
8,34628	1504821
8,35040	1484061
8,35453	1462763
8,35865	1455108
8,36277	1436425
8,36690	1411650
8,37102	1369812
8,37513	1343202
8,37927	1308715
8,38338	1265760
8,38750	1242352
8,39163	1198253
8,39575	1149840
8,39987	1098877
8,40400	1063011
8,40812	1010938
8,41223	965399
8,41637	906077
8,42048	859236
8,42460	801122
8,42873	746500
8,43285	691751
8,43697	644312
8,44108	585361
8,44522	539185
8,44933	493021
8,45345	445501
8,45758	414356
8,46170	380925
8,46582	339059
8,46995	312558
8,47407	286159
8,47818	261693
8,48232	241307
8,48643	221305
8,49055	200484
8,49468	182103
8,49880	168587
8,50292	158233
8,50705	147875
8,51117	135344
8,51528	128570
8,51942	120825
8,52353	111651
8,52765	105108
8,53177	97977
8,53590	93778
8,54002	89635
8,54413	86088
8,54827	83812
8,55238	80996
8,55650	75644
8,56063	75225
8,56475	71916
8,56887	70850
8,57300	66535
8,57712	67333
8,58123	64515
8,58537	61076
8,58948	59170
8,59360	60437
8,59773	57401
8,60185	55573
8,60597	55342
8,61010	54405
8,61422	51565
8,61833	54298
8,62245	50629
8,62658	49435
8,63070	49089
8,63482	44738
8,63895	44286
8,64307	45820
8,64718	45280
8,65132	43674
8,65543	43039
8,65955	43520
8,66368	40585
8,66780	41736
8,67192	39550
8,67605	37815
8,68017	38068
8,68428	39168
8,68842	38199
8,69253	37659
8,69665	38224
8,70078	37044
8,70490	34526
8,70902	35671
8,71313	33738
8,71727	33957
8,72138	33814
8,72550	34478
8,72963	32146
8,73375	33112
8,73787	33982
8,74200	31431
8,74612	31550
8,75023	31670
8,75437	31857
8,75848	29004
8,76260	29596
8,76673	32035
8,77085	29758
8,77497	31329
8,77910	31865
8,78322	30631
8,78733	30835
8,79147	30243
8,79558	31549
8,79970	30819
8,80382	31288
8,80795	29812
8,81207	32516
8,81618	29058
8,82032	30789
8,82443	31772
8,82855	32367
8,83268	32095
8,83680	32927
8,84092	33051
8,84505	32133
8,84917	33405
8,85328	33582
8,85742	31889
8,86153	33247
8,86565	32439
8,86978	30942
8,87390	31047
8,87802	31829
8,88215	31991
8,88627	30806
8,89038	32558
8,89450	31617
8,89863	29093
8,90275	30192
8,90687	28534
8,91100	29298
8,91512	30319
8,91923	28919
8,92337	29000
8,92748	29505
8,93160	28607
8,93573	27503
8,93985	27795
8,94397	27200
8,94810	28406
8,95222	27472
8,95633	26960
8,96047	27563
8,96458	27464
8,96870	27695
8,97283	27367
8,97695	26128
8,98107	25457
8,98520	24846
8,98932	26760
8,99343	27232
8,99755	24449
9,00168	24476
9,00580	24664
9,00992	25206
9,01405	25506
9,01817	24230
9,02228	24090
9,02642	25543
9,03053	23495
9,03465	22249
9,03878	23668
9,04290	23973
9,04702	23997
9,05115	23429
9,05527	23732
9,05938	24341
9,06352	23474
9,06763	23255
9,07175	23319
9,07588	25913
9,08000	25991
9,08412	27514
9,08823	32529
9,09237	36251
9,09648	44435
9,10060	58323
9,10473	75506
9,10885	101690
9,11297	131953
9,11710	166187
9,12122	214010
9,12533	266214
9,12947	323944
9,13358	381306
9,13770	445470
9,14183	508606
9,14595	561490
9,15007	608092
9,15420	647446
9,15832	667142
9,16243	708026
9,16657	718623
9,17068	732920
9,17480	739934
9,17892	737849
9,18305	738133
9,18717	732177
9,19128	713837
9,19542	708366
9,19953	692594
9,20365	669451
9,20778	656195
9,21190	636911
9,21602	619625
9,22015	590273
9,22427	565309
9,22838	543421
9,23252	520551
9,23663	489109
9,24075	459939
9,24488	435656
9,24900	405606
9,25312	372294
9,25725	347276
9,26137	320617
9,26548	298012
9,26960	273861
9,27373	256102
9,27785	236261
9,28197	216524
9,28610	198472
9,29022	179628
9,29433	168004
9,29847	149665
9,30258	141008
9,30670	129161
9,31083	122452
9,31495	115175
9,31907	102364
9,32320	96331
9,32732	88358
9,33143	83484
9,33557	81544
9,33968	75335
9,34380	69400
9,34793	66023
9,35205	64318
9,35617	59192
9,36028	58649
9,36442	54061
9,36853	52300
9,37265	51693
9,37678	48302
9,38090	46105
9,38502	49584
9,38915	47636
9,39327	51672
9,39738	54962
9,40152	62922
9,40563	71070
9,40975	92038
9,41388	114817
9,41800	148484
9,42212	190493
9,42625	239009
9,43037	295093
9,43448	355800
9,43862	427340
9,44273	484598
9,44685	549223
9,45097	611714
9,45510	666134
9,45922	712346
9,46333	749720
9,46747	778157
9,47158	796596
9,47570	815747
9,47983	819590
9,48395	820810
9,48807	825227
9,49220	810442
9,49632	796902
9,50043	786469
9,50457	783723
9,50868	746805
9,51280	733177
9,51693	704995
9,52105	688470
9,52517	658224
9,52930	632677
9,53342	591896
9,53753	568025
9,54165	533312
9,54578	501332
9,54990	471534
9,55402	435978
9,55815	404207
9,56227	373049
9,56638	348610
9,57052	314011
9,57463	287221
9,57875	263124
9,58288	241489
9,58700	221196
9,59112	203644
9,59525	185188
9,59937	169929
9,60348	158204
9,60762	145456
9,61173	132563
9,61585	119348
9,61998	113937
9,62410	106198
9,62822	97579
9,63233	91434
9,63647	84945
9,64058	80246
9,64470	76181
9,64883	69969
9,65295	69471
9,65707	64043
9,66120	61403
9,66532	56756
9,66943	57694
9,67357	53423
9,67768	53172
9,68180	49209
9,68593	46254
9,69005	45262
9,69417	46507
9,69830	44470
9,70242	41613
9,70653	40686
9,71067	42240
9,71478	40473
9,71890	38200
9,72302	39407
9,72715	37144
9,73127	36542
9,73538	33497
9,73952	34822
9,74363	32717
9,74775	33405
9,75188	32801
9,75600	31756
9,76012	29997
9,76425	31716
9,76837	30224
9,77248	28215
9,77662	29069
9,78073	28670
9,78485	27635
9,78898	27953
9,79310	27851
9,79722	27336
9,80135	27847
9,80547	25374
9,80958	26187
9,81370	25911
9,81783	25749
9,82195	26247
9,82607	25259
9,83020	25624
9,83432	24140
9,83843	25445
9,84257	24664
9,84668	23727
9,85080	24095
9,85493	22578
9,85905	22872
9,86317	21974
9,86730	22425
9,87142	24160
9,87553	22087
9,87967	23218
9,88378	22186
9,88790	22713
9,89203	22224
9,89615	21863
9,90027	22982
9,90438	21931
9,90852	21042
9,91263	21589
9,91675	22694
9,92088	21314
9,92500	21601
9,92912	20937
9,93325	22332
9,93737	20969
9,94148	20631
9,94562	21134
9,94973	20883
9,95385	19968
9,95798	20851
9,96210	19497
9,96622	19971
9,97035	20549
9,97447	19501
9,97858	20419
9,98272	20584
9,98683	20204
9,99095	20855
9,99507	20279
9,99920	19129
10,00332	19300
10,00743	19955
10,01157	20199
10,01568	19219
10,01980	19626
10,02393	18587
10,02805	18725
10,03217	19978
10,03630	18873
10,04042	19679
10,04453	18461
10,04867	18124
10,05278	19644
10,05690	19522
10,06103	18846
10,06515	18471
10,06927	18982
10,07340	17916
10,07752	18722
10,08163	18898
10,08575	19570
10,08988	18671
10,09400	18048
10,09812	19328
10,10225	19273
10,10637	19351
10,11048	18199
10,11462	17891
10,11873	18559
10,12285	17520
10,12698	18221
10,13110	16902
10,13522	17753
10,13935	17935
10,14347	18716
10,14758	18685
10,15172	17841
10,15583	18003
10,15995	18596
10,16408	18001
10,16820	18363
10,17232	18172
10,17643	18547
10,18057	17960
10,18468	17904
10,18880	18742
10,19293	18019
10,19705	18345
10,20117	17838
10,20530	18639
10,20942	17676
10,21353	18552
10,21767	17518
10,22178	17741
10,22590	16739
10,23003	17073
10,23415	17674
10,23827	17727
10,24240	18060
10,24652	16803
10,25063	18208
10,25477	18010
10,25888	17331
10,26300	17305
10,26712	18172
10,27125	18058
10,27537	17352
10,27948	15732
10,28362	17177
10,28773	18742
10,29185	16817
10,29598	16670
10,30010	16458
10,30422	17259
10,30835	16186
10,31247	16586
10,31658	16009
10,32072	15671
10,32483	18987
10,32895	16325
10,33308	18164
10,33720	19789
10,34132	20742
10,34545	22115
10,34957	27366
10,35368	31787
10,35780	42221
10,36193	55341
10,36605	72590
10,37017	96849
10,37430	131791
10,37842	168655
10,38253	215146
10,38667	266658
10,39078	324731
10,39490	386154
10,39903	453671
10,40315	510796
10,40727	567484
10,41140	628627
10,41552	677367
10,41963	715244
10,42377	738896
10,42788	764537
10,43200	784032
10,43613	793724
10,44025	794989
10,44437	796383
10,44848	793022
10,45262	777939
10,45673	761445
10,46085	751489
10,46498	729307
10,46910	703151
10,47322	674525
10,47735	638217
10,48147	619090
10,48558	588174
10,48972	546629
10,49383	517495
10,49795	473133
10,50208	452119
10,50620	409588
10,51032	381453
10,51445	347703
10,51857	321532
10,52268	297701
10,52682	266271
10,53093	244794
10,53505	227021
10,53918	206046
10,54330	190272
10,54742	171247
10,55153	157712
10,55567	144454
10,55978	130800
10,56390	122181
10,56803	114266
10,57215	105525
10,57627	97823
10,58040	90460
10,58452	84614
10,58863	81249
10,59277	73460
10,59688	71733
10,60100	68479
10,60513	63020
10,60925	60600
10,61337	57810
10,61750	54088
10,62162	54491
10,62573	48867
10,62987	49757
10,63398	46702
10,63810	43898
10,64222	43344
10,64635	43963
10,65047	41748
10,65458	39636
10,65872	39708
10,66283	38181
10,66695	37042
10,67108	37921
10,67520	37178
10,67932	36517
10,68345	39318
10,68757	42194
10,69168	52013
10,69582	61494
10,69993	79827
10,70405	108836
10,70818	147629
10,71230	202359
10,71642	278797
10,72055	373205
10,72467	490170
10,72878	637653
10,73290	799643
10,73703	976933
10,74115	1167694
10,74527	1375573
10,74940	1568826
10,75352	1767191
10,75763	1966839
10,76177	2134352
10,76588	2295787
10,77000	2425621
10,77413	2505965
10,77825	2597802
10,78237	2672770
10,78650	2673834
10,79062	2696695
10,79473	2696759
10,79887	2646731
10,80298	2609229
10,80710	2559872
10,81123	2465386
10,81535	2382765
10,81947	2255733
10,82358	2172306
10,82772	2068530
10,83183	1945729
10,83595	1803409
10,84008	1699447
10,84420	1568959
10,84832	1455319
10,85245	1325424
10,85657	1220100
10,86068	1101082
10,86482	999401
10,86893	912958
10,87305	815489
10,87718	737156
10,88130	677238
10,88542	604508
10,88955	555308
10,89367	501911
10,89778	465726
10,90192	421656
10,90603	384311
10,91015	348585
10,91427	330398
10,91840	299221
10,92252	275324
10,92663	253701
10,93077	233955
10,93488	218633
10,93900	206444
10,94313	193730
10,94725	176817
10,95137	166737
10,95550	157597
10,95962	150936
10,96373	142230
10,96787	135001
10,97198	126750
10,97610	120896
10,98023	114458
10,98435	108456
10,98847	105022
10,99260	101501
10,99672	95183
11,00083	91247
11,00495	88038
11,00908	84156
11,01320	80714
11,01732	79627
11,02145	77743
11,02557	71988
11,02968	68382
11,03382	68758
11,03793	66422
11,04205	64388
11,04618	62984
11,05030	58974
11,05442	59451
11,05855	57457
11,06267	55803
11,06678	54073
11,07092	52698
11,07503	50727
11,07915	49472
11,08328	48974
11,08740	47352
11,09152	45624
11,09563	43478
11,09977	42953
11,10388	43279
11,10800	41372
11,11213	41017
11,11625	41302
11,12037	37927
11,12450	37878
11,12862	38429
11,13273	37680
11,13687	36392
11,14098	36755
11,14510	35099
11,14923	34803
11,15335	36286
11,15747	33006
11,16160	32616
11,16572	31506
11,16983	30916
11,17397	30945
11,17808	31226
11,18220	30745
11,18632	29511
11,19045	30360
11,19457	28796
11,19868	27997
11,20282	28649
11,20693	28986
11,21105	28179
11,21518	26793
11,21930	25956
11,22342	25908
11,22755	26332
11,23167	25368
11,23578	25399
11,23992	27510
11,24403	24746
11,24815	25919
11,25228	24343
11,25640	25955
11,26052	23793
11,26465	21977
11,26877	23298
11,27288	22318
11,27700	23757
11,28113	22676
11,28525	22761
11,28937	23008
11,29350	22455
11,29762	23254
11,30173	22617
11,30587	22499
11,30998	22068
11,31410	23131
11,31823	23707
11,32235	21567
11,32647	21845
11,33060	22940
11,33472	21225
11,33883	22060
11,34297	21460
11,34708	21969
11,35120	21866
11,35533	20533
11,35945	21834
11,36357	19477
11,36768	20499
11,37182	20435
11,37593	18456
11,38005	19745
11,38418	19454
11,38830	20750
11,39242	19811
11,39655	19553
11,40067	19776
11,40478	20544
11,40892	19374
11,41303	20258
11,41715	19211
11,42128	18488
11,42540	18176
11,42952	17507
11,43365	18382
11,43777	19163
11,44188	17739
11,44602	17570
11,45013	18353
11,45425	19313
11,45837	17039
11,46250	18815
11,46662	17946
11,47073	19107
11,47487	17572
11,47898	18291
11,48310	17749
11,48723	17895
11,49135	18278
11,49547	16476
11,49960	17419
11,50372	18083
11,50783	17568
11,51197	17664
11,51608	18360
11,52020	19555
11,52433	17795
11,52845	18263
11,53257	19000
11,53670	18922
11,54082	17508
11,54493	18810
11,54905	20827
11,55318	20447
11,55730	23664
11,56142	27109
11,56555	30924
11,56967	35437
11,57378	46924
11,57792	61713
11,58203	79655
11,58615	104095
11,59028	136812
11,59440	173879
11,59852	219879
11,60265	271172
11,60677	327550
11,61088	393834
11,61502	456755
11,61913	524012
11,62325	591360
11,62738	641237
11,63150	703202
11,63562	746426
11,63973	788751
11,64387	814879
11,64798	827944
11,65210	842118
11,65623	857981
11,66035	857091
11,66447	850263
11,66860	825504
11,67272	813148
11,67683	781804
11,68097	750566
11,68508	723507
11,68920	687733
11,69333	655955
11,69745	614122
11,70157	568996
11,70570	529154
11,70982	494916
11,71393	458116
11,71807	418874
11,72218	385079
11,72630	351832
11,73042	326336
11,73455	298687
11,73867	268556
11,74278	244804
11,74692	222391
11,75103	207634
11,75515	191150
11,75928	173861
11,76340	160923
11,76752	151924
11,77165	138767
11,77577	129942
11,77988	124067
11,78402	113482
11,78813	106764
11,79225	101713
11,79638	97916
11,80050	92895
11,80462	85341
11,80875	86052
11,81287	79316
11,81698	77085
11,82110	74157
11,82523	70271
11,82935	68841
11,83347	64702
11,83760	63291
11,84172	61355
11,84583	56333
11,84997	56292
11,85408	54477
11,85820	52650
11,86233	48955
11,86645	48396
11,87057	47871
11,87470	46478
11,87882	43681
11,88293	42859
11,88707	41843
11,89118	38765
11,89530	38277
11,89943	37918
11,90355	36476
11,90767	36140
11,91178	35528
11,91592	32715
11,92003	33002
11,92415	31503
11,92828	31136
11,93240	30517
11,93652	31065
11,94065	29499
11,94477	26221
11,94888	27908
11,95302	27722
11,95713	26479
11,96125	27337
11,96538	26948
11,96950	24154
11,97362	26249
11,97775	24737
11,98187	24128
11,98598	24702
11,99012	23917
11,99423	23271
11,99835	23690
12,00247	23673
12,00660	21186
12,01072	21569
12,01483	23069
12,01897	20414
12,02308	22761
12,02720	20536
12,03133	20295
12,03545	20064
12,03957	19243
12,04370	19780
12,04782	19592
12,05193	18255
12,05607	19921
12,06018	18416
12,06430	17768
12,06843	18626
12,07255	19811
12,07667	17264
12,08080	17086
12,08492	17390
12,08903	16179
12,09315	16534
12,09728	18219
12,10140	17663
12,10552	17480
12,10965	16917
12,11377	17442
12,11788	16865
12,12202	18088
12,12613	17636
12,13025	18918
12,13438	21438
12,13850	24193
12,14262	31406
12,14675	39296
12,15087	50376
12,15498	65367
12,15912	88709
12,16323	113459
12,16735	152999
12,17148	195196
12,17560	248974
12,17972	305300
12,18385	375776
12,18797	442910
12,19208	517813
12,19620	589684
12,20033	668041
12,20445	726445
12,20857	783459
12,21270	843828
12,21682	881308
12,22093	911605
12,22507	938155
12,22918	958533
12,23330	948563
12,23743	947662
12,24155	928989
12,24567	914667
12,24980	883760
12,25392	861809
12,25803	813174
12,26217	777269
12,26628	735832
12,27040	696907
12,27453	646692
12,27865	599123
12,28277	555809
12,28688	507054
12,29102	467789
12,29513	422598
12,29925	384913
12,30338	353330
12,30750	321545
12,31162	294433
12,31575	269753
12,31987	244003
12,32398	219057
12,32812	200957
12,33223	189824
12,33635	169605
12,34048	155760
12,34460	144477
12,34872	133219
12,35285	121977
12,35697	113805
12,36108	105203
12,36522	98186
12,36933	94347
12,37345	88781
12,37757	78484
12,38170	76262
12,38582	73418
12,38993	68625
12,39407	61947
12,39818	62604
12,40230	61282
12,40643	59324
12,41055	53566
12,41467	50990
12,41880	51170
12,42292	47690
12,42703	47892
12,43117	44902
12,43528	41964
12,43940	41590
12,44353	39842
12,44765	38945
12,45177	37580
12,45590	37078
12,46002	36147
12,46413	34369
12,46825	33628
12,47238	31602
12,47650	32863
12,48062	30450
12,48475	30415
12,48887	29890
12,49298	29893
12,49712	29013
12,50123	28424
12,50535	27437
12,50948	27522
12,51360	27870
12,51772	25404
12,52185	23958
12,52597	24277
12,53008	24682
12,53422	22357
12,53833	24202
12,54245	23926
12,54658	24133
12,55070	24598
12,55482	23066
12,55893	23081
12,56307	22274
12,56718	21436
12,57130	21493
12,57543	21767
12,57955	19945
12,58367	22261
12,58780	20567
12,59192	20169
12,59603	18932
12,60017	19118
12,60428	19277
12,60840	18472
12,61253	19163
12,61665	18933
12,62077	18079
12,62490	17311
12,62902	17682
12,63313	16811
12,63727	18855
12,64138	17077
12,64550	18264
12,64962	17553
12,65375	18989
12,65787	16693
12,66198	16139
12,66612	16027
12,67023	16973
12,67435	15907
12,67848	16493
12,68260	16180
12,68672	15232
12,69085	15950
12,69497	17080
12,69908	15879
12,70322	17268
12,70733	15998
12,71145	14254
12,71558	14346
12,71970	15376
12,72382	15331
12,72795	14853
12,73207	14927
12,73618	14623
12,74030	14172
12,74443	13817
12,74855	14507
12,75267	15473
12,75680	15153
12,76092	13471
12,76503	15167
12,76917	13103
12,77328	14121
12,77740	14799
12,78153	13966
12,78565	12771
12,78977	12551
12,79390	13922
12,79802	15051
12,80213	13289
12,80627	14191
12,81038	14273
12,81450	14285
12,81863	14787
12,82275	13840
12,82687	13341
12,83098	13440
12,83512	12768
12,83923	12785
12,84335	12722
12,84748	13126
12,85160	13081
12,85572	12271
12,85985	13026
12,86397	13055
12,86808	12539
12,87222	13043
12,87633	11900
12,88045	12837
12,88458	12677
12,88870	12608
12,89282	12169
12,89695	13427
12,90107	12735
12,90518	12119
12,90932	12564
12,91343	13502
12,91755	13162
12,92167	12346
12,92580	12440
12,92992	11501
12,93403	13192
12,93817	11287
12,94228	10975
12,94640	12271
12,95053	12757
12,95465	12982
12,95877	13297
12,96290	12459
12,96702	12621
12,97113	12745
12,97527	12019
12,97938	13131
12,98350	13590
12,98763	13184
12,99175	12471
12,99587	12454
13,00000	11540
13,00412	12489
13,00823	12956
13,01235	12189
13,01648	11142
13,02060	10804
13,02472	12205
13,02885	11469
13,03297	12656
13,03708	12477
13,04122	10704
13,04533	11566
13,04945	12335
13,05358	11719
13,05770	12854
13,06182	14110
13,06595	15418
13,07007	17215
13,07418	19347
13,07832	24370
13,08243	30189
13,08655	40379
13,09068	54258
13,09480	70262
13,09892	92770
13,10303	124050
13,10717	163149
13,11128	207381
13,11540	259016
13,11953	311385
13,12365	379488
13,12777	455988
13,13190	520657
13,13602	590752
13,14013	664830
13,14427	736055
13,14838	783128
13,15250	835982
13,15663	881959
13,16075	896348
13,16487	918936
13,16900	932873
13,17312	932522
13,17723	919653
13,18137	907562
13,18548	884043
13,18960	848478
13,19372	811847
13,19785	777650
13,20197	733317
13,20608	691208
13,21022	638416
13,21433	602383
13,21845	552137
13,22258	499938
13,22670	461790
13,23082	422933
13,23495	385035
13,23907	352227
13,24318	317142
13,24732	291233
13,25143	259328
13,25555	238573
13,25968	215835
13,26380	201564
13,26792	181806
13,27205	168060
13,27617	155220
13,28028	141607
13,28440	134358
13,28853	120481
13,29265	114900
13,29677	103710
13,30090	98823
13,30502	93050
13,30913	88186
13,31327	84433
13,31738	79605
13,32150	74398
13,32563	69644
13,32975	65819
13,33387	65347
13,33800	57782
13,34212	57362
13,34623	55259
13,35037	53558
13,35448	50098
13,35860	48541
13,36273	48265
13,36685	44010
13,37097	43099
13,37508	41945
13,37922	41243
13,38333	40017
13,38745	36521
13,39158	36210
13,39570	35078
13,39982	36260
13,40395	34680
13,40807	34939
13,41218	34099
13,41632	32903
13,42043	33251
13,42455	34506
13,42868	33457
13,43280	35003
13,43692	32259
13,44105	35001
13,44517	35933
13,44928	32988
13,45342	36520
13,45753	36053
13,46165	36719
13,46577	36729
13,46990	36325
13,47402	35027
13,47813	35821
13,48227	35025
13,48638	34476
13,49050	34012
13,49463	35300
13,49875	32647
13,50287	32255
13,50700	32048
13,51112	31945
13,51523	32647
13,51937	32996
13,52348	29699
13,52760	27741
13,53173	27665
13,53585	27287
13,53997	26535
13,54410	24383
13,54822	22608
13,55233	24146
13,55645	23676
13,56058	24074
13,56470	22416
13,56882	21859
13,57295	21166
13,57707	20117
13,58118	20401
13,58532	19683
13,58943	19675
13,59355	18402
13,59768	18736
13,60180	17822
13,60592	20155
13,61005	18246
13,61417	16959
13,61828	17927
13,62242	17565
13,62653	17144
13,63065	16772
13,63478	16827
13,63890	16558
13,64302	16345
13,64713	16853
13,65127	15710
13,65538	16930
13,65950	15107
13,66363	15137
13,66775	14839
13,67187	15286
13,67600	15706
13,68012	16475
13,68423	19173
13,68837	21169
13,69248	24966
13,69660	29973
13,70073	40550
13,70485	53195
13,70897	75505
13,71310	101869
13,71722	138226
13,72133	182549
13,72547	243260
13,72958	321621
13,73370	407419
13,73782	520004
13,74195	627844
13,74607	761759
13,75018	911453
13,75432	1065543
13,75843	1212125
13,76255	1359298
13,76668	1506193
13,77080	1653384
13,77492	1785719
13,77905	1907498
13,78317	1985442
13,78728	2061493
13,79142	2090596
13,79553	2118385
13,79965	2110911
13,80378	2067479
13,80790	1999039
13,81202	1931471
13,81615	1833719
13,82027	1755280
13,82438	1633836
13,82852	1520704
13,83263	1390864
13,83675	1284265
13,84087	1178860
13,84500	1070963
13,84912	971946
13,85323	883388
13,85737	790705
13,86148	730078
13,86560	660125
13,86973	599496
13,87385	534670
13,87797	481872
13,88210	448634
13,88622	412679
13,89033	371935
13,89447	341759
13,89858	312450
13,90270	291608
13,90683	265607
13,91095	247746
13,91507	233269
13,91920	212076
13,92332	198317
13,92743	187314
13,93155	175263
13,93568	166178
13,93980	155206
13,94392	144625
13,94805	134093
13,95217	131899
13,95628	123671
13,96042	116617
13,96453	111923
13,96865	106491
13,97278	100662
13,97690	96185
13,98102	91993
13,98515	89180
13,98927	87409
13,99338	77125
13,99752	77425
14,00163	75562
14,00575	71227
14,00988	68434
14,01400	68641
14,01812	65189
14,02223	60374
14,02637	59278
14,03048	59924
14,03460	55501
14,03873	55486
14,04285	52432
14,04697	51140
14,05110	49004
14,05522	48128
14,05933	45610
14,06347	44684
14,06758	43231
14,07170	41909
14,07583	41322
14,07995	39934
14,08407	39227
14,08820	38231
14,09232	39252
14,09643	37465
14,10057	35219
14,10468	33239
14,10880	35521
14,11292	34010
14,11705	32797
14,12117	31456
14,12528	31637
14,12942	32503
14,13353	31312
14,13765	29172
14,14178	29859
14,14590	28873
14,15002	27686
14,15415	27559
14,15827	27716
14,16238	27176
14,16652	26288
14,17063	23946
14,17475	24898
14,17888	24401
14,18300	23903
14,18712	23406
14,19125	23133
14,19537	23626
14,19948	22815
14,20360	23303
14,20773	21250
14,21185	20242
14,21597	20448
14,22010	20666
14,22422	20176
14,22833	18989
14,23247	19913
14,23658	20842
14,24070	20739
14,24483	19489
14,24895	22146
14,25307	22033
14,25720	22632
14,26132	27855
14,26543	30875
14,26957	37790
14,27368	45101
14,27780	58139
14,28193	78648
14,28605	99583
14,29017	132236
14,29428	170738
14,29842	213889
14,30253	266283
14,30665	327795
14,31078	398884
14,31490	473361
14,31902	544750
14,32315	627863
14,32727	701261
14,33138	773321
14,33552	830888
14,33963	888389
14,34375	935327
14,34788	976524
14,35200	989404
14,35612	987369
14,36025	983426
14,36437	974951
14,36848	961134
14,37262	929925
14,37673	883367
14,38085	847517
14,38497	790297
14,38910	747252
14,39322	695104
14,39733	647941
14,40147	593383
14,40558	546445
14,40970	497786
14,41383	462611
14,41795	414831
14,42207	378210
14,42620	345382
14,43032	314142
14,43443	291210
14,43857	265572
14,44268	241056
14,44680	221517
14,45093	204298
14,45505	186920
14,45917	175214
14,46330	162181
14,46742	148717
14,47153	136107
14,47565	130088
14,47978	121669
14,48390	111813
14,48802	104126
14,49215	98908
14,49627	92659
14,50038	86183
14,50452	85180
14,50863	82048
14,51275	73694
14,51688	72979
14,52100	71293
14,52512	66539
14,52925	67597
14,53337	64219
14,53748	63766
14,54162	68978
14,54573	74849
14,54985	85277
14,55398	94858
14,55810	116166
14,56222	142236
14,56633	179199
14,57047	227292
14,57458	281887
14,57870	357996
14,58283	442761
14,58695	549712
14,59107	658024
14,59520	800733
14,59932	936131
14,60343	1096840
14,60757	1242222
14,61168	1385615
14,61580	1530060
14,61993	1677667
14,62405	1798257
14,62817	1916415
14,63230	1972540
14,63642	2026307
14,64053	2053823
14,64467	2058679
14,64878	2032726
14,65290	1994516
14,65702	1921341
14,66115	1833917
14,66527	1721428
14,66938	1632945
14,67352	1525030
14,67763	1415363
14,68175	1293294
14,68588	1183025
14,69000	1077818
14,69412	989180
14,69825	897390
14,70237	809088
14,70648	744520
14,71062	663633
14,71473	609567
14,71885	549852
14,72298	504029
14,72710	469176
14,73122	424000
14,73535	391262
14,73947	359271
14,74358	327360
14,74770	302082
14,75183	283285
14,75595	261147
14,76007	245865
14,76420	227001
14,76832	216178
14,77243	204737
14,77657	187881
14,78068	180334
14,78480	170727
14,78893	157282
14,79305	152043
14,79717	145550
14,80130	138149
14,80542	133192
14,80953	124524
14,81367	115510
14,81778	113160
14,82190	109509
14,82603	104283
14,83015	95650
14,83427	95474
14,83838	90929
14,84252	87081
14,84663	82323
14,85075	80483
14,85488	77042
14,85900	74996
14,86312	71706
14,86725	67565
14,87137	68660
14,87548	65101
14,87962	61349
14,88373	62030
14,88785	59078
14,89198	57143
14,89610	54146
14,90022	52579
14,90435	52778
14,90847	49787
14,91258	49993
14,91672	48716
14,92083	46061
14,92495	45730
14,92907	45490
14,93320	43248
14,93732	42179
14,94143	42123
14,94557	40335
14,94968	38302
14,95380	37328
14,95793	36589
14,96205	36295
14,96617	36858
14,97030	34536
14,97442	34575
14,97853	33096
14,98267	30433
14,98678	30390
14,99090	29156
14,99503	30261
14,99915	29935
15,00327	30399
15,00740	29026
15,01152	28372
15,01563	27613
15,01975	28406
15,02388	26541
15,02800	24826
15,03212	25421
15,03625	25018
15,04037	26326
15,04448	24220
15,04862	23943
15,05273	25243
15,05685	24801
15,06098	22783
15,06510	23402
15,06922	22841
15,07335	23211
15,07747	22410
15,08158	22558
15,08572	22192
15,08983	22102
15,09395	19916
15,09808	20781
15,10220	21276
15,10632	19263
15,11043	20781
15,11457	20226
15,11868	20281
15,12280	19074
15,12693	18616
15,13105	19036
15,13517	19431
15,13930	18753
15,14342	17261
15,14753	17945
15,15167	18217
15,15578	17634
15,15990	17955
15,16403	17501
15,16815	17528
15,17227	16986
15,17640	17591
15,18052	18253
15,18463	17030
15,18877	17952
15,19288	18515
15,19700	17368
15,20112	16649
15,20525	17009
15,20937	16818
15,21348	18278
15,21762	18031
15,22173	19653
15,22585	18459
15,22998	19386
15,23410	23076
15,23822	27413
15,24235	32541
15,24647	37920
15,25058	51276
15,25472	64324
15,25883	82019
15,26295	107407
15,26708	137292
15,27120	172567
15,27532	222468
15,27945	275783
15,28357	334228
15,28768	394423
15,29180	469163
15,29593	535544
15,30005	601634
15,30417	674170
15,30830	740720
15,31242	796436
15,31653	841012
15,32067	880063
15,32478	904570
15,32890	916835
15,33303	925600
15,33715	921080
15,34127	919838
15,34540	897546
15,34952	877930
15,35363	860997
15,35777	855260
15,36188	848459
15,36600	862508
15,37013	882435
15,37425	914790
15,37837	973156
15,38248	1039795
15,38662	1127337
15,39073	1214701
15,39485	1325855
15,39898	1440501
15,40310	1573687
15,40722	1694159
15,41135	1831259
15,41547	1954637
15,41958	2054414
15,42372	2146234
15,42783	2215753
15,43195	2238463
15,43608	2226090
15,44020	2236031
15,44432	2168760
15,44845	2080147
15,45257	1990535
15,45668	1866030
15,46082	1744831
15,46493	1618804
15,46905	1477930
15,47318	1362259
15,47730	1241924
15,48142	1125983
15,48553	1016854
15,48967	927330
15,49378	827860
15,49790	761468
15,50203	693702
15,50615	626765
15,51027	573914
15,51440	526039
15,51852	479838
15,52263	441593
15,52677	403067
15,53088	379234
15,53500	351140
15,53913	325222
15,54325	303722
15,54737	283826
15,55150	261781
15,55562	246619
15,55973	232786
15,56387	214831
15,56798	207165
15,57210	195610
15,57622	184843
15,58035	174785
15,58447	169850
15,58858	154517
15,59272	149651
15,59683	142735
15,60095	136606
15,60508	131173
15,60920	123923
15,61332	120952
15,61745	114069
15,62157	110299
15,62568	107596
15,62982	100903
15,63393	99756
15,63805	92828
15,64218	90653
15,64630	87878
15,65042	87169
15,65455	81930
15,65867	79312
15,66278	77524
15,66690	73496
15,67103	73480
15,67515	72721
15,67927	69538
15,68340	67428
15,68752	65115
15,69163	63534
15,69577	62559
15,69988	61292
15,70400	56978
15,70813	56904
15,71225	54055
15,71637	54327
15,72050	54310
15,72462	51532
15,72873	48562
15,73287	49768
15,73698	46307
15,74110	46764
15,74523	46698
15,74935	45034
15,75347	41927
15,75758	41910
15,76172	42324
15,76583	39551
15,76995	40903
15,77408	37942
15,77820	37208
15,78232	38604
15,78645	36879
15,79057	35986
15,79468	36043
15,79882	36053
15,80293	36039
15,80705	33823
15,81118	34160
15,81530	34526
15,81942	30660
15,82355	32792
15,82767	31254
15,83178	31726
15,83592	30028
15,84003	30887
15,84415	28397
15,84827	29993
15,85240	29481
15,85652	27591
15,86063	26344
15,86477	26968
15,86888	25621
15,87300	26590
15,87713	28181
15,88125	27118
15,88537	27917
15,88950	28841
15,89362	29487
15,89773	32079
15,90187	36553
15,90598	41967
15,91010	50615
15,91423	62134
15,91835	78002
15,92247	97660
15,92660	121570
15,93072	151122
15,93483	190843
15,93895	237184
15,94308	288375
15,94720	344613
15,95132	412668
15,95545	476890
15,95957	538623
15,96368	615094
15,96782	679750
15,97193	734840
15,97605	776757
15,98018	828012
15,98430	854240
15,98842	886771
15,99255	892734
15,99667	887882
16,00078	869484
16,00492	853271
16,00903	831149
16,01315	783392
16,01728	748393
16,02140	692694
16,02552	645979
16,02963	595328
16,03377	551491
16,03788	515219
16,04200	469480
16,04613	427383
16,05025	394815
16,05437	360549
16,05850	328113
16,06262	294943
16,06673	272153
16,07087	256409
16,07498	233756
16,07910	208817
16,08323	195966
16,08735	180083
16,09147	165355
16,09560	153494
16,09972	145468
16,10383	132764
16,10797	126040
16,11208	117480
16,11620	110217
16,12032	106069
16,12445	96718
16,12857	93496
16,13268	85547
16,13682	83163
16,14093	82743
16,14505	73780
16,14918	70291
16,15330	69357
16,15742	65687
16,16155	62224
16,16567	61848
16,16978	56255
16,17392	55163
16,17803	52974
16,18215	51894
16,18628	49178
16,19040	48773
16,19452	46878
16,19865	44419
16,20277	44309
16,20688	41868
16,21100	39515
16,21513	38816
16,21925	39030
16,22337	36863
16,22750	37226
16,23162	34999
16,23573	33390
16,23987	36192
16,24398	32497
16,24810	33417
16,25223	33875
16,25635	33608
16,26047	31880
16,26460	31104
16,26872	31528
16,27283	29897
16,27697	29554
16,28108	29092
16,28520	27618
16,28933	28589
16,29345	27211
16,29757	26194
16,30168	26046
16,30582	25697
16,30993	26554
16,31405	23783
16,31818	25240
16,32230	25197
16,32642	24170
16,33055	22651
16,33467	23360
16,33878	22257
16,34292	22555
16,34703	21551
16,35115	20668
16,35528	21448
16,35940	22385
16,36352	20939
16,36765	20177
16,37177	19957
16,37588	18647
16,38002	20713
16,38413	19569
16,38825	19049
16,39237	17751
16,39650	20442
16,40062	18557
16,40473	18467
16,40887	17251
16,41298	17754
16,41710	16104
16,42123	16699
16,42535	17484
16,42947	16314
16,43360	15443
16,43772	16435
16,44183	15924
16,44597	16998
16,45008	17016
16,45420	15331
16,45833	15475
16,46245	14764
16,46657	14436
16,47070	15545
16,47482	15783
16,47893	16129
16,48305	14720
16,48718	14301
16,49130	15101
16,49542	14937
16,49955	14530
16,50367	15961
16,50778	14556
16,51192	14622
16,51603	14670
16,52015	14636
16,52428	15425
16,52840	13937
16,53252	14229
16,53665	13079
16,54077	13533
16,54488	14106
16,54902	14303
16,55313	14416
16,55725	14026
16,56138	12384
16,56550	12879
16,56962	12846
16,57373	11943
16,57787	13215
16,58198	11551
16,58610	13657
16,59023	11907
16,59435	12656
16,59847	13352
16,60260	12487
16,60672	11801
16,61083	12764
16,61497	13114
16,61908	12028
16,62320	11596
16,62733	12155
16,63145	11949
16,63557	11494
16,63970	12625
16,64382	11488
16,64793	12337
16,65207	11765
16,65618	12566
16,66030	12732
16,66442	12119
16,66855	11691
16,67267	13182
16,67678	12282
16,68092	11242
16,68503	13017
16,68915	11410
16,69328	11643
16,69740	11019
16,70152	12035
16,70565	12149
16,70977	12068
16,71388	11415
16,71802	11367
16,72213	11021
16,72625	12019
16,73038	11697
16,73450	11758
16,73862	11468
16,74275	10627
16,74687	11303
16,75098	10440
16,75510	11569
16,75923	11811
16,76335	11623
16,76747	11262
16,77160	11223
16,77572	10401
16,77983	9152
16,78397	9628
16,78808	11884
16,79220	10912
16,79633	9855
16,80045	10926
16,80457	10864
16,80870	11272
16,81282	10177
16,81693	10560
16,82107	11058
16,82518	10153
16,82930	10372
16,83343	9995
16,83755	11646
16,84167	9983
16,84578	11790
16,84992	11492
16,85403	10103
16,85815	11401
16,86228	10371
16,86640	14536
16,87052	14441
16,87465	17446
16,87877	19680
16,88288	24958
16,88702	31973
16,89113	42334
16,89525	54422
16,89938	71557
16,90350	91856
16,90762	120485
16,91175	153030
16,91587	192731
16,91998	240886
16,92412	292796
16,92823	344724
16,93235	409384
16,93647	466606
16,94060	528771
16,94472	590507
16,94883	641137
16,95297	685485
16,95708	725813
16,96120	750544
16,96533	770778
16,96945	774961
16,97357	779142
16,97770	755470
16,98182	745976
16,98593	721888
16,99007	683614
16,99418	641208
16,99830	608722
17,00243	580517
17,00655	535890
17,01067	495237
17,01480	465942
17,01892	428122
17,02303	401721
17,02717	374697
17,03128	354804
17,03540	353771
17,03952	345457
17,04365	350365
17,04777	367583
17,05188	394931
17,05602	434813
17,06013	489348
17,06425	560101
17,06838	643823
17,07250	730842
17,07662	843050
17,08075	967128
17,08487	1091701
17,08898	1262779
17,09312	1440899
17,09723	1602478
17,10135	1766714
17,10548	1921589
17,10960	2050145
17,11372	2169759
17,11785	2260963
17,12197	2320968
17,12608	2331356
17,13020	2328075
17,13433	2273700
17,13845	2197125
17,14257	2064450
17,14670	1950674
17,15082	1829795
17,15493	1681959
17,15907	1542758
17,16318	1415120
17,16730	1278485
17,17143	1159377
17,17555	1049676
17,17967	952521
17,18380	855178
17,18792	785345
17,19203	713823
17,19617	647552
17,20028	595173
17,20440	553869
17,20853	499170
17,21265	456828
17,21677	425274
17,22088	389663
17,22502	368245
17,22913	339084
17,23325	313579
17,23738	296351
17,24150	275788
17,24562	263711
17,24975	243574
17,25387	233412
17,25798	219635
17,26212	206905
17,26623	197939
17,27035	188332
17,27448	177094
17,27860	166425
17,28272	159004
17,28685	148317
17,29097	144862
17,29508	136124
17,29922	133322
17,30333	126835
17,30745	119498
17,31157	114697
17,31570	109751
17,31982	107739
17,32393	102283
17,32807	100694
17,33218	97268
17,33630	93049
17,34043	89737
17,34455	86095
17,34867	83606
17,35280	78828
17,35692	78301
17,36103	72784
17,36517	72912
17,36928	70821
17,37340	69360
17,37753	65838
17,38165	63987
17,38577	63376
17,38990	58869
17,39402	58502
17,39813	57646
17,40225	56102
17,40638	55875
17,41050	53939
17,41462	51344
17,41875	49986
17,42287	50498
17,42698	46119
17,43112	46968
17,43523	47075
17,43935	45620
17,44348	43553
17,44760	41778
17,45172	41152
17,45585	41065
17,45997	40771
17,46408	37507
17,46822	39984
17,47233	38503
17,47645	35668
17,48058	37123
17,48470	33290
17,48882	34305
17,49293	33997
17,49707	33004
17,50118	35417
17,50530	33856
17,50943	34291
17,51355	34117
17,51767	36398
17,52180	41532
17,52592	43157
17,53003	49783
17,53417	62384
17,53828	71891
17,54240	87600
17,54653	105275
17,55065	131497
17,55477	162177
17,55890	202504
17,56302	243499
17,56713	294785
17,57127	348029
17,57538	414407
17,57950	454901
17,58362	518081
17,58775	575853
17,59187	632342
17,59598	676126
17,60012	719889
17,60423	732953
17,60835	767402
17,61248	772033
17,61660	763791
17,62072	753827
17,62485	738520
17,62897	718532
17,63308	682966
17,63722	648065
17,64133	613122
17,64545	570720
17,64958	532230
17,65370	491397
17,65782	448736
17,66195	420462
17,66607	381648
17,67018	350901
17,67430	319594
17,67843	294203
17,68255	270358
17,68667	249737
17,69080	221543
17,69492	208878
17,69903	193191
17,70317	180343
17,70728	167097
17,71140	152830
17,71553	142365
17,71965	133363
17,72377	125654
17,72790	118275
17,73202	109960
17,73613	107691
17,74027	96103
17,74438	94027
17,74850	85968
17,75263	85462
17,75675	79270
17,76087	76073
17,76498	72165
17,76912	68357
17,77323	65964
17,77735	64574
17,78148	61467
17,78560	57297
17,78972	59283
17,79385	54280
17,79797	51833
17,80208	51600
17,80622	49250
17,81033	48245
17,81445	44557
17,81858	42897
17,82270	42837
17,82682	41739
17,83095	40290
17,83507	39005
17,83918	37826
17,84332	37288
17,84743	33959
17,85155	35529
17,85567	35998
17,85980	32836
17,86392	31285
17,86803	31716
17,87217	32564
17,87628	32711
17,88040	29607
17,88453	31254
17,88865	31567
17,89277	33985
17,89690	35372
17,90102	36163
17,90513	42372
17,90927	47503
17,91338	57445
17,91750	70287
17,92163	91101
17,92575	112548
17,92987	144673
17,93400	181747
17,93812	226853
17,94223	282918
17,94635	349342
17,95048	415557
17,95460	491245
17,95872	566175
17,96285	657618
17,96697	737650
17,97108	811636
17,97522	871072
17,97933	931691
17,98345	979788
17,98758	1014691
17,99170	1020407
17,99582	1025303
17,99995	1021615
18,00407	981614
18,00818	958803
18,01232	907109
18,01643	866167
18,02055	803623
18,02468	746753
18,02880	688962
18,03292	627511
18,03703	580684
18,04117	529904
18,04528	488716
18,04940	448805
18,05353	401987
18,05765	375972
18,06177	346444
18,06590	317939
18,07002	292122
18,07413	265294
18,07827	248298
18,08238	225246
18,08650	211881
18,09063	199914
18,09475	184249
18,09887	173941
18,10300	159885
18,10712	149829
18,11123	141735
18,11537	138116
18,11948	127769
18,12360	119893
18,12772	113946
18,13185	109629
18,13597	100953
18,14008	100360
18,14422	93831
18,14833	90493
18,15245	86668
18,15658	82814
18,16070	76780
18,16482	78300
18,16895	70471
18,17307	68932
18,17718	66936
18,18132	65373
18,18543	61121
18,18955	59388
18,19368	55159
18,19780	56785
18,20192	54034
18,20605	53679
18,21017	50379
18,21428	47911
18,21840	46521
18,22253	44237
18,22665	42912
18,23077	42766
18,23490	42007
18,23902	40938
18,24313	39296
18,24727	38084
18,25138	37796
18,25550	35439
18,25963	35118
18,26375	35679
18,26787	35149
18,27200	35361
18,27612	33171
18,28023	31773
18,28437	29927
18,28848	30802
18,29260	30459
18,29673	28640
18,30085	29042
18,30497	29883
18,30908	27964
18,31322	27511
18,31733	27711
18,32145	26015
18,32558	26127
18,32970	27383
18,33382	25833
18,33795	26702
18,34207	24537
18,34618	22599
18,35032	21549
18,35443	22294
18,35855	22471
18,36268	21997
18,36680	21529
18,37092	21610
18,37505	21057
18,37917	20342
18,38328	20000
18,38742	20672
18,39153	21304
18,39565	20850
18,39977	20479
18,40390	19066
18,40802	18460
18,41213	18314
18,41627	18839
18,42038	18319
18,42450	18257
18,42863	19794
18,43275	19133
18,43687	18599
18,44100	17737
18,44512	18166
18,44923	17491
18,45337	18466
18,45748	17403
18,46160	15506
18,46573	17342
18,46985	16602
18,47397	17468
18,47810	14959
18,48222	15866
18,48633	16510
18,49045	15297
18,49458	14263
18,49870	16141
18,50282	15864
18,50695	15408
18,51107	15276
18,51518	16059
18,51932	15344
18,52343	15127
18,52755	15246
18,53168	13113
18,53580	13297
18,53992	14807
18,54405	13146
18,54817	14845
18,55228	13278
18,55642	14337
18,56053	14607
18,56465	13739
18,56878	13107
18,57290	12763
18,57702	13968
18,58115	15123
18,58527	13791
18,58938	13151
18,59350	14405
18,59763	13304
18,60175	13499
18,60587	13530
18,61000	12978
18,61412	13366
18,61823	14440
18,62237	13621
18,62648	13058
18,63060	13640
18,63473	13336
18,63885	12036
18,64297	14199
18,64710	12896
18,65122	13298
18,65533	12447
18,65947	12117
18,66358	13296
18,66770	12810
18,67183	12881
18,67595	12198
18,68007	12089
18,68418	12300
18,68832	13347
18,69243	12975
18,69655	13147
18,70068	13562
18,70480	13850
18,70892	14307
18,71305	13660
18,71717	12449
18,72128	14411
18,72542	15353
18,72953	16003
18,73365	16779
18,73778	20489
18,74190	24874
18,74602	30326
18,75015	36729
18,75427	47826
18,75838	63537
18,76252	83287
18,76663	114195
18,77075	148240
18,77487	189083
18,77900	241069
18,78312	302915
18,78723	370153
18,79137	442954
18,79548	521062
18,79960	615225
18,80373	697509
18,80785	777983
18,81197	870717
18,81610	947294
18,82022	1013804
18,82433	1064101
18,82847	1083954
18,83258	1098973
18,83670	1089272
18,84083	1065705
18,84495	1029830
18,84907	985373
18,85320	920906
18,85732	874923
18,86143	806352
18,86555	738852
18,86968	688512
18,87380	626913
18,87792	571146
18,88205	521260
18,88617	471697
18,89028	434294
18,89442	402241
18,89853	366755
18,90265	335767
18,90678	303965
18,91090	284265
18,91502	260395
18,91915	243652
18,92327	224359
18,92738	207088
18,93152	196116
18,93563	182413
18,93975	167348
18,94388	160046
18,94800	150039
18,95212	142020
18,95623	131501
18,96037	125443
18,96448	120134
18,96860	113872
18,97273	107645
18,97685	101766
18,98097	97022
18,98510	91809
18,98922	89199
18,99333	87262
18,99747	80446
19,00158	76283
19,00570	73950
19,00983	71562
19,01395	68509
19,01807	66732
19,02220	66508
19,02632	64512
19,03043	63217
19,03457	58737
19,03868	56696
19,04280	56632
19,04692	52025
19,05105	52430
19,05517	52190
19,05928	50248
19,06342	46465
19,06753	48194
19,07165	47571
19,07578	42671
19,07990	44616
19,08402	42725
19,08815	41024
19,09227	40735
19,09638	37307
19,10052	37383
19,10463	34469
19,10875	35220
19,11288	35179
19,11700	33448
19,12112	35262
19,12525	30980
19,12937	31477
19,13348	31038
19,13760	31114
19,14173	31510
19,14585	29626
19,14997	29261
19,15410	29526
19,15822	29357
19,16233	28902
19,16647	26185
19,17058	25964
19,17470	25319
19,17883	26719
19,18295	24134
19,18707	27034
19,19120	24941
19,19532	24840
19,19943	22673
19,20357	24240
19,20768	23564
19,21180	22925
19,21593	23036
19,22005	22476
19,22417	23293
19,22828	20977
19,23242	21104
19,23653	21798
19,24065	20114
19,24478	20188
19,24890	20489
19,25302	19483
19,25715	19235
19,26127	20223
19,26538	19481
19,26952	19064
19,27363	18930
19,27775	19156
19,28188	19390
19,28600	18624
19,29012	18506
19,29425	18744
19,29837	20796
19,30248	21245
19,30662	22762
19,31073	26213
19,31485	30053
19,31897	36018
19,32310	45405
19,32722	54379
19,33133	72559
19,33547	90133
19,33958	117527
19,34370	152419
19,34783	189311
19,35195	236763
19,35607	292217
19,36020	350447
19,36432	414476
19,36843	483341
19,37257	547144
19,37668	615228
19,38080	675114
19,38493	736504
19,38905	786510
19,39317	829086
19,39730	857043
19,40142	874577
19,40553	864643
19,40965	862891
19,41378	838871
19,41790	810799
19,42202	772014
19,42615	735620
19,43027	686087
19,43438	642360
19,43852	591729
19,44263	558246
19,44675	503784
19,45088	476025
19,45500	429078
19,45912	392852
19,46325	364367
19,46737	329095
19,47148	304431
19,47562	280658
19,47973	257887
19,48385	236972
19,48798	214458
19,49210	203197
19,49622	189915
19,50033	174576
19,50447	163845
19,50858	152955
19,51270	140907
19,51683	135177
19,52095	123045
19,52507	117306
19,52920	113686
19,53332	107409
19,53743	102548
19,54157	95455
19,54568	91496
19,54980	87886
19,55393	81008
19,55805	78599
19,56217	75800
19,56630	68008
19,57042	66025
19,57453	66986
19,57867	65649
19,58278	60926
19,58690	58862
19,59102	56640
19,59515	53760
19,59927	52607
19,60338	50289
19,60752	50816
19,61163	47999
19,61575	46321
19,61988	43157
19,62400	43920
19,62812	41016
19,63225	40619
19,63637	41032
19,64048	38665
19,64462	34341
19,64873	37099
19,65285	34621
19,65698	34294
19,66110	31647
19,66522	32013
19,66935	32167
19,67347	31883
19,67758	31258
19,68170	30810
19,68583	29590
19,68995	28317
19,69407	28115
19,69820	26024
19,70232	26160
19,70643	28224
19,71057	25520
19,71468	24234
19,71880	26735
19,72293	23863
19,72705	24104
19,73117	21439
19,73530	23860
19,73942	26071
19,74353	23693
19,74767	21804
19,75178	23007
19,75590	22757
19,76003	21867
19,76415	21126
19,76827	19096
19,77238	20159
19,77652	20480
19,78063	18838
19,78475	19454
19,78888	21048
19,79300	19623
19,79712	19651
19,80125	21253
19,80537	19200
19,80948	17856
19,81362	18505
19,81773	19313
19,82185	19641
19,82598	18160
19,83010	18926
19,83422	17227
19,83835	16488
19,84247	17832
19,84658	18797
19,85072	17181
19,85483	16870
19,85895	17015
19,86307	17947
19,86720	15426
19,87132	15934
19,87543	16606
19,87957	15720
19,88368	15966
19,88780	16785
19,89193	15795
19,89605	16420
19,90017	15809
19,90430	15083
19,90842	17943
19,91253	15536
19,91667	15464
19,92078	16198
19,92490	15807
19,92903	14601
19,93315	15806
19,93727	16025
19,94140	17599
19,94552	16324
19,94963	15309
19,95375	16667
19,95788	15790
19,96200	15672
19,96612	14896
19,97025	15439
19,97437	15096
19,97848	15049
19,98262	15255
19,98673	15211
19,99085	15017
19,99498	16612
19,99910	14461
20,00322	15073
20,00735	14313
20,01147	13702
20,01558	14724
20,01972	14557
20,02383	14585
20,02795	14732
20,03208	14439
20,03620	13894
20,04032	14563
20,04443	14741
20,04857	14539
20,05268	13814
20,05680	13249
20,06093	13064
20,06505	14559
20,06917	13053
20,07330	14690
20,07742	13672
20,08153	13597
20,08567	13968
20,08978	15117
20,09390	12698
20,09803	14057
20,10215	14434
20,10627	14401
20,11040	13626
20,11452	12892
20,11863	12548
20,12277	13114
20,12688	12022
20,13100	12449
20,13512	13981
20,13925	13462
20,14337	11922
20,14748	12312
20,15162	12219
20,15573	12850
20,15985	13394
20,16398	13002
20,16810	11221
20,17222	12669
20,17635	12628
20,18047	13479
20,18458	12638
20,18872	11887
20,19283	12180
20,19695	11057
20,20108	11557
20,20520	11903
20,20932	11337
20,21345	13002
20,21757	12356
20,22168	11386
20,22582	12975
20,22993	11453
20,23405	11517
20,23817	10512
20,24230	12254
20,24642	10912
20,25053	11562
20,25467	11962
20,25878	12367
20,26290	11130
20,26703	10842
20,27115	10894
20,27527	11716
20,27940	11705
20,28352	12370
20,28763	14050
20,29177	15380
20,29588	16800
20,30000	19482
20,30413	22680
20,30825	28470
20,31237	34538
20,31650	44676
20,32062	58278
20,32473	73829
20,32885	97877
20,33298	126940
20,33710	160574
20,34122	204022
20,34535	245050
20,34947	295475
20,35358	351814
20,35772	409924
20,36183	465365
20,36595	529587
20,37008	589030
20,37420	634503
20,37832	675056
20,38245	713590
20,38657	731432
20,39068	740137
20,39482	744715
20,39893	741066
20,40305	733231
20,40718	713169
20,41130	689879
20,41542	642938
20,41953	616623
20,42367	569178
20,42778	529680
20,43190	491729
20,43603	452549
20,44015	424266
20,44427	396529
20,44840	368689
20,45252	342333
20,45663	320292
20,46077	302074
20,46488	299596
20,46900	292674
20,47313	298448
20,47725	311621
20,48137	327737
20,48550	353934
20,48962	391497
20,49373	441714
20,49787	504785
20,50198	579854
20,50610	658112
20,51022	757180
20,51435	874581
20,51847	982649
20,52258	1128622
20,52672	1268637
20,53083	1417685
20,53495	1570265
20,53908	1712918
20,54320	1853022
20,54732	1983781
20,55145	2099335
20,55557	2191048
20,55968	2239937
20,56382	2279993
20,56793	2253422
20,57205	2221598
20,57618	2121325
20,58030	2014343
20,58442	1887648
20,58855	1771525
20,59267	1639044
20,59678	1492882
20,60090	1374721
20,60503	1250709
20,60915	1137808
20,61327	1030447
20,61740	944194
20,62152	867340
20,62563	781002
20,62977	720625
20,63388	667016
20,63800	611977
20,64213	562111
20,64625	521189
20,65037	482829
20,65450	454931
20,65862	427345
20,66273	398545
20,66687	367516
20,67098	345808
20,67510	328821
20,67923	306738
20,68335	289804
20,68747	273587
20,69158	258230
20,69572	245871
20,69983	239370
20,70395	223903
20,70808	212299
20,71220	204421
20,71632	194074
20,72045	185685
20,72457	177319
20,72868	171384
20,73282	161515
20,73693	157575
20,74105	152789
20,74518	143915
20,74930	141773
20,75342	133711
20,75755	131464
20,76167	127949
20,76578	121121
20,76992	120179
20,77403	112640
20,77815	107942
20,78227	108436
20,78640	103660
20,79052	101354
20,79463	95733
20,79877	94938
20,80288	91812
20,80700	88787
20,81113	84375
20,81525	81891
20,81937	80645
20,82350	78191
20,82762	77032
20,83173	75940
20,83587	74481
20,83998	68811
20,84410	68730
20,84823	65693
20,85235	66545
20,85647	64732
20,86060	62972
20,86472	59847
20,86883	58671
20,87295	57640
20,87708	56305
20,88120	53362
20,88532	54670
20,88945	53225
20,89357	50146
20,89768	50479
20,90182	48097
20,90593	47867
20,91005	47573
20,91418	45404
20,91830	46678
20,92242	45583
20,92655	44699
20,93067	42022
20,93478	43894
20,93892	42495
20,94303	42555
20,94715	42928
20,95128	46279
20,95540	48610
20,95952	49855
20,96363	57146
20,96777	61591
20,97188	73076
20,97600	84345
20,98013	103445
20,98425	125259
20,98837	153950
20,99250	190651
20,99662	230290
21,00073	276860
21,00487	330570
21,00898	383660
21,01310	447041
21,01723	510696
21,02135	571896
21,02547	622248
21,02960	683411
21,03372	734857
21,03783	789728
21,04197	815751
21,04608	835412
21,05020	859437
21,05432	871157
21,05845	873605
21,06257	866330
21,06668	867868
21,07082	884288
21,07493	887515
21,07905	883809
21,08318	898565
21,08730	910471
21,09142	925930
21,09555	940788
21,09967	957329
21,10378	968171
21,10792	982045
21,11203	978800
21,11615	979182
21,12028	983836
21,12440	970306
21,12852	952591
21,13265	930080
21,13677	883503
21,14088	853066
21,14500	812106
21,14913	767564
21,15325	713250
21,15737	669789
21,16150	625923
21,16562	588437
21,16973	538460
21,17387	500467
21,17798	469151
21,18210	429484
21,18623	396048
21,19035	363688
21,19447	334661
21,19860	309808
21,20272	292109
21,20683	273102
21,21097	261679
21,21508	237821
21,21920	224169
21,22333	209600
21,22745	195424
21,23157	187671
21,23568	176497
21,23982	166563
21,24393	159655
21,24805	151537
21,25218	141758
21,25630	133251
21,26042	123890
21,26455	122728
21,26867	115287
21,27278	109410
21,27692	107449
21,28103	102353
21,28515	96260
21,28928	93780
21,29340	93439
21,29752	85976
21,30165	84290
21,30577	82474
21,30988	80826
21,31402	79351
21,31813	77183
21,32225	77967
21,32637	79934
21,33050	81070
21,33462	88204
21,33873	93488
21,34287	106302
21,34698	117344
21,35110	135881
21,35523	160748
21,35935	191879
21,36347	228743
21,36760	271695
21,37172	324587
21,37583	394104
21,37997	459142
21,38408	531890
21,38820	606892
21,39233	688559
21,39645	768935
21,40057	842039
21,40470	906157
21,40882	935403
21,41293	991814
21,41705	1013072
21,42118	1031524
21,42530	1019422
21,42942	999236
21,43355	968806
21,43767	931903
21,44178	890571
21,44592	841306
21,45003	787775
21,45415	728137
21,45828	680269
21,46240	627881
21,46652	582647
21,47065	537854
21,47477	497211
21,47888	462879
21,48302	425249
21,48713	389330
21,49125	364486
21,49538	335822
21,49950	311470
21,50362	293383
21,50773	270700
21,51187	250720
21,51598	241831
21,52010	221220
21,52423	211407
21,52835	202243
21,53247	191222
21,53660	178590
21,54072	168836
21,54483	157239
21,54897	152414
21,55308	145824
21,55720	139115
21,56133	132647
21,56545	128814
21,56957	122924
21,57370	118031
21,57782	114196
21,58193	112332
21,58607	108272
21,59018	100050
21,59430	99001
21,59842	95571
21,60255	93363
21,60667	90630
21,61078	86907
21,61492	84407
21,61903	83285
21,62315	80791
21,62728	78390
21,63140	76282
21,63552	72173
21,63965	72039
21,64377	71198
21,64788	70715
21,65202	66407
21,65613	66623
21,66025	65322
21,66438	63651
21,66850	58871
21,67262	61240
21,67675	56024
21,68087	56215
21,68498	55870
21,68910	54081
21,69323	51933
21,69735	49801
21,70147	51586
21,70560	47784
21,70972	46945
21,71383	45097
21,71797	44204
21,72208	45335
21,72620	43762
21,73033	41970
21,73445	41303
21,73857	41307
21,74270	39668
21,74682	37963
21,75093	39126
21,75507	38442
21,75918	37343
21,76330	36107
21,76743	35278
21,77155	36197
21,77567	34537
21,77980	34706
21,78392	32488
21,78803	32778
21,79215	34729
21,79628	32524
21,80040	32134
21,80452	30586
21,80865	30661
21,81277	30839
21,81688	29146
21,82102	30349
21,82513	28711
21,82925	27743
21,83338	28030
21,83750	27650
21,84162	27482
21,84575	26633
21,84987	26484
21,85398	26611
21,85812	25107
21,86223	25957
21,86635	25959
21,87048	25007
21,87460	25293
21,87872	25187
21,88283	26741
21,88697	22653
21,89108	24940
21,89520	25146
21,89933	23636
21,90345	24505
21,90757	24508
21,91170	25782
21,91582	24366
21,91993	24376
21,92407	24353
21,92818	25914
21,93230	24137
21,93643	22682
21,94055	23320
21,94467	24739
21,94880	22883
21,95292	23322
21,95703	21721
21,96117	22941
21,96528	23120
21,96940	21170
21,97352	21035
21,97765	21292
21,98177	21206
21,98588	21185
21,99002	20724
21,99413	21515
21,99825	21789
22,00238	21597
22,00650	20814
22,01062	20680
22,01475	19598
22,01887	20990
22,02298	19713
22,02712	20358
22,03123	20347
22,03535	19110
22,03948	18620
22,04360	18330
22,04772	19026
22,05185	21068
22,05597	21016
22,06008	19219
22,06420	19178
22,06833	18549
22,07245	18354
22,07657	17333
22,08070	16569
22,08482	17456
22,08893	15720
22,09307	16369
22,09718	17987
22,10130	18246
22,10543	17995
22,10955	18287
22,11367	16071
22,11780	17380
22,12192	18694
22,12603	18769
22,13017	18559
22,13428	18545
22,13840	19349
22,14253	20919
22,14665	21644
22,15077	23141
22,15488	27366
22,15902	30589
22,16313	38001
22,16725	46340
22,17138	55478
22,17550	73587
22,17962	90504
22,18375	117232
22,18787	146025
22,19198	186722
22,19612	230693
22,20023	285347
22,20435	346866
22,20848	423468
22,21260	495940
22,21672	571736
22,22085	655677
22,22497	751578
22,22908	828276
22,23322	893771
22,23733	959333
22,24145	1013916
22,24557	1039642
22,24970	1050793
22,25382	1039516
22,25793	1013129
22,26207	996886
22,26618	948986
22,27030	893147
22,27443	847210
22,27855	779407
22,28267	726267
22,28680	672134
22,29092	620069
22,29503	570386
22,29917	524508
22,30328	488855
22,30740	450194
22,31153	406834
22,31565	385345
22,31977	356801
22,32390	330066
22,32802	305052
22,33213	286636
22,33625	268053
22,34038	250348
22,34450	234490
22,34862	222977
22,35275	205427
22,35687	195242
22,36098	187439
22,36512	176342
22,36923	167699
22,37335	156450
22,37748	152589
22,38160	144590
22,38572	138188
22,38985	130775
22,39397	125101
22,39808	120372
22,40222	116038
22,40633	109155
22,41045	104979
22,41458	101482
22,41870	97557
22,42282	95738
22,42693	91625
22,43107	88040
22,43518	84623
22,43930	86237
22,44343	78675
22,44755	77245
22,45167	77383
22,45580	73304
22,45992	69257
22,46403	69996
22,46817	66391
22,47228	61863
22,47640	63040
22,48053	60582
22,48465	58332
22,48877	56623
22,49290	54708
22,49702	55151
22,50113	53840
22,50527	52884
22,50938	49793
22,51350	49796
22,51762	48711
22,52175	47059
22,52587	47098
22,52998	44800
22,53412	42638
22,53823	45337
22,54235	43493
22,54648	40102
22,55060	40462
22,55472	39314
22,55885	41424
22,56297	37647
22,56708	37981
22,57122	37207
22,57533	35105
22,57945	34230
22,58358	35536
22,58770	32998
22,59182	33698
22,59595	34749
22,60007	33009
22,60418	33291
22,60830	32147
22,61243	32450
22,61655	30209
22,62067	31248
22,62480	30080
22,62892	31027
22,63303	30478
22,63717	29260
22,64128	29635
22,64540	30432
22,64953	26966
22,65365	27875
22,65777	30556
22,66190	27637
22,66602	27810
22,67013	28051
22,67427	26802
22,67838	26888
22,68250	26254
22,68663	26953
22,69075	25082
22,69487	24643
22,69898	26978
22,70312	25586
22,70723	25679
22,71135	27833
22,71548	29368
22,71960	30985
22,72372	33910
22,72785	39511
22,73197	46629
22,73608	56703
22,74022	71799
22,74433	88948
22,74845	114624
22,75258	149510
22,75670	197130
22,76082	245234
22,76495	319821
22,76907	392356
22,77318	476252
22,77732	580174
22,78143	695370
22,78555	809068
22,78967	935438
22,79380	1055132
22,79792	1162825
22,80203	1253897
22,80617	1350068
22,81028	1394250
22,81440	1456616
22,81853	1493398
22,82265	1489598
22,82677	1491129
22,83090	1444384
22,83502	1411887
22,83913	1362009
22,84327	1287624
22,84738	1218994
22,85150	1147092
22,85563	1075873
22,85975	1009994
22,86387	928251
22,86800	859354
22,87212	796124
22,87623	738455
22,88035	678340
22,88448	633659
22,88860	582798
22,89272	534963
22,89685	496250
22,90097	456647
22,90508	421681
22,90922	394765
22,91333	356380
22,91745	342989
22,92158	319394
22,92570	297163
22,92982	276808
22,93395	264498
22,93807	243541
22,94218	232962
22,94632	217548
22,95043	208335
22,95455	201381
22,95868	186139
22,96280	178825
22,96692	167153
22,97103	159663
22,97517	155122
22,97928	147320
22,98340	142719
22,98753	133823
22,99165	127892
22,99577	123229
22,99990	115181
23,00402	111859
23,00813	111006
23,01227	108525
23,01638	101763
23,02050	101969
23,02463	94635
23,02875	92619
23,03287	87819
23,03700	85013
23,04112	83810
23,04523	80256
23,04937	76151
23,05348	76141
23,05760	70696
23,06172	70717
23,06585	69756
23,06997	64915
23,07408	62611
23,07822	62693
23,08233	60961
23,08645	60687
23,09058	59201
23,09470	56497
23,09882	54506
23,10295	56122
23,10707	52703
23,11118	50320
23,11532	50222
23,11943	48248
23,12355	50398
23,12768	47541
23,13180	46395
23,13592	44182
23,14005	44067
23,14417	40830
23,14828	41743
23,15240	41001
23,15653	42241
23,16065	41046
23,16477	40744
23,16890	38585
23,17302	37086
23,17713	37888
23,18127	36035
23,18538	36283
23,18950	34340
23,19363	36412
23,19775	34794
23,20187	34113
23,20600	34201
23,21012	34327
23,21423	32748
23,21837	33357
23,22248	32465
23,22660	31565
23,23073	31026
23,23485	33461
23,23897	30395
23,24308	32884
23,24722	31271
23,25133	31151
23,25545	28143
23,25958	29799
23,26370	29721
23,26782	27787
23,27195	28406
23,27607	28012
23,28018	27423
23,28432	29729
23,28843	27303
23,29255	28001
23,29668	27693
23,30080	28024
23,30492	27160
23,30905	26661
23,31317	26866
23,31728	25837
23,32142	25360
23,32553	24337
23,32965	25281
23,33377	24635
23,33790	24385
23,34202	25154
23,34613	24925
23,35027	22985
23,35438	25649
23,35850	25533
23,36263	23733
23,36675	24629
23,37087	23759
23,37500	23323
23,37912	25389
23,38323	22381
23,38737	22479
23,39148	22442
23,39560	22828
23,39973	23331
23,40385	24807
23,40797	21899
23,41210	22398
23,41622	21747
23,42033	22453
23,42447	23802
23,42858	20277
23,43270	20930
23,43682	20632
23,44095	20247
23,44507	21112
23,44918	19853
23,45332	20918
23,45743	19341
23,46155	21215
23,46568	18322
23,46980	20640
23,47392	18695
23,47805	19086
23,48217	19653
23,48628	19522
23,49042	19647
23,49453	18601
23,49865	19210
23,50278	18345
23,50690	19104
23,51102	18611
23,51515	17207
23,51927	18525
23,52338	17887
23,52750	17086
23,53163	16027
23,53575	15913
23,53987	17979
23,54400	16559
23,54812	16875
23,55223	16338
23,55637	17455
23,56048	17483
23,56460	17383
23,56873	16463
23,57285	16965
23,57697	17059
23,58110	17542
23,58522	18392
23,58933	18052
23,59347	16765
23,59758	17412
23,60170	15661
23,60583	16252
23,60995	17289
23,61407	16329
23,61818	16684
23,62232	17147
23,62643	15993
23,63055	17678
23,63468	16054
23,63880	17420
23,64292	16443
23,64705	17321
23,65117	17370
23,65528	17513
23,65942	17251
23,66353	17302
23,66765	17340
23,67178	18360
23,67590	17971
23,68002	18062
23,68415	17533
23,68827	16388
23,69238	16436
23,69652	16713
23,70063	15910
23,70475	17112
23,70887	17271
23,71300	16487
23,71712	17216
23,72123	16109
23,72537	16966
23,72948	16131
23,73360	16265
23,73773	17020
23,74185	15156
23,74597	16553
23,75010	16215
23,75422	16694
23,75833	17206
23,76247	17559
23,76658	16435
23,77070	16080
23,77483	17065
23,77895	15961
23,78307	16482
23,78720	16435
23,79132	16046
23,79543	16757
23,79955	16858
23,80368	17870
23,80780	16399
23,81192	16990
23,81605	18058
23,82017	19277
23,82428	21131
23,82842	21790
23,83253	23487
23,83665	27237
23,84078	30478
23,84490	36478
23,84902	44048
23,85315	52736
23,85727	66938
23,86138	83717
23,86552	104098
23,86963	133434
23,87375	162020
23,87788	206009
23,88200	258101
23,88612	316495
23,89023	379830
23,89437	459246
23,89848	549625
23,90260	639203
23,90673	744324
23,91085	860625
23,91497	977753
23,91910	1111465
23,92322	1244101
23,92733	1383474
23,93147	1526085
23,93558	1657527
23,93970	1768968
23,94383	1857304
23,94795	1940772
23,95207	1994287
23,95620	2015505
23,96032	2003664
23,96443	1945635
23,96857	1881474
23,97268	1795282
23,97680	1698780
23,98092	1583094
23,98505	1479323
23,98917	1357478
23,99328	1245868
23,99742	1147936
24,00153	1050683
24,00565	972054
24,00978	888690
24,01390	818999
24,01802	752726
24,02215	693263
24,02627	636910
24,03038	592414
24,03452	553507
24,03863	516288
24,04275	476415
24,04688	448173
24,05100	421105
24,05512	394913
24,05925	370922
24,06337	352003
24,06748	335170
24,07160	308928
24,07573	294374
24,07985	282635
24,08397	266449
24,08810	256640
24,09222	243933
24,09633	231512
24,10047	217289
24,10458	215357
24,10870	206402
24,11283	194777
24,11695	187838
24,12107	181857
24,12520	171326
24,12932	166538
24,13343	157515
24,13757	151331
24,14168	148795
24,14580	145112
24,14993	140677
24,15405	134030
24,15817	129286
24,16228	124051
24,16642	122304
24,17053	119316
24,17465	113393
24,17878	113716
24,18290	109307
24,18702	101576
24,19115	100280
24,19527	97758
24,19938	95251
24,20352	94908
24,20763	89864
24,21175	88140
24,21588	85966
24,22000	85679
24,22412	82791
24,22825	81217
24,23237	78108
24,23648	76987
24,24062	76602
24,24473	72236
24,24885	72113
24,25297	73464
24,25710	67028
24,26122	68265
24,26533	67363
24,26947	67640
24,27358	66510
24,27770	62350
24,28183	61953
24,28595	60254
24,29007	62006
24,29420	58372
24,29832	57196
24,30243	57873
24,30657	56589
24,31068	51226
24,31480	52185
24,31893	51225
24,32305	52480
24,32717	50946
24,33130	48755
24,33542	49138
24,33953	46928
24,34365	48459
24,34778	48806
24,35190	44714
24,35602	45079
24,36015	45626
24,36427	42916
24,36838	45079
24,37252	43854
24,37663	40984
24,38075	44368
24,38488	40539
24,38900	39531
24,39312	40429
24,39725	39010
24,40137	39073
24,40548	38535
24,40962	39002
24,41373	36797
24,41785	37484
24,42198	36475
24,42610	36331
24,43022	36066
24,43433	37620
24,43847	34613
24,44258	33629
24,44670	33011
24,45083	33082
24,45495	32143
24,45907	33369
24,46320	33141
24,46732	32092
24,47143	30627
24,47557	32727
24,47968	29772
24,48380	30706
24,48793	29378
24,49205	29784
24,49617	29670
24,50030	28894
24,50442	29278
24,50853	26647
24,51267	28529
24,51678	27562
24,52090	27718
24,52502	27971
24,52915	29696
24,53327	29468
24,53738	26931
24,54152	26426
24,54563	27098
24,54975	25392
24,55388	27152
24,55800	24828
24,56212	26451
24,56625	26854
24,57037	26005
24,57448	25547
24,57862	25491
24,58273	24175
24,58685	25580
24,59098	27680
24,59510	25155
24,59922	24197
24,60335	25280
24,60747	24391
24,61158	26145
24,61570	24335
24,61983	23881
24,62395	24196
24,62807	24230
24,63220	22627
24,63632	23263
24,64043	23108
24,64457	24802
24,64868	22320
24,65280	24136
24,65693	23559
24,66105	22788
24,66517	24050
24,66930	24717
24,67342	26131
24,67753	26699
24,68167	30023
24,68578	30520
24,68990	35826
24,69403	42431
24,69815	47440
24,70227	55837
24,70638	68832
24,71052	83304
24,71463	103817
24,71875	129128
24,72288	163757
24,72700	201561
24,73112	241936
24,73525	296237
24,73937	349729
24,74348	419729
24,74762	484663
24,75173	557109
24,75585	628337
24,75998	700166
24,76410	769396
24,76822	825046
24,77235	866778
24,77647	902410
24,78058	926700
24,78472	929770
24,78883	910584
24,79295	904327
24,79707	881691
24,80120	843666
24,80532	794901
24,80943	755687
24,81357	714482
24,81768	675297
24,82180	630236
24,82593	572698
24,83005	532930
24,83417	501440
24,83830	460668
24,84242	430590
24,84653	399619
24,85067	368275
24,85478	351693
24,85890	327129
24,86303	307380
24,86715	283374
24,87127	272388
24,87540	259866
24,87952	249865
24,88363	240868
24,88775	228237
24,89188	220732
24,89600	214636
24,90012	208694
24,90425	202829
24,90837	201826
24,91248	194504
24,91662	190354
24,92073	189249
24,92485	181952
24,92898	182451
24,93310	179190
24,93722	173010
24,94135	170729
24,94547	166537
24,94958	158519
24,95372	155354
24,95783	147240
24,96195	147681
24,96608	137155
24,97020	135150
24,97432	132396
24,97843	123036
24,98257	124588
24,98668	115066
24,99080	109515
24,99493	103712
24,99905	102996
25,00317	95737
25,00730	92346
25,01142	89417
25,01553	82808
25,01967	83127
25,02378	80953
25,02790	76791
25,03203	72701
25,03615	73363
25,04027	69399
25,04440	68267
25,04852	66494
25,05263	65132
25,05677	61914
25,06088	61567
25,06500	61066
25,06912	60523
25,07325	57112
25,07737	57604
25,08148	58544
25,08562	54836
25,08973	53047
25,09385	53214
25,09798	51901
25,10210	49577
25,10622	52686
25,11035	51365
25,11447	45754
25,11858	47527
25,12272	46607
25,12683	43393
25,13095	44332
25,13508	43945
25,13920	44202
25,14332	42576
25,14745	40043
25,15157	41896
25,15568	41257
25,15982	39292
25,16393	39717
25,16805	38842
25,17217	36143
25,17630	35872
25,18042	37550
25,18453	34885
25,18867	36584
25,19278	36360
25,19690	36023
25,20103	34409
25,20515	33871
25,20927	33343
25,21340	35159
25,21752	31845
25,22163	31946
25,22577	32600
25,22988	31668
25,23400	32691
25,23813	30653
25,24225	28880
25,24637	31218
25,25050	30902
25,25462	29877
25,25873	28661
25,26285	29110
25,26698	28674
25,27110	29966
25,27522	28103
25,27935	28460
25,28347	27538
25,28758	28063
25,29172	26327
25,29583	28264
25,29995	26157
25,30408	27134
25,30820	26696
25,31232	25768
25,31645	25845
25,32057	25927
25,32468	26275
25,32882	25731
25,33293	24161
25,33705	26012
25,34118	23893
25,34530	24537
25,34942	24081
25,35353	24542
25,35767	25090
25,36178	24465
25,36590	22934
25,37003	24712
25,37415	22463
25,37827	24569
25,38240	22819
25,38652	24998
25,39063	25122
25,39477	23386
25,39888	22333
25,40300	22672
25,40713	22042
25,41125	22216
25,41537	21350
25,41950	23343
25,42362	22948
25,42773	23066
25,43187	21871
25,43598	23546
25,44010	22129
25,44422	23061
25,44835	23938
25,45247	21877
25,45658	22277
25,46072	23402
25,46483	20711
25,46895	22970
25,47308	20087
25,47720	20378
25,48132	20670
25,48545	22569
25,48957	23011
25,49368	20717
25,49782	21440
25,50193	20293
25,50605	22253
25,51018	20903
25,51430	20257
25,51842	21757
25,52255	21240
25,52667	20428
25,53078	20653
25,53490	22467
25,53903	20614
25,54315	22210
25,54727	21717
25,55140	19789
25,55552	20164
25,55963	22463
25,56377	20370
25,56788	20356
25,57200	21256
25,57613	21082
25,58025	20571
25,58437	21817
25,58850	22161
25,59262	21344
25,59673	21053
25,60087	20884
25,60498	20307
25,60910	20631
25,61323	21171
25,61735	21932
25,62147	20791
25,62558	19753
25,62972	20191
25,63383	20197
25,63795	20063
25,64208	20650
25,64620	21677
25,65032	20368
25,65445	17318
25,65857	19755
25,66268	19118
25,66682	19367
25,67093	18481
25,67505	18311
25,67918	20639
25,68330	19705
25,68742	20863
25,69155	19062
25,69567	19075
25,69978	18860
25,70392	20477
25,70803	19212
25,71215	19026
25,71627	20555
25,72040	17493
25,72452	20209
25,72863	19162
25,73277	17976
25,73688	18236
25,74100	15904
25,74513	19367
25,74925	18434
25,75337	18753
25,75750	18543
25,76162	18781
25,76573	18276
25,76987	17321
25,77398	19258
25,77810	17615
25,78223	20093
25,78635	18766
25,79047	19335
25,79460	18238
25,79872	18989
25,80283	18641
25,80695	18898
25,81108	17882
25,81520	18551
25,81932	17783
25,82345	17670
25,82757	16698
25,83168	16854
25,83582	18510
25,83993	19467
25,84405	18170
25,84818	16148
25,85230	17845
25,85642	17808
25,86055	16676
25,86467	16429
25,86878	17173
25,87292	17880
25,87703	15995
25,88115	17106
25,88528	17826
25,88940	16844
25,89352	15790
25,89763	16114
25,90177	15100
25,90588	16204
25,91000	15830
25,91413	16951
25,91825	16289
25,92237	16304
25,92650	14671
25,93062	16804
25,93473	17399
25,93887	16129
25,94298	16346
25,94710	16389
25,95123	16340
25,95535	15189
25,95947	16908
25,96360	14552
25,96772	16714
25,97183	15574
25,97597	17614
25,98008	16231
25,98420	14837
25,98832	15251
25,99245	14297
25,99657	15517
26,00068	14947
26,00482	16717
26,00893	16613
26,01305	16084
26,01718	15329
26,02130	17002
26,02542	15277
26,02955	16018
26,03367	16464
26,03778	15096
26,04192	14717
26,04603	15070
26,05015	16590
26,05428	16087
26,05840	14890
26,06252	15795
26,06665	14420
26,07077	16348
26,07488	15517
26,07900	15743
26,08313	14645
26,08725	15731
26,09137	16132
26,09550	15592
26,09962	14414
26,10373	16196
26,10787	15993
26,11198	16795
26,11610	15960
26,12023	16266
26,12435	16331
26,12847	16834
26,13260	15762
26,13672	12761
26,14083	14483
26,14497	15132
26,14908	16250
26,15320	15653
26,15733	15239
26,16145	15166
26,16557	14534
26,16968	16107
26,17382	15482
26,17793	15475
26,18205	14242
26,18618	15238
26,19030	15566
26,19442	15841
26,19855	15670
26,20267	15745
26,20678	15428
26,21092	14691
26,21503	16935
26,21915	15608
26,22328	15193
26,22740	13827
26,23152	14971
26,23565	14283
26,23977	16329
26,24388	14860
26,24802	14126
26,25213	14604
26,25625	16035
26,26037	15761
26,26450	14714
26,26862	14181
26,27273	14819
26,27687	14667
26,28098	13607
26,28510	14900
26,28923	14639
26,29335	15159
26,29747	12978
26,30160	15804
26,30572	14601
26,30983	15188
26,31397	15168
26,31808	14100
26,32220	15100
26,32633	14403
26,33045	14921
26,33457	14304
26,33870	15336
26,34282	15872
26,34693	15175
26,35105	14908
26,35518	16116
26,35930	14857
26,36342	13980
26,36755	14215
26,37167	16578
26,37578	15292
26,37992	14967
26,38403	14618
26,38815	14968
26,39228	16512
26,39640	15159
26,40052	16417
26,40465	14729
26,40877	14157
26,41288	15904
26,41702	14140
26,42113	14848
26,42525	15378
26,42938	15015
26,43350	14595
26,43762	15134
26,44173	14974
26,44587	14794
26,44998	15909
26,45410	14380
26,45823	14502
26,46235	13771
26,46647	13789
26,47060	14366
26,47472	14320
26,47883	14734
26,48297	15398
26,48708	14175
26,49120	15286
26,49533	15112
26,49945	15107
26,50357	16020
26,50770	14925
26,51182	16048
26,51593	14394
26,52007	15346
26,52418	14842
26,52830	15096
26,53242	15436
26,53655	16031
26,54067	15632
26,54478	14200
26,54892	13562
26,55303	14487
26,55715	15653
26,56128	15424
26,56540	15039
26,56952	14233
26,57365	16805
26,57777	15107
26,58188	14564
26,58602	14094
26,59013	14061
26,59425	15497
26,59838	14175
26,60250	14862
26,60662	16502
26,61075	15549
26,61487	14497
26,61898	14666
26,62310	15169
26,62723	14766
26,63135	15459
26,63547	16443
26,63960	17650
26,64372	14689
26,64783	15622
26,65197	15252
26,65608	15960
26,66020	15585
26,66433	14204
26,66845	13902
26,67257	15047
26,67670	15345
26,68082	14015
26,68493	14936
26,68907	14574
26,69318	16233
26,69730	15771
26,70143	14713
26,70555	14626
26,70967	16197
26,71378	15903
26,71792	15906
26,72203	14585
26,72615	14716
26,73028	14327
26,73440	14799
26,73852	13686
26,74265	14664
26,74677	14707
26,75088	15326
26,75502	12981
26,75913	14579
26,76325	17045
26,76738	14815
26,77150	13923
26,77562	14148
26,77975	14520
26,78387	13948
26,78798	15413
26,79212	14888
26,79623	14024
26,80035	15934
26,80448	13946
26,80860	14142
26,81272	14652
26,81683	14982
26,82097	14118
26,82508	14613
26,82920	14210
26,83333	15612
26,83745	14677
26,84157	14436
26,84570	14795
26,84982	14761
26,85393	14206
26,85807	15688
26,86218	15782
26,86630	15566
26,87043	16685
26,87455	17253
26,87867	14677
26,88280	16905
26,88692	16854
26,89103	16363
26,89517	19277
26,89928	22639
26,90340	24728
26,90752	26979
26,91165	34795
26,91577	40681
26,91988	50141
26,92402	62546
26,92813	78435
26,93225	98542
26,93638	118634
26,94050	146507
26,94462	175444
26,94875	211132
26,95287	240054
26,95698	283325
26,96112	321430
26,96523	360764
26,96935	393136
26,97348	424226
26,97760	445330
26,98172	473395
26,98585	484535
26,98997	490453
26,99408	492767
26,99820	490067
27,00233	483528
27,00645	468533
27,01057	452166
27,01470	436411
27,01882	404098
27,02293	386513
27,02707	359433
27,03118	343965
27,03530	318388
27,03943	299833
27,04355	278227
27,04767	264389
27,05180	242262
27,05592	225662
27,06003	209487
27,06417	197599
27,06828	187017
27,07240	168914
27,07653	159307
27,08065	151244
27,08477	144126
27,08888	129882
27,09302	122774
27,09713	117549
27,10125	115413
27,10538	107902
27,10950	97355
27,11362	97858
27,11775	94342
27,12187	87669
27,12598	83877
27,13012	82994
27,13423	76510
27,13835	75153
27,14248	73118
27,14660	70940
27,15072	65071
27,15485	61703
27,15897	62164
27,16308	59065
27,16722	56143
27,17133	57125
27,17545	54709
27,17957	52222
27,18370	50306
27,18782	50819
27,19193	47322
27,19607	46822
27,20018	44624
27,20430	45526
27,20843	43257
27,21255	41846
27,21667	40659
27,22080	39343
27,22492	39065
27,22903	38830
27,23317	36883
27,23728	35126
27,24140	35816
27,24553	34883
27,24965	34220
27,25377	33907
27,25790	35288
27,26202	31379
27,26613	29841
27,27025	31409
27,27438	32215
27,27850	31776
27,28262	31573
27,28675	31343
27,29087	29703
27,29498	29924
27,29912	30524
27,30323	28189
27,30735	26819
27,31148	28078
27,31560	28751
27,31972	27702
27,32385	25799
27,32797	26511
27,33208	25116
27,33622	26002
27,34033	25308
27,34445	24395
27,34858	25433
27,35270	24898
27,35682	25483
27,36093	24949
27,36507	23669
27,36918	23360
27,37330	24149
27,37743	23985
27,38155	22191
27,38567	24323
27,38980	23823
27,39392	21881
27,39803	21976
27,40217	20288
27,40628	22241
27,41040	21271
27,41453	21719
27,41865	20982
27,42277	22114
27,42690	22551
27,43102	20293
27,43513	22145
27,43927	21560
27,44338	21438
27,44750	20786
27,45162	20241
27,45575	19121
27,45987	20818
27,46398	20618
27,46812	22163
27,47223	19966
27,47635	20446
27,48048	21336
27,48460	20229
27,48872	19205
27,49285	20564
27,49697	19644
27,50108	19538
27,50522	21177
27,50933	19760
27,51345	20296
27,51758	20490
27,52170	20609
27,52582	20971
27,52995	20320
