D:\MassHunter\GCMS\1\data\Amal\Constant flow\70C\70C_1ml-min_7C-min_1.D Tue Aug 06 17:08:55 2024
Start of data points
6,24107	18025
6,24520	17124
6,24932	17128
6,25343	17185
6,25757	18214
6,26168	18452
6,26580	17159
6,26993	17834
6,27405	17793
6,27817	17739
6,28228	16973
6,28642	16664
6,29053	15959
6,29465	16366
6,29878	15675
6,30290	16667
6,30702	17171
6,31115	16438
6,31527	15623
6,31938	17789
6,32352	17439
6,32763	16596
6,33175	15593
6,33588	16314
6,34000	16691
6,34412	16139
6,34825	16001
6,35237	16722
6,35648	15243
6,36062	15459
6,36473	15221
6,36885	15992
6,37297	15278
6,37710	14699
6,38122	15307
6,38533	15159
6,38947	14920
6,39358	15824
6,39770	15941
6,40183	15523
6,40595	16162
6,41007	15035
6,41420	15839
6,41832	15730
6,42243	16174
6,42657	14860
6,43068	16480
6,43480	15327
6,43893	14891
6,44305	15175
6,44717	15217
6,45130	14677
6,45542	14236
6,45953	15003
6,46365	14865
6,46778	14560
6,47190	13834
6,47602	14279
6,48015	14229
6,48427	14271
6,48838	14767
6,49252	14968
6,49663	15700
6,50075	15219
6,50488	15864
6,50900	14035
6,51312	15295
6,51725	14929
6,52137	14294
6,52548	15366
6,52962	15590
6,53373	14561
6,53785	16029
6,54198	17102
6,54610	16464
6,55022	17577
6,55433	17735
6,55847	18489
6,56258	18706
6,56670	18324
6,57083	17748
6,57495	18370
6,57907	17731
6,58320	18969
6,58732	17334
6,59143	18270
6,59557	18220
6,59968	18557
6,60380	17119
6,60793	16078
6,61205	15696
6,61617	16274
6,62030	15979
6,62442	15249
6,62853	15265
6,63267	15120
6,63678	14458
6,64090	14392
6,64502	14721
6,64915	13754
6,65327	12779
6,65738	13067
6,66152	13853
6,66563	12722
6,66975	13171
6,67388	12780
6,67800	12657
6,68212	12999
6,68625	12883
6,69037	11686
6,69448	12312
6,69862	11734
6,70273	12429
6,70685	11994
6,71098	11360
6,71510	12518
6,71922	11905
6,72335	11580
6,72747	10240
6,73158	11145
6,73570	10936
6,73983	10981
6,74395	10500
6,74807	10991
6,75220	11758
6,75632	11587
6,76043	11152
6,76457	10183
6,76868	11084
6,77280	10473
6,77693	10823
6,78105	11533
6,78517	10934
6,78930	10389
6,79342	10321
6,79753	10297
6,80167	11293
6,80578	11049
6,80990	10318
6,81403	11138
6,81815	11023
6,82227	11005
6,82638	11525
6,83052	9890
6,83463	12057
6,83875	10851
6,84288	10043
6,84700	10992
6,85112	10230
6,85525	11139
6,85937	10446
6,86348	9486
6,86762	10568
6,87173	10262
6,87585	10144
6,87998	10719
6,88410	9913
6,88822	9877
6,89235	9856
6,89647	9465
6,90058	11275
6,90472	9588
6,90883	8890
6,91295	9276
6,91707	9813
6,92120	9836
6,92532	9296
6,92943	9520
6,93357	9561
6,93768	9709
6,94180	9698
6,94593	10107
6,95005	10023
6,95417	10134
6,95830	10082
6,96242	10496
6,96653	9708
6,97067	10055
6,97478	9491
6,97890	9582
6,98303	9240
6,98715	9392
6,99127	8996
6,99540	9269
6,99952	10443
7,00363	9518
7,00775	9486
7,01188	10490
7,01600	9637
7,02012	11792
7,02425	14148
7,02837	18864
7,03248	28250
7,03662	39774
7,04073	57223
7,04485	84769
7,04898	113416
7,05310	153657
7,05722	196260
7,06135	241724
7,06547	281846
7,06958	319833
7,07372	343730
7,07783	374131
7,08195	386035
7,08608	388814
7,09020	382424
7,09432	370866
7,09843	353559
7,10257	336403
7,10668	317913
7,11080	301025
7,11493	281416
7,11905	261623
7,12317	247065
7,12730	229050
7,13142	215618
7,13553	195501
7,13967	180134
7,14378	171483
7,14790	158117
7,15203	147220
7,15615	133570
7,16027	123915
7,16440	111894
7,16852	105937
7,17263	95910
7,17677	89549
7,18088	78963
7,18500	72214
7,18912	64829
7,19325	56959
7,19737	55687
7,20148	49334
7,20562	45602
7,20973	41827
7,21385	38295
7,21798	34304
7,22210	31743
7,22622	29321
7,23035	27139
7,23447	24552
7,23858	25046
7,24272	21298
7,24683	21533
7,25095	19859
7,25508	17898
7,25920	17296
7,26332	16213
7,26745	15410
7,27157	14534
7,27568	13900
7,27980	11898
7,28393	12345
7,28805	12520
7,29217	12347
7,29630	12400
7,30042	11635
7,30453	11156
7,30867	10979
7,31278	11155
7,31690	10409
7,32103	10352
7,32515	9569
7,32927	10694
7,33340	9182
7,33752	9402
7,34163	9972
7,34577	9525
7,34988	9478
7,35400	9119
7,35813	8103
7,36225	8274
7,36637	8914
7,37048	8057
7,37462	9222
7,37873	8265
7,38285	9051
7,38698	8555
7,39110	8590
7,39522	8138
7,39935	7680
7,40347	7914
7,40758	8138
7,41172	7911
7,41583	7749
7,41995	6932
7,42408	8144
7,42820	7783
7,43232	8124
7,43645	8022
7,44057	9800
7,44468	9391
7,44882	9690
7,45293	9933
7,45705	9349
7,46117	10265
7,46530	10352
7,46942	10218
7,47353	10047
7,47767	9475
7,48178	9723
7,48590	10109
7,49003	8859
7,49415	9384
7,49827	8293
7,50240	7792
7,50652	8597
7,51063	8430
7,51477	6694
7,51888	7280
7,52300	7378
7,52713	8139
7,53125	7672
7,53537	6638
7,53950	6737
7,54362	7068
7,54773	7088
7,55187	6986
7,55598	7475
7,56010	6756
7,56422	6602
7,56835	6761
7,57247	6474
7,57658	6401
7,58072	6172
7,58483	6609
7,58895	7475
7,59308	6709
7,59720	7169
7,60132	6797
7,60545	7190
7,60957	6686
7,61368	7647
7,61782	6104
7,62193	6209
7,62605	6815
7,63018	5765
7,63430	6594
7,63842	6650
7,64255	6510
7,64667	7065
7,65078	6468
7,65490	6026
7,65903	7014
7,66315	6190
7,66727	6351
7,67140	6418
7,67552	5958
7,67963	6232
7,68377	6259
7,68788	6940
7,69200	5835
7,69613	6619
7,70025	5691
7,70437	6276
7,70850	5953
7,71262	6344
7,71673	6728
7,72087	6557
7,72498	5970
7,72910	6835
7,73323	6193
7,73735	6030
7,74147	5880
7,74558	5667
7,74972	6702
7,75383	6002
7,75795	5810
7,76208	5600
7,76620	5780
7,77032	5804
7,77445	5843
7,77857	5877
7,78268	5791
7,78682	6021
7,79093	5620
7,79505	5127
7,79918	5560
7,80330	5950
7,80742	5746
7,81155	6552
7,81567	5755
7,81978	5143
7,82392	5832
7,82803	5531
7,83215	5519
7,83627	6485
7,84040	5901
7,84452	5003
7,84863	5975
7,85277	5180
7,85688	5101
7,86100	5891
7,86513	5928
7,86925	5487
7,87337	5555
7,87750	5773
7,88162	5914
7,88573	5729
7,88987	5171
7,89398	5513
7,89810	5714
7,90223	5092
7,90635	5643
7,91047	5502
7,91460	5629
7,91872	5608
7,92283	5295
7,92695	5905
7,93108	4833
7,93520	5752
7,93932	5495
7,94345	5222
7,94757	5773
7,95168	5462
7,95582	5191
7,95993	5475
7,96405	5067
7,96818	5418
7,97230	5134
7,97642	5753
7,98055	5487
7,98467	5424
7,98878	5795
7,99292	5401
7,99703	5111
8,00115	4894
8,00528	5139
8,00940	5202
8,01352	5428
8,01763	5128
8,02177	5639
8,02588	5711
8,03000	5958
8,03413	5491
8,03825	5078
8,04237	6027
8,04650	6274
8,05062	5456
8,05473	5780
8,05887	6037
8,06298	4853
8,06710	5367
8,07123	4992
8,07535	5667
8,07947	5697
8,08360	4852
8,08772	5624
8,09183	5636
8,09597	4562
8,10008	5114
8,10420	5016
8,10832	5748
8,11245	5188
8,11657	5273
8,12068	5038
8,12482	5369
8,12893	5438
8,13305	4844
8,13718	6218
8,14130	4919
8,14542	5732
8,14955	4914
8,15367	5163
8,15778	5457
8,16192	5097
8,16603	4965
8,17015	4772
8,17428	5035
8,17840	5859
8,18252	4965
8,18665	5033
8,19077	4578
8,19488	4920
8,19900	5038
8,20313	5243
8,20725	4845
8,21137	4999
8,21550	4889
8,21962	5554
8,22373	4565
8,22787	5380
8,23198	4552
8,23610	5205
8,24023	5528
8,24435	5185
8,24847	4687
8,25260	5185
8,25672	4875
8,26083	5015
8,26497	5058
8,26908	5081
8,27320	5109
8,27733	5289
8,28145	5083
8,28557	5123
8,28968	5399
8,29382	4909
8,29793	5580
8,30205	4668
8,30618	5030
8,31030	4286
8,31442	4825
8,31855	4861
8,32267	4555
8,32678	4275
8,33092	4993
8,33503	4639
8,33915	5385
8,34328	5114
8,34740	5172
8,35152	4833
8,35565	5049
8,35977	4617
8,36388	4626
8,36802	4383
8,37213	4322
8,37625	4857
8,38037	4694
8,38450	4629
8,38862	4033
8,39273	4746
8,39687	4235
8,40098	4732
8,40510	4591
8,40923	4239
8,41335	4809
8,41747	4642
8,42160	4077
8,42572	4406
8,42983	4421
8,43397	4073
8,43808	4017
8,44220	4580
8,44633	4205
8,45045	4291
8,45457	4239
8,45870	3902
8,46282	4479
8,46693	4224
8,47105	4841
8,47518	4802
8,47930	4414
8,48342	5200
8,48755	4808
8,49167	4317
8,49578	4785
8,49992	4326
8,50403	4505
8,50815	4824
8,51228	4264
8,51640	4894
8,52052	4095
8,52465	4746
8,52877	3520
8,53288	4300
8,53702	3915
8,54113	4952
8,54525	4407
8,54938	4654
8,55350	4429
8,55762	4468
8,56173	4782
8,56587	4103
8,56998	4424
8,57410	4318
8,57823	4153
8,58235	4488
8,58647	4125
8,59060	4409
8,59472	4466
8,59883	4044
8,60297	4254
8,60708	3891
8,61120	4268
8,61533	4800
8,61945	3982
8,62357	3943
8,62770	4913
8,63182	4157
8,63593	4952
8,64007	5256
8,64418	4264
8,64830	5290
8,65242	4693
8,65655	5189
8,66067	5043
8,66478	4905
8,66892	5393
8,67303	5216
8,67715	4840
8,68128	4967
8,68540	5254
8,68952	4953
8,69365	5239
8,69777	4045
8,70188	4593
8,70602	4386
8,71013	4157
8,71425	4376
8,71838	4026
8,72250	3586
8,72662	4056
8,73075	4493
8,73487	4019
8,73898	3948
8,74310	4635
8,74723	3630
8,75135	4165
8,75547	4622
8,75960	4046
8,76372	4259
8,76783	4161
8,77197	4724
8,77608	4418
8,78020	4018
8,78433	3984
8,78845	4256
8,79257	4331
8,79670	4620
8,80082	3926
8,80493	3928
8,80907	4396
8,81318	3981
8,81730	3662
8,82143	3594
8,82555	3919
8,82967	3997
8,83378	4353
8,83792	3720
8,84203	3972
8,84615	4967
8,85028	4538
8,85440	3958
8,85852	4260
8,86265	4264
8,86677	3799
8,87088	4564
8,87502	4102
8,87913	3434
8,88325	3551
8,88738	4141
8,89150	4351
8,89562	4346
8,89975	4458
8,90387	4403
8,90798	4277
8,91212	3855
8,91623	4560
8,92035	3704
8,92447	3929
8,92860	4295
8,93272	4265
8,93683	4223
8,94097	3637
8,94508	3524
8,94920	3827
8,95333	3892
8,95745	3270
8,96157	4241
8,96570	3719
8,96982	4026
8,97393	3602
8,97807	3373
8,98218	3496
8,98630	3352
8,99043	3806
8,99455	3711
8,99867	4016
9,00280	4186
9,00692	3717
9,01103	3204
9,01515	3899
9,01928	3737
9,02340	4136
9,02752	4141
9,03165	3583
9,03577	4129
9,03988	3847
9,04402	4058
9,04813	4116
9,05225	4121
9,05638	3431
9,06050	3878
9,06462	3423
9,06875	3678
9,07287	4361
9,07698	4069
9,08112	4092
9,08523	3876
9,08935	3775
9,09348	3545
9,09760	3800
9,10172	3742
9,10583	3672
9,10997	3827
9,11408	3449
9,11820	3389
9,12233	3608
9,12645	3405
9,13057	3290
9,13470	3763
9,13882	3421
9,14293	3870
9,14707	3562
9,15118	4570
9,15530	4242
9,15943	4306
9,16355	3864
9,16767	3662
9,17180	4392
9,17592	3561
9,18003	3940
9,18417	3782
9,18828	4906
9,19240	6834
9,19653	10220
9,20065	14663
9,20477	18842
9,20888	25084
9,21302	39162
9,21713	55266
9,22125	71408
9,22538	86869
9,22950	106287
9,23362	116874
9,23775	129857
9,24187	133478
9,24598	137744
9,25012	134736
9,25423	128438
9,25835	125401
9,26248	115358
9,26660	104405
9,27072	91700
9,27485	82799
9,27897	74210
9,28308	64355
9,28722	53998
9,29133	45368
9,29545	40854
9,29957	33630
9,30370	29592
9,30782	24812
9,31193	23237
9,31607	19664
9,32018	17744
9,32430	15326
9,32843	12986
9,33255	11750
9,33667	11442
9,34080	10608
9,34492	9195
9,34903	9137
9,35317	8256
9,35728	7720
9,36140	7549
9,36553	7400
9,36965	6477
9,37377	5917
9,37790	6372
9,38202	6300
9,38613	6034
9,39025	6271
9,39438	5200
9,39850	4997
9,40262	5057
9,40675	5218
9,41087	4706
9,41498	5390
9,41912	5197
9,42323	3905
9,42735	3771
9,43148	4390
9,43560	4099
9,43972	3693
9,44385	3930
9,44797	4775
9,45208	4649
9,45622	3755
9,46033	4253
9,46445	4148
9,46858	4337
9,47270	4175
9,47682	3619
9,48093	4057
9,48507	3928
9,48918	3661
9,49330	4038
9,49743	4252
9,50155	4310
9,50567	3564
9,50980	3534
9,51392	4029
9,51803	4544
9,52217	3486
9,52628	3944
9,53040	3367
9,53453	3547
9,53865	3517
9,54277	3563
9,54690	3033
9,55102	3234
9,55513	3780
9,55927	2893
9,56338	3877
9,56750	3698
9,57162	4145
9,57575	4035
9,57987	3424
9,58398	4013
9,58812	3679
9,59223	3828
9,59635	3695
9,60048	3520
9,60460	3585
9,60872	3318
9,61285	3678
9,61697	3576
9,62108	3805
9,62522	3225
9,62933	2976
9,63345	3870
9,63758	3206
9,64170	3335
9,64582	3500
9,64995	2937
9,65407	3145
9,65818	3774
9,66230	2721
9,66643	3312
9,67055	3103
9,67467	3529
9,67880	3066
9,68292	3647
9,68703	3538
9,69117	3171
9,69528	3997
9,69940	3833
9,70353	3129
9,70765	3014
9,71177	3248
9,71590	3111
9,72002	3523
9,72413	2775
9,72827	3569
9,73238	3111
9,73650	3485
9,74063	2843
9,74475	3439
9,74887	3311
9,75298	3096
9,75712	3749
9,76123	2787
9,76535	2780
9,76948	3488
9,77360	3088
9,77772	3481
9,78185	3330
9,78597	3101
9,79008	3091
9,79422	3264
9,79833	3261
9,80245	3593
9,80658	3192
9,81070	3848
9,81482	3533
9,81895	3632
9,82307	3531
9,82718	2865
9,83132	4163
9,83543	4006
9,83955	4222
9,84367	3631
9,84780	3351
9,85192	3637
9,85603	3510
9,86017	3538
9,86428	3290
9,86840	3030
9,87253	3385
9,87665	3360
9,88077	3533
9,88490	3018
9,88902	3054
9,89313	3082
9,89727	3125
9,90138	3291
9,90550	3835
9,90963	3731
9,91375	2667
9,91787	2815
9,92200	3187
9,92612	2884
9,93023	3072
9,93435	3446
9,93848	2927
9,94260	3155
9,94672	3138
9,95085	3404
9,95497	3205
9,95908	2563
9,96322	2442
9,96733	3316
9,97145	3045
9,97558	3255
9,97970	3586
9,98382	2694
9,98795	2872
9,99207	2999
9,99618	3691
10,00032	4332
10,00443	5012
10,00855	4782
10,01268	5990
10,01680	5565
10,02092	6122
10,02503	5612
10,02917	5437
10,03328	5125
10,03740	4781
10,04153	3628
10,04565	3842
10,04977	3398
10,05390	4254
10,05802	3125
10,06213	3782
10,06627	3151
10,07038	3280
10,07450	2802
10,07863	2891
10,08275	3353
10,08687	3337
10,09100	3265
10,09512	3177
10,09923	3191
10,10337	2922
10,10748	2751
10,11160	3282
10,11572	3235
10,11985	2833
10,12397	3436
10,12808	3265
10,13222	3114
10,13633	2611
10,14045	3419
10,14458	3205
10,14870	3132
10,15282	2989
10,15695	3067
10,16107	3422
10,16518	2617
10,16932	3134
10,17343	2366
10,17755	2729
10,18168	2726
10,18580	2970
10,18992	3179
10,19405	3218
10,19817	2740
10,20228	3337
10,20640	2455
10,21053	3804
10,21465	3208
10,21877	2789
10,22290	2909
10,22702	3030
10,23113	2684
10,23527	3052
10,23938	2663
10,24350	2903
10,24763	2863
10,25175	3463
10,25587	2974
10,26000	3121
10,26412	2960
10,26823	2494
10,27237	2255
10,27648	3048
10,28060	2571
10,28473	2595
10,28885	2971
10,29297	2911
10,29708	3475
10,30122	2946
10,30533	3013
10,30945	2903
10,31358	2680
10,31770	2951
10,32182	2783
10,32595	3257
10,33007	2416
10,33418	3458
10,33832	2849
10,34243	3288
10,34655	2262
10,35068	2641
10,35480	2669
10,35892	3138
10,36305	2912
10,36717	2661
10,37128	2525
10,37542	2963
10,37953	2584
10,38365	3192
10,38777	2975
10,39190	2901
10,39602	2722
10,40013	3065
10,40427	2525
10,40838	2854
10,41250	3338
10,41663	3195
10,42075	3012
10,42487	3157
10,42900	3095
10,43312	3268
10,43723	3468
10,44137	3177
10,44548	2498
10,44960	3596
10,45373	2305
10,45785	2843
10,46197	3296
10,46610	3687
10,47022	2976
10,47433	2386
10,47845	3299
10,48258	3258
10,48670	3212
10,49082	3455
10,49495	3505
10,49907	3098
10,50318	3324
10,50732	3671
10,51143	3582
10,51555	3518
10,51968	3749
10,52380	3806
10,52792	2909
10,53205	3888
10,53617	3307
10,54028	3000
10,54442	3855
10,54853	3556
10,55265	3993
10,55678	3944
10,56090	3793
10,56502	4865
10,56913	4519
10,57327	5252
10,57738	5265
10,58150	5551
10,58563	5479
10,58975	6220
10,59387	5865
10,59800	5472
10,60212	5486
10,60623	5388
10,61037	5008
10,61448	4180
10,61860	3946
10,62273	3740
10,62685	3767
10,63097	3254
10,63510	3134
10,63922	3322
10,64333	3085
10,64747	2915
10,65158	3194
10,65570	3096
10,65982	3087
10,66395	2892
10,66807	2648
10,67218	3130
10,67632	2785
10,68043	2547
10,68455	2990
10,68868	2702
10,69280	2803
10,69692	3101
10,70105	2575
10,70517	2553
10,70928	2969
10,71342	3005
10,71753	2650
10,72165	2719
10,72578	2624
10,72990	2564
10,73402	2635
10,73815	2958
10,74227	2920
10,74638	2764
10,75050	2935
10,75463	3071
10,75875	3272
10,76287	2626
10,76700	2808
10,77112	2857
10,77523	2257
10,77937	2951
10,78348	2355
10,78760	2648
10,79173	2444
10,79585	2557
10,79997	2783
10,80410	2871
10,80822	3031
10,81233	2584
10,81647	2916
10,82058	2851
10,82470	2871
10,82883	2076
10,83295	3010
10,83707	2873
10,84120	2654
10,84532	3286
10,84943	3854
10,85355	2772
10,85768	2547
10,86180	3465
10,86592	3437
10,87005	3270
10,87417	3035
10,87828	2877
10,88242	3375
10,88653	2880
10,89065	3696
10,89478	3807
10,89890	2250
10,90302	2653
10,90715	2883
10,91127	3001
10,91538	2628
10,91952	3310
10,92363	2363
10,92775	2788
10,93188	2861
10,93600	2855
10,94012	2869
10,94423	3109
10,94837	2554
10,95248	2852
10,95660	2835
10,96073	2948
10,96485	1939
10,96897	2350
10,97310	2376
10,97722	2774
10,98133	2775
10,98547	2409
10,98958	3231
10,99370	2452
10,99783	3309
11,00195	2621
11,00607	2275
11,01020	2113
11,01432	2216
11,01843	2978
11,02257	1984
11,02668	2792
11,03080	2340
11,03492	3019
11,03905	2904
11,04317	2520
11,04728	2235
11,05142	2414
11,05553	2593
11,05965	2567
11,06378	2274
11,06790	2511
11,07202	2167
11,07615	2828
11,08027	2441
11,08438	2466
11,08852	2295
11,09263	2208
11,09675	2482
11,10088	2869
11,10500	2533
11,10912	2795
11,11325	3240
11,11737	2720
11,12148	2960
11,12560	3023
11,12973	2878
11,13385	2744
11,13797	2510
11,14210	3025
11,14622	2421
11,15033	2432
11,15447	2478
11,15858	2731
11,16270	2871
11,16683	2402
11,17095	2502
11,17507	2207
11,17920	2460
11,18332	2859
11,18743	2790
11,19157	2625
11,19568	2803
11,19980	2714
11,20393	2331
11,20805	2479
11,21217	2700
11,21628	2855
11,22042	2651
11,22453	2904
11,22865	3023
11,23278	2904
11,23690	2593
11,24102	2974
11,24515	3631
11,24927	3006
11,25338	3079
11,25752	3277
11,26163	2972
11,26575	3493
11,26988	3074
11,27400	2698
11,27812	2926
11,28225	2409
11,28637	2917
11,29048	2936
11,29462	2593
11,29873	2934
11,30285	2856
11,30697	2891
11,31110	2460
11,31522	2996
11,31933	2992
11,32347	2806
11,32758	2683
11,33170	2668
11,33583	2810
11,33995	2618
11,34407	2668
11,34820	2535
11,35232	2819
11,35643	2748
11,36057	2294
11,36468	2379
11,36880	2474
11,37293	2237
11,37705	2849
11,38117	2278
11,38530	2569
11,38942	2682
11,39353	2804
11,39765	2567
11,40178	2332
11,40590	2350
11,41002	2488
11,41415	2075
11,41827	2797
11,42238	2610
11,42652	2937
11,43063	2702
11,43475	2838
11,43888	2290
11,44300	2256
11,44712	2717
11,45125	2874
11,45537	2315
11,45948	2819
11,46362	2361
11,46773	2353
11,47185	2479
11,47598	2132
11,48010	2674
11,48422	2332
11,48833	2688
11,49247	2005
11,49658	1946
11,50070	2636
11,50483	2319
11,50895	2249
11,51307	2566
11,51720	2967
11,52132	2796
11,52543	2748
11,52957	3061
11,53368	2310
11,53780	2623
11,54193	2885
11,54605	2884
11,55017	3627
11,55430	3044
11,55842	3172
11,56253	2519
11,56667	2517
11,57078	3576
11,57490	2747
11,57902	2768
11,58315	2961
11,58727	3227
11,59138	2713
11,59552	3263
11,59963	2508
11,60375	2387
11,60788	2620
11,61200	2521
11,61612	2536
11,62025	2531
11,62437	2448
11,62848	2320
11,63262	2946
11,63673	2689
11,64085	3167
11,64498	2798
11,64910	2381
11,65322	2472
11,65735	2440
11,66147	2392
11,66558	2588
11,66970	2418
11,67383	2571
11,67795	2728
11,68207	2440
11,68620	2701
11,69032	2768
11,69443	2570
11,69857	2343
11,70268	1947
11,70680	2641
11,71093	2783
11,71505	2839
11,71917	3049
11,72330	2836
11,72742	2429
11,73153	2446
11,73567	2443
11,73978	3093
11,74390	3760
11,74803	4545
11,75215	8037
11,75627	13616
11,76038	24623
11,76452	41889
11,76863	71141
11,77275	114155
11,77688	168767
11,78100	245934
11,78512	333540
11,78925	425424
11,79337	525433
11,79748	605402
11,80162	667502
11,80573	701597
11,80985	708436
11,81398	675739
11,81810	629534
11,82222	559252
11,82635	488207
11,83047	413780
11,83458	343925
11,83872	275451
11,84283	222877
11,84695	182731
11,85107	149339
11,85520	119278
11,85932	98150
11,86343	83346
11,86757	69541
11,87168	58343
11,87580	52435
11,87993	46253
11,88405	38380
11,88817	34560
11,89230	30141
11,89642	27961
11,90053	25724
11,90467	22970
11,90878	21517
11,91290	19150
11,91703	17370
11,92115	16005
11,92527	14018
11,92940	14366
11,93352	12398
11,93763	11708
11,94175	12100
11,94588	11506
11,95000	9440
11,95412	9304
11,95825	9146
11,96237	8959
11,96648	7561
11,97062	8489
11,97473	7604
11,97885	7756
11,98298	6946
11,98710	6577
11,99122	6266
11,99535	5499
11,99947	5929
12,00358	6787
12,00772	5698
12,01183	5761
12,01595	5450
12,02008	4759
12,02420	4421
12,02832	5496
12,03243	5086
12,03657	5697
12,04068	4949
12,04480	4786
12,04893	4675
12,05305	5100
12,05717	4237
12,06130	4360
12,06542	4361
12,06953	4729
12,07367	4498
12,07778	4411
12,08190	4294
12,08603	3562
12,09015	4189
12,09427	3788
12,09840	3074
12,10252	4334
12,10663	3697
12,11077	3663
12,11488	3584
12,11900	2992
12,12312	3027
12,12725	3144
12,13137	2879
12,13548	2879
12,13962	3435
12,14373	3369
12,14785	3576
12,15198	3804
12,15610	3126
12,16022	3151
12,16435	2885
12,16847	3056
12,17258	2973
12,17672	3774
12,18083	2747
12,18495	2459
12,18908	2678
12,19320	2431
12,19732	2688
12,20145	2918
12,20557	3044
12,20968	3215
12,21380	2780
12,21793	3251
12,22205	3070
12,22617	2485
12,23030	2326
12,23442	3044
12,23853	2019
12,24267	3092
12,24678	2668
12,25090	3213
12,25503	2917
12,25915	2311
12,26327	2488
12,26740	2470
12,27152	2832
12,27563	2577
12,27977	2615
12,28388	2361
12,28800	1923
12,29213	2273
12,29625	2885
12,30037	2113
12,30448	2543
12,30862	2718
12,31273	2418
12,31685	2799
12,32098	2414
12,32510	3515
12,32922	2486
12,33335	2659
12,33747	2896
12,34158	3517
12,34572	2934
12,34983	3649
12,35395	3250
12,35808	3077
12,36220	3050
12,36632	3132
12,37045	3658
12,37457	2865
12,37868	3037
12,38282	3176
12,38693	2752
12,39105	2808
12,39517	2570
12,39930	2504
12,40342	2906
12,40753	2413
12,41167	2407
12,41578	2116
12,41990	2340
12,42403	2623
12,42815	2565
12,43227	2700
12,43640	2604
12,44052	2138
12,44463	2061
12,44877	2128
12,45288	2555
12,45700	2501
12,46113	2727
12,46525	2198
12,46937	2496
12,47350	2564
12,47762	2593
12,48173	1832
12,48587	1784
12,48998	2471
12,49410	2397
12,49822	2252
12,50235	2033
12,50647	2289
12,51058	2483
12,51472	2383
12,51883	2670
12,52295	2744
12,52708	2485
12,53120	3030
12,53532	2412
12,53945	2170
12,54357	2692
12,54768	2477
12,55182	2156
12,55593	2844
12,56005	2052
12,56418	1727
12,56830	1952
12,57242	2597
12,57655	2305
12,58067	1988
12,58478	2298
12,58890	2306
12,59303	2412
12,59715	1860
12,60127	2139
12,60540	1634
12,60952	1937
12,61363	2053
12,61777	2727
12,62188	2104
12,62600	2521
12,63013	2180
12,63425	2697
12,63837	3090
12,64250	3521
12,64662	4540
12,65073	5580
12,65487	6089
12,65898	5633
12,66310	5103
12,66723	4724
12,67135	3468
12,67547	3129
12,67958	2714
12,68372	2301
12,68783	2158
12,69195	2401
12,69608	2219
12,70020	2315
12,70432	2373
12,70845	2025
12,71257	2432
12,71668	2260
12,72082	2264
12,72493	2520
12,72905	2011
12,73318	2191
12,73730	1876
12,74142	2316
12,74555	2447
12,74967	2701
12,75378	2826
12,75792	2817
12,76203	2199
12,76615	2523
12,77027	1767
12,77440	3182
12,77852	2696
12,78263	2391
12,78677	2744
12,79088	2192
12,79500	2313
12,79913	2984
12,80325	2153
12,80737	2476
12,81150	2143
12,81562	2860
12,81973	2449
12,82387	2556
12,82798	1978
12,83210	2288
12,83623	1979
12,84035	2002
12,84447	2578
12,84860	2161
12,85272	2108
12,85683	2351
12,86095	1993
12,86508	2133
12,86920	2197
12,87332	1828
12,87745	2047
12,88157	2184
12,88568	1736
12,88982	2131
12,89393	2181
12,89805	2406
12,90218	2235
12,90630	1542
12,91042	1910
12,91455	2213
12,91867	2236
12,92278	2831
12,92692	2357
12,93103	2530
12,93515	1572
12,93928	2097
12,94340	2384
12,94752	2659
12,95163	2081
12,95577	2783
12,95988	2502
12,96400	3273
12,96813	3129
12,97225	3455
12,97637	3769
12,98050	3999
12,98462	4970
12,98873	5431
12,99287	5571
12,99698	6288
13,00110	5273
13,00523	5910
13,00935	5559
13,01347	5112
13,01760	4763
13,02172	5638
13,02583	6475
13,02997	8089
13,03408	11755
13,03820	19357
13,04232	31352
13,04645	53258
13,05057	83213
13,05468	126193
13,05882	177779
13,06293	241291
13,06705	302946
13,07118	367661
13,07530	415327
13,07942	448173
13,08355	455777
13,08767	430994
13,09178	404640
13,09592	362010
13,10003	316181
13,10415	268255
13,10828	223035
13,11240	177604
13,11652	148230
13,12065	116158
13,12477	93989
13,12888	77131
13,13300	64004
13,13713	53212
13,14125	44936
13,14537	36372
13,14950	31939
13,15362	28052
13,15773	24492
13,16187	22516
13,16598	19179
13,17010	16465
13,17423	15123
13,17835	12557
13,18247	12374
13,18660	12131
13,19072	12149
13,19483	10568
13,19897	8699
13,20308	8354
13,20720	8466
13,21133	8079
13,21545	6676
13,21957	7524
13,22368	6834
13,22782	6782
13,23193	6855
13,23605	5968
13,24018	5680
13,24430	5388
13,24842	5172
13,25255	5314
13,25667	4800
13,26078	4341
13,26492	4246
13,26903	4893
13,27315	4578
13,27728	3685
13,28140	3587
13,28552	4099
13,28965	3719
13,29377	3308
13,29788	3191
13,30202	3300
13,30613	3201
13,31025	3237
13,31437	3585
13,31850	3616
13,32262	3221
13,32673	2837
13,33087	3090
13,33498	2219
13,33910	2921
13,34323	2297
13,34735	2583
13,35147	2768
13,35560	2849
13,35972	2378
13,36383	2896
13,36797	2503
13,37208	3482
13,37620	3039
13,38033	2641
13,38445	2256
13,38857	2868
13,39270	2587
13,39682	2220
13,40093	2982
13,40505	2942
13,40918	3098
13,41330	2866
13,41742	2272
13,42155	2480
13,42567	2870
13,42978	2406
13,43392	2092
13,43803	2430
13,44215	2656
13,44628	2375
13,45040	2687
13,45452	2604
13,45865	2077
13,46277	1982
13,46688	2952
13,47102	2287
13,47513	1556
13,47925	2481
13,48338	1820
13,48750	2176
13,49162	1906
13,49573	2092
13,49987	1904
13,50398	1822
13,50810	2127
13,51223	2110
13,51635	2277
13,52047	2392
13,52460	2160
13,52872	2506
13,53283	2479
13,53697	2508
13,54108	2492
13,54520	2613
13,54933	2952
13,55345	3640
13,55757	3794
13,56170	3562
13,56582	4291
13,56993	3648
13,57407	4251
13,57818	3469
13,58230	3138
13,58642	3565
13,59055	3242
13,59467	3184
13,59878	2202
13,60292	2917
13,60703	1929
13,61115	2355
13,61528	2562
13,61940	2334
13,62352	2478
13,62765	2338
13,63177	2461
13,63588	2475
13,64002	2362
13,64413	1793
13,64825	2201
13,65238	2378
13,65650	1788
13,66062	2150
13,66475	2183
13,66887	1440
13,67298	1955
13,67710	1542
13,68123	2571
13,68535	2171
13,68947	1793
13,69360	2106
13,69772	2278
13,70183	2083
13,70597	1911
13,71008	2226
13,71420	2083
13,71833	2266
13,72245	1910
13,72657	2334
13,73070	2166
13,73482	1968
13,73893	1680
13,74307	1430
13,74718	1737
13,75130	2076
13,75543	1806
13,75955	2238
13,76367	2499
13,76778	2103
13,77192	1552
13,77603	2416
13,78015	2112
13,78428	2111
13,78840	2005
13,79252	1648
13,79665	1814
13,80077	1570
13,80488	2059
13,80902	2047
13,81313	2184
13,81725	1829
13,82138	1982
13,82550	1596
13,82962	2236
13,83375	1905
13,83787	2067
13,84198	1768
13,84612	1759
13,85023	1895
13,85435	1871
13,85847	1748
13,86260	2445
13,86672	2238
13,87083	1663
13,87497	1436
13,87908	1711
13,88320	2300
13,88733	1827
13,89145	2126
13,89557	1507
13,89970	1999
13,90382	1679
13,90793	2353
13,91207	1714
13,91618	1945
13,92030	1606
13,92443	1717
13,92855	1953
13,93267	1358
13,93680	2196
13,94092	2158
13,94503	1785
13,94915	1556
13,95328	2337
13,95740	1659
13,96152	1665
13,96565	1635
13,96977	1376
13,97388	1632
13,97802	2385
13,98213	1471
13,98625	1913
13,99038	2039
13,99450	2550
13,99862	1598
14,00275	1927
14,00687	1383
14,01098	1659
14,01512	2335
14,01923	2293
14,02335	1882
14,02748	2339
14,03160	2551
14,03572	2948
14,03985	2360
14,04397	2178
14,04808	1974
14,05220	2598
14,05633	2582
14,06045	2587
14,06457	1967
14,06870	2538
14,07282	3325
14,07693	2492
14,08107	2126
14,08518	1915
14,08930	1658
14,09343	1962
14,09755	1923
14,10167	2568
14,10580	2167
14,10992	2587
14,11403	2123
14,11817	2102
14,12228	1775
14,12640	1392
14,13053	1954
14,13465	1685
14,13877	1932
14,14288	1803
14,14702	1618
14,15113	2260
14,15525	1754
14,15938	2070
14,16350	2338
14,16762	1542
14,17175	2127
14,17587	1663
14,17998	1682
14,18412	2069
14,18823	1537
14,19235	1743
14,19648	1771
14,20060	1514
14,20472	1677
14,20885	1986
14,21297	2055
14,21708	2061
14,22122	1858
14,22533	1494
14,22945	1348
14,23357	1888
14,23770	2032
14,24182	1609
14,24593	1673
14,25007	1342
14,25418	2402
14,25830	2670
14,26243	3653
14,26655	7850
14,27067	14379
14,27480	29423
14,27892	57081
14,28303	97035
14,28717	169314
14,29128	258036
14,29540	383376
14,29953	517842
14,30365	678077
14,30777	822373
14,31190	937159
14,31602	1024744
14,32013	1057854
14,32425	1044988
14,32838	973942
14,33250	871888
14,33662	745621
14,34075	620174
14,34487	501839
14,34898	397187
14,35312	313524
14,35723	250225
14,36135	194676
14,36548	156443
14,36960	127722
14,37372	103567
14,37785	87753
14,38197	72466
14,38608	62597
14,39022	54627
14,39433	46119
14,39845	38653
14,40258	35972
14,40670	31744
14,41082	27504
14,41493	25504
14,41907	23849
14,42318	21208
14,42730	18440
14,43143	17841
14,43555	17273
14,43967	15593
14,44380	14440
14,44792	11158
14,45203	11225
14,45617	10503
14,46028	11117
14,46440	10374
14,46853	9631
14,47265	8987
14,47677	8836
14,48090	8107
14,48502	7605
14,48913	8233
14,49327	6855
14,49738	6900
14,50150	5658
14,50562	6696
14,50975	5906
14,51387	5618
14,51798	5168
14,52212	5292
14,52623	5572
14,53035	5129
14,53448	4098
14,53860	4317
14,54272	4192
14,54685	3456
14,55097	4107
14,55508	3956
14,55922	3569
14,56333	4053
14,56745	3515
14,57158	3503
14,57570	3942
14,57982	3427
14,58395	3222
14,58807	3730
14,59218	3584
14,59630	3198
14,60043	3220
14,60455	3439
14,60867	2176
14,61280	3358
14,61692	3531
14,62103	2822
14,62517	2792
14,62928	3089
14,63340	2745
14,63753	2705
14,64165	2401
14,64577	3260
14,64990	2599
14,65402	2749
14,65813	2479
14,66227	2079
14,66638	2295
14,67050	2878
14,67463	2903
14,67875	2186
14,68287	2599
14,68698	2311
14,69112	2602
14,69523	2548
14,69935	2235
14,70348	2142
14,70760	1818
14,71172	2720
14,71585	2019
14,71997	2842
14,72408	2208
14,72822	2642
14,73233	1922
14,73645	2496
14,74058	1358
14,74470	1714
14,74882	1991
14,75295	2430
14,75707	2102
14,76118	1651
14,76532	2503
14,76943	1883
14,77355	1828
14,77767	2150
14,78180	1909
14,78592	2692
14,79003	2775
14,79417	2675
14,79828	2937
14,80240	3086
14,80653	3791
14,81065	4794
14,81477	5806
14,81890	6248
14,82302	7460
14,82713	8696
14,83127	9080
14,83538	10146
14,83950	10407
14,84363	11194
14,84775	10809
14,85187	9540
14,85600	8865
14,86012	7404
14,86423	7281
14,86835	6329
14,87248	5768
14,87660	4635
14,88072	4496
14,88485	5219
14,88897	3518
14,89308	3071
14,89722	2426
14,90133	2486
14,90545	2555
14,90958	2316
14,91370	2002
14,91782	1862
14,92195	2100
14,92607	1666
14,93018	2486
14,93432	2176
14,93843	1392
14,94255	2110
14,94668	1830
14,95080	2064
14,95492	1376
14,95903	1657
14,96317	1771
14,96728	2707
14,97140	1576
14,97553	1643
14,97965	1828
14,98377	1751
14,98790	1501
14,99202	1464
14,99613	1915
15,00027	1437
15,00438	1697
15,00850	2255
15,01263	1712
15,01675	1313
15,02087	1798
15,02500	1823
15,02912	1120
15,03323	1554
15,03737	1970
15,04148	1542
15,04560	1335
15,04972	1739
15,05385	1466
15,05797	1589
15,06208	1785
15,06622	1946
15,07033	1997
15,07445	1912
15,07858	2109
15,08270	2043
15,08682	3409
15,09095	4074
15,09507	4383
15,09918	4344
15,10332	3263
15,10743	3721
15,11155	2603
15,11568	2168
15,11980	1930
15,12392	1628
15,12805	1549
15,13217	1367
15,13628	1240
15,14040	1238
15,14453	1306
15,14865	1569
15,15277	1486
15,15690	1617
15,16102	1550
15,16513	1608
15,16927	1733
15,17338	1490
15,17750	1315
15,18163	1347
15,18575	1438
15,18987	1884
15,19400	1784
15,19812	1093
15,20223	1435
15,20637	1929
15,21048	1792
15,21460	872
15,21873	1374
15,22285	1420
15,22697	2008
15,23108	1526
15,23522	1567
15,23933	1665
15,24345	1195
15,24758	1193
15,25170	1603
15,25582	1903
15,25995	1197
15,26407	1182
15,26818	1132
15,27232	1784
15,27643	1586
15,28055	1682
15,28468	1216
15,28880	1464
15,29292	1182
15,29705	1746
15,30117	1384
15,30528	1488
15,30942	1394
15,31353	1479
15,31765	1402
15,32177	1173
15,32590	1281
15,33002	1455
15,33413	1354
15,33827	1175
15,34238	909
15,34650	1682
15,35063	1793
15,35475	1902
15,35887	1594
15,36300	2070
15,36712	1730
15,37123	1817
15,37537	2099
15,37948	1369
15,38360	2104
15,38773	1843
15,39185	1464
15,39597	2094
15,40010	1937
15,40422	1362
15,40833	1809
15,41245	1459
15,41658	943
15,42070	1060
15,42482	1347
15,42895	1321
15,43307	772
15,43718	1549
15,44132	1164
15,44543	1756
15,44955	2811
15,45368	4974
15,45780	8772
15,46192	15944
15,46605	30443
15,47017	56146
15,47428	91906
15,47842	145591
15,48253	217600
15,48665	299623
15,49078	384287
15,49490	471432
15,49902	529706
15,50313	570798
15,50727	581060
15,51138	560017
15,51550	507201
15,51963	448478
15,52375	380403
15,52787	311049
15,53200	247907
15,53612	195912
15,54023	155135
15,54437	122527
15,54848	99117
15,55260	77061
15,55673	63396
15,56085	52664
15,56497	41157
15,56910	35582
15,57322	29673
15,57733	28498
15,58147	22725
15,58558	20684
15,58970	17593
15,59382	15721
15,59795	14590
15,60207	13482
15,60618	11276
15,61032	9814
15,61443	9309
15,61855	9585
15,62268	8543
15,62680	7014
15,63092	7146
15,63505	6582
15,63917	5794
15,64328	5814
15,64742	7018
15,65153	5201
15,65565	5554
15,65978	4336
15,66390	4080
15,66802	4037
15,67215	4076
15,67627	3912
15,68038	4273
15,68452	2942
15,68863	3091
15,69275	3246
15,69687	3628
15,70100	2930
15,70512	3060
15,70923	3272
15,71337	3076
15,71748	2469
15,72160	2469
15,72573	2179
15,72985	2434
15,73397	1761
15,73810	2316
15,74222	2508
15,74633	2579
15,75047	3264
15,75458	2324
15,75870	2261
15,76283	1945
15,76695	2639
15,77107	2053
15,77520	2041
15,77932	2057
15,78343	2066
15,78755	1634
15,79168	2360
15,79580	1737
15,79992	2250
15,80405	1887
15,80817	2113
15,81228	1305
15,81642	1762
15,82053	1411
15,82465	1634
15,82878	1693
15,83290	1511
15,83702	1705
15,84115	1607
15,84527	1523
15,84938	1689
15,85352	1375
15,85763	1504
15,86175	1693
15,86588	1810
15,87000	1182
15,87412	1932
15,87823	1310
15,88237	1794
15,88648	1370
15,89060	1006
15,89473	1684
15,89885	1588
15,90297	1269
15,90710	1218
15,91122	952
15,91533	1531
15,91947	1156
15,92358	1231
15,92770	1177
15,93183	1358
15,93595	1447
15,94007	721
15,94420	1103
15,94832	1096
15,95243	1510
15,95657	1364
15,96068	1574
15,96480	825
15,96892	1165
15,97305	1615
15,97717	1139
15,98128	1113
15,98542	950
15,98953	1295
15,99365	819
15,99778	1257
16,00190	766
16,00602	1449
16,01015	1496
16,01427	1427
16,01838	1207
16,02252	973
16,02663	1298
16,03075	1323
16,03488	1306
16,03900	1456
16,04312	1208
16,04725	1293
16,05137	1269
16,05548	1720
16,05960	2672
16,06373	1720
16,06785	2287
16,07197	3233
16,07610	3251
16,08022	3030
16,08433	3147
16,08847	4202
16,09258	3993
16,09670	3489
16,10083	3554
16,10495	2990
16,10907	4270
16,11320	4336
16,11732	4121
16,12143	2229
16,12557	3199
16,12968	2865
16,13380	2229
16,13793	2909
16,14205	2339
16,14617	2077
16,15028	2380
16,15442	1506
16,15853	1086
16,16265	1305
16,16678	957
16,17090	1077
16,17502	1255
16,17915	1602
16,18327	1187
16,18738	1615
16,19152	775
16,19563	1104
16,19975	1257
16,20388	1655
16,20800	1164
16,21212	1472
16,21625	1764
16,22037	1161
16,22448	1206
16,22862	1197
16,23273	1258
16,23685	793
16,24097	1080
16,24510	1520
16,24922	696
16,25333	1208
16,25747	877
16,26158	1224
16,26570	1542
16,26983	1163
16,27395	1027
16,27807	750
16,28220	893
16,28632	821
16,29043	795
16,29457	904
16,29868	673
16,30280	1007
16,30693	1097
16,31105	1116
16,31517	1020
16,31930	1148
16,32342	1284
16,32753	1443
16,33165	865
16,33578	578
16,33990	1319
16,34402	1389
16,34815	1517
16,35227	1293
16,35638	797
16,36052	1258
16,36463	947
16,36875	1094
16,37288	1465
16,37700	1082
16,38112	986
16,38525	989
16,38937	1181
16,39348	681
16,39762	752
16,40173	1481
16,40585	1124
16,40998	832
16,41410	1470
16,41822	1048
16,42233	1441
16,42647	1644
16,43058	1486
16,43470	1066
16,43883	1141
16,44295	1095
16,44707	1065
16,45120	1228
16,45532	1221
16,45943	1620
16,46357	1098
16,46768	455
16,47180	1052
16,47593	846
16,48005	1412
16,48417	1185
16,48830	1232
16,49242	1264
16,49653	2275
16,50067	2859
16,50478	2411
16,50890	4628
16,51302	4749
16,51715	4217
16,52127	5959
16,52538	5914
16,52952	5014
16,53363	5106
16,53775	4871
16,54188	4600
16,54600	4415
16,55012	3994
16,55425	3767
16,55837	2502
16,56248	2214
16,56662	2302
16,57073	1677
16,57485	1650
16,57898	2412
16,58310	3064
16,58722	4342
16,59135	9284
16,59547	16450
16,59958	36657
16,60370	70805
16,60783	125233
16,61195	216971
16,61607	342884
16,62020	487173
16,62432	664493
16,62843	848882
16,63257	1031911
16,63668	1187791
16,64080	1264704
16,64493	1274220
16,64905	1215985
16,65317	1108730
16,65730	963210
16,66142	804734
16,66553	655957
16,66967	512008
16,67378	400608
16,67790	307570
16,68203	239538
16,68615	189742
16,69027	151835
16,69438	125665
16,69852	103423
16,70263	86348
16,70675	73566
16,71088	61273
16,71500	50631
16,71912	46844
16,72325	40846
16,72737	35940
16,73148	30346
16,73562	27977
16,73973	24814
16,74385	23666
16,74798	19174
16,75210	19533
16,75622	16707
16,76035	16822
16,76447	14032
16,76858	13155
16,77272	12589
16,77683	11653
16,78095	11238
16,78507	9823
16,78920	8977
16,79332	9192
16,79743	7746
16,80157	7291
16,80568	7039
16,80980	7618
16,81393	6228
16,81805	6505
16,82217	5641
16,82630	6028
16,83042	5209
16,83453	5173
16,83867	4688
16,84278	4393
16,84690	4197
16,85103	4188
16,85515	3685
16,85927	3062
16,86340	4501
16,86752	3393
16,87163	3193
16,87575	2348
16,87988	2653
16,88400	3199
16,88812	2429
16,89225	2709
16,89637	3038
16,90048	3399
16,90462	2813
16,90873	1811
16,91285	3203
16,91698	2300
16,92110	2192
16,92522	1764
16,92935	2409
16,93347	2009
16,93758	2421
16,94172	2727
16,94583	2102
16,94995	2986
16,95408	2424
16,95820	2472
16,96232	2387
16,96643	2119
16,97057	2002
16,97468	1953
16,97880	1669
16,98293	1675
16,98705	1576
16,99117	1749
16,99530	1705
16,99942	1765
17,00353	1510
17,00767	1517
17,01178	1488
17,01590	1932
17,02003	1652
17,02415	1207
17,02827	1243
17,03240	1112
17,03652	1420
17,04063	1574
17,04477	710
17,04888	1144
17,05300	1304
17,05712	935
17,06125	1277
17,06537	1632
17,06948	1019
17,07362	1556
17,07773	1075
17,08185	834
17,08598	1403
17,09010	748
17,09422	1096
17,09835	1345
17,10247	496
17,10658	1082
17,11072	669
17,11483	866
17,11895	1253
17,12308	1118
17,12720	1056
17,13132	1252
17,13545	1184
17,13957	1287
17,14368	842
17,14780	972
17,15193	904
17,15605	1030
17,16017	1101
17,16430	2036
17,16842	1809
17,17253	2048
17,17667	1496
17,18078	1959
17,18490	2104
17,18903	2272
17,19315	2655
17,19727	2599
17,20140	2415
17,20552	1673
17,20963	2305
17,21377	1506
17,21788	1062
17,22200	1241
17,22613	1697
17,23025	1384
17,23437	767
17,23850	1474
17,24262	1473
17,24673	1167
17,25085	1298
17,25498	1331
17,25910	1200
17,26322	766
17,26735	1705
17,27147	1422
17,27558	819
17,27972	1222
17,28383	1934
17,28795	1777
17,29208	3135
17,29620	3693
17,30032	3815
17,30445	3114
17,30857	2640
17,31268	1634
17,31682	1933
17,32093	1217
17,32505	1193
17,32918	1106
17,33330	609
17,33742	1315
17,34153	1175
17,34567	2028
17,34978	4017
17,35390	9148
17,35803	15087
17,36215	30708
17,36627	56167
17,37040	95223
17,37452	146124
17,37863	218956
17,38277	304039
17,38688	394611
17,39100	475679
17,39513	544145
17,39925	570449
17,40337	580294
17,40750	553079
17,41162	503272
17,41573	447560
17,41987	379451
17,42398	307025
17,42810	247412
17,43222	197506
17,43635	159334
17,44047	121381
17,44458	94435
17,44872	77183
17,45283	63098
17,45695	50746
17,46108	43226
17,46520	36638
17,46932	29201
17,47345	26016
17,47757	22877
17,48168	19642
17,48582	18420
17,48993	14502
17,49405	14497
17,49818	12889
17,50230	11401
17,50642	10633
17,51055	8996
17,51467	8539
17,51878	7988
17,52290	6357
17,52703	7270
17,53115	5261
17,53527	5537
17,53940	5140
17,54352	4556
17,54763	3902
17,55177	4227
17,55588	2988
17,56000	2893
17,56413	2414
17,56825	2975
17,57237	3633
17,57650	2723
17,58062	2312
17,58473	1173
17,58887	2714
17,59298	2128
17,59710	2401
17,60123	2136
17,60535	2179
17,60947	2279
17,61358	2258
17,61772	1422
17,62183	1828
17,62595	1864
17,63008	1007
17,63420	1210
17,63832	1172
17,64245	2000
17,64657	1102
17,65068	1232
17,65482	1628
17,65893	952
17,66305	1900
17,66718	1709
17,67130	2432
17,67542	4792
17,67955	10952
17,68367	22037
17,68778	44600
17,69192	77954
17,69603	126304
17,70015	196744
17,70427	285173
17,70840	382193
17,71252	488012
17,71663	570680
17,72077	628462
17,72488	653436
17,72900	647982
17,73313	611134
17,73725	539907
17,74137	454645
17,74550	369681
17,74962	289407
17,75373	230627
17,75787	181215
17,76198	139906
17,76610	108182
17,77023	83828
17,77435	67314
17,77847	55368
17,78260	44837
17,78672	40015
17,79083	32433
17,79495	28341
17,79908	23990
17,80320	21127
17,80732	19745
17,81145	15393
17,81557	14989
17,81968	12194
17,82382	13028
17,82793	10127
17,83205	10208
17,83618	8713
17,84030	7647
17,84442	7977
17,84855	6623
17,85267	6344
17,85678	6478
17,86092	5494
17,86503	4935
17,86915	4232
17,87328	4381
17,87740	3899
17,88152	4042
17,88563	4115
17,88977	3846
17,89388	3497
17,89800	2820
17,90213	2868
17,90625	2551
17,91037	3047
17,91450	2954
17,91862	2300
17,92273	2872
17,92687	2119
17,93098	2920
17,93510	1948
17,93923	2107
17,94335	2252
17,94747	2180
17,95160	1635
17,95572	2072
17,95983	1926
17,96397	1747
17,96808	1795
17,97220	1380
17,97632	1700
17,98045	1861
17,98457	1958
17,98868	1627
17,99282	1332
17,99693	2149
18,00105	1868
18,00518	1913
18,00930	2003
18,01342	1785
18,01755	1557
18,02167	1316
18,02578	1800
18,02992	983
18,03403	1914
18,03815	1581
18,04228	2080
18,04640	2269
18,05052	2046
18,05465	2648
18,05877	2655
18,06288	2102
18,06700	2246
18,07113	2166
18,07525	2029
18,07937	2032
18,08350	1901
18,08762	1810
18,09173	1937
18,09587	1539
18,09998	1497
18,10410	2060
18,10823	1252
18,11235	1462
18,11647	1200
18,12060	1522
18,12472	1500
18,12883	1137
18,13297	1878
18,13708	1076
18,14120	1599
18,14533	1455
18,14945	1800
18,15357	1145
18,15768	1438
18,16182	1639
18,16593	2101
18,17005	1964
18,17418	1569
18,17830	1564
18,18242	1047
18,18655	1335
18,19067	1410
18,19478	2054
18,19892	1497
18,20303	1498
18,20715	1375
18,21128	1386
18,21540	1580
18,21952	1587
18,22365	1665
18,22777	876
18,23188	1065
18,23602	926
18,24013	1235
18,24425	1008
18,24837	1142
18,25250	1589
18,25662	988
18,26073	1163
18,26487	847
18,26898	622
18,27310	926
18,27723	991
18,28135	563
18,28547	801
18,28960	867
18,29372	456
18,29783	853
18,30197	897
18,30608	1022
18,31020	1072
18,31433	980
18,31845	1631
18,32257	847
18,32670	1054
18,33082	554
18,33493	649
18,33905	1137
18,34318	496
18,34730	1174
18,35142	702
18,35555	622
18,35967	1142
18,36378	1145
18,36792	1038
18,37203	1331
18,37615	690
18,38028	861
18,38440	1340
18,38852	929
18,39265	971
18,39677	1075
18,40088	962
18,40502	1719
18,40913	1660
18,41325	3504
18,41738	6219
18,42150	14201
18,42562	27992
18,42973	52888
18,43387	92773
18,43798	146218
18,44210	220484
18,44623	312158
18,45035	394933
18,45447	492120
18,45860	565506
18,46272	616724
18,46683	632110
18,47097	608746
18,47508	558269
18,47920	481200
18,48333	408577
18,48745	327793
18,49157	264379
18,49570	207001
18,49982	158113
18,50393	126367
18,50807	98973
18,51218	79627
18,51630	64384
18,52042	50552
18,52455	42325
18,52867	35580
18,53278	31131
18,53692	25544
18,54103	23656
18,54515	19321
18,54928	16943
18,55340	16009
18,55752	13452
18,56165	12787
18,56577	10110
18,56988	10021
18,57402	8431
18,57813	7971
18,58225	7170
18,58638	6868
18,59050	6308
18,59462	6967
18,59875	5764
18,60287	5656
18,60698	3577
18,61110	4379
18,61523	4634
18,61935	4664
18,62347	4470
18,62760	3789
18,63172	3164
18,63583	2573
18,63997	2856
18,64408	3129
18,64820	2857
18,65233	3219
18,65645	2216
18,66057	2047
18,66470	2316
18,66882	1465
18,67293	2573
18,67707	1593
18,68118	2124
18,68530	1486
18,68943	2053
18,69355	2376
18,69767	2377
18,70178	2719
18,70592	3817
18,71003	8492
18,71415	16724
18,71828	31091
18,72240	63445
18,72652	115730
18,73065	198237
18,73477	326100
18,73888	503215
18,74302	722962
18,74713	984914
18,75125	1275915
18,75538	1566109
18,75950	1832317
18,76362	2031610
18,76775	2105106
18,77187	2066309
18,77598	1906907
18,78012	1673687
18,78423	1398283
18,78835	1118034
18,79248	869449
18,79660	667928
18,80072	503372
18,80483	383347
18,80897	301210
18,81308	237812
18,81720	191534
18,82133	154040
18,82545	127015
18,82957	107089
18,83370	93829
18,83782	77721
18,84193	69006
18,84607	61063
18,85018	54125
18,85430	48267
18,85843	43112
18,86255	37458
18,86667	35719
18,87080	32551
18,87492	29461
18,87903	28850
18,88317	25302
18,88728	23808
18,89140	22282
18,89552	18763
18,89965	18686
18,90377	18120
18,90788	15855
18,91202	16023
18,91613	14757
18,92025	13717
18,92438	13911
18,92850	11160
18,93262	11973
18,93675	10904
18,94087	9790
18,94498	8343
18,94912	8740
18,95323	7253
18,95735	7279
18,96148	7472
18,96560	7697
18,96972	6369
18,97385	6590
18,97797	5789
18,98208	4843
18,98620	5653
18,99033	5518
18,99445	5559
18,99857	4583
19,00270	4791
19,00682	4701
19,01093	3809
19,01507	3721
19,01918	3625
19,02330	2956
19,02743	3551
19,03155	3845
19,03567	3623
19,03980	2795
19,04392	3724
19,04803	3602
19,05217	3215
19,05628	2924
19,06040	2540
19,06453	2312
19,06865	2491
19,07277	2665
19,07688	2671
19,08102	2247
19,08513	1983
19,08925	2648
19,09338	2338
19,09750	2032
19,10162	1618
19,10575	2422
19,10987	1891
19,11398	2511
19,11812	1946
19,12223	1737
19,12635	2337
19,13048	2414
19,13460	2136
19,13872	2326
19,14285	1655
19,14697	2095
19,15108	2533
19,15522	2337
19,15933	2600
19,16345	2625
19,16757	1590
19,17170	2494
19,17582	2169
19,17993	1851
19,18407	1447
19,18818	2264
19,19230	1335
19,19643	1517
19,20055	1523
19,20467	1567
19,20880	1739
19,21292	1732
19,21703	1744
19,22117	1997
19,22528	1698
19,22940	1807
19,23353	2037
19,23765	2402
19,24177	2756
19,24590	2204
19,25002	2263
19,25413	2541
19,25825	2457
19,26238	2543
19,26650	1989
19,27062	2339
19,27475	2042
19,27887	1579
19,28298	1873
19,28712	2205
19,29123	1954
19,29535	2963
19,29948	6455
19,30360	11324
19,30772	24183
19,31185	44306
19,31597	78719
19,32008	127217
19,32422	203268
19,32833	283301
19,33245	384475
19,33658	481509
19,34070	561001
19,34482	621906
19,34893	644373
19,35307	628463
19,35718	597595
19,36130	538019
19,36543	453866
19,36955	374807
19,37367	301510
19,37780	241926
19,38192	185015
19,38603	141552
19,39017	113234
19,39428	88460
19,39840	73371
19,40253	60107
19,40665	48081
19,41077	40752
19,41490	33878
19,41902	30108
19,42313	25880
19,42727	19848
19,43138	19461
19,43550	17371
19,43962	14967
19,44375	13973
19,44787	13226
19,45198	11965
19,45612	11772
19,46023	11192
19,46435	11469
19,46848	11982
19,47260	11209
19,47672	11986
19,48085	10923
19,48497	9845
19,48908	9122
19,49322	8497
19,49733	8361
19,50145	7095
19,50558	7967
19,50970	6149
19,51382	5982
19,51795	4903
19,52207	6409
19,52618	5044
19,53030	5376
19,53443	3618
19,53855	3643
19,54267	3034
19,54680	3058
19,55092	3451
19,55503	2877
19,55917	3530
19,56328	3292
19,56740	1992
19,57153	3332
19,57565	2860
19,57977	2843
19,58390	2800
19,58802	2139
19,59213	2285
19,59627	2310
19,60038	1695
19,60450	1966
19,60863	3140
19,61275	2381
19,61687	1595
19,62098	1895
19,62512	1978
19,62923	1723
19,63335	2157
19,63748	1650
19,64160	1257
19,64572	1251
19,64985	1767
19,65397	2020
19,65808	2013
19,66222	1544
19,66633	1584
19,67045	1625
19,67458	2233
19,67870	1665
19,68282	1920
19,68695	1949
19,69107	2610
19,69518	3331
19,69932	5474
19,70343	10293
19,70755	19605
19,71167	36858
19,71580	68099
19,71992	120419
19,72403	190134
19,72817	281058
19,73228	389995
19,73640	510937
19,74053	617418
19,74465	691282
19,74877	726319
19,75290	721062
19,75702	680698
19,76113	604561
19,76527	508479
19,76938	420479
19,77350	335079
19,77763	260388
19,78175	200685
19,78587	156171
19,79000	119788
19,79412	94005
19,79823	75414
19,80235	61074
19,80648	52065
19,81060	41954
19,81472	35945
19,81885	30513
19,82297	27082
19,82708	23445
19,83122	20999
19,83533	18133
19,83945	18588
19,84358	16176
19,84770	13479
19,85182	12901
19,85595	11744
19,86007	10548
19,86418	10041
19,86832	9055
19,87243	9115
19,87655	8226
19,88068	6727
19,88480	7405
19,88892	7435
19,89303	6752
19,89717	8100
19,90128	7704
19,90540	6905
19,90953	7361
19,91365	6506
19,91777	5985
19,92190	5633
19,92602	5065
19,93013	4770
19,93427	5084
19,93838	4540
19,94250	4349
19,94663	3794
19,95075	3925
19,95487	3803
19,95900	3515
19,96312	2933
19,96723	3113
19,97137	2692
19,97548	2994
19,97960	2839
19,98372	2903
19,98785	3576
19,99197	2442
19,99608	2102
20,00022	2947
20,00433	2157
20,00845	3544
20,01258	2552
20,01670	1869
20,02082	2594
20,02495	1764
20,02907	1753
20,03318	2195
20,03732	2105
20,04143	3180
20,04555	2622
20,04968	2037
20,05380	2274
20,05792	2219
20,06205	1620
20,06617	2444
20,07028	2049
20,07440	2043
20,07853	2169
20,08265	1564
20,08677	1991
20,09090	1541
20,09502	1549
20,09913	1710
20,10327	1843
20,10738	1603
20,11150	1595
20,11563	2143
20,11975	1909
20,12387	1995
20,12800	1758
20,13212	2014
20,13623	1505
20,14037	1696
20,14448	1520
20,14860	1626
20,15273	1390
20,15685	2180
20,16097	1583
20,16508	2074
20,16922	1608
20,17333	1577
20,17745	1931
20,18158	2320
20,18570	2888
20,18982	1755
20,19395	1892
20,19807	1757
20,20218	1820
20,20632	1513
20,21043	1541
20,21455	1910
20,21868	2231
20,22280	1529
20,22692	1390
20,23105	1086
20,23517	2331
20,23928	1599
20,24342	1289
20,24753	2196
20,25165	1481
20,25577	2119
20,25990	1854
20,26402	3239
20,26813	3818
20,27227	7031
20,27638	14987
20,28050	27448
20,28463	54005
20,28875	91522
20,29287	148823
20,29700	223882
20,30112	317001
20,30523	424074
20,30937	522756
20,31348	604154
20,31760	662302
20,32173	684846
20,32585	667316
20,32997	624208
20,33410	551473
20,33822	469591
20,34233	386362
20,34645	310588
20,35058	242194
20,35470	190103
20,35882	150713
20,36295	112770
20,36707	93185
20,37118	71609
20,37532	59206
20,37943	48824
20,38355	41500
20,38768	34290
20,39180	29102
20,39592	26600
20,40005	23869
20,40417	21041
20,40828	18234
20,41242	16949
20,41653	14061
20,42065	13518
20,42478	13530
20,42890	11375
20,43302	11349
20,43715	10390
20,44127	9838
20,44538	9419
20,44950	9040
20,45363	9093
20,45775	7574
20,46187	8019
20,46600	8586
20,47012	7942
20,47423	9641
20,47837	11550
20,48248	13051
20,48660	14340
20,49073	17408
20,49485	19398
20,49897	21890
20,50310	21537
20,50722	24885
20,51133	22810
20,51547	21650
20,51958	23070
20,52370	18859
20,52783	17868
20,53195	14441
20,53607	12349
20,54018	10915
20,54432	10379
20,54843	8221
20,55255	8577
20,55668	7527
20,56080	6463
20,56492	5327
20,56905	5111
20,57317	5421
20,57728	4675
20,58142	4186
20,58553	4175
20,58965	3301
20,59378	3293
20,59790	3598
20,60202	3929
20,60615	2643
20,61027	3063
20,61438	2616
20,61852	2944
20,62263	2776
20,62675	2397
20,63087	2477
20,63500	2702
20,63912	2935
20,64323	3371
20,64737	5241
20,65148	9234
20,65560	15197
20,65973	31820
20,66385	61056
20,66797	107575
20,67210	184097
20,67622	292227
20,68033	434299
20,68447	620354
20,68858	833082
20,69270	1062725
20,69683	1282302
20,70095	1475819
20,70507	1601029
20,70920	1615080
20,71332	1525435
20,71743	1359783
20,72155	1165793
20,72568	952166
20,72980	741994
20,73392	575297
20,73805	434640
20,74217	333658
20,74628	260452
20,75042	201965
20,75453	164051
20,75865	134283
20,76278	109872
20,76690	94288
20,77102	78299
20,77515	68706
20,77927	57154
20,78338	53344
20,78752	46317
20,79163	41808
20,79575	36725
20,79988	34391
20,80400	31104
20,80812	29459
20,81223	26558
20,81637	24141
20,82048	21676
20,82460	20888
20,82873	20148
20,83285	17923
20,83697	18142
20,84110	15705
20,84522	13593
20,84933	13023
20,85347	12585
20,85758	12293
20,86170	10797
20,86583	10226
20,86995	10271
20,87407	8904
20,87820	9582
20,88232	9055
20,88643	8489
20,89057	8721
20,89468	7359
20,89880	7816
20,90292	5992
20,90705	6817
20,91117	5752
20,91528	5720
20,91942	5202
20,92353	5820
20,92765	5326
20,93178	5047
20,93590	4699
20,94002	5638
20,94415	4808
20,94827	4532
20,95238	4170
20,95652	5262
20,96063	6250
20,96475	7820
20,96888	12273
20,97300	20007
20,97712	36265
20,98125	62018
20,98537	105011
20,98948	167891
20,99360	246224
20,99773	344351
21,00185	457843
21,00597	555575
21,01010	654451
21,01422	710241
21,01833	745802
21,02247	718447
21,02658	667346
21,03070	593380
21,03483	501964
21,03895	405692
21,04307	325316
21,04720	262453
21,05132	204911
21,05543	158179
21,05957	130497
21,06368	97528
21,06780	82416
21,07193	69893
21,07605	55490
21,08017	49599
21,08428	41919
21,08842	33766
21,09253	29661
21,09665	27371
21,10078	25174
21,10490	21702
21,10902	20391
21,11315	18507
21,11727	18526
21,12138	18471
21,12552	20346
21,12963	24403
21,13375	35609
21,13788	60603
21,14200	99729
21,14612	164656
21,15025	260722
21,15437	393729
21,15848	555632
21,16262	765906
21,16673	971315
21,17085	1181014
21,17497	1347229
21,17910	1451154
21,18322	1490848
21,18733	1421698
21,19147	1295767
21,19558	1111121
21,19970	911523
21,20383	733866
21,20795	567946
21,21207	443518
21,21620	336792
21,22032	268682
21,22443	212595
21,22857	169679
21,23268	141947
21,23680	115605
21,24093	98049
21,24505	85064
21,24917	74553
21,25330	63004
21,25742	57429
21,26153	50619
21,26565	47785
21,26978	42653
21,27390	37522
21,27802	35472
21,28215	32633
21,28627	27568
21,29038	25797
21,29452	25684
21,29863	25197
21,30275	24696
21,30688	21750
21,31100	21775
21,31512	19446
21,31925	17845
21,32337	15920
21,32748	15039
21,33162	14250
21,33573	13410
21,33985	12162
21,34398	12040
21,34810	10465
21,35222	10362
21,35633	10000
21,36047	9560
21,36458	10536
21,36870	7936
21,37283	8802
21,37695	6946
21,38107	8057
21,38520	8112
21,38932	6317
21,39343	6642
21,39757	5960
21,40168	6704
21,40580	6118
21,40993	6937
21,41405	5423
21,41817	5793
21,42230	6366
21,42642	4474
21,43053	5150
21,43467	4780
21,43878	4320
21,44290	4223
21,44702	5331
21,45115	4296
21,45527	4048
21,45938	3703
21,46352	5479
21,46763	4062
21,47175	4882
21,47588	4174
21,48000	3978
21,48412	3112
21,48825	4300
21,49237	4737
21,49648	7985
21,50062	12331
21,50473	21206
21,50885	39987
21,51298	69285
21,51710	113404
21,52122	180611
21,52535	272924
21,52947	371536
21,53358	482461
21,53770	572314
21,54183	646071
21,54595	679792
21,55007	678022
21,55420	644086
21,55832	573492
21,56243	482057
21,56657	397669
21,57068	314844
21,57480	250994
21,57893	196130
21,58305	158580
21,58717	124129
21,59130	101135
21,59542	82768
21,59953	68220
21,60367	58750
21,60778	49935
21,61190	44449
21,61603	39426
21,62015	34936
21,62427	29141
21,62838	26892
21,63252	24365
21,63663	21702
21,64075	20657
21,64488	17791
21,64900	16903
21,65312	14865
21,65725	12177
21,66137	13851
21,66548	11690
21,66962	10916
21,67373	10986
21,67785	9179
21,68198	9369
21,68610	9211
21,69022	8293
21,69435	8976
21,69847	7843
21,70258	7384
21,70672	7281
21,71083	6538
21,71495	7103
21,71907	5606
21,72320	5797
21,72732	7269
21,73143	7276
21,73557	6940
21,73968	6665
21,74380	7298
21,74793	6162
21,75205	6510
21,75617	5527
21,76030	6018
21,76442	6230
21,76853	5671
21,77267	4326
21,77678	6554
21,78090	4342
21,78503	4437
21,78915	5464
21,79327	4694
21,79740	4083
21,80152	6076
21,80563	5427
21,80975	4307
21,81388	5103
21,81800	4923
21,82212	4972
21,82625	4165
21,83037	4410
21,83448	3108
21,83862	3494
21,84273	3955
21,84685	3531
21,85098	3654
21,85510	4242
21,85922	4074
21,86335	6435
21,86747	9604
21,87158	17644
21,87572	32896
21,87983	59675
21,88395	97763
21,88808	152839
21,89220	225893
21,89632	318489
21,90043	407455
21,90457	498107
21,90868	565829
21,91280	626004
21,91693	633522
21,92105	615431
21,92517	567774
21,92930	499764
21,93342	422376
21,93753	341169
21,94167	273450
21,94578	215137
21,94990	169256
21,95403	131066
21,95815	104256
21,96227	83474
21,96640	67496
21,97052	58738
21,97463	47308
21,97877	41791
21,98288	37339
21,98700	31204
21,99113	28070
21,99525	24474
21,99937	23620
22,00348	21842
22,00762	19672
22,01173	18560
22,01585	15718
22,01998	15688
22,02410	13686
22,02822	14445
22,03235	12922
22,03647	11818
22,04058	10821
22,04472	11825
22,04883	10789
22,05295	10327
22,05708	10562
22,06120	8928
22,06532	9212
22,06945	10532
22,07357	7979
22,07768	8727
22,08182	7467
22,08593	7822
22,09005	7166
22,09417	7385
22,09830	6901
22,10242	6805
22,10653	6585
22,11067	5807
22,11478	5828
22,11890	4741
22,12303	5537
22,12715	5640
22,13127	4662
22,13540	4729
22,13952	4598
22,14363	5120
22,14777	3832
22,15188	4046
22,15600	4767
22,16013	5217
22,16425	3474
22,16837	3653
22,17250	4111
22,17662	3365
22,18073	2905
22,18485	3395
22,18898	3227
22,19310	3742
22,19722	2711
22,20135	3933
22,20547	3931
22,20958	2847
22,21372	3251
22,21783	3706
22,22195	4117
22,22608	3151
22,23020	3304
22,23432	3230
22,23845	3401
22,24257	3088
22,24668	3371
22,25082	2625
22,25493	3237
22,25905	4093
22,26318	3659
22,26730	3701
22,27142	2496
22,27553	2647
22,27967	2665
22,28378	2967
22,28790	3743
22,29203	3125
22,29615	3484
22,30027	3715
22,30440	3285
22,30852	2478
22,31263	3460
22,31677	3589
22,32088	2982
22,32500	2665
22,32913	3492
22,33325	2802
22,33737	3009
22,34150	3007
22,34562	2874
22,34973	2384
22,35387	2865
22,35798	2752
22,36210	2726
22,36622	3584
22,37035	3145
22,37447	3478
22,37858	3708
22,38272	5993
22,38683	9765
22,39095	18951
22,39508	34711
22,39920	60186
22,40332	95988
22,40745	154456
22,41157	219977
22,41568	303176
22,41982	387155
22,42393	470866
22,42805	530978
22,43218	580504
22,43630	597352
22,44042	603928
22,44455	611649
22,44867	619706
22,45278	670660
22,45690	751627
22,46103	871467
22,46515	1049544
22,46927	1242785
22,47340	1451291
22,47752	1637020
22,48163	1774650
22,48577	1834318
22,48988	1792419
22,49400	1638987
22,49813	1421914
22,50225	1156072
22,50637	910505
22,51050	714146
22,51462	558257
22,51873	424498
22,52287	335766
22,52698	261580
22,53110	215721
22,53523	176566
22,53935	151655
22,54347	130470
22,54758	111250
22,55172	98419
22,55583	87607
22,55995	77005
22,56408	74303
22,56820	68016
22,57232	65451
22,57645	64423
22,58057	60990
22,58468	59967
22,58882	58459
22,59293	59717
22,59705	54828
22,60118	50547
22,60530	47586
22,60942	45020
22,61355	38255
22,61767	36309
22,62178	34259
22,62592	30780
22,63003	27010
22,63415	25592
22,63827	23489
22,64240	21874
22,64652	19890
22,65063	20617
22,65477	18222
22,65888	18130
22,66300	16319
22,66713	15905
22,67125	14781
22,67537	15376
22,67950	15233
22,68362	13301
22,68773	12379
22,69187	13201
22,69598	11993
22,70010	11405
22,70423	12019
22,70835	12956
22,71247	15306
22,71660	21258
22,72072	33928
22,72483	53510
22,72895	86776
22,73308	134969
22,73720	194792
22,74132	269980
22,74545	355286
22,74957	435418
22,75368	492206
22,75782	536305
22,76193	548184
22,76605	531713
22,77018	492009
22,77430	427902
22,77842	363519
22,78255	299727
22,78667	241251
22,79078	192358
22,79492	151752
22,79903	118750
22,80315	96938
22,80728	74211
22,81140	63828
22,81552	55673
22,81963	47090
22,82377	41418
22,82788	37493
22,83200	31205
22,83613	30440
22,84025	26519
22,84437	24581
22,84850	21132
22,85262	21778
22,85673	19562
22,86087	18769
22,86498	17755
22,86910	19051
22,87323	21879
22,87735	26669
22,88147	35310
22,88560	58276
22,88972	90000
22,89383	141183
22,89797	212599
22,90208	299731
22,90620	414088
22,91032	537932
22,91445	645057
22,91857	733367
22,92268	785795
22,92682	799165
22,93093	754955
22,93505	693503
22,93918	604162
22,94330	499869
22,94742	401616
22,95155	326190
22,95567	258322
22,95978	205003
22,96392	163645
22,96803	132345
22,97215	112603
22,97628	89499
22,98040	75223
22,98452	64495
22,98865	58385
22,99277	49762
22,99688	45920
23,00100	42645
23,00513	34871
23,00925	33309
23,01337	32677
23,01750	28760
23,02162	25923
23,02573	24997
23,02987	21915
23,03398	19410
23,03810	19675
23,04223	20719
23,04635	19598
23,05047	18572
23,05460	18186
23,05872	17028
23,06283	16989
23,06697	15622
23,07108	13474
23,07520	14512
23,07933	12274
23,08345	11809
23,08757	12169
23,09168	10922
23,09582	11141
23,09993	10467
23,10405	11852
23,10818	11084
23,11230	10977
23,11642	12179
23,12055	11016
23,12467	11962
23,12878	12425
23,13292	12718
23,13703	12179
23,14115	11806
23,14528	11638
23,14940	10196
23,15352	9177
23,15765	7834
23,16177	7949
23,16588	7764
23,17002	7423
23,17413	6953
23,17825	6338
23,18237	6764
23,18650	7658
23,19062	7616
23,19473	5250
23,19887	6289
23,20298	5987
23,20710	5880
23,21123	5933
23,21535	6318
23,21947	6016
23,22360	5794
23,22772	6471
23,23183	5438
23,23597	5810
23,24008	5757
23,24420	6572
23,24833	5866
23,25245	6024
23,25657	7534
23,26070	10903
23,26482	19645
23,26893	32901
23,27305	55950
23,27718	94806
23,28130	153102
23,28542	238594
23,28955	351410
23,29367	485493
23,29778	624047
23,30192	756301
23,30603	866374
23,31015	908364
23,31428	910613
23,31840	858939
23,32252	771389
23,32665	656968
23,33077	537398
23,33488	421376
23,33902	333392
23,34313	263056
23,34725	206520
23,35138	168210
23,35550	136121
23,35962	111460
23,36373	94864
23,36787	82297
23,37198	69311
23,37610	59760
23,38023	57630
23,38435	49637
23,38847	45517
23,39260	43209
23,39672	37483
23,40083	35045
23,40497	33082
23,40908	31417
23,41320	29159
23,41733	26383
23,42145	25460
23,42557	23878
23,42970	23601
23,43382	22805
23,43793	22805
23,44207	20152
23,44618	22631
23,45030	17857
23,45442	18097
23,45855	17062
23,46267	15811
23,46678	14721
23,47092	14948
23,47503	12721
23,47915	12579
23,48328	13065
23,48740	12944
23,49152	12442
23,49565	11556
23,49977	12343
23,50388	11462
23,50802	11697
23,51213	11618
23,51625	11706
23,52038	11754
23,52450	10273
23,52862	10256
23,53275	10051
23,53687	10036
23,54098	10485
23,54510	10481
23,54923	9327
23,55335	9892
23,55747	9580
23,56160	9877
23,56572	8881
23,56983	11466
23,57397	15376
23,57808	20416
23,58220	33642
23,58633	55373
23,59045	89751
23,59457	141543
23,59870	215401
23,60282	311809
23,60693	420260
23,61107	517367
23,61518	611819
23,61930	677187
23,62343	692865
23,62755	678101
23,63167	625320
23,63580	549890
23,63992	473984
23,64403	379548
23,64815	307038
23,65228	243579
23,65640	195047
23,66052	153127
23,66465	125742
23,66877	101414
23,67288	84168
23,67702	72830
23,68113	61993
23,68525	52867
23,68938	49153
23,69350	42788
23,69762	39184
23,70175	35890
23,70587	33463
23,70998	29281
23,71412	27690
23,71823	25691
23,72235	24173
23,72648	22561
23,73060	20234
23,73472	19376
23,73883	19201
23,74297	18271
23,74708	17021
23,75120	18142
23,75533	16504
23,75945	14798
23,76357	15215
23,76770	13385
23,77182	13054
23,77593	12833
23,78007	12844
23,78418	12065
23,78830	11788
23,79243	11581
23,79655	12008
23,80067	10551
23,80480	11070
23,80892	10482
23,81303	10824
23,81717	10034
23,82128	10281
23,82540	9931
23,82952	9525
23,83365	10229
23,83777	9330
23,84188	8968
23,84602	9363
23,85013	8918
23,85425	10160
23,85838	8608
23,86250	8680
23,86662	7418
23,87075	8717
23,87487	8151
23,87898	8969
23,88312	8130
23,88723	8615
23,89135	7912
23,89548	8035
23,89960	8330
23,90372	8600
23,90785	6872
23,91197	8196
23,91608	6784
23,92020	6729
23,92433	8413
23,92845	8214
23,93257	7839
23,93670	6971
23,94082	7826
23,94493	8132
23,94907	9707
23,95318	8978
23,95730	9386
23,96143	8918
23,96555	8958
23,96967	7920
23,97380	7970
23,97792	8626
23,98203	7172
23,98617	8404
23,99028	6010
23,99440	6186
23,99853	6714
24,00265	5870
24,00677	7388
24,01088	7667
24,01502	6369
24,01913	6166
24,02325	6931
24,02738	6339
24,03150	5546
24,03562	6271
24,03975	6852
24,04387	6448
24,04798	6689
24,05212	7132
24,05623	8343
24,06035	12000
24,06448	18055
24,06860	31181
24,07272	54828
24,07685	97140
24,08097	166456
24,08508	270754
24,08922	408598
24,09333	597867
24,09745	804024
24,10157	1026309
24,10570	1270867
24,10982	1515650
24,11393	1750998
24,11807	1943210
24,12218	2104498
24,12630	2207252
24,13043	2231708
24,13455	2185216
24,13867	2002551
24,14280	1760894
24,14692	1448605
24,15103	1162258
24,15517	914649
24,15928	716996
24,16340	555972
24,16753	449217
24,17165	361166
24,17577	299664
24,17990	249286
24,18402	213285
24,18813	183405
24,19225	159913
24,19638	148819
24,20050	128632
24,20462	114448
24,20875	101007
24,21287	93398
24,21698	86713
24,22112	80009
24,22523	72155
24,22935	69177
24,23348	63963
24,23760	56663
24,24172	54607
24,24585	53165
24,24997	48450
24,25408	46591
24,25822	44354
24,26233	43488
24,26645	41843
24,27058	42184
24,27470	39083
24,27882	37083
24,28293	36254
24,28707	34524
24,29118	30421
24,29530	32066
24,29943	29073
24,30355	29839
24,30767	29282
24,31180	27047
24,31592	25562
24,32003	25017
24,32417	23621
24,32828	23669
24,33240	21224
24,33653	22052
24,34065	20369
24,34477	20117
24,34890	20483
24,35302	20403
24,35713	22593
24,36127	22830
24,36538	25891
24,36950	36127
24,37362	50774
24,37775	75128
24,38187	113141
24,38598	172563
24,39012	249222
24,39423	329535
24,39835	428376
24,40248	520334
24,40660	590362
24,41072	621042
24,41485	629005
24,41897	601315
24,42308	551682
24,42722	490336
24,43133	412769
24,43545	359626
24,43958	332678
24,44370	329556
24,44782	348594
24,45195	396007
24,45607	449128
24,46018	507502
24,46430	565181
24,46843	603101
24,47255	604231
24,47667	580845
24,48080	543365
24,48492	480528
24,48903	422056
24,49317	357091
24,49728	303021
24,50140	266650
24,50553	242232
24,50965	241800
24,51377	266112
24,51790	322016
24,52202	400864
24,52613	502692
24,53027	611054
24,53438	716485
24,53850	810466
24,54263	877099
24,54675	902365
24,55087	869078
24,55498	798847
24,55912	695171
24,56323	587669
24,56735	485537
24,57148	393395
24,57560	317750
24,57972	260298
24,58385	213525
24,58797	176991
24,59208	149328
24,59622	131263
24,60033	113557
24,60445	100764
24,60858	91099
24,61270	81988
24,61682	75841
24,62095	67002
24,62507	61637
24,62918	57985
24,63332	54738
24,63743	50328
24,64155	48098
24,64567	42896
24,64980	40173
24,65392	38215
24,65803	36149
24,66217	34564
24,66628	33110
24,67040	29513
24,67453	29047
24,67865	29515
24,68277	29245
24,68690	26543
24,69102	26270
24,69513	21852
24,69927	24291
24,70338	23448
24,70750	22142
24,71163	23083
24,71575	21157
24,71987	20925
24,72400	19555
24,72812	19296
24,73223	19048
24,73635	21147
24,74048	19942
24,74460	18473
24,74872	19258
24,75285	18887
24,75697	17577
24,76108	16953
24,76522	17700
24,76933	17814
24,77345	16278
24,77758	17610
24,78170	18746
24,78582	16562
24,78995	17302
24,79407	15707
24,79818	16033
24,80232	18068
24,80643	14357
24,81055	14874
24,81468	14389
24,81880	14553
24,82292	13684
24,82703	14306
24,83117	14157
24,83528	13719
24,83940	18015
24,84353	22094
24,84765	32651
24,85177	50862
24,85590	79759
24,86002	126037
24,86413	191514
24,86827	281207
24,87238	395437
24,87650	522795
24,88063	660153
24,88475	790636
24,88887	896713
24,89300	955994
24,89712	964109
24,90123	908981
24,90537	802465
24,90948	683172
24,91360	563657
24,91772	459025
24,92185	362952
24,92597	291496
24,93008	236773
24,93422	195889
24,93833	164862
24,94245	142719
24,94658	124721
24,95070	107817
24,95482	96255
24,95895	86243
24,96307	75057
24,96718	73005
24,97132	64811
24,97543	61290
24,97955	58222
24,98368	50711
24,98780	49744
24,99192	47810
24,99605	45277
25,00017	42723
25,00428	40020
25,00840	38294
25,01253	37722
25,01665	37415
25,02077	37674
25,02490	36934
25,02902	35264
25,03313	30991
25,03727	32307
25,04138	32834
25,04550	31919
25,04963	29367
25,05375	29442
25,05787	27226
25,06200	27718
25,06612	25692
25,07023	24739
25,07437	24093
25,07848	25159
25,08260	23292
25,08673	23539
25,09085	23525
25,09497	24251
25,09908	22720
25,10322	22765
25,10733	22016
25,11145	21429
25,11558	22968
25,11970	21852
25,12382	22257
25,12795	21041
25,13207	19867
25,13618	20022
25,14032	20378
25,14443	20619
25,14855	21294
25,15268	24353
25,15680	29796
25,16092	45214
25,16505	67168
25,16917	104325
25,17328	161958
25,17742	239507
25,18153	337822
25,18565	449300
25,18977	561770
25,19390	660424
25,19802	720373
25,20213	749954
25,20627	729516
25,21038	670535
25,21450	596358
25,21863	512506
25,22275	421957
25,22687	345202
25,23100	279953
25,23512	229626
25,23923	200579
25,24337	188684
25,24748	193528
25,25160	211800
25,25573	247219
25,25985	298681
25,26397	362347
25,26810	423683
25,27222	479630
25,27633	513389
25,28047	528156
25,28458	514851
25,28870	484680
25,29282	439300
25,29695	383531
25,30107	326472
25,30518	267217
25,30932	224279
25,31343	183109
25,31755	152750
25,32168	123638
25,32580	108717
25,32992	93221
25,33405	79652
25,33817	71169
25,34228	66020
25,34642	60562
25,35053	54682
25,35465	51023
25,35878	46975
25,36290	42747
25,36702	40577
25,37115	38646
25,37527	39294
25,37938	36527
25,38350	33304
25,38763	31484
25,39175	33343
25,39587	29351
25,40000	28649
25,40412	28343
25,40823	26749
25,41237	26345
25,41648	26394
25,42060	23491
25,42473	23953
25,42885	23991
25,43297	23367
25,43710	22690
25,44122	23229
25,44533	21419
25,44947	22186
25,45358	20204
25,45770	20946
25,46183	21724
25,46595	19800
25,47007	19729
25,47418	20025
25,47832	20473
25,48243	18505
25,48655	19446
25,49068	18113
25,49480	18227
25,49892	20129
25,50305	20014
25,50717	17957
25,51128	15784
25,51542	18644
25,51953	17646
25,52365	16582
25,52778	14927
25,53190	14330
25,53602	16509
25,54015	14397
25,54427	14806
25,54838	17964
25,55252	14536
25,55663	14239
25,56075	14721
25,56487	14981
25,56900	15506
25,57312	16804
25,57723	15151
25,58137	16447
25,58548	17046
25,58960	18320
25,59373	22583
25,59785	29085
25,60197	37756
25,60610	55313
25,61022	84504
25,61433	135274
25,61847	202507
25,62258	294840
25,62670	413112
25,63083	561121
25,63495	734813
25,63907	928149
25,64320	1131819
25,64732	1341654
25,65143	1530172
25,65555	1719269
25,65968	1849545
25,66380	1861523
25,66792	1778015
25,67205	1568028
25,67617	1318675
25,68028	1077475
25,68442	858397
25,68853	665309
25,69265	522963
25,69678	421677
25,70090	354734
25,70502	301190
25,70915	255030
25,71327	221554
25,71738	195328
25,72152	175308
25,72563	156906
25,72975	144024
25,73388	127923
25,73800	120335
25,74212	108783
25,74623	102537
25,75037	95268
25,75448	89514
25,75860	83837
25,76273	80021
25,76685	75667
25,77097	66484
25,77510	64894
25,77922	65011
25,78333	61644
25,78747	58335
25,79158	56799
25,79570	56769
25,79983	52845
25,80395	46951
25,80807	49250
25,81220	45554
25,81632	44341
25,82043	41982
25,82457	42089
25,82868	41491
25,83280	39640
25,83692	37889
25,84105	37183
25,84517	39378
25,84928	36122
25,85342	36840
25,85753	33357
25,86165	33735
25,86578	35139
25,86990	34035
25,87402	33627
25,87815	33920
25,88227	30880
25,88638	31462
25,89052	30934
25,89463	29215
25,89875	29040
25,90288	26674
25,90700	27349
25,91112	27797
25,91525	28772
25,91937	27455
25,92348	26810
25,92760	25907
25,93173	24552
25,93585	24816
25,93997	23344
25,94410	25429
25,94822	23851
25,95233	22749
25,95647	25488
25,96058	23479
25,96470	24098
25,96883	23136
25,97295	23177
25,97707	23331
25,98120	24962
25,98532	22828
25,98943	24096
25,99357	26007
25,99768	24079
26,00180	27945
26,00593	32717
26,01005	40291
26,01417	57929
26,01828	81340
26,02242	117181
26,02653	171438
26,03065	245277
26,03478	342473
26,03890	449577
26,04302	567383
26,04715	683297
26,05127	781500
26,05538	843188
26,05952	881611
26,06363	860443
26,06775	801956
26,07188	703955
26,07600	604307
26,08012	508860
26,08425	417837
26,08837	346510
26,09248	283526
26,09662	236266
26,10073	196579
26,10485	174097
26,10897	148474
26,11310	133587
26,11722	118216
26,12133	105268
26,12547	96690
26,12958	88236
26,13370	83058
26,13783	75445
26,14195	71202
26,14607	68306
26,15020	62146
26,15432	57611
26,15843	56293
26,16257	55104
26,16668	49648
26,17080	48518
26,17493	45209
26,17905	43886
26,18317	43463
26,18730	42770
26,19142	40073
26,19553	36215
26,19965	37274
26,20378	36293
26,20790	33008
26,21202	33903
26,21615	33398
26,22027	30897
26,22438	30640
26,22852	28742
26,23263	28670
26,23675	29373
26,24088	30243
26,24500	29405
26,24912	27106
26,25325	29356
26,25737	28342
26,26148	26392
26,26562	25177
26,26973	25010
26,27385	26972
26,27798	25705
26,28210	24553
26,28622	24925
26,29033	22357
26,29447	25852
26,29858	23684
26,30270	22026
26,30683	22880
26,31095	22614
26,31507	22816
26,31920	20595
26,32332	21301
26,32743	21216
26,33157	22006
26,33568	22881
26,33980	21702
26,34393	21859
26,34805	27036
26,35217	26638
26,35630	28033
26,36042	28544
26,36453	29343
26,36867	30322
26,37278	29884
26,37690	28164
26,38102	28095
26,38515	27797
26,38927	25004
26,39338	25012
26,39752	22938
26,40163	21365
26,40575	22943
26,40988	22559
26,41400	22056
26,41812	19756
26,42225	20594
26,42637	20548
26,43048	18952
26,43462	22307
26,43873	19648
26,44285	21369
26,44698	20529
26,45110	19301
26,45522	20039
26,45935	18973
26,46347	19459
26,46758	17115
26,47170	19740
26,47583	18749
26,47995	19227
26,48407	17584
26,48820	18594
26,49232	18086
26,49643	17194
26,50057	17192
26,50468	17153
26,50880	18968
26,51293	18326
26,51705	20589
26,52117	20123
26,52530	22848
26,52942	23875
26,53353	21076
26,53767	22044
26,54178	21598
26,54590	21514
26,55003	21171
26,55415	20439
26,55827	20079
26,56238	19518
26,56652	19948
26,57063	20046
26,57475	19423
26,57888	20566
26,58300	21788
26,58712	21317
26,59125	20084
26,59537	21535
26,59948	20523
26,60362	19788
26,60773	21254
26,61185	20909
26,61598	20872
26,62010	21903
26,62422	22649
26,62835	21946
26,63247	23125
26,63658	22041
26,64072	22739
26,64483	21340
26,64895	19088
26,65307	17872
26,65720	19245
26,66132	19505
26,66543	18085
26,66957	17440
26,67368	16877
26,67780	18912
26,68193	17762
26,68605	17245
26,69017	16843
26,69430	16213
26,69842	15882
26,70253	16410
26,70667	14080
26,71078	15201
26,71490	17525
26,71903	16821
26,72315	16451
26,72727	17438
26,73140	16748
26,73552	15866
26,73963	16354
26,74375	17486
26,74788	16282
26,75200	16808
26,75612	16198
26,76025	17742
26,76437	16017
26,76848	16574
26,77262	15542
26,77673	16092
26,78085	16739
26,78498	16747
26,78910	15722
26,79322	16357
26,79735	15620
26,80147	16176
26,80558	16884
26,80972	16425
26,81383	16185
26,81795	14192
26,82208	16276
26,82620	15746
26,83032	15100
26,83445	14189
26,83857	15563
26,84268	15661
26,84680	16466
26,85093	16828
26,85505	15924
26,85917	16949
26,86330	15349
26,86742	16609
26,87153	17215
26,87567	16399
26,87978	17682
26,88390	16682
26,88803	18117
26,89215	18085
26,89627	16919
26,90040	17348
26,90452	16974
26,90863	18416
26,91277	16878
26,91688	17684
26,92100	17285
26,92513	17716
26,92925	17844
26,93337	14871
26,93748	14583
26,94162	15495
26,94573	17458
26,94985	16112
26,95398	14376
26,95810	16337
26,96222	14589
26,96635	14965
26,97047	14940
26,97458	15027
26,97872	14070
26,98283	14147
26,98695	16028
26,99108	14568
26,99520	13673
26,99932	14212
27,00345	16248
27,00757	13704
27,01168	14148
27,01582	15169
27,01993	14569
27,02405	16461
27,02817	14662
27,03230	17758
27,03642	15792
27,04053	14619
27,04467	14577
27,04878	14769
27,05290	13531
27,05703	15188
27,06115	15195
27,06527	15425
27,06940	15343
27,07352	13728
27,07763	14918
27,08177	14878
27,08588	14204
27,09000	15660
27,09413	14535
27,09825	14713
27,10237	16305
27,10650	16222
27,11062	14274
27,11473	16415
27,11885	14849
27,12298	16781
27,12710	14896
27,13122	16491
27,13535	15252
27,13947	15048
27,14358	14787
27,14772	16262
27,15183	16364
27,15595	14729
27,16008	14872
27,16420	15053
27,16832	15262
27,17245	17708
27,17657	16498
27,18068	17930
27,18482	17684
27,18893	19429
27,19305	18664
27,19718	23062
27,20130	27671
27,20542	32017
27,20953	44222
27,21367	61803
27,21778	87953
27,22190	119560
27,22603	163079
27,23015	209839
27,23427	258424
27,23840	315393
27,24252	350482
27,24663	383858
27,25077	392763
27,25488	397623
27,25900	377291
27,26313	353821
27,26725	321508
27,27137	283667
27,27550	247872
27,27962	215411
27,28373	182988
27,28787	159960
27,29198	134248
27,29610	118087
27,30022	102727
27,30435	91213
27,30847	80981
27,31258	72196
27,31672	65952
27,32083	60460
27,32495	56524
27,32908	49505
27,33320	46522
27,33732	44965
27,34145	38703
27,34557	39876
27,34968	37103
27,35382	37356
27,35793	33142
27,36205	33377
27,36618	31830
27,37030	31015
27,37442	28796
27,37855	29341
27,38267	27147
27,38678	27604
27,39090	27709
27,39503	26689
27,39915	26671
27,40327	25563
27,40740	24729
27,41152	23202
27,41563	24165
27,41977	24615
27,42388	24315
27,42800	23457
27,43213	21683
27,43625	22857
27,44037	21982
27,44450	23244
27,44862	22088
27,45273	23308
27,45687	20880
27,46098	21129
27,46510	20895
27,46923	21669
27,47335	20952
27,47747	21610
27,48158	20189
27,48572	22960
27,48983	20666
27,49395	20929
27,49808	19436
27,50220	19978
27,50632	21989
27,51045	19799
27,51457	19136
27,51868	18284
27,52282	18283
27,52693	18064
27,53105	17332
27,53518	18268
27,53930	17671
27,54342	18134
27,54755	18058
27,55167	18145
27,55578	17438
27,55992	18384
27,56403	17580
27,56815	17632
27,57227	16002
27,57640	17861
27,58052	17682
27,58463	16556
