D:\MassHunter\GCMS\1\data\Amal\Constant flow\90C\90C_1ml-min_10C-min_3.D Wed Sep 18 19:56:15 2024
Start of data points
5,20143	1503778
5,20555	1400360
5,20968	1344276
5,21380	1254450
5,21792	1193821
5,22203	1158295
5,22617	1078615
5,23028	1053120
5,23440	1010336
5,23853	975508
5,24265	927006
5,24677	893713
5,25090	854728
5,25502	822057
5,25913	790402
5,26327	751862
5,26738	724273
5,27150	696404
5,27563	668423
5,27975	631033
5,28387	610873
5,28800	583808
5,29212	569692
5,29623	558258
5,30037	521061
5,30448	495870
5,30860	478668
5,31272	459193
5,31685	448320
5,32097	425004
5,32508	408108
5,32922	401226
5,33333	390600
5,33745	375459
5,34158	367739
5,34570	346806
5,34982	344357
5,35395	332093
5,35807	319209
5,36218	312983
5,36632	305217
5,37043	296305
5,37455	293185
5,37868	277061
5,38280	272197
5,38692	265246
5,39105	256992
5,39517	251193
5,39928	241694
5,40340	238361
5,40753	232693
5,41165	224463
5,41577	217853
5,41990	217819
5,42402	216816
5,42813	208151
5,43227	206485
5,43638	200688
5,44050	196474
5,44463	185998
5,44875	187617
5,45287	181800
5,45700	179639
5,46112	179393
5,46523	174126
5,46937	168369
5,47348	167917
5,47760	161117
5,48173	167243
5,48585	168830
5,48997	184266
5,49408	217451
5,49822	281660
5,50233	369944
5,50645	496175
5,51058	621293
5,51470	750620
5,51882	856288
5,52295	927855
5,52707	961527
5,53118	960606
5,53532	940714
5,53943	902141
5,54355	867205
5,54768	820041
5,55180	774717
5,55592	731797
5,56005	698125
5,56417	666180
5,56828	625824
5,57242	593731
5,57653	562316
5,58065	543666
5,58477	523843
5,58890	500230
5,59302	486633
5,59713	482575
5,60127	468368
5,60538	449409
5,60950	437439
5,61363	420431
5,61775	405030
5,62187	382908
5,62600	365198
5,63012	341663
5,63423	321146
5,63837	303633
5,64248	287900
5,64660	272460
5,65073	257379
5,65485	240333
5,65897	229308
5,66310	218877
5,66722	204430
5,67133	196782
5,67545	190434
5,67958	179632
5,68370	172759
5,68782	167411
5,69195	162937
5,69607	152376
5,70018	145746
5,70432	146243
5,70843	138446
5,71255	132987
5,71668	133622
5,72080	128555
5,72492	124256
5,72905	121742
5,73317	119829
5,73728	114023
5,74142	112846
5,74553	111422
5,74965	106929
5,75378	106959
5,75790	107569
5,76202	102569
5,76615	102033
5,77027	104112
5,77438	98025
5,77850	99211
5,78263	97754
5,78675	98112
5,79087	94381
5,79500	93278
5,79912	90827
5,80323	90545
5,80737	92189
5,81148	89780
5,81560	88342
5,81973	87964
5,82385	89532
5,82797	88865
5,83210	89190
5,83622	85608
5,84033	86782
5,84447	83926
5,84858	87637
5,85270	86486
5,85683	83004
5,86095	84654
5,86507	84957
5,86918	85151
5,87332	83024
5,87743	80192
5,88155	81256
5,88568	83370
5,88980	85413
5,89392	81949
5,89805	79223
5,90217	81689
5,90628	81075
5,91042	82228
5,91453	78700
5,91865	79027
5,92278	80983
5,92690	81663
5,93102	78926
5,93515	77913
5,93927	79623
5,94338	77708
5,94752	75698
5,95163	77223
5,95575	75598
5,95987	74561
5,96400	74477
5,96812	71850
5,97223	73561
5,97637	70866
5,98048	73595
5,98460	72317
5,98873	70869
5,99285	71983
5,99697	73065
6,00110	69982
6,00522	73295
6,00933	70105
6,01347	73498
6,01758	71685
6,02170	71001
6,02583	67805
6,02995	70087
6,03407	73558
6,03820	69014
6,04232	72213
6,04643	69772
6,05055	70297
6,05468	70374
6,05880	69016
6,06292	70944
6,06705	67231
6,07117	67412
6,07528	67689
6,07942	70627
6,08353	67177
6,08765	68632
6,09178	67736
6,09590	68450
6,10002	65527
6,10415	66839
6,10827	66007
6,11238	67650
6,11652	66930
6,12063	67501
6,12475	66128
6,12888	66206
6,13300	68600
6,13712	65232
6,14123	66346
6,14537	65286
6,14948	66136
6,15360	63866
6,15773	65336
6,16185	62235
6,16597	66114
6,17010	62951
6,17422	64458
6,17833	65572
6,18247	63138
6,18658	64639
6,19070	64195
6,19483	61903
6,19895	63319
6,20307	64212
6,20720	61214
6,21132	61941
6,21543	62679
6,21957	62349
6,22368	61441
6,22780	63799
6,23192	62672
6,23605	62471
6,24017	63500
6,24428	62005
6,24842	61441
6,25253	61839
6,25665	61420
6,26078	62596
6,26490	65834
6,26902	65977
6,27315	66274
6,27727	67806
6,28138	71779
6,28552	72811
6,28963	69894
6,29375	71540
6,29788	69681
6,30200	71915
6,30612	67931
6,31025	71329
6,31437	71114
6,31848	70847
6,32260	72527
6,32673	70842
6,33085	73091
6,33497	71839
6,33910	74570
6,34322	75828
6,34733	73789
6,35147	76778
6,35558	73856
6,35970	78281
6,36383	76470
6,36795	77367
6,37207	74939
6,37620	75965
6,38032	76737
6,38443	72567
6,38857	72785
6,39268	72978
6,39680	71698
6,40093	70126
6,40505	67086
6,40917	69696
6,41328	67515
6,41742	67508
6,42153	67960
6,42565	66869
6,42978	63122
6,43390	63097
6,43802	63279
6,44215	64235
6,44627	63159
6,45038	58173
6,45452	61418
6,45863	62951
6,46275	60122
6,46688	59074
6,47100	58795
6,47512	58409
6,47925	58262
6,48337	57211
6,48748	57805
6,49162	57427
6,49573	55980
6,49985	57661
6,50397	56177
6,50810	54735
6,51222	54794
6,51633	53813
6,52047	54035
6,52458	54636
6,52870	53909
6,53283	51540
6,53695	50176
6,54107	50487
6,54520	49761
6,54932	49324
6,55343	48847
6,55757	46903
6,56168	47325
6,56580	48086
6,56993	46650
6,57405	46431
6,57817	45472
6,58230	46178
6,58642	44542
6,59053	46723
6,59465	46299
6,59878	48605
6,60290	51546
6,60702	66187
6,61115	93702
6,61527	144801
6,61938	237059
6,62352	372712
6,62763	562990
6,63175	783133
6,63588	1037550
6,64000	1259862
6,64412	1448282
6,64825	1580924
6,65237	1642468
6,65648	1642103
6,66062	1585842
6,66473	1516435
6,66885	1418800
6,67298	1325427
6,67710	1210742
6,68122	1113860
6,68533	1018770
6,68947	917303
6,69358	838301
6,69770	752367
6,70183	677173
6,70595	602829
6,71007	538252
6,71420	475317
6,71832	419069
6,72243	370334
6,72657	319538
6,73068	284053
6,73480	249225
6,73893	220011
6,74305	198106
6,74717	175822
6,75130	157682
6,75542	141599
6,75953	126605
6,76367	111686
6,76778	104392
6,77190	99146
6,77602	89758
6,78015	84844
6,78427	77191
6,78838	75322
6,79252	70134
6,79663	67454
6,80075	64129
6,80488	61396
6,80900	60159
6,81312	56323
6,81725	55533
6,82137	55063
6,82548	53943
6,82962	52520
6,83373	51817
6,83785	48933
6,84198	48901
6,84610	49629
6,85022	46827
6,85435	48680
6,85847	46220
6,86258	44738
6,86670	44556
6,87083	43446
6,87495	46423
6,87907	43992
6,88320	45235
6,88732	41732
6,89143	42223
6,89557	40937
6,89968	38796
6,90380	41272
6,90793	40406
6,91205	40797
6,91617	40267
6,92030	41181
6,92442	38799
6,92853	38771
6,93267	38940
6,93678	39033
6,94090	38759
6,94503	39124
6,94915	39046
6,95327	40172
6,95738	39037
6,96152	39028
6,96563	36760
6,96975	37838
6,97388	38301
6,97800	36452
6,98212	39698
6,98625	37523
6,99037	38189
6,99448	35637
6,99862	37158
7,00273	36929
7,00685	37245
7,01098	35281
7,01510	37670
7,01922	34278
7,02335	35271
7,02747	35185
7,03158	36041
7,03572	35745
7,03983	36143
7,04395	35922
7,04807	36300
7,05220	36072
7,05632	35419
7,06043	35321
7,06457	34781
7,06868	32968
7,07280	33179
7,07693	35661
7,08105	34540
7,08517	35505
7,08930	34683
7,09342	32679
7,09753	33122
7,10167	34345
7,10578	34421
7,10990	34194
7,11403	32497
7,11815	33995
7,12227	32525
7,12640	33973
7,13052	33019
7,13463	33435
7,13875	30914
7,14288	32213
7,14700	31632
7,15112	34684
7,15525	34592
7,15937	33736
7,16348	34346
7,16762	33671
7,17173	35296
7,17585	36202
7,17998	37536
7,18410	36714
7,18822	37530
7,19235	35411
7,19647	36693
7,20058	35207
7,20472	37366
7,20883	35503
7,21295	35914
7,21708	33042
7,22120	33275
7,22532	33894
7,22943	32760
7,23357	33439
7,23768	34411
7,24180	32515
7,24593	32976
7,25005	30544
7,25417	30629
7,25830	31367
7,26242	32153
7,26653	29792
7,27067	30784
7,27478	31343
7,27890	30493
7,28303	30172
7,28715	29858
7,29127	30376
7,29540	29576
7,29952	29738
7,30363	29382
7,30777	29041
7,31188	29647
7,31600	29951
7,32013	29622
7,32425	29422
7,32837	29778
7,33248	30516
7,33662	29457
7,34073	28689
7,34485	31709
7,34898	32561
7,35310	31288
7,35722	32169
7,36135	31979
7,36547	33440
7,36958	32625
7,37372	31873
7,37783	31559
7,38195	31038
7,38608	31232
7,39020	31772
7,39432	29342
7,39845	28262
7,40257	30293
7,40668	28030
7,41082	29563
7,41493	29694
7,41905	28280
7,42317	28382
7,42730	28052
7,43142	27831
7,43553	28255
7,43967	28681
7,44378	28409
7,44790	29987
7,45203	30041
7,45615	28383
7,46027	31465
7,46440	32212
7,46852	30835
7,47263	29075
7,47677	30700
7,48088	31046
7,48500	30122
7,48913	29653
7,49325	30159
7,49737	30212
7,50150	31654
7,50562	30774
7,50973	29718
7,51385	30111
7,51798	31281
7,52210	32161
7,52622	33633
7,53035	34370
7,53447	33684
7,53858	33281
7,54272	34374
7,54683	31577
7,55095	32717
7,55508	31412
7,55920	32824
7,56332	30126
7,56745	29115
7,57157	29289
7,57568	26546
7,57982	29465
7,58393	29022
7,58805	27517
7,59218	28419
7,59630	28837
7,60042	27726
7,60453	29444
7,60867	28560
7,61278	27863
7,61690	27279
7,62103	27930
7,62515	27495
7,62927	26734
7,63340	25566
7,63752	26055
7,64163	25972
7,64577	26061
7,64988	25829
7,65400	26059
7,65813	25758
7,66225	26361
7,66637	25343
7,67050	25183
7,67462	24294
7,67873	23443
7,68287	24535
7,68698	26699
7,69110	24318
7,69522	25050
7,69935	25646
7,70347	25895
7,70758	25433
7,71172	26053
7,71583	25374
7,71995	25136
7,72408	24907
7,72820	26461
7,73232	26855
7,73645	25443
7,74057	27262
7,74468	23108
7,74882	25378
7,75293	23148
7,75705	24716
7,76118	23284
7,76530	23572
7,76942	26041
7,77355	25626
7,77767	23976
7,78178	23415
7,78590	23602
7,79003	24329
7,79415	23021
7,79827	24803
7,80240	24091
7,80652	25909
7,81063	24855
7,81477	23072
7,81888	23594
7,82300	24565
7,82713	22964
7,83125	23557
7,83537	23983
7,83950	22659
7,84362	23337
7,84773	22489
7,85187	22118
7,85598	23510
7,86010	23456
7,86423	21755
7,86835	23033
7,87247	23841
7,87658	23182
7,88072	23384
7,88483	22454
7,88895	23100
7,89308	22740
7,89720	22534
7,90132	24141
7,90545	23753
7,90957	24794
7,91368	23539
7,91782	23934
7,92193	24831
7,92605	24078
7,93018	25163
7,93430	25949
7,93842	24831
7,94255	25504
7,94667	25357
7,95078	26084
7,95492	26043
7,95903	25289
7,96315	24287
7,96727	26486
7,97140	24584
7,97552	25144
7,97963	23834
7,98377	23127
7,98788	22348
7,99200	23382
7,99613	23163
8,00025	23445
8,00437	22397
8,00850	22714
8,01262	21839
8,01673	21165
8,02087	23221
8,02498	22619
8,02910	22315
8,03323	22923
8,03735	21011
8,04147	20412
8,04560	20645
8,04972	20792
8,05383	22576
8,05795	21714
8,06208	22550
8,06620	21757
8,07032	21365
8,07445	21648
8,07857	25486
8,08268	30413
8,08682	43058
8,09093	71931
8,09505	130438
8,09918	241795
8,10330	413298
8,10742	675508
8,11155	1012280
8,11567	1405683
8,11978	1803491
8,12392	2132007
8,12803	2415886
8,13215	2587725
8,13628	2603975
8,14040	2531035
8,14452	2335436
8,14863	2105100
8,15277	1839362
8,15688	1575736
8,16100	1309152
8,16513	1085881
8,16925	886988
8,17337	726016
8,17750	578284
8,18162	482066
8,18573	390975
8,18987	323531
8,19398	272618
8,19810	228339
8,20223	196943
8,20635	166075
8,21047	146949
8,21460	133453
8,21872	116988
8,22283	105110
8,22697	97801
8,23108	90962
8,23520	82650
8,23932	79084
8,24345	72082
8,24757	67039
8,25168	64263
8,25582	59637
8,25993	56146
8,26405	55402
8,26818	50633
8,27230	49468
8,27642	46756
8,28055	45572
8,28467	43321
8,28878	42456
8,29292	41373
8,29703	39399
8,30115	38526
8,30528	37842
8,30940	35960
8,31352	34580
8,31765	35357
8,32177	34239
8,32588	33536
8,33000	32886
8,33413	32050
8,33825	31639
8,34237	32307
8,34650	30582
8,35062	30443
8,35473	28038
8,35887	30234
8,36298	28587
8,36710	27442
8,37123	29211
8,37535	29918
8,37947	27811
8,38360	28389
8,38772	28499
8,39183	27416
8,39597	28455
8,40008	26034
8,40420	25689
8,40833	27593
8,41245	24907
8,41657	25360
8,42068	25248
8,42482	25349
8,42893	26291
8,43305	26252
8,43718	26952
8,44130	25435
8,44542	26571
8,44955	27091
8,45367	26561
8,45778	25729
8,46192	25758
8,46603	25971
8,47015	26204
8,47428	26388
8,47840	25891
8,48252	27181
8,48665	24429
8,49077	26058
8,49488	24866
8,49902	25059
8,50313	24810
8,50725	22938
8,51137	24586
8,51550	23492
8,51962	23636
8,52373	23161
8,52787	22620
8,53198	21878
8,53610	22910
8,54023	20681
8,54435	23072
8,54847	22568
8,55260	21295
8,55672	21445
8,56083	20631
8,56497	20622
8,56908	21666
8,57320	20706
8,57733	20747
8,58145	21643
8,58557	21337
8,58970	22671
8,59382	21203
8,59793	20842
8,60205	20738
8,60618	19424
8,61030	19522
8,61442	19271
8,61855	21095
8,62267	20511
8,62678	21816
8,63092	22107
8,63503	21779
8,63915	21838
8,64328	22668
8,64740	22200
8,65152	21994
8,65565	22744
8,65977	23242
8,66388	23150
8,66802	21310
8,67213	21101
8,67625	22714
8,68038	21641
8,68450	21194
8,68862	20118
8,69273	21593
8,69687	20085
8,70098	20367
8,70510	19279
8,70923	20068
8,71335	20196
8,71747	19571
8,72160	19443
8,72572	19823
8,72983	20805
8,73397	20290
8,73808	20369
8,74220	21694
8,74633	21751
8,75045	21602
8,75457	19692
8,75870	20841
8,76282	19256
8,76693	20644
8,77107	19494
8,77518	20103
8,77930	20751
8,78342	21350
8,78755	21782
8,79167	21502
8,79578	19203
8,79992	20793
8,80403	21552
8,80815	20767
8,81228	20532
8,81640	19729
8,82052	20503
8,82465	19931
8,82877	19320
8,83288	19256
8,83702	20527
8,84113	18941
8,84525	16963
8,84938	18845
8,85350	19369
8,85762	19071
8,86175	18740
8,86587	18211
8,86998	19493
8,87412	18487
8,87823	19142
8,88235	21395
8,88647	26596
8,89060	40011
8,89472	66534
8,89883	121814
8,90297	208863
8,90708	350362
8,91120	547161
8,91533	789680
8,91945	1038951
8,92357	1281109
8,92770	1451546
8,93182	1551337
8,93593	1551046
8,94007	1465072
8,94418	1333257
8,94830	1157130
8,95243	962760
8,95655	784441
8,96067	624039
8,96480	500468
8,96892	399531
8,97303	313929
8,97715	255102
8,98128	206363
8,98540	167948
8,98952	145100
8,99365	118977
8,99777	108581
9,00188	92776
9,00602	82414
9,01013	74213
9,01425	66792
9,01838	63040
9,02250	57062
9,02662	50672
9,03075	49291
9,03487	46811
9,03898	43327
9,04312	42413
9,04723	42918
9,05135	40185
9,05548	39516
9,05960	39059
9,06372	36469
9,06783	39288
9,07197	39269
9,07608	37728
9,08020	36239
9,08433	36226
9,08845	35046
9,09257	34971
9,09670	32605
9,10082	31229
9,10493	30002
9,10907	29504
9,11318	28637
9,11730	27958
9,12143	27254
9,12555	26307
9,12967	25866
9,13380	26657
9,13792	24251
9,14203	25685
9,14617	23984
9,15028	22207
9,15440	22989
9,15852	24207
9,16265	21370
9,16677	22569
9,17088	21232
9,17502	21545
9,17913	20960
9,18325	21372
9,18738	20782
9,19150	20500
9,19562	20294
9,19975	19096
9,20387	20190
9,20798	20780
9,21212	21521
9,21623	22967
9,22035	22805
9,22448	25494
9,22860	25479
9,23272	26454
9,23685	26470
9,24097	26912
9,24508	26076
9,24920	23570
9,25333	23422
9,25745	22163
9,26157	21110
9,26570	20280
9,26982	19665
9,27393	19169
9,27807	19281
9,28218	16829
9,28630	18700
9,29043	18870
9,29455	17241
9,29867	17642
9,30280	17795
9,30692	17382
9,31103	17746
9,31517	17216
9,31928	17021
9,32340	17048
9,32753	16792
9,33165	15415
9,33577	16929
9,33988	17603
9,34402	17166
9,34813	16213
9,35225	15768
9,35638	16755
9,36050	17879
9,36462	16382
9,36875	16608
9,37287	16278
9,37698	16854
9,38112	16652
9,38523	17274
9,38935	15707
9,39348	15787
9,39760	16596
9,40172	15622
9,40585	16302
9,40997	16536
9,41408	15724
9,41822	17143
9,42233	16401
9,42645	16367
9,43057	14727
9,43470	15874
9,43882	15960
9,44293	16374
9,44707	15908
9,45118	16488
9,45530	17431
9,45943	16662
9,46355	15723
9,46767	17923
9,47180	16916
9,47592	17063
9,48003	16811
9,48417	17232
9,48828	16784
9,49240	15652
9,49653	16319
9,50065	15777
9,50477	17228
9,50890	15373
9,51302	16091
9,51713	15254
9,52125	16704
9,52538	15306
9,52950	14476
9,53362	14905
9,53775	17175
9,54187	15229
9,54598	17467
9,55012	16116
9,55423	15884
9,55835	17404
9,56248	17378
9,56660	17074
9,57072	18679
9,57485	17558
9,57897	17420
9,58308	17864
9,58722	17703
9,59133	17992
9,59545	17494
9,59958	16465
9,60370	17079
9,60782	16463
9,61193	16013
9,61607	15803
9,62018	15748
9,62430	15340
9,62843	15020
9,63255	15729
9,63667	16414
9,64080	14564
9,64492	16342
9,64903	14784
9,65317	14792
9,65728	16063
9,66140	16110
9,66553	16524
9,66965	17068
9,67377	16814
9,67790	17313
9,68202	19308
9,68613	23226
9,69027	33267
9,69438	56737
9,69850	114618
9,70262	221534
9,70675	416809
9,71087	733489
9,71498	1185512
9,71912	1715524
9,72323	2315789
9,72735	2895945
9,73148	3335218
9,73560	3564755
9,73972	3566981
9,74385	3338664
9,74797	2962882
9,75208	2469721
9,75622	1980127
9,76033	1554475
9,76445	1186799
9,76858	924065
9,77270	703842
9,77682	551562
9,78095	442415
9,78507	355331
9,78918	298498
9,79330	249051
9,79743	210502
9,80155	182483
9,80567	157144
9,80980	140225
9,81392	122947
9,81803	113299
9,82217	99486
9,82628	89338
9,83040	84036
9,83453	77669
9,83865	72597
9,84277	66541
9,84690	63534
9,85102	58996
9,85513	54966
9,85927	52191
9,86338	49250
9,86750	45559
9,87163	45115
9,87575	43720
9,87987	39863
9,88398	37903
9,88812	39568
9,89223	35745
9,89635	35892
9,90048	34661
9,90460	33534
9,90872	31982
9,91285	31006
9,91697	30916
9,92108	28462
9,92522	30765
9,92933	26673
9,93345	26863
9,93758	27584
9,94170	28102
9,94582	26463
9,94995	26096
9,95407	26035
9,95818	25461
9,96232	24541
9,96643	23043
9,97055	24519
9,97467	22308
9,97880	22155
9,98292	22941
9,98703	21659
9,99117	21791
9,99528	22217
9,99940	21534
10,00353	19977
10,00765	21303
10,01177	21899
10,01590	21457
10,02002	22479
10,02413	20836
10,02827	19805
10,03238	20529
10,03650	20306
10,04063	18479
10,04475	18830
10,04887	19100
10,05300	18935
10,05712	19495
10,06123	17435
10,06535	18321
10,06948	20126
10,07360	18496
10,07772	17982
10,08185	17014
10,08597	17717
10,09008	18037
10,09422	17688
10,09833	18909
10,10245	17796
10,10658	19145
10,11070	18874
10,11482	18052
10,11895	17982
10,12307	17810
10,12718	16955
10,13132	18342
10,13543	16811
10,13955	16800
10,14368	17445
10,14780	17892
10,15192	17528
10,15603	17442
10,16017	17731
10,16428	18340
10,16840	18631
10,17253	18846
10,17665	18765
10,18077	18810
10,18490	18532
10,18902	18442
10,19313	18335
10,19727	18126
10,20138	18064
10,20550	18028
10,20963	17196
10,21375	18412
10,21787	15766
10,22200	15333
10,22612	16199
10,23023	16564
10,23437	16574
10,23848	17311
10,24260	17748
10,24672	20554
10,25085	20886
10,25497	25419
10,25908	26402
10,26322	28821
10,26733	30874
10,27145	33550
10,27558	34214
10,27970	33647
10,28382	33671
10,28795	32633
10,29207	30433
10,29618	30818
10,30032	26492
10,30443	25271
10,30855	23540
10,31268	22700
10,31680	21088
10,32092	20461
10,32505	19965
10,32917	17318
10,33328	17981
10,33740	18203
10,34153	17001
10,34565	15996
10,34977	14455
10,35390	16552
10,35802	15412
10,36213	15517
10,36627	15072
10,37038	14755
10,37450	15873
10,37863	15175
10,38275	16421
10,38687	16515
10,39100	15966
10,39512	15890
10,39923	14542
10,40337	16573
10,40748	13835
10,41160	13141
10,41573	15006
10,41985	14812
10,42397	15366
10,42808	13328
10,43222	14740
10,43633	13971
10,44045	12955
10,44458	13937
10,44870	14863
10,45282	13528
10,45695	15322
10,46107	14212
10,46518	14552
10,46932	15424
10,47343	14410
10,47755	18544
10,48168	23745
10,48580	39576
10,48992	71882
10,49405	141653
10,49817	257694
10,50228	451405
10,50642	734002
10,51053	1075879
10,51465	1437704
10,51878	1736658
10,52290	1938991
10,52702	2001520
10,53113	1914743
10,53527	1716959
10,53938	1452180
10,54350	1183131
10,54763	932672
10,55175	710095
10,55587	543271
10,56000	411083
10,56412	322913
10,56823	257004
10,57237	211971
10,57648	170462
10,58060	145182
10,58473	121264
10,58885	108316
10,59297	94049
10,59710	85107
10,60122	74257
10,60533	68121
10,60947	59589
10,61358	56202
10,61770	53385
10,62182	47633
10,62595	44439
10,63007	40689
10,63418	38035
10,63832	38114
10,64243	34805
10,64655	31513
10,65068	31476
10,65480	31198
10,65892	27421
10,66305	28000
10,66717	26978
10,67128	26363
10,67542	25274
10,67953	24901
10,68365	24204
10,68778	23725
10,69190	22612
10,69602	21720
10,70015	22254
10,70427	20577
10,70838	23041
10,71250	21028
10,71663	22150
10,72075	21139
10,72487	19794
10,72900	19926
10,73312	19924
10,73723	19025
10,74137	19024
10,74548	18203
10,74960	17780
10,75373	19747
10,75785	17582
10,76197	16857
10,76610	16767
10,77022	17544
10,77433	17149
10,77847	17414
10,78258	17245
10,78670	15659
10,79083	15959
10,79495	15026
10,79907	16510
10,80318	15086
10,80732	16765
10,81143	16930
10,81555	16924
10,81968	15819
10,82380	15762
10,82792	16870
10,83205	15664
10,83617	15917
10,84028	15860
10,84442	13551
10,84853	14821
10,85265	15079
10,85678	15902
10,86090	14418
10,86502	15635
10,86915	14726
10,87327	15688
10,87738	13996
10,88152	15323
10,88563	15669
10,88975	16149
10,89387	19272
10,89800	19922
10,90212	22628
10,90623	23821
10,91037	22417
10,91448	23180
10,91860	23085
10,92273	23425
10,92685	23052
10,93097	19243
10,93510	20802
10,93922	16070
10,94333	17857
10,94747	16707
10,95158	16739
10,95570	15628
10,95983	15912
10,96395	14716
10,96807	14873
10,97220	15083
10,97632	15421
10,98043	13946
10,98455	13842
10,98868	15054
10,99280	14206
10,99692	14285
11,00105	13460
11,00517	14366
11,00928	14118
11,01342	13479
11,01753	13097
11,02165	14292
11,02578	15272
11,02990	13442
11,03402	15602
11,03815	14531
11,04227	17764
11,04638	18547
11,05052	19622
11,05463	21482
11,05875	23329
11,06288	24444
11,06700	23693
11,07112	24020
11,07523	22412
11,07937	20485
11,08348	20754
11,08760	18010
11,09173	19976
11,09585	18091
11,09997	16688
11,10410	16318
11,10822	15757
11,11233	16013
11,11647	15108
11,12058	15295
11,12470	16499
11,12883	17677
11,13295	16901
11,13707	15682
11,14120	15436
11,14532	15944
11,14943	15314
11,15357	15643
11,15768	14940
11,16180	14096
11,16592	15157
11,17005	13952
11,17417	15134
11,17828	14843
11,18242	14841
11,18653	12726
11,19065	14138
11,19478	13663
11,19890	14725
11,20302	13056
11,20715	13281
11,21127	13032
11,21538	12804
11,21952	13314
11,22363	12859
11,22775	12412
11,23188	14237
11,23600	11734
11,24012	14030
11,24425	16062
11,24837	23478
11,25248	40008
11,25660	83705
11,26073	174799
11,26485	357343
11,26897	665764
11,27310	1171751
11,27722	1831833
11,28133	2596535
11,28547	3361741
11,28958	3978899
11,29370	4312085
11,29783	4330658
11,30195	4012542
11,30607	3483474
11,31020	2831565
11,31432	2233505
11,31843	1690776
11,32257	1275790
11,32668	952828
11,33080	736447
11,33493	573693
11,33905	465747
11,34317	380430
11,34728	321089
11,35142	269253
11,35553	235218
11,35965	203501
11,36378	180507
11,36790	160484
11,37202	141352
11,37615	126292
11,38027	111553
11,38438	101992
11,38852	91024
11,39263	84232
11,39675	76082
11,40088	68446
11,40500	64065
11,40912	60916
11,41325	58208
11,41737	58202
11,42148	52317
11,42562	48971
11,42973	45363
11,43385	44444
11,43797	40091
11,44210	39978
11,44622	38185
11,45033	36046
11,45447	36856
11,45858	35215
11,46270	33731
11,46683	33898
11,47095	32257
11,47507	30695
11,47920	31097
11,48332	31110
11,48743	33161
11,49157	34821
11,49568	37872
11,49980	39896
11,50393	38716
11,50805	38806
11,51217	37360
11,51630	34959
11,52042	33555
11,52453	31626
11,52865	30577
11,53278	29030
11,53690	26275
11,54102	25162
11,54515	25169
11,54927	24529
11,55338	22332
11,55752	22227
11,56163	21364
11,56575	20901
11,56988	21172
11,57400	20921
11,57812	20077
11,58225	18575
11,58637	18367
11,59048	19300
11,59462	19092
11,59873	18122
11,60285	19409
11,60698	18773
11,61110	18293
11,61522	16896
11,61933	19466
11,62347	18346
11,62758	18008
11,63170	18369
11,63583	18621
11,63995	20620
11,64407	19682
11,64820	21881
11,65232	22407
11,65643	23571
11,66057	25548
11,66468	24506
11,66880	23657
11,67293	23791
11,67705	20863
11,68117	20651
11,68530	18978
11,68942	17613
11,69353	17383
11,69767	16454
11,70178	17513
11,70590	17868
11,71002	15926
11,71415	16531
11,71827	17219
11,72238	14543
11,72652	15684
11,73063	15680
11,73475	15931
11,73888	15593
11,74300	13453
11,74712	14200
11,75125	14117
11,75537	14032
11,75948	13763
11,76362	13602
11,76773	14774
11,77185	13527
11,77598	14637
11,78010	15055
11,78422	16956
11,78835	22002
11,79247	38710
11,79658	70344
11,80070	137844
11,80483	262255
11,80895	454126
11,81307	733154
11,81720	1082720
11,82132	1447783
11,82543	1778792
11,82957	1969545
11,83368	2022976
11,83780	1904121
11,84193	1702993
11,84605	1440315
11,85017	1163502
11,85430	903537
11,85842	685122
11,86253	529202
11,86667	408888
11,87078	320352
11,87490	267149
11,87903	218127
11,88315	189944
11,88727	165137
11,89138	148452
11,89552	128077
11,89963	113607
11,90375	101570
11,90788	90201
11,91200	79948
11,91612	72657
11,92025	61979
11,92437	59176
11,92848	53092
11,93262	49624
11,93673	46016
11,94085	44176
11,94498	42008
11,94910	39251
11,95322	37142
11,95735	34944
11,96147	34030
11,96558	32684
11,96972	30855
11,97383	29499
11,97795	28858
11,98207	27718
11,98620	29479
11,99032	32478
11,99443	43161
11,99857	76063
12,00268	136180
12,00680	272503
12,01093	484383
12,01505	790818
12,01917	1173172
12,02330	1614971
12,02742	2006329
12,03153	2270846
12,03567	2329144
12,03978	2208969
12,04390	1947155
12,04803	1614367
12,05215	1263884
12,05627	973017
12,06040	741734
12,06452	561008
12,06863	423705
12,07275	333353
12,07688	271319
12,08100	217523
12,08512	174709
12,08925	151733
12,09337	130838
12,09748	111490
12,10162	100089
12,10573	88243
12,10985	78902
12,11398	70375
12,11810	65766
12,12222	56977
12,12635	56831
12,13047	50947
12,13458	48655
12,13872	46326
12,14283	40578
12,14695	40045
12,15108	40551
12,15520	36008
12,15932	33932
12,16343	31341
12,16757	31279
12,17168	31896
12,17580	29422
12,17993	27905
12,18405	27754
12,18817	26422
12,19230	26876
12,19642	25169
12,20053	24086
12,20467	23653
12,20878	23600
12,21290	23026
12,21703	22215
12,22115	22575
12,22527	20735
12,22940	21521
12,23352	20662
12,23763	20721
12,24177	20896
12,24588	19331
12,25000	19226
12,25413	20392
12,25825	19844
12,26237	18058
12,26648	19609
12,27062	18213
12,27473	17589
12,27885	19437
12,28298	16739
12,28710	17709
12,29122	17634
12,29535	16098
12,29947	17520
12,30358	16601
12,30772	18123
12,31183	17132
12,31595	15200
12,32008	16696
12,32420	17801
12,32832	17272
12,33245	16766
12,33657	14772
12,34068	15891
12,34482	14279
12,34893	14617
12,35305	16349
12,35717	15596
12,36130	15364
12,36542	15722
12,36953	15842
12,37367	17190
12,37778	16772
12,38190	15335
12,38603	15757
12,39015	15646
12,39427	16464
12,39840	15739
12,40252	15056
12,40663	15884
12,41077	15429
12,41488	15221
12,41900	15713
12,42313	16079
12,42725	16230
12,43137	17215
12,43550	17254
12,43962	17580
12,44373	17169
12,44785	17348
12,45198	17138
12,45610	17143
12,46022	16147
12,46435	15748
12,46847	15917
12,47258	15347
12,47672	14219
12,48083	15869
12,48495	14060
12,48908	14483
12,49320	14671
12,49732	13487
12,50145	14256
12,50557	14371
12,50968	16051
12,51382	19458
12,51793	24236
12,52205	42895
12,52618	78812
12,53030	151008
12,53442	285839
12,53853	496843
12,54267	820193
12,54678	1209836
12,55090	1619867
12,55503	1934466
12,55915	2123628
12,56327	2137875
12,56740	1999335
12,57152	1752048
12,57563	1451629
12,57977	1161904
12,58388	894279
12,58800	685224
12,59213	526768
12,59625	404363
12,60037	319868
12,60450	251033
12,60862	205470
12,61273	173518
12,61687	141059
12,62098	122856
12,62510	107508
12,62922	97114
12,63335	86061
12,63747	78723
12,64158	70444
12,64572	64700
12,64983	60916
12,65395	57825
12,65808	50765
12,66220	48777
12,66632	45334
12,67045	41260
12,67457	40579
12,67868	38783
12,68282	37097
12,68693	36206
12,69105	35173
12,69518	34612
12,69930	38853
12,70342	51227
12,70755	84076
12,71167	161812
12,71578	320714
12,71990	628212
12,72403	1138465
12,72815	1904777
12,73227	2927324
12,73640	4110179
12,74052	5370173
12,74463	6497547
12,74877	7133020
12,75288	7292057
12,75700	6826184
12,76113	5878939
12,76525	4757992
12,76937	3670344
12,77350	2738780
12,77762	2028859
12,78173	1513812
12,78587	1139862
12,78998	896989
12,79410	706402
12,79823	580833
12,80235	479101
12,80647	411064
12,81058	347648
12,81472	300896
12,81883	257825
12,82295	229615
12,82708	206402
12,83120	181488
12,83532	165919
12,83945	147470
12,84357	140883
12,84768	129722
12,85182	118612
12,85593	112297
12,86005	100358
12,86418	94463
12,86830	89915
12,87242	81996
12,87655	79281
12,88067	73691
12,88478	70852
12,88892	69462
12,89303	63006
12,89715	60581
12,90127	56551
12,90540	53715
12,90952	53832
12,91363	51255
12,91777	47494
12,92188	47487
12,92600	44456
12,93013	42281
12,93425	40869
12,93837	40283
12,94250	40110
12,94662	36668
12,95073	36563
12,95487	35979
12,95898	33924
12,96310	34497
12,96723	33021
12,97135	33268
12,97547	32122
12,97960	31866
12,98372	30740
12,98783	27827
12,99195	29933
12,99608	27533
13,00020	27400
13,00432	28134
13,00845	31343
13,01257	27574
13,01668	29886
13,02082	30409
13,02493	30248
13,02905	29384
13,03318	27403
13,03730	28716
13,04142	26901
13,04555	23794
13,04967	25406
13,05378	24926
13,05792	23758
13,06203	23795
13,06615	22647
13,07028	21219
13,07440	22056
13,07852	20717
13,08263	22908
13,08677	23343
13,09088	23085
13,09500	25842
13,09913	25375
13,10325	24981
13,10737	24843
13,11150	25463
13,11562	23684
13,11973	23903
13,12387	26105
13,12798	33672
13,13210	55570
13,13623	101795
13,14035	195096
13,14447	362134
13,14860	624670
13,15272	971599
13,15683	1385058
13,16097	1786032
13,16508	2076371
13,16920	2237217
13,17332	2205466
13,17745	2029724
13,18157	1735932
13,18568	1406949
13,18982	1105229
13,19393	846188
13,19805	644358
13,20218	500732
13,20630	394090
13,21042	309109
13,21455	253917
13,21867	211076
13,22278	176828
13,22692	149305
13,23103	133525
13,23515	117482
13,23928	108552
13,24340	95697
13,24752	89898
13,25165	85690
13,25577	83315
13,25988	78566
13,26400	72689
13,26813	71270
13,27225	67398
13,27637	60866
13,28050	61944
13,28462	62671
13,28873	61996
13,29287	65672
13,29698	62779
13,30110	64468
13,30523	62188
13,30935	61413
13,31347	55597
13,31760	52927
13,32172	50717
13,32583	45810
13,32997	39764
13,33408	38965
13,33820	36261
13,34233	34912
13,34645	31487
13,35057	31025
13,35468	29663
13,35882	28149
13,36293	28419
13,36705	27339
13,37118	27689
13,37530	27643
13,37942	29710
13,38355	32078
13,38767	41825
13,39178	64793
13,39592	120032
13,40003	234069
13,40415	428806
13,40828	735538
13,41240	1136270
13,41652	1599553
13,42065	2064568
13,42477	2395915
13,42888	2561585
13,43302	2518632
13,43713	2277492
13,44125	1920178
13,44537	1524763
13,44950	1178633
13,45362	898830
13,45773	675187
13,46187	513740
13,46598	395199
13,47010	314689
13,47423	258227
13,47835	214553
13,48247	177165
13,48660	156696
13,49072	135737
13,49483	117805
13,49897	105728
13,50308	96052
13,50720	88946
13,51133	82839
13,51545	74851
13,51957	71052
13,52370	64115
13,52782	60083
13,53193	55572
13,53605	51251
13,54018	49033
13,54430	50305
13,54842	46378
13,55255	44483
13,55667	41921
13,56078	40367
13,56492	40223
13,56903	39641
13,57315	36241
13,57728	35210
13,58140	34808
13,58552	32949
13,58965	33389
13,59377	30687
13,59788	30875
13,60202	31739
13,60613	31693
13,61025	30913
13,61438	31772
13,61850	30949
13,62262	29854
13,62673	29898
13,63087	28393
13,63498	28632
13,63910	25825
13,64323	24886
13,64735	26020
13,65147	26092
13,65560	25185
13,65972	24245
13,66383	23777
13,66797	24539
13,67208	23338
13,67620	24268
13,68033	23797
13,68445	24345
13,68857	21494
13,69270	22871
13,69682	22006
13,70093	21780
13,70507	21161
13,70918	21843
13,71330	22221
13,71742	21903
13,72155	22117
13,72567	20099
13,72978	20443
13,73392	21604
13,73803	22555
13,74215	21525
13,74628	19795
13,75040	21638
13,75452	21302
13,75865	19093
13,76277	19040
13,76688	20318
13,77102	20340
13,77513	18917
13,77925	20478
13,78338	18906
13,78750	20213
13,79162	21883
13,79575	26525
13,79987	38317
13,80398	61927
13,80810	117117
13,81223	224479
13,81635	403223
13,82047	705818
13,82460	1076126
13,82872	1515247
13,83283	1954466
13,83697	2283714
13,84108	2434973
13,84520	2399112
13,84933	2190291
13,85345	1847971
13,85757	1496469
13,86170	1156099
13,86582	878187
13,86993	674560
13,87407	519153
13,87818	401736
13,88230	328566
13,88643	259746
13,89055	218442
13,89467	179569
13,89880	155727
13,90292	136538
13,90703	121494
13,91115	110671
13,91528	99914
13,91940	89226
13,92352	80852
13,92765	75504
13,93177	68405
13,93588	65686
13,94002	61198
13,94413	57090
13,94825	52520
13,95238	48889
13,95650	48859
13,96062	45855
13,96475	44644
13,96887	42820
13,97298	40745
13,97712	40455
13,98123	39543
13,98535	37970
13,98948	35676
13,99360	35137
13,99772	34399
14,00183	32219
14,00597	32086
14,01008	32785
14,01420	30680
14,01833	29565
14,02245	30588
14,02657	27565
14,03070	30298
14,03482	28037
14,03893	31355
14,04307	40516
14,04718	60884
14,05130	115030
14,05543	227493
14,05955	438973
14,06367	794882
14,06780	1345880
14,07192	2101087
14,07603	2995430
14,08017	3951123
14,08428	4799403
14,08840	5365628
14,09252	5568638
14,09665	5230094
14,10077	4592822
14,10488	3745139
14,10902	2925748
14,11313	2202660
14,11725	1656734
14,12138	1256184
14,12550	970745
14,12962	761538
14,13375	609756
14,13787	497020
14,14198	419221
14,14612	351884
14,15023	299769
14,15435	267295
14,15848	231711
14,16260	213448
14,16672	191161
14,17085	172249
14,17497	156550
14,17908	142275
14,18320	131164
14,18733	122476
14,19145	108844
14,19557	106077
14,19970	100028
14,20382	90815
14,20793	88531
14,21207	85309
14,21618	79111
14,22030	75030
14,22443	71515
14,22855	69258
14,23267	65638
14,23680	63944
14,24092	62416
14,24503	58561
14,24917	54480
14,25328	54443
14,25740	53400
14,26153	49404
14,26565	51022
14,26977	53815
14,27388	66447
14,27802	92112
14,28213	156686
14,28625	273970
14,29038	477586
14,29450	795891
14,29862	1204963
14,30275	1684707
14,30687	2084903
14,31098	2401410
14,31512	2569666
14,31923	2505226
14,32335	2300285
14,32748	1994772
14,33160	1642277
14,33572	1290374
14,33985	1002350
14,34397	770885
14,34808	599965
14,35222	468016
14,35633	377734
14,36045	303797
14,36457	256027
14,36870	221358
14,37282	188940
14,37693	167301
14,38107	151029
14,38518	137552
14,38930	131437
14,39343	138981
14,39755	183479
14,40167	284591
14,40580	493952
14,40992	852544
14,41403	1401392
14,41817	2147056
14,42228	3037977
14,42640	3951689
14,43053	4690635
14,43465	5109349
14,43877	5160225
14,44290	4811799
14,44702	4182168
14,45113	3386097
14,45525	2660525
14,45938	2024699
14,46350	1531511
14,46762	1179543
14,47175	923676
14,47587	732325
14,47998	591441
14,48412	492660
14,48823	410850
14,49235	355411
14,49648	310671
14,50060	275771
14,50472	239513
14,50885	221497
14,51297	197992
14,51708	181073
14,52122	165005
14,52533	151521
14,52945	141332
14,53358	132808
14,53770	125536
14,54182	118538
14,54593	110986
14,55007	101276
14,55418	97002
14,55830	91123
14,56243	88068
14,56655	84606
14,57067	81033
14,57480	78708
14,57892	73698
14,58303	72165
14,58717	65865
14,59128	66544
14,59540	61162
14,59953	60368
14,60365	59776
14,60777	56657
14,61190	57789
14,61602	54048
14,62013	51993
14,62427	52654
14,62838	49845
14,63250	50397
14,63662	51295
14,64075	53429
14,64487	68271
14,64898	105162
14,65312	172567
14,65723	311615
14,66135	551140
14,66548	880778
14,66960	1326735
14,67372	1799077
14,67785	2248832
14,68197	2612630
14,68608	2869838
14,69022	3106923
14,69433	3383949
14,69845	3806976
14,70258	4421580
14,70670	5101254
14,71082	5693407
14,71495	6035144
14,71907	5896322
14,72318	5280002
14,72730	4508917
14,73143	3615880
14,73555	2775253
14,73967	2088516
14,74380	1600606
14,74792	1224130
14,75203	974435
14,75617	784472
14,76028	656088
14,76440	549077
14,76853	465358
14,77265	407781
14,77677	360527
14,78090	313868
14,78502	285899
14,78913	256074
14,79327	235992
14,79738	213914
14,80150	200976
14,80563	184429
14,80975	171873
14,81387	160827
14,81798	151646
14,82212	143259
14,82623	138992
14,83035	131391
14,83448	126347
14,83860	120049
14,84272	113747
14,84685	110966
14,85097	103431
14,85508	101539
14,85922	99001
14,86333	93526
14,86745	92825
14,87158	89559
14,87570	83768
14,87982	82714
14,88395	76324
14,88807	75407
14,89218	72106
14,89632	72000
14,90043	68990
14,90455	66414
14,90867	65196
14,91280	70246
14,91692	81241
14,92103	108170
14,92517	171561
14,92928	290244
14,93340	495769
14,93753	789406
14,94165	1161845
14,94577	1556720
14,94990	1931996
14,95402	2180096
14,95813	2258819
14,96227	2146175
14,96638	1917115
14,97050	1611951
14,97463	1301327
14,97875	1033478
14,98287	797159
14,98700	622210
14,99112	490050
14,99523	399375
14,99935	322600
15,00348	271127
15,00760	230891
15,01172	200331
15,01585	175702
15,01997	158653
15,02408	143995
15,02822	134435
15,03233	121991
15,03645	114374
15,04058	109527
15,04470	102626
15,04882	94946
15,05295	91635
15,05707	84281
15,06118	82420
15,06532	76831
15,06943	76042
15,07355	68082
15,07768	66972
15,08180	63907
15,08592	62935
15,09003	61302
15,09417	58094
15,09828	56422
15,10240	55447
15,10653	52782
15,11065	51844
15,11477	53042
15,11890	50270
15,12302	49608
15,12713	51253
15,13127	46693
15,13538	47036
15,13950	45785
15,14363	47252
15,14775	43824
15,15187	44438
15,15600	44209
15,16012	44595
15,16423	45723
15,16837	47263
15,17248	44733
15,17660	45071
15,18072	44890
15,18485	44533
15,18897	44056
15,19308	41199
15,19722	40764
15,20133	41888
15,20545	41837
15,20958	41732
15,21370	39645
15,21782	37855
15,22195	37968
15,22607	37645
15,23018	36332
15,23432	35882
15,23843	36461
15,24255	32542
15,24668	36614
15,25080	34600
15,25492	34773
15,25905	33101
15,26317	34417
15,26728	35989
15,27140	39601
15,27553	50477
15,27965	79811
15,28377	144393
15,28790	288113
15,29202	566317
15,29613	1046872
15,30027	1779022
15,30438	2823681
15,30850	4096078
15,31263	5459317
15,31675	6684556
15,32087	7631629
15,32500	7916460
15,32912	7563954
15,33323	6632921
15,33737	5469502
15,34148	4332844
15,34560	3328835
15,34973	2543512
15,35385	1938045
15,35797	1520258
15,36208	1207616
15,36622	969686
15,37033	809493
15,37445	678537
15,37858	578475
15,38270	499652
15,38682	435806
15,39095	388149
15,39507	349573
15,39918	312298
15,40332	284765
15,40743	256422
15,41155	240502
15,41568	222971
15,41980	206178
15,42392	189340
15,42805	179489
15,43217	168500
15,43628	157972
15,44042	150812
15,44453	139761
15,44865	134539
15,45278	127473
15,45690	124908
15,46102	119427
15,46513	113076
15,46927	106541
15,47338	102571
15,47750	102177
15,48163	97502
15,48575	96067
15,48987	89247
15,49400	88748
15,49812	86910
15,50223	85584
15,50637	90773
15,51048	98496
15,51460	113887
15,51873	151798
15,52285	215802
15,52697	332469
15,53110	533862
15,53522	799643
15,53933	1138898
15,54347	1484392
15,54758	1764809
15,55170	1945302
15,55582	1977522
15,55995	1867095
15,56407	1675084
15,56818	1391494
15,57232	1127014
15,57643	893119
15,58055	699476
15,58468	548960
15,58880	440535
15,59292	356353
15,59705	305973
15,60117	273650
15,60528	264695
15,60942	283538
15,61353	352075
15,61765	517073
15,62178	776991
15,62590	1163232
15,63002	1643087
15,63415	2111669
15,63827	2560116
15,64238	2785964
15,64650	2819246
15,65063	2624609
15,65475	2284376
15,65887	1906302
15,66300	1526364
15,66712	1184740
15,67123	924207
15,67537	738638
15,67948	591709
15,68360	489373
15,68773	415701
15,69185	351844
15,69597	307507
15,70010	271135
15,70422	243174
15,70833	220054
15,71247	200398
15,71658	184751
15,72070	171653
15,72483	159599
15,72895	147854
15,73307	139686
15,73718	133295
15,74132	127408
15,74543	119450
15,74955	111544
15,75368	104668
15,75780	103989
15,76192	98102
15,76605	93064
15,77017	90261
15,77428	90892
15,77842	88017
15,78253	83418
15,78665	85421
15,79078	82085
15,79490	77692
15,79902	76949
15,80315	73271
15,80727	74093
15,81138	73272
15,81552	73703
15,81963	72253
15,82375	69314
15,82787	65739
15,83200	65837
15,83612	65416
15,84023	63951
15,84437	62827
15,84848	66869
15,85260	72583
15,85673	88722
15,86085	134937
15,86497	227677
15,86910	398180
15,87322	674628
15,87733	1080367
15,88147	1595539
15,88558	2165105
15,88970	2671341
15,89383	3004245
15,89795	3080104
15,90207	2893186
15,90620	2513617
15,91032	2079858
15,91443	1654715
15,91855	1289496
15,92268	987897
15,92680	797901
15,93092	644118
15,93505	526197
15,93917	438129
15,94328	376316
15,94742	330931
15,95153	284982
15,95565	254359
15,95978	231874
15,96390	209232
15,96802	189313
15,97215	180394
15,97627	162909
15,98038	155281
15,98452	146409
15,98863	141769
15,99275	133249
15,99688	130205
16,00100	121299
16,00512	120358
16,00923	114981
16,01337	106893
16,01748	109016
16,02160	103127
16,02573	100244
16,02985	96788
16,03397	95645
16,03810	88992
16,04222	86982
16,04633	84566
16,05047	84827
16,05458	85261
16,05870	78877
16,06283	78845
16,06695	76912
16,07107	74684
16,07520	73811
16,07932	73284
16,08343	71349
16,08757	67488
16,09168	70239
16,09580	77126
16,09992	87699
16,10405	121029
16,10817	193592
16,11228	331162
16,11642	553407
16,12053	879053
16,12465	1281020
16,12878	1712844
16,13290	2114033
16,13702	2344157
16,14115	2385003
16,14527	2243757
16,14938	1987219
16,15352	1676390
16,15763	1355610
16,16175	1069758
16,16588	844240
16,17000	672916
16,17412	547246
16,17825	444521
16,18237	377589
16,18648	319068
16,19060	281364
16,19473	249309
16,19885	220873
16,20297	194224
16,20710	178477
16,21122	166590
16,21533	153663
16,21947	144268
16,22358	135384
16,22770	126258
16,23183	120896
16,23595	114502
16,24007	109246
16,24420	107803
16,24832	98649
16,25243	97332
16,25657	95169
16,26068	94687
16,26480	89732
16,26893	86247
16,27305	85931
16,27717	82556
16,28128	79882
16,28542	74256
16,28953	75231
16,29365	73985
16,29778	70779
16,30190	71905
16,30602	68137
16,31015	69800
16,31427	65950
16,31838	66817
16,32252	64605
16,32663	64728
16,33075	62244
16,33488	63044
16,33900	60868
16,34312	61620
16,34725	60869
16,35137	58545
16,35548	58772
16,35962	61558
16,36373	60656
16,36785	61440
16,37197	56851
16,37610	58073
16,38022	57944
16,38433	56318
16,38847	58139
16,39258	56386
16,39670	53004
16,40083	53557
16,40495	53596
16,40907	54062
16,41320	59360
16,41732	60304
16,42143	69748
16,42557	89342
16,42968	131723
16,43380	225571
16,43793	391323
16,44205	664712
16,44617	1100757
16,45030	1711042
16,45442	2497408
16,45853	3424369
16,46265	4411858
16,46678	5336294
16,47090	5996489
16,47502	6357808
16,47915	6303905
16,48327	5957308
16,48738	5448955
16,49152	4937120
16,49563	4408912
16,49975	3947814
16,50388	3469285
16,50800	2983762
16,51212	2521631
16,51625	2114988
16,52037	1740396
16,52448	1432751
16,52862	1174788
16,53273	990275
16,53685	836460
16,54098	717102
16,54510	635883
16,54922	553260
16,55333	497691
16,55747	448159
16,56158	404261
16,56570	369569
16,56983	346039
16,57395	316909
16,57807	296756
16,58220	273997
16,58632	259378
16,59043	240374
16,59457	231433
16,59868	216318
16,60280	210295
16,60693	197178
16,61105	187145
16,61517	181431
16,61930	173240
16,62342	166873
16,62753	161995
16,63167	153977
16,63578	150286
16,63990	140857
16,64402	141200
16,64815	136874
16,65227	133460
16,65638	131975
16,66052	128015
16,66463	129671
16,66875	129455
16,67288	133353
16,67700	144364
16,68112	168423
16,68525	227383
16,68937	324313
16,69348	477306
16,69762	705415
16,70173	987495
16,70585	1329404
16,70998	1656101
16,71410	1886180
16,71822	2021424
16,72235	2015153
16,72647	1883108
16,73058	1694645
16,73470	1443176
16,73883	1247209
16,74295	1104130
16,74707	1043018
16,75120	1099713
16,75532	1267376
16,75943	1541956
16,76357	1933575
16,76768	2402126
16,77180	2891615
16,77593	3342417
16,78005	3728751
16,78417	3930797
16,78830	4015149
16,79242	3906086
16,79653	3603967
16,80067	3230245
16,80478	2770762
16,80890	2308327
16,81303	1927893
16,81715	1570434
16,82127	1301889
16,82538	1081157
16,82952	910677
16,83363	786753
16,83775	684978
16,84188	605164
16,84600	548564
16,85012	482721
16,85425	442755
16,85837	406623
16,86248	370513
16,86662	343447
16,87073	321657
16,87485	296545
16,87898	278657
16,88310	258113
16,88722	244961
16,89135	227864
16,89547	220113
16,89958	208459
16,90372	197456
16,90783	186764
16,91195	178926
16,91607	174103
16,92020	166849
16,92432	161897
16,92843	151042
16,93257	148749
16,93668	140274
16,94080	136008
16,94493	134260
16,94905	129067
16,95317	126307
16,95730	123519
16,96142	121936
16,96553	118741
16,96967	115428
16,97378	111795
16,97790	114108
16,98203	113163
16,98615	112425
16,99027	122795
16,99440	138905
16,99852	178320
17,00263	249232
17,00677	380082
17,01088	592655
17,01500	895579
17,01912	1281392
17,02325	1739605
17,02737	2169227
17,03148	2522908
17,03562	2717219
17,03973	2719009
17,04385	2542612
17,04798	2260557
17,05210	1919939
17,05622	1600746
17,06035	1314789
17,06447	1086955
17,06858	908471
17,07272	767182
17,07683	653486
17,08095	561923
17,08508	496141
17,08920	447506
17,09332	400004
17,09745	368035
17,10157	333224
17,10568	307876
17,10980	284927
17,11393	262416
17,11805	248967
17,12217	232317
17,12630	221850
17,13042	208610
17,13453	202364
17,13867	188140
17,14278	183341
17,14690	180147
17,15103	178953
17,15515	169817
17,15927	169495
17,16340	162871
17,16752	160343
17,17163	154344
17,17577	148102
17,17988	145404
17,18400	139896
17,18813	133682
17,19225	128855
17,19637	125907
17,20048	122068
17,20462	114496
17,20873	113417
17,21285	114329
17,21698	108574
17,22110	109025
17,22522	102852
17,22935	102896
17,23347	101382
17,23758	98840
17,24172	99447
17,24583	99706
17,24995	100792
17,25408	99668
17,25820	109428
17,26232	128367
17,26645	177751
17,27057	245329
17,27468	376749
17,27882	560426
17,28293	815144
17,28705	1146380
17,29117	1491801
17,29530	1818535
17,29942	2036624
17,30353	2124703
17,30767	2088473
17,31178	1971714
17,31590	1759122
17,32003	1519117
17,32415	1284730
17,32827	1077796
17,33240	897785
17,33652	763313
17,34063	638848
17,34477	558758
17,34888	479622
17,35300	428551
17,35713	385401
17,36125	352592
17,36537	341810
17,36950	351154
17,37362	391669
17,37773	469063
17,38185	603944
17,38598	780656
17,39010	980111
17,39422	1194909
17,39835	1389648
17,40247	1531710
17,40658	1582110
17,41072	1562702
17,41483	1476490
17,41895	1334998
17,42308	1171072
17,42720	1020622
17,43132	859656
17,43545	716879
17,43957	614660
17,44368	532064
17,44782	459799
17,45193	402299
17,45605	355023
17,46018	314522
17,46430	284989
17,46842	261558
17,47253	236134
17,47667	222500
17,48078	206872
17,48490	194255
17,48903	184083
17,49315	176524
17,49727	160547
17,50140	158212
17,50552	151009
17,50963	146813
17,51377	137896
17,51788	131525
17,52200	131384
17,52613	125242
17,53025	123350
17,53437	120664
17,53850	114401
17,54262	115774
17,54673	110026
17,55087	111106
17,55498	106040
17,55910	105144
17,56322	105031
17,56735	104750
17,57147	103009
17,57558	108560
17,57972	125368
17,58383	143805
17,58795	186459
17,59208	263495
17,59620	391322
17,60032	590688
17,60445	884748
17,60857	1263711
17,61268	1748581
17,61682	2328873
17,62093	2954953
17,62505	3596315
17,62918	4191052
17,63330	4596864
17,63742	4763157
17,64155	4601752
17,64567	4230574
17,64978	3687278
17,65390	3126480
17,65803	2601756
17,66215	2175012
17,66627	1806201
17,67040	1513488
17,67452	1280810
17,67863	1114241
17,68277	963226
17,68688	858757
17,69100	764881
17,69513	682841
17,69925	621273
17,70337	565956
17,70750	520779
17,71162	481121
17,71573	444424
17,71987	418623
17,72398	390052
17,72810	364793
17,73223	349214
17,73635	333326
17,74047	308700
17,74458	293494
17,74872	279291
17,75283	268581
17,75695	253086
17,76108	239754
17,76520	228965
17,76932	223418
17,77345	212422
17,77757	208234
17,78168	201052
17,78582	191324
17,78993	186611
17,79405	182429
17,79818	175199
17,80230	171010
17,80642	164175
17,81055	164697
17,81467	159493
17,81878	156013
17,82292	150716
17,82703	146497
17,83115	147563
17,83527	142056
17,83940	138273
17,84352	133335
17,84763	133873
17,85177	129238
17,85588	129581
17,86000	126686
17,86413	120311
17,86825	120625
17,87237	116997
17,87650	113979
17,88062	115893
17,88473	116294
17,88887	114014
17,89298	111443
17,89710	105834
17,90123	106486
17,90535	105442
17,90947	105630
17,91360	102993
17,91772	102680
17,92183	103695
17,92595	107938
17,93008	114618
17,93420	132666
17,93832	161053
17,94245	206572
17,94657	290580
17,95068	418756
17,95482	604859
17,95893	855582
17,96305	1125569
17,96718	1440190
17,97130	1745075
17,97542	1990259
17,97955	2105453
17,98367	2138879
17,98778	2044294
17,99192	1916657
17,99603	1707010
18,00015	1500432
18,00428	1294395
18,00840	1114614
18,01252	952281
18,01663	834468
18,02077	724729
18,02488	638916
18,02900	564907
18,03313	505884
18,03725	463736
18,04137	424561
18,04550	379859
18,04962	354643
18,05373	331144
18,05787	305282
18,06198	288279
18,06610	271252
18,07023	255490
18,07435	242066
18,07847	233810
18,08260	217576
18,08672	207329
18,09083	201257
18,09497	193975
18,09908	183234
18,10320	177599
18,10732	171887
18,11145	164760
18,11557	162782
18,11968	157237
18,12382	154757
18,12793	148733
18,13205	144953
18,13618	141533
18,14030	137543
18,14442	135263
18,14855	131876
18,15267	131063
18,15678	122315
18,16092	127493
18,16503	123856
18,16915	117398
18,17328	119051
18,17740	113196
18,18152	116265
18,18565	110590
18,18977	111263
18,19388	106905
18,19800	107989
18,20213	102911
18,20625	103537
18,21037	102020
18,21450	105710
18,21862	98464
18,22273	97273
18,22687	97746
18,23098	96007
18,23510	93960
18,23923	93542
18,24335	96461
18,24747	91010
18,25160	92806
18,25572	89822
18,25983	87117
18,26397	88543
18,26808	86068
18,27220	85104
18,27633	84077
18,28045	85982
18,28457	83405
18,28868	81356
18,29282	83793
18,29693	84955
18,30105	87512
18,30518	82346
18,30930	84244
18,31342	83269
18,31755	85655
18,32167	83650
18,32578	81156
18,32992	84279
18,33403	83263
18,33815	80328
18,34228	79474
18,34640	76835
18,35052	76795
18,35465	74563
18,35877	73394
18,36288	72179
18,36702	72145
18,37113	71860
18,37525	71583
18,37937	72228
18,38350	69963
18,38762	67143
18,39173	70631
18,39587	68628
18,39998	68845
18,40410	68476
18,40823	69153
18,41235	67461
18,41647	69241
18,42060	71298
18,42472	71538
18,42883	76764
18,43297	78492
18,43708	86624
18,44120	93081
18,44533	100529
18,44945	113030
18,45357	126385
18,45770	137820
18,46182	144614
18,46593	153187
18,47005	156199
18,47418	159716
18,47830	155451
18,48242	147527
18,48655	137864
18,49067	131988
18,49478	124679
18,49892	110333
18,50303	108341
18,50715	102920
18,51128	95197
18,51540	90966
18,51952	88911
18,52365	82391
18,52777	78919
18,53188	78016
18,53602	75476
18,54013	76162
18,54425	73406
18,54838	73753
18,55250	73411
18,55662	70868
18,56073	70442
18,56487	68726
18,56898	68103
18,57310	67337
18,57723	67171
18,58135	64619
18,58547	65155
18,58960	67241
18,59372	61272
18,59783	62391
18,60197	65563
18,60608	63598
18,61020	64966
18,61433	62401
18,61845	61984
18,62257	65448
18,62670	61637
18,63082	60688
18,63493	60096
18,63907	61141
18,64318	58169
18,64730	60677
18,65143	63172
18,65555	62228
18,65967	62965
18,66378	61846
18,66792	63273
18,67203	59981
18,67615	58035
18,68028	57709
18,68440	58504
18,68852	58061
18,69265	55905
18,69677	58787
18,70088	55398
18,70502	57117
18,70913	55649
18,71325	57477
18,71738	57790
18,72150	56760
18,72562	56694
18,72975	57207
18,73387	54779
18,73798	56419
18,74212	56225
18,74623	59125
18,75035	58058
18,75447	58384
18,75860	58969
18,76272	60390
18,76683	55986
18,77097	54550
18,77508	57815
18,77920	53890
18,78333	55511
18,78745	52921
18,79157	55865
18,79570	54417
18,79982	55736
18,80393	56447
18,80807	55823
18,81218	57382
18,81630	55803
18,82043	55577
18,82455	56484
18,82867	53748
18,83280	56550
18,83692	54361
18,84103	56944
18,84515	53319
18,84928	54091
18,85340	52685
18,85752	51789
18,86165	54114
18,86577	54153
18,86988	52038
18,87402	54828
18,87813	52662
18,88225	54620
18,88638	51792
18,89050	50573
18,89462	53334
18,89875	54014
18,90287	54513
18,90698	55258
18,91112	51682
18,91523	51948
18,91935	52685
18,92348	52914
18,92760	53631
18,93172	51923
18,93583	52572
18,93997	55244
18,94408	55203
18,94820	53039
18,95233	53307
18,95645	52456
18,96057	53093
18,96470	56423
18,96882	51792
18,97293	52222
18,97707	53520
18,98118	53515
18,98530	54657
18,98943	54474
18,99355	54026
18,99767	54394
19,00180	59923
19,00592	62220
19,01003	74484
19,01417	94700
19,01828	117975
19,02240	161486
19,02652	221940
19,03065	303872
19,03477	396994
19,03888	506649
19,04302	628803
19,04713	738304
19,05125	846896
19,05538	919374
19,05950	961367
19,06362	962012
19,06775	939080
19,07187	884080
19,07598	829239
19,08012	759455
19,08423	681997
19,08835	610444
19,09248	547898
19,09660	483001
19,10072	430779
19,10485	391405
19,10897	354208
19,11308	313431
19,11720	286340
19,12133	261996
19,12545	246996
19,12957	222010
19,13370	203912
19,13782	188517
19,14193	176829
19,14607	168753
19,15018	162387
19,15430	153990
19,15843	141668
19,16255	137249
19,16667	130356
19,17080	125553
19,17492	120915
19,17903	120062
19,18317	111297
19,18728	114104
19,19140	105613
19,19553	103645
19,19965	102486
19,20377	96860
19,20788	96128
19,21202	94405
19,21613	90949
19,22025	88141
19,22438	88514
19,22850	84636
19,23262	84912
19,23675	82599
19,24087	81104
19,24498	79521
19,24912	79821
19,25323	80543
19,25735	78403
19,26148	76539
19,26560	77290
19,26972	75286
19,27385	71112
19,27797	72377
19,28208	71118
19,28622	70229
19,29033	72498
19,29445	70787
19,29857	70323
19,30270	69593
19,30682	69967
19,31093	65556
19,31507	70187
19,31918	65399
19,32330	65606
19,32743	65924
19,33155	66368
19,33567	62422
19,33980	65158
19,34392	65706
19,34803	64074
19,35217	64939
19,35628	62535
19,36040	64442
19,36453	63668
19,36865	61538
19,37277	60714
19,37690	63371
19,38102	59778
19,38513	57873
19,38925	59003
19,39338	58186
19,39750	60832
19,40162	59295
19,40575	57149
19,40987	59671
19,41398	57253
19,41812	60320
19,42223	56511
19,42635	57361
19,43048	55137
19,43460	54111
19,43872	56357
19,44285	55303
19,44697	56729
19,45108	54966
19,45522	55477
19,45933	60293
19,46345	55462
19,46758	55780
19,47170	56135
19,47582	53705
19,47993	51962
19,48407	56871
19,48818	54203
19,49230	57681
19,49643	55187
19,50055	51599
19,50467	53985
19,50880	54432
19,51292	56748
19,51703	52158
19,52117	51388
19,52528	51832
19,52940	52111
19,53353	53609
19,53765	54061
19,54177	51194
19,54590	51485
19,55002	51475
19,55413	52981
19,55827	53426
19,56238	52166
19,56650	51980
19,57062	51449
19,57475	52786
19,57887	53711
19,58298	52862
19,58712	53821
19,59123	55066
19,59535	53914
19,59948	53338
19,60360	52342
19,60772	52987
19,61185	54438
19,61597	52279
19,62008	52726
19,62422	50828
19,62833	52132
19,63245	52069
19,63658	51225
19,64070	52782
19,64482	51725
19,64895	49956
19,65307	51384
19,65718	51155
19,66130	51175
19,66543	49712
19,66955	51257
19,67367	52207
19,67780	51907
19,68192	53004
19,68603	49759
19,69017	49741
19,69428	53099
19,69840	50844
19,70253	53348
19,70665	51180
19,71077	53277
19,71490	52654
19,71902	54084
19,72313	51484
19,72727	52647
19,73138	51179
19,73550	51540
19,73963	52319
19,74375	51641
19,74787	51228
19,75198	51361
19,75612	52759
19,76023	49674
19,76435	51995
19,76848	51253
19,77260	47427
19,77672	51987
19,78085	49269
19,78497	52338
19,78908	53394
19,79322	51128
19,79733	48893
19,80145	49250
19,80558	49473
19,80970	47324
19,81382	49343
19,81795	47695
19,82207	46961
19,82618	47943
19,83032	50604
19,83443	50089
19,83855	47299
19,84267	49369
19,84680	45937
19,85092	47724
19,85503	48783
19,85917	50455
19,86328	51222
19,86740	47979
19,87153	48317
19,87565	47174
19,87977	48702
19,88390	48294
19,88802	48376
19,89213	49774
19,89627	49784
19,90038	49233
19,90450	49711
19,90863	48958
19,91275	46771
19,91687	47621
19,92100	49185
