D:\MassHunter\GCMS\1\data\Amal\Constant flow\90C\90C_1ml-min_6C-min_3.D Thu Sep 19 16:43:23 2024
Start of data points
5,89083,246263
5,89495,318939
5,89908,397127
5,90320,463042
5,90732,538474
5,91145,582075
5,91557,611151
5,91968,620686
5,92382,616467
5,92793,607733
5,93205,596515
5,93618,568010
5,94030,541939
5,94442,518414
5,94855,498363
5,95267,478225
5,95678,454881
5,96090,433503
5,96503,407591
5,96915,398766
5,97327,381779
5,97740,366913
5,98152,355216
5,98563,341033
5,98977,330542
5,99388,326140
5,99800,320868
6,00213,311946
6,00625,302407
6,01037,291172
6,01450,283388
6,01862,271463
6,02273,265562
6,02687,257598
6,03098,240872
6,03510,233281
6,03923,222831
6,04335,214073
6,04747,204129
6,05158,189564
6,05572,182182
6,05983,172121
6,06395,165814
6,06808,160315
6,07220,149804
6,07632,143522
6,08045,139060
6,08457,130684
6,08868,127793
6,09282,120860
6,09693,117371
6,10105,112749
6,10518,108394
6,10930,101791
6,11342,100230
6,11755,97033
6,12167,96174
6,12578,89871
6,12992,90946
6,13403,88339
6,13815,85284
6,14228,82120
6,14640,81999
6,15052,79835
6,15463,78152
6,15877,76317
6,16288,77046
6,16700,72543
6,17113,71566
6,17525,71033
6,17937,70432
6,18350,67461
6,18762,68681
6,19173,70129
6,19587,67213
6,19998,64822
6,20410,66509
6,20823,64456
6,21235,61521
6,21647,61516
6,22060,62338
6,22472,65219
6,22883,62904
6,23297,63774
6,23708,61045
6,24120,60890
6,24532,58840
6,24945,61673
6,25357,58114
6,25768,57450
6,26182,58090
6,26593,57295
6,27005,57474
6,27418,57673
6,27830,55056
6,28242,55395
6,28655,56784
6,29067,54395
6,29478,54527
6,29892,56181
6,30303,54896
6,30715,55846
6,31128,55592
6,31540,56327
6,31952,53454
6,32365,53509
6,32777,56326
6,33188,53763
6,33600,51649
6,34013,52788
6,34425,54535
6,34837,54229
6,35250,53332
6,35662,53089
6,36073,51154
6,36487,52774
6,36898,52980
6,37310,51597
6,37723,50858
6,38135,49956
6,38547,50609
6,38960,49674
6,39372,50348
6,39783,48480
6,40197,48043
6,40608,49800
6,41020,47201
6,41433,49282
6,41845,47459
6,42257,47825
6,42668,46877
6,43082,46769
6,43493,46813
6,43905,46798
6,44318,45919
6,44730,45156
6,45142,44613
6,45555,45487
6,45967,45748
6,46378,44646
6,46792,44857
6,47203,45431
6,47615,45264
6,48028,46328
6,48440,45537
6,48852,45684
6,49265,45279
6,49677,44132
6,50088,46772
6,50502,44272
6,50913,44626
6,51325,43319
6,51737,43136
6,52150,43826
6,52562,42617
6,52973,44274
6,53387,43812
6,53798,43516
6,54210,43889
6,54623,42458
6,55035,42178
6,55447,44768
6,55860,44303
6,56272,42217
6,56683,40959
6,57097,43687
6,57508,41715
6,57920,42205
6,58333,41159
6,58745,40117
6,59157,41080
6,59570,40133
6,59982,41573
6,60393,38752
6,60805,39674
6,61218,41165
6,61630,39894
6,62042,41178
6,62455,39205
6,62867,40443
6,63278,41823
6,63692,39732
6,64103,39336
6,64515,40384
6,64928,38802
6,65340,39259
6,65752,40432
6,66165,37918
6,66577,40014
6,66988,39659
6,67402,37164
6,67813,38155
6,68225,36357
6,68638,39065
6,69050,35649
6,69462,36527
6,69873,37692
6,70287,38660
6,70698,36130
6,71110,37185
6,71523,37448
6,71935,37660
6,72347,37001
6,72760,37363
6,73172,35853
6,73583,37301
6,73997,37272
6,74408,36833
6,74820,35605
6,75233,35022
6,75645,35990
6,76057,34971
6,76470,35300
6,76882,36108
6,77293,35342
6,77707,36766
6,78118,34358
6,78530,35169
6,78942,36743
6,79355,35198
6,79767,34730
6,80178,34683
6,80592,36200
6,81003,35039
6,81415,33340
6,81828,35196
6,82240,35805
6,82652,33826
6,83065,34053
6,83477,33052
6,83888,35122
6,84302,33459
6,84713,34143
6,85125,33790
6,85538,33180
6,85950,35947
6,86362,32547
6,86775,32211
6,87187,31823
6,87598,33488
6,88010,31074
6,88423,32823
6,88835,34296
6,89247,32888
6,89660,33436
6,90072,32990
6,90483,32863
6,90897,32209
6,91308,34073
6,91720,34499
6,92133,33270
6,92545,32915
6,92957,32565
6,93370,33558
6,93782,34530
6,94193,35431
6,94607,33748
6,95018,36669
6,95430,36566
6,95843,37448
6,96255,35659
6,96667,39425
6,97078,38450
6,97492,37833
6,97903,39916
6,98315,39791
6,98728,38058
6,99140,38016
6,99552,39368
6,99965,37248
7,00377,38293
7,00788,40057
7,01202,38657
7,01613,39137
7,02025,40553
7,02438,40074
7,02850,39817
7,03262,41567
7,03675,40541
7,04087,40675
7,04498,41092
7,04912,43554
7,05323,43149
7,05735,43585
7,06147,43069
7,06560,42679
7,06972,44905
7,07383,44358
7,07797,42464
7,08208,43394
7,08620,42474
7,09033,41920
7,09445,41275
7,09857,42251
7,10270,41488
7,10682,40183
7,11093,40122
7,11507,39840
7,11918,38759
7,12330,38052
7,12743,40547
7,13155,37113
7,13567,35105
7,13980,38050
7,14392,36753
7,14803,38239
7,15215,36111
7,15628,37042
7,16040,36156
7,16452,34818
7,16865,35145
7,17277,34962
7,17688,35056
7,18102,35199
7,18513,33185
7,18925,33138
7,19338,32602
7,19750,31919
7,20162,32310
7,20575,32655
7,20987,32168
7,21398,33211
7,21812,32961
7,22223,32786
7,22635,33041
7,23048,31120
7,23460,31826
7,23872,31223
7,24283,30291
7,24697,33891
7,25108,32150
7,25520,31793
7,25933,31922
7,26345,31220
7,26757,31390
7,27170,30435
7,27582,29826
7,27993,30903
7,28407,29517
7,28818,30454
7,29230,29201
7,29643,30751
7,30055,29774
7,30467,31038
7,30880,30512
7,31292,30273
7,31703,28936
7,32117,29522
7,32528,28413
7,32940,30555
7,33352,29767
7,33765,29400
7,34177,29316
7,34588,29579
7,35002,30556
7,35413,27665
7,35825,30511
7,36238,28054
7,36650,29621
7,37062,29250
7,37475,27468
7,37887,28263
7,38298,28061
7,38712,27757
7,39123,29001
7,39535,28301
7,39948,28792
7,40360,28130
7,40772,29893
7,41185,27818
7,41597,27413
7,42008,28240
7,42420,27506
7,42833,27928
7,43245,27563
7,43657,28032
7,44070,26622
7,44482,26934
7,44893,27480
7,45307,28169
7,45718,25972
7,46130,28540
7,46543,26195
7,46955,26898
7,47367,27371
7,47780,26580
7,48192,26501
7,48603,27097
7,49017,26279
7,49428,26624
7,49840,25477
7,50253,27138
7,50665,27105
7,51077,30128
7,51488,35157
7,51902,40152
7,52313,54568
7,52725,77211
7,53138,117006
7,53550,165184
7,53962,239211
7,54375,331845
7,54787,441135
7,55198,560834
7,55612,684446
7,56023,788344
7,56435,891136
7,56848,953565
7,57260,1008212
7,57672,1026869
7,58085,1025966
7,58497,1023606
7,58908,992141
7,59322,949378
7,59733,900611
7,60145,851496
7,60557,803487
7,60970,739243
7,61382,692206
7,61793,651484
7,62207,605811
7,62618,558792
7,63030,513894
7,63443,475345
7,63855,438901
7,64267,401304
7,64680,366908
7,65092,332940
7,65503,306011
7,65917,273570
7,66328,249232
7,66740,223416
7,67153,204742
7,67565,186210
7,67977,168426
7,68390,152262
7,68802,141011
7,69213,125223
7,69625,114721
7,70038,104047
7,70450,98553
7,70862,90082
7,71275,82608
7,71687,76598
7,72098,73796
7,72512,68967
7,72923,62119
7,73335,60566
7,73748,56531
7,74160,54867
7,74572,53145
7,74985,51704
7,75397,47412
7,75808,46535
7,76222,45407
7,76633,44139
7,77045,42667
7,77458,38989
7,77870,38883
7,78282,39207
7,78695,38060
7,79107,38091
7,79518,37823
7,79930,36486
7,80343,35670
7,80755,35238
7,81167,33623
7,81580,32786
7,81992,33204
7,82403,31515
7,82817,31765
7,83228,30585
7,83640,30024
7,84053,30845
7,84465,30028
7,84877,30499
7,85290,29689
7,85702,28145
7,86113,29994
7,86527,27306
7,86938,28030
7,87350,28368
7,87763,27265
7,88175,27505
7,88587,26284
7,88998,27969
7,89412,26622
7,89823,25161
7,90235,25837
7,90648,26104
7,91060,25973
7,91472,24994
7,91885,26332
7,92297,26259
7,92708,23486
7,93122,26358
7,93533,24189
7,93945,23310
7,94358,24950
7,94770,23797
7,95182,23512
7,95595,24122
7,96007,23765
7,96418,24190
7,96832,23750
7,97243,23798
7,97655,24773
7,98067,22504
7,98480,24568
7,98892,23075
7,99303,23376
7,99717,22527
8,00128,23974
8,00540,21583
8,00953,23266
8,01365,22792
8,01777,22739
8,02190,23422
8,02602,23264
8,03013,22936
8,03427,22031
8,03838,22348
8,04250,23253
8,04663,22455
8,05075,23698
8,05487,21377
8,05900,21180
8,06312,20804
8,06723,21782
8,07135,21367
8,07548,21146
8,07960,23060
8,08372,22206
8,08785,21371
8,09197,21604
8,09608,20550
8,10022,20566
8,10433,21403
8,10845,22427
8,11258,20993
8,11670,21594
8,12082,19906
8,12495,21400
8,12907,21651
8,13318,19802
8,13732,20599
8,14143,20573
8,14555,20477
8,14968,21555
8,15380,21847
8,15792,20014
8,16203,21148
8,16617,21467
8,17028,21284
8,17440,21343
8,17853,19952
8,18265,19954
8,18677,19804
8,19090,20584
8,19502,21172
8,19913,20085
8,20327,21132
8,20738,19762
8,21150,20605
8,21563,19363
8,21975,20242
8,22387,19501
8,22800,19431
8,23212,19751
8,23623,20601
8,24037,19950
8,24448,19901
8,24860,20086
8,25272,19545
8,25685,19143
8,26097,19916
8,26508,18474
8,26922,19465
8,27333,18655
8,27745,19562
8,28158,20166
8,28570,18997
8,28982,18056
8,29395,19153
8,29807,20037
8,30218,19459
8,30632,19041
8,31043,19911
8,31455,19825
8,31868,20543
8,32280,19967
8,32692,19970
8,33105,21010
8,33517,18694
8,33928,19460
8,34340,18896
8,34753,20745
8,35165,20764
8,35577,19687
8,35990,20222
8,36402,19778
8,36813,19836
8,37227,17950
8,37638,18771
8,38050,18679
8,38463,18137
8,38875,17753
8,39287,19524
8,39700,18307
8,40112,18583
8,40523,18616
8,40937,17686
8,41348,18323
8,41760,19286
8,42173,18593
8,42585,17681
8,42997,17815
8,43408,17745
8,43822,18507
8,44233,18807
8,44645,18717
8,45058,18229
8,45470,18928
8,45882,18826
8,46295,18545
8,46707,19898
8,47118,17784
8,47532,18618
8,47943,18192
8,48355,18827
8,48768,19640
8,49180,18801
8,49592,20105
8,50005,17689
8,50417,18873
8,50828,17316
8,51242,18735
8,51653,18398
8,52065,16846
8,52477,17191
8,52890,16513
8,53302,15769
8,53713,16978
8,54127,18166
8,54538,18237
8,54950,16369
8,55363,17040
8,55775,17499
8,56187,17898
8,56600,17363
8,57012,15241
8,57423,16727
8,57837,15467
8,58248,16423
8,58660,16664
8,59073,15214
8,59485,18336
8,59897,16609
8,60310,17192
8,60722,15725
8,61133,16918
8,61545,17076
8,61958,16622
8,62370,15334
8,62782,16975
8,63195,17151
8,63607,16684
8,64018,16530
8,64432,16639
8,64843,17683
8,65255,17711
8,65668,16763
8,66080,17606
8,66492,17836
8,66905,17353
8,67317,16983
8,67728,16827
8,68142,19844
8,68553,17384
8,68965,16971
8,69378,17432
8,69790,17764
8,70202,17376
8,70613,16692
8,71027,17562
8,71438,16727
8,71850,17725
8,72263,17496
8,72675,18099
8,73087,16839
8,73500,17200
8,73912,15904
8,74323,14629
8,74737,15110
8,75148,16764
8,75560,16353
8,75973,15889
8,76385,14487
8,76797,16495
8,77210,16301
8,77622,16045
8,78033,15691
8,78447,16571
8,78858,16056
8,79270,16438
8,79682,15955
8,80095,17331
8,80507,18409
8,80918,17089
8,81332,17912
8,81743,18758
8,82155,18896
8,82568,18734
8,82980,19956
8,83392,18045
8,83805,18560
8,84217,19033
8,84628,17278
8,85042,17441
8,85453,18313
8,85865,17899
8,86278,17500
8,86690,14968
8,87102,17531
8,87515,16399
8,87927,17250
8,88338,16517
8,88750,15847
8,89163,16647
8,89575,15822
8,89987,16477
8,90400,18343
8,90812,17664
8,91223,16904
8,91637,15255
8,92048,16074
8,92460,17463
8,92873,16122
8,93285,16024
8,93697,16584
8,94110,16982
8,94522,16636
8,94933,16886
8,95347,17050
8,95758,16267
8,96170,16244
8,96583,15804
8,96995,15604
8,97407,16815
8,97818,16131
8,98232,14998
8,98643,15060
8,99055,14288
8,99468,14828
8,99880,14867
9,00292,14701
9,00705,13887
9,01117,14274
9,01528,14433
9,01942,16172
9,02353,14615
9,02765,14791
9,03178,15371
9,03590,14027
9,04002,15785
9,04415,15190
9,04827,15034
9,05238,15187
9,05652,14084
9,06063,15189
9,06475,14162
9,06887,15385
9,07300,13717
9,07712,12989
9,08123,13986
9,08537,13296
9,08948,13795
9,09360,13794
9,09773,13527
9,10185,14705
9,10597,13964
9,11010,14306
9,11422,14320
9,11833,15115
9,12247,13621
9,12658,14313
9,13070,14473
9,13483,14536
9,13895,14873
9,14307,15086
9,14720,15279
9,15132,13614
9,15543,13216
9,15955,14340
9,16368,13500
9,16780,14523
9,17192,13677
9,17605,14610
9,18017,13882
9,18428,13264
9,18842,13232
9,19253,13153
9,19665,13339
9,20078,13389
9,20490,13293
9,20902,14852
9,21315,13089
9,21727,13397
9,22138,12592
9,22552,12269
9,22963,12547
9,23375,14002
9,23788,12053
9,24200,13563
9,24612,13409
9,25025,14166
9,25437,13347
9,25848,13479
9,26260,13779
9,26673,12526
9,27085,12470
9,27497,13444
9,27910,13489
9,28322,12404
9,28733,12436
9,29147,13110
9,29558,13228
9,29970,13270
9,30383,12199
9,30795,13847
9,31207,12705
9,31620,13697
9,32032,13453
9,32443,12427
9,32857,12822
9,33268,12437
9,33680,12815
9,34093,13394
9,34505,13512
9,34917,13169
9,35328,12546
9,35742,13797
9,36153,11890
9,36565,13226
9,36978,12111
9,37390,13229
9,37802,13310
9,38215,12857
9,38627,13138
9,39038,12750
9,39452,12942
9,39863,12683
9,40275,11976
9,40688,12672
9,41100,14580
9,41512,12409
9,41925,13555
9,42337,13284
9,42748,13741
9,43162,13059
9,43573,15192
9,43985,14390
9,44397,12931
9,44810,14050
9,45222,12976
9,45633,14020
9,46047,13398
9,46458,14077
9,46870,13822
9,47283,14389
9,47695,13799
9,48107,13782
9,48520,13280
9,48932,12416
9,49343,12203
9,49757,13366
9,50168,12457
9,50580,12889
9,50993,13705
9,51405,12964
9,51817,12449
9,52230,12674
9,52642,13026
9,53053,11542
9,53465,11454
9,53878,11682
9,54290,12568
9,54702,12694
9,55115,11104
9,55527,12515
9,55938,12831
9,56352,12793
9,56763,12183
9,57175,12596
9,57588,12729
9,58000,12908
9,58412,12050
9,58825,12193
9,59237,13403
9,59648,12547
9,60062,11903
9,60473,12657
9,60885,12143
9,61298,12518
9,61710,11575
9,62122,12715
9,62533,11481
9,62947,12081
9,63358,11435
9,63770,11281
9,64183,11750
9,64595,10940
9,65007,12006
9,65420,13149
9,65832,12207
9,66243,12835
9,66657,12762
9,67068,13622
9,67480,11826
9,67893,13075
9,68305,12881
9,68717,11316
9,69130,12490
9,69542,13317
9,69953,12535
9,70367,11999
9,70778,12827
9,71190,12047
9,71602,13900
9,72015,13201
9,72427,10942
9,72838,12762
9,73252,13757
9,73663,12294
9,74075,12423
9,74488,11787
9,74900,12209
9,75312,11611
9,75725,12366
9,76137,11509
9,76548,12615
9,76962,12106
9,77373,11433
9,77785,11360
9,78198,12315
9,78610,12217
9,79022,12308
9,79435,12684
9,79847,12428
9,80258,11689
9,80670,12246
9,81083,12628
9,81495,12883
9,81907,12657
9,82320,12505
9,82732,13341
9,83143,15552
9,83557,21015
9,83968,28959
9,84380,44579
9,84793,68561
9,85205,109772
9,85617,166461
9,86030,252826
9,86442,358986
9,86853,502326
9,87267,670705
9,87678,847632
9,88090,1026678
9,88503,1202291
9,88915,1351075
9,89327,1455403
9,89738,1538471
9,90152,1556999
9,90563,1542789
9,90975,1489419
9,91388,1420054
9,91800,1333170
9,92212,1221558
9,92625,1103922
9,93037,984607
9,93448,878453
9,93862,766027
9,94273,673771
9,94685,584578
9,95098,505874
9,95510,440822
9,95922,380291
9,96335,332359
9,96747,294081
9,97158,252385
9,97572,226994
9,97983,196208
9,98395,178513
9,98807,156962
9,99220,141536
9,99632,127608
10,00043,113765
10,00457,106406
10,00868,97558
10,01280,89970
10,01693,82352
10,02105,77335
10,02517,72494
10,02930,66001
10,03342,63422
10,03753,59674
10,04167,56619
10,04578,54198
10,04990,50831
10,05403,49420
10,05815,45341
10,06227,44586
10,06640,41128
10,07052,40219
10,07463,39818
10,07875,38720
10,08288,36716
10,08700,35858
10,09112,34092
10,09525,32827
10,09937,31215
10,10348,28379
10,10762,29060
10,11173,27762
10,11585,29025
10,11998,28215
10,12410,25240
10,12822,24177
10,13235,25201
10,13647,24996
10,14058,23341
10,14472,24532
10,14883,22662
10,15295,23052
10,15708,22044
10,16120,23054
10,16532,21390
10,16943,21347
10,17357,20232
10,17768,19570
10,18180,20828
10,18593,21457
10,19005,18677
10,19417,19306
10,19830,17652
10,20242,18911
10,20653,18034
10,21067,18098
10,21478,18236
10,21890,18552
10,22303,19221
10,22715,18123
10,23127,18489
10,23540,18872
10,23952,17716
10,24363,17996
10,24777,19098
10,25188,18043
10,25600,15677
10,26012,17657
10,26425,18120
10,26837,17120
10,27248,16490
10,27662,14689
10,28073,16231
10,28485,15479
10,28898,14994
10,29310,15266
10,29722,14267
10,30135,13687
10,30547,14929
10,30958,14667
10,31372,13931
10,31783,14599
10,32195,14047
10,32608,13555
10,33020,13802
10,33432,14428
10,33845,12981
10,34257,14483
10,34668,12617
10,35080,14094
10,35493,13581
10,35905,13156
10,36317,13261
10,36730,12832
10,37142,13798
10,37553,13318
10,37967,13990
10,38378,12819
10,38790,13415
10,39203,12751
10,39615,12860
10,40027,11898
10,40440,12861
10,40852,13159
10,41263,13225
10,41677,14380
10,42088,12949
10,42500,13174
10,42913,13330
10,43325,12697
10,43737,12556
10,44148,13266
10,44562,13263
10,44973,12850
10,45385,12228
10,45798,13637
10,46210,13510
10,46622,11896
10,47035,12096
10,47447,12977
10,47858,11458
10,48272,12383
10,48683,12212
10,49095,13056
10,49508,12169
10,49920,11601
10,50332,13216
10,50745,11717
10,51157,12392
10,51568,12834
10,51982,11870
10,52393,13104
10,52805,12429
10,53217,12934
10,53630,12252
10,54042,12160
10,54453,12390
10,54867,11649
10,55278,11448
10,55690,12858
10,56103,12266
10,56515,10692
10,56927,11360
10,57340,12329
10,57752,11569
10,58163,11478
10,58577,11561
10,58988,11898
10,59400,10815
10,59813,10558
10,60225,11692
10,60637,10895
10,61050,12678
10,61462,11425
10,61873,10953
10,62285,11122
10,62698,10626
10,63110,10567
10,63522,11334
10,63935,10888
10,64347,10475
10,64758,10577
10,65172,9821
10,65583,10517
10,65995,9360
10,66408,9653
10,66820,10112
10,67232,10572
10,67645,9378
10,68057,11344
10,68468,10606
10,68882,10824
10,69293,12198
10,69705,12042
10,70118,11768
10,70530,11984
10,70942,11457
10,71353,11559
10,71767,10766
10,72178,9984
10,72590,11787
10,73003,12289
10,73415,10090
10,73827,11199
10,74240,12169
10,74652,11033
10,75063,11070
10,75477,10183
10,75888,10977
10,76300,10379
10,76713,10502
10,77125,8866
10,77537,11164
10,77950,11385
10,78362,9354
10,78773,10990
10,79187,10353
10,79598,10801
10,80010,10246
10,80422,11413
10,80835,9821
10,81247,11206
10,81658,9631
10,82072,10760
10,82483,9919
10,82895,10570
10,83308,11522
10,83720,11208
10,84132,10234
10,84545,9758
10,84957,10380
10,85368,10020
10,85782,11042
10,86193,10721
10,86605,10280
10,87018,9722
10,87430,10396
10,87842,10703
10,88255,11075
10,88667,11726
10,89078,9936
10,89492,10863
10,89903,9556
10,90315,10134
10,90727,11330
10,91140,9728
10,91552,9704
10,91963,10649
10,92377,10417
10,92788,9629
10,93200,10635
10,93613,9883
10,94025,10411
10,94437,10793
10,94850,9608
10,95262,11562
10,95673,10921
10,96087,9364
10,96498,9759
10,96910,9511
10,97323,10093
10,97735,10672
10,98147,10075
10,98560,10020
10,98972,9813
10,99383,10120
10,99795,10675
11,00208,10209
11,00620,9416
11,01032,10444
11,01445,8909
11,01857,8968
11,02268,9541
11,02682,9641
11,03093,10263
11,03505,10061
11,03918,9540
11,04330,9636
11,04742,8980
11,05155,9417
11,05567,9227
11,05978,9885
11,06392,9507
11,06803,8386
11,07215,9331
11,07628,8964
11,08040,9531
11,08452,9723
11,08863,9473
11,09277,8807
11,09688,10413
11,10100,9424
11,10513,9685
11,10925,9283
11,11337,9793
11,11750,10032
11,12162,9366
11,12573,11211
11,12987,10956
11,13398,16490
11,13810,23976
11,14223,32700
11,14635,54283
11,15047,84430
11,15460,126033
11,15872,186307
11,16283,267782
11,16697,354653
11,17108,453058
11,17520,561517
11,17932,664673
11,18345,759787
11,18757,830005
11,19168,876364
11,19582,888638
11,19993,889264
11,20405,858448
11,20818,812646
11,21230,740518
11,21642,664104
11,22055,592967
11,22467,512882
11,22878,450038
11,23292,387117
11,23703,336243
11,24115,283307
11,24528,244222
11,24940,215585
11,25352,180314
11,25765,157709
11,26177,138550
11,26588,122262
11,27000,108997
11,27413,93006
11,27825,87928
11,28237,79791
11,28650,73444
11,29062,67422
11,29473,60147
11,29887,56372
11,30298,52740
11,30710,48995
11,31123,45738
11,31535,42936
11,31947,40450
11,32360,37535
11,32772,35381
11,33183,34114
11,33597,32747
11,34008,30027
11,34420,31777
11,34833,29375
11,35245,27666
11,35657,27034
11,36068,25389
11,36482,24354
11,36893,24716
11,37305,24811
11,37718,21546
11,38130,22753
11,38542,22013
11,38955,20757
11,39367,21086
11,39778,20038
11,40192,20245
11,40603,18291
11,41015,19548
11,41428,17880
11,41840,17428
11,42252,17924
11,42665,16074
11,43077,15895
11,43488,17221
11,43902,17105
11,44313,15257
11,44725,14768
11,45137,14361
11,45550,14150
11,45962,14233
11,46373,14232
11,46787,12843
11,47198,14313
11,47610,13619
11,48023,13107
11,48435,12110
11,48847,12081
11,49260,12835
11,49672,12478
11,50083,13601
11,50497,12912
11,50908,11147
11,51320,13430
11,51733,10194
11,52145,12464
11,52557,12122
11,52970,11546
11,53382,11960
11,53793,11242
11,54205,11762
11,54618,11758
11,55030,11032
11,55442,10751
11,55855,10950
11,56267,10766
11,56678,11729
11,57092,10990
11,57503,11784
11,57915,8673
11,58328,11464
11,58740,9431
11,59152,10929
11,59565,10143
11,59977,10884
11,60388,10986
11,60802,10841
11,61213,9475
11,61625,9727
11,62038,10380
11,62450,10403
11,62862,9432
11,63273,9708
11,63687,10687
11,64098,10513
11,64510,10150
11,64923,10751
11,65335,9976
11,65747,9354
11,66160,10996
11,66572,11712
11,66983,10008
11,67397,9551
11,67808,10381
11,68220,10873
11,68633,11347
11,69045,12812
11,69457,12810
11,69870,12081
11,70282,12651
11,70693,13228
11,71107,12732
11,71518,12631
11,71930,12125
11,72342,12472
11,72755,12865
11,73167,11591
11,73578,10601
11,73992,10835
11,74403,10711
11,74815,9894
11,75228,9389
11,75640,9642
11,76052,8908
11,76465,9219
11,76877,9800
11,77288,9209
11,77702,9618
11,78113,10089
11,78525,9015
11,78938,9565
11,79350,9243
11,79762,9508
11,80175,10229
11,80587,8474
11,80998,9575
11,81410,9355
11,81823,8882
11,82235,8419
11,82647,9440
11,83060,9292
11,83472,8503
11,83883,9244
11,84297,9126
11,84708,8707
11,85120,8965
11,85533,7889
11,85945,9323
11,86357,8769
11,86770,10594
11,87182,9182
11,87593,8883
11,88007,9267
11,88418,8021
11,88830,9230
11,89243,9691
11,89655,7929
11,90067,8258
11,90478,9291
11,90892,8853
11,91303,9110
11,91715,8462
11,92128,8654
11,92540,8023
11,92952,7377
11,93365,8402
11,93777,8048
11,94188,9597
11,94602,8393
11,95013,8470
11,95425,9065
11,95838,8025
11,96250,8697
11,96662,8483
11,97075,8372
11,97487,7879
11,97898,8130
11,98312,8302
11,98723,8127
11,99135,8424
11,99547,7916
11,99960,8921
12,00372,8113
12,00783,8156
12,01197,9640
12,01608,7755
12,02020,8195
12,02433,7871
12,02845,7990
12,03257,7897
12,03670,8178
12,04082,7694
12,04493,7471
12,04907,7985
12,05318,7853
12,05730,8223
12,06143,7772
12,06555,7868
12,06967,7361
12,07380,8519
12,07792,6701
12,08203,8044
12,08615,7862
12,09028,7786
12,09440,7133
12,09852,7287
12,10265,7992
12,10677,7692
12,11088,7413
12,11502,7200
12,11913,7478
12,12325,8000
12,12738,9594
12,13150,8376
12,13562,8125
12,13975,7429
12,14387,7870
12,14798,7056
12,15212,7499
12,15623,7493
12,16035,7904
12,16448,8727
12,16860,6887
12,17272,7904
12,17683,8256
12,18097,9275
12,18508,7627
12,18920,9096
12,19333,7817
12,19745,8886
12,20157,8454
12,20570,7741
12,20982,8598
12,21393,9359
12,21807,8774
12,22218,8770
12,22630,8573
12,23043,9206
12,23455,8728
12,23867,9493
12,24280,9454
12,24692,10217
12,25103,10569
12,25517,9409
12,25928,8559
12,26340,10181
12,26752,10650
12,27165,9008
12,27577,10340
12,27988,8874
12,28402,9087
12,28813,8728
12,29225,9594
12,29638,8764
12,30050,7196
12,30462,9512
12,30875,8523
12,31287,8705
12,31698,8912
12,32112,8474
12,32523,8871
12,32935,6683
12,33348,7483
12,33760,6893
12,34172,7848
12,34585,7413
12,34997,6673
12,35408,7208
12,35820,7124
12,36233,9097
12,36645,8297
12,37057,6923
12,37470,7198
12,37882,8178
12,38293,6833
12,38707,7871
12,39118,8456
12,39530,7720
12,39943,6573
12,40355,7577
12,40767,7416
12,41180,8093
12,41592,6491
12,42003,7233
12,42417,6946
12,42828,7036
12,43240,7392
12,43653,8191
12,44065,9680
12,44477,10379
12,44888,14187
12,45302,22760
12,45713,38847
12,46125,62238
12,46538,104451
12,46950,171942
12,47362,270707
12,47775,411756
12,48187,587712
12,48598,809294
12,49012,1047199
12,49423,1308632
12,49835,1542186
12,50248,1777324
12,50660,1916884
12,51072,2022824
12,51485,2038853
12,51897,1982173
12,52308,1881013
12,52722,1735417
12,53133,1566002
12,53545,1362993
12,53957,1199609
12,54370,1022090
12,54782,857647
12,55193,729807
12,55607,618351
12,56018,519431
12,56430,448948
12,56843,388266
12,57255,327848
12,57667,289069
12,58080,251236
12,58492,221514
12,58903,192494
12,59317,175782
12,59728,158217
12,60140,142209
12,60553,129162
12,60965,119801
12,61377,105722
12,61790,98220
12,62202,91778
12,62613,86037
12,63027,79570
12,63438,74348
12,63850,70562
12,64262,66108
12,64675,59826
12,65087,56055
12,65498,55597
12,65912,50782
12,66323,48503
12,66735,46190
12,67148,43990
12,67560,41206
12,67972,39117
12,68385,37674
12,68797,36340
12,69208,36252
12,69622,32895
12,70033,33408
12,70445,29719
12,70858,29095
12,71270,29494
12,71682,28368
12,72095,27886
12,72507,27342
12,72918,25939
12,73330,25470
12,73743,24055
12,74155,24938
12,74567,22435
12,74980,22390
12,75392,22001
12,75803,21023
12,76217,20293
12,76628,20081
12,77040,17904
12,77453,20335
12,77865,17698
12,78277,17997
12,78690,17138
12,79102,17649
12,79513,17149
12,79927,15685
12,80338,17090
12,80750,16443
12,81163,15679
12,81575,15075
12,81987,14103
12,82398,13328
12,82812,15127
12,83223,14819
12,83635,13854
12,84048,14423
12,84460,13803
12,84872,14514
12,85285,13781
12,85697,13205
12,86108,13759
12,86522,14414
12,86933,13027
12,87345,13222
12,87758,12367
12,88170,12621
12,88582,12789
12,88995,13030
12,89407,12837
12,89818,11946
12,90232,12650
12,90643,11589
12,91055,12595
12,91467,11419
12,91880,11296
12,92292,12548
12,92703,12066
12,93117,10753
12,93528,9850
12,93940,11687
12,94353,11762
12,94765,11184
12,95177,10906
12,95590,10228
12,96002,10856
12,96413,11114
12,96827,9912
12,97238,10280
12,97650,10695
12,98063,9086
12,98475,9949
12,98887,9854
12,99300,10213
12,99712,9522
13,00123,9592
13,00535,8659
13,00948,9371
13,01360,8277
13,01772,8051
13,02185,9994
13,02597,8894
13,03008,9784
13,03422,10224
13,03833,8566
13,04245,9706
13,04658,9445
13,05070,9709
13,05482,9659
13,05895,10623
13,06307,9884
13,06718,10142
13,07132,12072
13,07543,12619
13,07955,13828
13,08368,14850
13,08780,15871
13,09192,15379
13,09603,17596
13,10017,19090
13,10428,19794
13,10840,20114
13,11253,20918
13,11665,21248
13,12077,20182
13,12490,19300
13,12902,19271
13,13313,18760
13,13727,18557
13,14138,18186
13,14550,15797
13,14963,15813
13,15375,14935
13,15787,13513
13,16200,12150
13,16612,12460
13,17023,12896
13,17437,11303
13,17848,11484
13,18260,10956
13,18672,9921
13,19085,10804
13,19497,10266
13,19908,10224
13,20322,9005
13,20733,10203
13,21145,9025
13,21558,8217
13,21970,9451
13,22382,8429
13,22795,8813
13,23207,7246
13,23618,8491
13,24032,7319
13,24443,8203
13,24855,8305
13,25268,8338
13,25680,8620
13,26092,8517
13,26505,8121
13,26917,7170
13,27328,7659
13,27740,7403
13,28153,7205
13,28565,8324
13,28977,7647
13,29390,6914
13,29802,7800
13,30213,7607
13,30627,6203
13,31038,7306
13,31450,8350
13,31863,6973
13,32275,7106
13,32687,7901
13,33100,6239
13,33512,7139
13,33923,6192
13,34337,7449
13,34748,7173
13,35160,7274
13,35573,6750
13,35985,6462
13,36397,6645
13,36808,7832
13,37222,7087
13,37633,7165
13,38045,7927
13,38458,6794
13,38870,6848
13,39282,6740
13,39695,6883
13,40107,7467
13,40518,7166
13,40932,6790
13,41343,7380
13,41755,6199
13,42168,6882
13,42580,7033
13,42992,7614
13,43405,8031
13,43817,8390
13,44228,7330
13,44642,7584
13,45053,7309
13,45465,7060
13,45877,7227
13,46290,6797
13,46702,7898
13,47113,7181
13,47527,7802
13,47938,6883
13,48350,6326
13,48763,5999
13,49175,7293
13,49587,7513
13,50000,6674
13,50412,7042
13,50823,6622
13,51237,6671
13,51648,7542
13,52060,6118
13,52473,6493
13,52885,6011
13,53297,7380
13,53710,7479
13,54122,7247
13,54533,7934
13,54945,6692
13,55358,7274
13,55770,8286
13,56182,7948
13,56595,6295
13,57007,6892
13,57418,7077
13,57832,8646
13,58243,8570
13,58655,7038
13,59068,7520
13,59480,8690
13,59892,7778
13,60305,7353
13,60717,7967
13,61128,7768
13,61542,6899
13,61953,7093
13,62365,6392
13,62778,6208
13,63190,7042
13,63602,7247
13,64013,8186
13,64427,7050
13,64838,7483
13,65250,6783
13,65663,7234
13,66075,6780
13,66487,7812
13,66900,7090
13,67312,6724
13,67723,7774
13,68137,8809
13,68548,6897
13,68960,6682
13,69373,7626
13,69785,7300
13,70197,6366
13,70610,6810
13,71022,6281
13,71433,6383
13,71847,7001
13,72258,6601
13,72670,6691
13,73082,7737
13,73495,5829
13,73907,7058
13,74318,6306
13,74732,6920
13,75143,6782
13,75555,8651
13,75968,11534
13,76380,16988
13,76792,27427
13,77205,43133
13,77617,73248
13,78028,118583
13,78442,185343
13,78853,268113
13,79265,381036
13,79678,520692
13,80090,671842
13,80502,811024
13,80915,932780
13,81327,1024068
13,81738,1078832
13,82150,1101401
13,82563,1072304
13,82975,1015735
13,83387,932027
13,83800,833445
13,84212,732693
13,84623,629657
13,85037,544121
13,85448,457319
13,85860,383326
13,86273,325940
13,86685,275849
13,87097,236079
13,87510,203910
13,87922,175600
13,88333,151557
13,88747,132426
13,89158,115544
13,89570,107171
13,89983,92786
13,90395,84835
13,90807,77708
13,91218,71034
13,91632,63304
13,92043,60154
13,92455,54658
13,92868,50031
13,93280,48153
13,93692,43661
13,94105,38008
13,94517,37753
13,94928,36719
13,95342,33881
13,95753,31895
13,96165,30119
13,96578,29676
13,96990,27081
13,97402,25676
13,97815,25149
13,98227,22471
13,98638,23048
13,99052,22465
13,99463,21930
13,99875,20061
14,00287,20267
14,00700,18751
14,01112,18247
14,01523,17784
14,01937,17286
14,02348,16810
14,02760,14962
14,03173,16281
14,03585,14920
14,03997,14476
14,04410,14224
14,04822,14712
14,05233,13517
14,05647,14286
14,06058,14232
14,06470,13418
14,06883,12721
14,07295,13750
14,07707,11849
14,08120,12150
14,08532,13558
14,08943,12427
14,09355,11347
14,09768,11971
14,10180,10619
14,10592,11829
14,11005,10624
14,11417,10773
14,11828,10707
14,12242,9995
14,12653,9956
14,13065,9858
14,13478,9627
14,13890,8910
14,14302,10512
14,14715,8868
14,15127,9569
14,15538,9357
14,15952,9401
14,16363,8548
14,16775,9143
14,17188,7966
14,17600,8538
14,18012,8727
14,18423,7783
14,18837,8241
14,19248,8467
14,19660,7870
14,20073,8017
14,20485,8697
14,20897,8144
14,21310,8556
14,21722,8151
14,22133,8437
14,22547,7647
14,22958,8033
14,23370,8133
14,23783,9015
14,24195,8412
14,24607,7889
14,25020,6436
14,25432,7501
14,25843,7816
14,26257,6297
14,26668,6996
14,27080,6803
14,27493,7599
14,27905,8429
14,28317,6770
14,28728,7200
14,29142,7962
14,29553,6919
14,29965,7222
14,30378,6631
14,30790,7242
14,31202,6762
14,31615,7369
14,32027,7388
14,32438,6136
14,32852,6937
14,33263,6604
14,33675,6470
14,34088,6728
14,34500,5735
14,34912,6248
14,35325,6931
14,35737,5802
14,36148,7024
14,36562,7113
14,36973,6629
14,37385,7602
14,37797,6237
14,38210,6674
14,38622,6091
14,39033,5725
14,39447,6444
14,39858,6938
14,40270,5597
14,40683,6064
14,41095,6857
14,41507,7028
14,41920,7031
14,42332,7030
14,42743,6721
14,43157,7068
14,43568,7962
14,43980,8028
14,44393,9027
14,44805,9367
14,45217,10850
14,45630,11293
14,46042,11009
14,46453,12764
14,46865,13589
14,47278,13800
14,47690,13167
14,48102,13274
14,48515,15136
14,48927,13179
14,49338,12933
14,49752,13702
14,50163,12911
14,50575,11224
14,50988,12751
14,51400,11463
14,51812,11028
14,52225,10286
14,52637,10427
14,53048,9446
14,53462,8902
14,53873,7878
14,54285,8776
14,54698,8999
14,55110,8646
14,55522,8067
14,55933,8911
14,56347,7289
14,56758,6597
14,57170,7749
14,57583,7266
14,57995,6743
14,58407,6510
14,58820,7220
14,59232,6766
14,59643,6965
14,60057,7369
14,60468,7661
14,60880,5719
14,61293,5875
14,61705,7026
14,62117,6635
14,62530,6658
14,62942,7715
14,63353,6230
14,63767,6986
14,64178,6570
14,64590,5493
14,65002,6719
14,65415,5567
14,65827,6012
14,66238,6634
14,66652,5857
14,67063,6297
14,67475,5690
14,67888,5824
14,68300,5774
14,68712,6212
14,69125,6814
14,69537,6180
14,69948,5194
14,70362,6433
14,70773,6821
14,71185,6380
14,71598,5305
14,72010,5582
14,72422,5722
14,72835,5641
14,73247,5336
14,73658,5567
14,74070,5780
14,74483,6196
14,74895,5658
14,75307,6390
14,75720,6084
14,76132,6889
14,76543,6466
14,76957,6209
14,77368,5907
14,77780,6795
14,78193,6818
14,78605,6722
14,79017,7262
14,79430,6141
14,79842,6289
14,80253,6385
14,80667,6733
14,81078,6158
14,81490,7092
14,81903,5087
14,82315,6028
14,82727,6757
14,83138,6481
14,83552,6470
14,83963,6771
14,84375,5993
14,84788,5612
14,85200,5279
14,85612,6277
14,86025,7027
14,86437,5844
14,86848,6470
14,87262,7179
14,87673,5688
14,88085,6378
14,88498,6098
14,88910,5956
14,89322,5837
14,89735,5758
14,90147,5758
14,90558,6804
14,90972,6112
14,91383,7797
14,91795,6843
14,92207,7884
14,92620,8388
14,93032,10468
14,93443,10125
14,93857,11123
14,94268,12486
14,94680,12676
14,95093,14638
14,95505,14717
14,95917,13862
14,96330,13434
14,96742,11814
14,97153,11670
14,97567,11415
14,97978,11576
14,98390,9902
14,98803,10104
14,99215,9184
14,99627,9615
15,00040,8190
15,00452,8420
15,00863,7135
15,01275,7536
15,01688,7653
15,02100,6822
15,02512,7522
15,02925,8623
15,03337,10148
15,03748,14482
15,04162,23432
15,04573,39203
15,04985,69439
15,05398,118884
15,05810,195364
15,06222,320869
15,06635,489417
15,07047,710601
15,07458,976774
15,07872,1266585
15,08283,1588124
15,08695,1858631
15,09108,2125228
15,09520,2294851
15,09932,2404959
15,10343,2397023
15,10757,2289430
15,11168,2129481
15,11580,1929342
15,11993,1667275
15,12405,1452664
15,12817,1225021
15,13230,1032180
15,13642,858831
15,14053,717290
15,14467,606998
15,14878,516180
15,15290,441640
15,15703,380691
15,16115,329310
15,16527,287034
15,16940,250151
15,17352,223191
15,17763,201942
15,18177,179375
15,18588,161308
15,19000,140153
15,19412,134864
15,19825,123103
15,20237,112835
15,20648,101537
15,21062,92419
15,21473,88352
15,21885,82054
15,22298,74358
15,22710,70049
15,23122,66265
15,23535,61169
15,23947,60027
15,24358,54794
15,24772,50707
15,25183,51310
15,25595,46110
15,26008,45165
15,26420,42369
15,26832,39394
15,27245,41724
15,27657,36973
15,28068,35523
15,28480,33959
15,28893,32941
15,29305,30586
15,29717,29919
15,30130,29013
15,30542,27762
15,30953,26801
15,31367,27086
15,31778,23386
15,32190,23058
15,32603,22580
15,33015,22966
15,33427,20913
15,33840,20467
15,34252,20729
15,34663,18169
15,35077,19342
15,35488,18814
15,35900,18016
15,36313,17182
15,36725,17086
15,37137,17028
15,37548,17505
15,37962,15332
15,38373,15757
15,38785,16403
15,39198,16963
15,39610,16215
15,40022,14617
15,40435,14488
15,40847,14082
15,41258,13605
15,41672,14218
15,42083,12255
15,42495,13195
15,42908,13747
15,43320,14404
15,43732,12958
15,44145,12825
15,44557,11266
15,44968,11606
15,45382,12869
15,45793,11329
15,46205,11020
15,46617,11523
15,47030,11567
15,47442,10686
15,47853,11018
15,48267,10593
15,48678,9754
15,49090,9170
15,49503,9836
15,49915,11105
15,50327,9980
15,50740,8774
15,51152,9505
15,51563,9002
15,51977,9836
15,52388,9022
15,52800,7930
15,53213,9162
15,53625,8805
15,54037,8230
15,54450,7692
15,54862,9383
15,55273,8596
15,55685,8377
15,56098,9260
15,56510,8071
15,56922,7946
15,57335,7849
15,57747,7867
15,58158,7651
15,58572,8367
15,58983,6775
15,59395,7174
15,59808,7288
15,60220,7485
15,60632,7904
15,61045,7792
15,61457,6751
15,61868,6118
15,62282,7258
15,62693,6621
15,63105,7884
15,63518,6500
15,63930,7680
15,64342,6950
15,64753,7242
15,65167,6251
15,65578,7213
15,65990,7494
15,66403,7208
15,66815,5688
15,67227,7809
15,67640,6888
15,68052,6981
15,68463,8155
15,68877,7948
15,69288,7564
15,69700,7781
15,70113,7522
15,70525,8974
15,70937,9159
15,71350,9071
15,71762,9710
15,72173,10809
15,72587,9954
15,72998,11247
15,73410,9597
15,73822,9923
15,74235,9353
15,74647,8325
15,75058,7693
15,75472,7441
15,75883,7998
15,76295,8929
15,76708,7106
15,77120,7973
15,77532,7677
15,77945,7642
15,78357,7368
15,78768,6492
15,79182,7643
15,79593,5586
15,80005,6847
15,80418,5583
15,80830,5705
15,81242,6345
15,81655,6433
15,82067,6081
15,82478,5841
15,82892,6088
15,83303,6354
15,83715,5910
15,84127,5938
15,84540,7191
15,84952,6447
15,85363,5673
15,85777,5392
15,86188,5268
15,86600,6286
15,87013,6446
15,87425,6109
15,87837,5730
15,88250,5340
15,88662,6369
15,89073,6026
15,89487,7487
15,89898,8887
15,90310,11384
15,90723,19064
15,91135,29434
15,91547,45978
15,91960,79010
15,92372,129330
15,92783,200190
15,93195,289168
15,93608,401975
15,94020,539307
15,94432,692739
15,94845,821890
15,95257,942204
15,95668,1031716
15,96082,1080610
15,96493,1096665
15,96905,1069101
15,97318,996285
15,97730,912480
15,98142,820255
15,98555,709688
15,98967,609127
15,99378,514388
15,99792,435224
16,00203,367874
16,00615,313883
16,01028,268688
16,01440,226164
16,01852,199679
16,02263,168387
16,02677,149247
16,03088,132265
16,03500,118121
16,03913,108770
16,04325,97766
16,04737,87875
16,05150,78762
16,05562,71550
16,05973,66072
16,06387,62644
16,06798,57310
16,07210,52166
16,07623,47891
16,08035,44056
16,08447,43236
16,08860,39020
16,09272,38059
16,09683,34946
16,10097,34567
16,10508,31738
16,10920,28574
16,11332,26485
16,11745,27104
16,12157,27974
16,12568,26089
16,12982,24590
16,13393,26181
16,13805,25380
16,14218,25631
16,14630,25981
16,15042,27680
16,15455,25650
16,15867,27136
16,16278,25627
16,16692,27940
16,17103,25868
16,17515,25576
16,17928,23695
16,18340,20477
16,18752,21242
16,19165,20163
16,19577,17667
16,19988,16856
16,20400,15589
16,20813,15669
16,21225,15428
16,21637,15439
16,22050,14573
16,22462,13204
16,22873,11991
16,23287,12121
16,23698,12036
16,24110,11968
16,24523,12485
16,24935,9668
16,25347,10284
16,25760,9955
16,26172,10899
16,26583,10703
16,26997,11416
16,27408,11700
16,27820,17188
16,28233,26252
16,28645,39281
16,29057,64574
16,29468,102840
16,29882,164730
16,30293,257004
16,30705,368621
16,31118,517868
16,31530,684661
16,31942,864592
16,32355,1016555
16,32767,1149144
16,33178,1238128
16,33592,1274006
16,34003,1261544
16,34415,1194373
16,34828,1099266
16,35240,990280
16,35652,857730
16,36065,749973
16,36477,629068
16,36888,525320
16,37302,444327
16,37713,377506
16,38125,314971
16,38537,268984
16,38950,228372
16,39362,194528
16,39773,168371
16,40187,148338
16,40598,132486
16,41010,115664
16,41423,103714
16,41835,92612
16,42247,86146
16,42660,77268
16,43072,72142
16,43483,63848
16,43897,61308
16,44308,54114
16,44720,51588
16,45133,47221
16,45545,45165
16,45957,42195
16,46370,39619
16,46782,37535
16,47193,34596
16,47605,32502
16,48018,30809
16,48430,31426
16,48842,27337
16,49255,26797
16,49667,25619
16,50078,24326
16,50492,23548
16,50903,24000
16,51315,21227
16,51728,19718
16,52140,19593
16,52552,17873
16,52965,19267
16,53377,18489
16,53788,17331
16,54202,17941
16,54613,16944
16,55025,16232
16,55438,16377
16,55850,14757
16,56262,14509
16,56673,14047
16,57087,12964
16,57498,12931
16,57910,13690
16,58323,12761
16,58735,12485
16,59147,13606
16,59560,12011
16,59972,11595
16,60383,12086
16,60797,10532
16,61208,12322
16,61620,11429
16,62033,12290
16,62445,11533
16,62857,11983
16,63270,11006
16,63682,11275
16,64093,9636
16,64507,9946
16,64918,11229
16,65330,11130
16,65742,11061
16,66155,9365
16,66567,9548
16,66978,10290
16,67392,11233
16,67803,10486
16,68215,9829
16,68628,10137
16,69040,9871
16,69452,9230
16,69865,10829
16,70277,9920
16,70688,9100
16,71102,9423
16,71513,8861
16,71925,8985
16,72338,9210
16,72750,9114
16,73162,8443
16,73575,8836
16,73987,8536
16,74398,7189
16,74810,8506
16,75223,7852
16,75635,7830
16,76047,8178
16,76460,8193
16,76872,7494
16,77283,8453
16,77697,7891
16,78108,8445
16,78520,9067
16,78933,8701
16,79345,7361
16,79757,7458
16,80170,7389
16,80582,8162
16,80993,8831
16,81407,6370
16,81818,6948
16,82230,5757
16,82643,6787
16,83055,6920
16,83467,7020
16,83878,6278
16,84292,7310
16,84703,6799
16,85115,6242
16,85528,6794
16,85940,7113
16,86352,6956
16,86765,7009
16,87177,6854
16,87588,7305
16,88002,6520
16,88413,6913
16,88825,6553
16,89238,6655
16,89650,7106
16,90062,7046
16,90475,5754
16,90887,7017
16,91298,7081
16,91712,6590
16,92123,6997
16,92535,7327
16,92947,6727
16,93360,6066
16,93772,7166
16,94183,6418
16,94597,6840
16,95008,7220
16,95420,5740
16,95833,6961
16,96245,6092
16,96657,6087
16,97070,6244
16,97482,5923
16,97893,6670
16,98307,6967
16,98718,6635
16,99130,5744
16,99543,6269
16,99955,6334
17,00367,5374
17,00780,6327
17,01192,5767
17,01603,5727
17,02015,5699
17,02428,5322
17,02840,6242
17,03252,6453
17,03665,5788
17,04077,5904
17,04488,5999
17,04902,6324
17,05313,6044
17,05725,5555
17,06138,5948
17,06550,6711
17,06962,5740
17,07375,6662
17,07787,5893
17,08198,6030
17,08612,5444
17,09023,6559
17,09435,6512
17,09848,6715
17,10260,6963
17,10672,7457
17,11083,7747
17,11497,9486
17,11908,8086
17,12320,12274
17,12733,17674
17,13145,29519
17,13557,43283
17,13970,75270
17,14382,120739
17,14793,186289
17,15207,280623
17,15618,401016
17,16030,539911
17,16443,695430
17,16855,851566
17,17267,988758
17,17680,1089505
17,18092,1151837
17,18503,1174107
17,18917,1149621
17,19328,1084237
17,19740,974953
17,20152,877351
17,20565,770459
17,20977,655769
17,21388,560688
17,21802,473121
17,22213,399603
17,22625,339118
17,23038,287802
17,23450,244976
17,23862,215112
17,24275,185525
17,24687,157600
17,25098,141067
17,25512,124682
17,25923,109520
17,26335,101251
17,26748,90347
17,27160,79164
17,27572,71707
17,27985,67575
17,28397,63258
17,28808,56223
17,29220,54341
17,29633,49812
17,30045,44733
17,30457,42391
17,30870,40514
17,31282,37608
17,31693,35486
17,32107,33611
17,32518,32579
17,32930,29641
17,33343,30046
17,33755,26807
17,34167,24403
17,34580,25490
17,34992,23710
17,35403,23125
17,35817,19724
17,36228,19850
17,36640,19289
17,37053,19298
17,37465,17954
17,37877,17153
17,38288,16720
17,38702,16244
17,39113,16376
17,39525,15434
17,39938,15050
17,40350,13741
17,40762,13293
17,41175,13604
17,41587,13262
17,41998,12303
17,42412,13042
17,42823,12550
17,43235,12233
17,43648,11173
17,44060,10616
17,44472,9386
17,44885,11182
17,45297,11548
17,45708,10736
17,46122,11883
17,46533,15374
17,46945,22167
17,47358,35284
17,47770,58438
17,48182,105543
17,48593,182959
17,49007,294261
17,49418,472542
17,49830,712214
17,50243,1026248
17,50655,1425437
17,51067,1877080
17,51480,2404045
17,51892,2917648
17,52303,3424050
17,52717,3817409
17,53128,4062659
17,53540,4141741
17,53953,4061378
17,54365,3831472
17,54777,3471900
17,55190,3046194
17,55602,2598311
17,56013,2172018
17,56427,1827644
17,56838,1513044
17,57250,1261809
17,57662,1049475
17,58075,890400
17,58487,752740
17,58898,647016
17,59312,557903
17,59723,487045
17,60135,427490
17,60548,381201
17,60960,335343
17,61372,307955
17,61785,270710
17,62197,241703
17,62608,224972
17,63022,203148
17,63433,188162
17,63845,170079
17,64258,159361
17,64670,148472
17,65082,137709
17,65495,127572
17,65907,118898
17,66318,110476
17,66730,99361
17,67143,98984
17,67555,87342
17,67967,84855
17,68380,82128
17,68792,76767
17,69203,73603
17,69617,69691
17,70028,66094
17,70440,63186
17,70853,58522
17,71265,56933
17,71677,52226
17,72090,49999
17,72502,50433
17,72913,46841
17,73327,43587
17,73738,42944
17,74150,41841
17,74563,37500
17,74975,38762
17,75387,34654
17,75798,37072
17,76212,34172
17,76623,32754
17,77035,31379
17,77448,31154
17,77860,29295
17,78272,29306
17,78685,28306
17,79097,27012
17,79508,24841
17,79922,24739
17,80333,25576
17,80745,24039
17,81158,23004
17,81570,21003
17,81982,22468
17,82395,21688
17,82807,20857
17,83218,20762
17,83632,20431
17,84043,19274
17,84455,18867
17,84867,19239
17,85280,17143
17,85692,18388
17,86103,18114
17,86517,17559
17,86928,17424
17,87340,15751
17,87753,15596
17,88165,14631
17,88577,14722
17,88990,15326
17,89402,14869
17,89813,15907
17,90227,14377
17,90638,13493
17,91050,13270
17,91463,13561
17,91875,13769
17,92287,12947
17,92700,13520
17,93112,12223
17,93523,11380
17,93935,11862
17,94348,12453
17,94760,12726
17,95172,13119
17,95585,13607
17,95997,12629
17,96408,12490
17,96822,13822
17,97233,13136
17,97645,13235
17,98058,13535
17,98470,12372
17,98882,12615
17,99295,12039
17,99707,11454
18,00118,11389
18,00532,10393
18,00943,10102
18,01355,11351
18,01768,10217
18,02180,10035
18,02592,9661
18,03003,11082
18,03417,9415
18,03828,9748
18,04240,9088
18,04653,10538
18,05065,9484
18,05477,10394
18,05890,10741
18,06302,10590
18,06713,10803
18,07127,10598
18,07538,11870
18,07950,11887
18,08363,12540
18,08775,12005
18,09187,12651
18,09600,12307
18,10012,12979
18,10423,14599
18,10837,14393
18,11248,17123
18,11660,18322
18,12072,18841
18,12485,20213
18,12897,21776
18,13308,22102
18,13722,22892
18,14133,25329
18,14545,28547
18,14958,38457
18,15370,53470
18,15782,75353
18,16195,121366
18,16607,179935
18,17018,270727
18,17432,390988
18,17843,535192
18,18255,692604
18,18668,851098
18,19080,995343
18,19492,1119029
18,19905,1196720
18,20317,1226470
18,20728,1210757
18,21140,1161562
18,21553,1071584
18,21965,959460
18,22377,840221
18,22790,728243
18,23202,619258
18,23613,522502
18,24027,440874
18,24438,378458
18,24850,317575
18,25263,272877
18,25675,233254
18,26087,203260
18,26500,178772
18,26912,152661
18,27323,139919
18,27737,123185
18,28148,113282
18,28560,100249
18,28973,92331
18,29385,84718
18,29797,78087
18,30208,71326
18,30622,69672
18,31033,61953
18,31445,55918
18,31858,54199
18,32270,53234
18,32682,49136
18,33095,48329
18,33507,46991
18,33918,43800
18,34332,42597
18,34743,43141
18,35155,40191
18,35568,38641
18,35980,38564
18,36392,36458
18,36805,33968
18,37217,33972
18,37628,34479
18,38042,30982
18,38453,29929
18,38865,29668
18,39277,26920
18,39690,26185
18,40102,25297
18,40513,23802
18,40927,21814
18,41338,21325
18,41750,22350
18,42163,19951
18,42575,17672
18,42987,19608
18,43400,19318
18,43812,17097
18,44223,16043
18,44637,15709
18,45048,14431
18,45460,15489
18,45873,14868
18,46285,15995
18,46697,14868
18,47110,13623
18,47522,12776
18,47933,15796
18,48345,12555
18,48758,13017
18,49170,12497
18,49582,14702
18,49995,12398
18,50407,12106
18,50818,11576
18,51232,11770
18,51643,10993
18,52055,12621
18,52468,11984
18,52880,10645
18,53292,10844
18,53705,11700
18,54117,10791
18,54528,11899
18,54942,10974
18,55353,9526
18,55765,9588
18,56178,11283
18,56590,10248
18,57002,10310
18,57413,8755
18,57827,9087
18,58238,9900
18,58650,10563
18,59063,9080
18,59475,10408
18,59887,11502
18,60300,10862
18,60712,11785
18,61123,11383
18,61537,15531
18,61948,23302
18,62360,37669
18,62773,60936
18,63185,98552
18,63597,157876
18,64010,250622
18,64422,371295
18,64833,533298
18,65247,704387
18,65658,909650
18,66070,1094470
18,66482,1272603
18,66895,1396999
18,67307,1444497
18,67718,1439858
18,68132,1388796
18,68543,1283598
18,68955,1151175
18,69368,1008548
18,69780,855095
18,70192,723100
18,70605,614847
18,71017,512200
18,71428,430182
18,71842,364116
18,72253,307486
18,72665,264747
18,73078,229388
18,73490,199974
18,73902,173322
18,74315,155016
18,74727,138729
18,75138,124146
18,75550,109241
18,75963,103133
18,76375,94183
18,76787,84458
18,77200,76775
18,77612,73702
18,78023,66446
18,78437,61578
18,78848,56755
18,79260,52625
18,79673,50681
18,80085,49757
18,80497,43884
18,80910,44950
18,81322,44012
18,81733,40353
18,82147,39284
18,82558,35653
18,82970,34250
18,83383,34279
18,83795,31853
18,84207,31312
18,84618,30351
18,85032,27636
18,85443,27613
18,85855,24524
18,86268,24830
18,86680,23939
18,87092,21746
18,87505,22866
18,87917,21148
18,88328,20492
18,88742,18999
18,89153,20371
18,89565,18411
18,89978,19342
18,90390,16900
18,90802,15973
18,91215,15903
18,91627,16085
18,92038,16050
18,92452,14012
18,92863,15532
18,93275,13150
18,93687,13368
18,94100,13198
18,94512,13709
18,94923,13286
18,95337,13443
18,95748,11603
18,96160,13001
18,96573,12369
18,96985,12987
18,97397,12436
18,97810,12532
18,98222,11221
18,98633,12243
18,99047,9724
18,99458,9445
18,99870,9838
19,00283,10351
19,00695,10846
19,01107,9880
19,01520,10598
19,01932,10260
19,02343,10478
19,02755,9557
19,03168,10631
19,03580,9711
19,03992,10759
19,04405,9237
19,04817,9906
19,05228,8675
19,05642,11825
19,06053,8264
19,06465,10374
19,06878,7783
19,07290,8823
19,07702,8867
19,08115,9991
19,08527,8114
19,08938,9009
19,09352,9585
19,09763,8535
19,10175,9464
19,10588,9555
19,11000,9879
19,11412,9493
19,11823,8849
19,12237,9246
19,12648,10181
19,13060,9276
19,13473,8881
19,13885,8453
19,14297,8575
19,14710,9177
19,15122,8547
19,15533,8884
19,15947,8332
19,16358,8868
19,16770,8872
19,17183,8271
19,17595,8892
19,18007,7902
19,18420,7140
19,18832,7727
19,19243,7729
19,19657,7200
19,20068,7207
19,20480,7810
19,20893,7114
19,21305,7389
19,21717,7482
19,22128,7087
19,22542,7976
19,22953,6440
19,23365,9034
19,23778,6631
19,24190,8205
19,24602,7738
19,25015,7687
19,25427,6657
19,25838,8131
19,26252,8065
19,26663,10911
19,27075,12613
19,27488,19800
19,27900,32041
19,28312,48843
19,28725,84886
19,29137,135447
19,29548,217871
19,29962,323496
19,30373,453046
19,30785,619494
19,31197,798745
19,31610,967351
19,32022,1124504
19,32433,1261577
19,32847,1325052
19,33258,1344942
19,33670,1311363
19,34083,1239499
19,34495,1123331
19,34907,1008495
19,35320,872398
19,35732,749435
19,36143,622520
19,36557,546923
19,36968,456339
19,37380,385012
19,37793,329476
19,38205,280103
19,38617,241448
19,39030,206733
19,39442,182182
19,39853,162588
19,40265,148821
19,40678,128112
19,41090,112855
19,41502,104775
19,41915,95174
19,42327,85427
19,42738,79373
19,43152,74994
19,43563,68386
19,43975,64022
19,44388,61301
19,44800,60692
19,45212,57589
19,45625,59847
19,46037,55635
19,46448,59944
19,46862,59613
19,47273,59037
19,47685,62974
19,48098,60782
19,48510,59531
19,48922,58130
19,49333,55201
19,49747,53508
19,50158,52110
19,50570,48502
19,50983,45402
19,51395,40793
19,51807,40147
19,52220,34649
19,52632,34457
19,53043,31618
19,53457,31159
19,53868,28563
19,54280,26275
19,54693,25635
19,55105,23299
19,55517,23349
19,55930,21454
19,56342,20010
19,56753,20521
19,57167,18803
19,57578,18021
19,57990,16382
19,58402,17056
19,58815,17093
19,59227,16570
19,59638,14977
19,60052,15913
19,60463,15543
19,60875,14493
19,61288,13355
19,61700,14852
19,62112,14220
19,62525,14932
19,62937,12044
19,63348,12661
19,63762,13617
19,64173,13434
19,64585,11551
19,64998,12725
19,65410,13272
19,65822,13673
19,66235,12817
19,66647,11476
19,67058,11427
19,67470,11401
19,67883,11525
19,68295,11231
19,68707,10772
19,69120,10787
19,69532,11675
19,69943,11802
19,70357,12032
19,70768,11485
19,71180,12173
19,71593,16429
19,72005,22982
19,72417,36409
19,72830,63593
19,73242,106203
19,73653,177193
19,74067,291287
19,74478,446766
19,74890,661128
19,75303,941910
19,75715,1281768
19,76127,1654901
19,76538,2058318
19,76952,2430382
19,77363,2792387
19,77775,3025520
19,78188,3203284
19,78600,3198085
19,79012,3081040
19,79425,2825724
19,79837,2530671
19,80248,2188284
19,80662,1872144
19,81073,1574981
19,81485,1311995
19,81898,1105017
19,82310,923431
19,82722,782105
19,83135,662096
19,83547,570522
19,83958,489223
19,84372,427877
19,84783,381998
19,85195,337112
19,85607,296712
19,86020,263910
19,86432,243799
19,86843,218672
19,87257,198548
19,87668,182866
19,88080,167558
19,88493,154453
19,88905,144571
19,89317,134828
19,89730,123985
19,90142,117363
19,90553,107578
19,90967,100220
19,91378,92448
19,91790,88873
19,92203,83275
19,92615,78175
19,93027,73832
19,93440,71113
19,93852,66500
19,94263,65406
19,94675,58180
19,95088,55575
19,95500,54981
19,95912,51677
19,96325,50616
19,96737,47566
19,97148,47226
19,97562,44548
19,97973,43624
19,98385,40651
19,98798,38524
19,99210,36786
19,99622,35011
20,00035,34792
20,00447,32919
20,00858,32813
20,01272,32519
20,01683,29380
20,02095,28346
20,02508,27286
20,02920,27543
20,03332,24794
20,03743,22873
20,04157,24750
20,04568,23198
20,04980,23669
20,05393,22098
20,05805,22241
20,06217,22535
20,06630,22005
20,07042,21246
20,07453,21558
20,07867,23762
20,08278,25515
20,08690,35362
20,09103,47132
20,09515,70631
20,09927,108462
20,10340,167203
20,10752,253513
20,11163,365926
20,11577,516108
20,11988,691901
20,12400,884597
20,12812,1070993
20,13225,1226039
20,13637,1361759
20,14048,1438113
20,14462,1460308
20,14873,1420845
20,15285,1343971
20,15698,1226760
20,16110,1096128
20,16522,969523
20,16935,825783
20,17347,712804
20,17758,599700
20,18172,516003
20,18583,437961
20,18995,370960
20,19408,321261
20,19820,275604
20,20232,248570
20,20645,216167
20,21057,193466
20,21468,171314
20,21880,151159
20,22293,138042
20,22705,126490
20,23117,117266
20,23530,105728
20,23942,96821
20,24353,90435
20,24767,83045
20,25178,76997
20,25590,75009
20,26003,71540
20,26415,73551
20,26827,78017
20,27240,91946
20,27652,120647
20,28063,169130
20,28477,243837
20,28888,359892
20,29300,521111
20,29713,761704
20,30125,1054002
20,30537,1396610
20,30948,1768438
20,31362,2152829
20,31773,2489170
20,32185,2772710
20,32598,2947780
20,33010,3004832
20,33422,2937461
20,33835,2765795
20,34247,2507249
20,34658,2214873
20,35072,1933898
20,35483,1647702
20,35895,1393251
20,36308,1174847
20,36720,998767
20,37132,842788
20,37545,721504
20,37957,615707
20,38368,535189
20,38782,469663
20,39193,409180
20,39605,365754
20,40017,328268
20,40430,295963
20,40842,259671
20,41253,238566
20,41667,223048
20,42078,204598
20,42490,185960
20,42903,171847
20,43315,153671
20,43727,148422
20,44140,140123
20,44552,131834
20,44963,118252
20,45377,112015
20,45788,104454
20,46200,99716
20,46613,91461
20,47025,91315
20,47437,84310
20,47850,80562
20,48262,74173
20,48673,73013
20,49085,68199
20,49498,64128
20,49910,60897
20,50322,58692
20,50735,55580
20,51147,55078
20,51558,53036
20,51972,53447
20,52383,46925
20,52795,46762
20,53208,43661
20,53620,43405
20,54032,42290
20,54445,39580
20,54857,37990
20,55268,37604
20,55682,38773
20,56093,35948
20,56505,32830
20,56918,32271
20,57330,31830
20,57742,32332
20,58153,32139
20,58567,30496
20,58978,29062
20,59390,28619
20,59803,27305
20,60215,26412
20,60627,25183
20,61040,26500
20,61452,24103
20,61863,24536
20,62277,25771
20,62688,24840
20,63100,23876
20,63513,22628
20,63925,22321
20,64337,21865
20,64750,22953
20,65162,20003
20,65573,21314
20,65987,20738
20,66398,19302
20,66810,19543
20,67222,18635
20,67635,18202
20,68047,17740
20,68458,18988
20,68872,18637
20,69283,18580
20,69695,19963
20,70108,24308
20,70520,32215
20,70932,44759
20,71345,69502
20,71757,106160
20,72168,166109
20,72582,255945
20,72993,371842
20,73405,512587
20,73818,684359
20,74230,856244
20,74642,1031863
20,75055,1165904
20,75467,1260995
20,75878,1314350
20,76290,1292392
20,76703,1252222
20,77115,1165558
20,77527,1075040
20,77940,962924
20,78352,887410
20,78763,839672
20,79177,837539
20,79588,877604
20,80000,998333
20,80413,1190931
20,80825,1453804
20,81237,1773869
20,81650,2174742
20,82062,2557775
20,82473,2898953
20,82887,3166905
20,83298,3366191
20,83710,3378921
20,84123,3253526
20,84535,3031194
20,84947,2735948
20,85360,2381658
20,85772,2069086
20,86183,1753756
20,86595,1479251
20,87008,1250177
20,87420,1050869
20,87832,892159
20,88245,763101
20,88657,658906
20,89068,579439
20,89482,509513
20,89893,450578
20,90305,398778
20,90718,358564
20,91130,326222
20,91542,295152
20,91955,271467
20,92367,250257
20,92778,231317
20,93192,208928
20,93603,198271
20,94015,186402
20,94428,167192
20,94840,160252
20,95252,149576
20,95663,145418
20,96077,135194
20,96488,126350
20,96900,118392
20,97313,110883
20,97725,110085
20,98137,107371
20,98550,97904
20,98962,91361
20,99373,86050
20,99787,83816
21,00198,79869
21,00610,74881
21,01023,71860
21,01435,69858
21,01847,66167
21,02260,66033
21,02672,64824
21,03083,61985
21,03497,61869
21,03908,58993
21,04320,56094
21,04732,56026
21,05145,52424
21,05557,54038
21,05968,51550
21,06382,50199
21,06793,48833
21,07205,46018
21,07618,44607
21,08030,41977
21,08442,41285
21,08855,40080
21,09267,37522
21,09678,38709
21,10092,36748
21,10503,36652
21,10915,36967
21,11328,36826
21,11740,38429
21,12152,40612
21,12565,47267
21,12977,60198
21,13388,85383
21,13800,126750
21,14213,186475
21,14625,268094
21,15037,379738
21,15450,505508
21,15862,661707
21,16273,833395
21,16687,985091
21,17098,1124787
21,17510,1213808
21,17923,1243010
21,18335,1251323
21,18747,1212844
21,19160,1134276
21,19572,1022130
21,19983,908523
21,20397,781764
21,20808,671828
21,21220,580507
21,21633,489841
21,22045,426665
21,22457,364401
21,22868,320571
21,23282,280440
21,23693,242938
21,24105,212417
21,24518,185677
21,24930,174586
21,25342,153909
21,25755,137467
21,26167,124913
21,26578,116265
21,26992,106826
21,27403,96999
21,27815,91638
21,28228,84853
21,28640,78879
21,29052,73090
21,29465,69753
21,29877,66118
21,30288,61770
21,30702,57622
21,31113,53767
21,31525,53386
21,31937,51899
21,32350,51592
21,32762,48142
21,33173,47134
21,33587,46009
21,33998,41907
21,34410,41378
21,34823,40616
21,35235,38357
21,35647,36974
21,36060,36023
21,36472,36811
21,36883,34115
21,37297,35999
21,37708,33618
21,38120,29829
21,38533,31693
21,38945,29906
21,39357,29004
21,39770,29153
21,40182,27599
21,40593,27703
21,41005,28994
21,41418,25279
21,41830,23810
21,42242,24112
21,42655,23806
21,43067,24221
21,43478,23675
21,43892,20834
21,44303,20544
21,44715,20670
21,45128,19790
21,45540,19714
21,45952,19874
21,46365,19862
21,46777,18298
21,47188,18580
21,47602,19319
21,48013,17972
21,48425,18752
21,48838,17687
21,49250,16546
21,49662,17461
21,50073,18009
21,50487,16528
21,50898,17321
21,51310,15426
21,51723,16231
21,52135,15410
21,52547,15712
21,52960,15357
21,53372,14566
21,53783,15115
21,54197,16234
21,54608,14963
21,55020,14688
21,55433,15344
21,55845,16176
21,56257,14482
21,56670,14415
21,57082,14519
21,57493,15604
21,57907,15282
21,58318,14587
21,58730,13118
21,59142,15701
21,59555,13431
21,59967,13348
21,60378,14102
21,60792,11910
21,61203,14896
21,61615,14199
21,62028,13383
21,62440,14358
21,62852,13562
21,63265,13302
21,63677,14056
21,64088,13543
21,64502,11874
21,64913,14064
21,65325,13295
21,65738,12990
21,66150,11371
21,66562,11887
21,66975,13097
21,67387,12349
21,67798,12223
21,68210,11695
21,68623,11447
21,69035,12674
21,69447,12715
21,69860,11304
21,70272,12751
21,70683,13405
21,71097,12953
21,71508,14995
21,71920,17442
21,72333,22802
21,72745,34068
21,73157,50004
21,73570,80044
21,73982,126777
21,74393,188176
21,74807,276100
21,75218,395203
21,75630,527250
21,76043,669199
21,76455,799232
21,76867,920512
21,77278,1002236
21,77692,1065730
21,78103,1075597
21,78515,1051923
21,78928,1002397
21,79340,942121
21,79752,870288
21,80165,815505
21,80577,782534
21,80988,791478
21,81402,851814
21,81813,993162
21,82225,1204112
21,82638,1474299
21,83050,1820973
21,83462,2189087
21,83875,2630100
21,84287,3036760
21,84698,3382922
21,85112,3640838
21,85523,3768068
21,85935,3682704
21,86347,3499387
21,86760,3190040
21,87172,2816634
21,87583,2436115
21,87997,2081745
21,88408,1755362
21,88820,1502443
21,89233,1257753
21,89645,1096523
21,90057,935964
21,90470,819247
21,90882,709448
21,91293,633523
21,91707,567831
21,92118,511983
21,92530,461802
21,92943,415691
21,93355,372336
21,93767,339046
21,94180,308196
21,94592,284651
21,95003,259527
21,95415,243158
21,95828,223283
21,96240,211151
21,96652,196765
21,97065,183636
21,97477,172664
21,97888,158622
21,98302,151514
21,98713,142718
21,99125,136347
21,99538,129652
21,99950,122299
22,00362,113354
22,00775,108727
22,01187,105477
22,01598,100038
22,02012,94363
22,02423,90949
22,02835,86467
22,03248,84456
22,03660,81085
22,04072,77380
22,04483,71524
22,04897,72757
22,05308,68745
22,05720,65902
22,06133,64417
22,06545,60922
22,06957,60156
22,07370,56666
22,07782,54858
22,08193,54475
22,08607,51989
22,09018,51985
22,09430,51055
22,09843,52855
22,10255,54281
22,10667,58618
22,11080,72121
22,11492,93373
22,11903,127294
22,12317,177337
22,12728,249910
22,13140,354050
22,13552,464363
22,13965,594627
22,14377,730815
22,14788,869593
22,15202,974966
22,15613,1054429
22,16025,1092933
22,16438,1100402
22,16850,1045729
22,17262,978046
22,17675,889902
22,18087,794757
22,18498,690967
22,18912,597289
22,19323,512007
22,19735,443644
22,20148,380542
22,20560,330103
22,20972,289259
22,21385,254634
22,21797,220591
22,22208,198306
22,22620,174963
22,23033,161133
22,23445,144189
22,23857,133623
22,24270,122056
22,24682,111422
22,25093,105198
22,25507,96967
22,25918,89913
22,26330,85821
22,26743,81543
22,27155,72442
22,27567,68618
22,27980,67997
22,28392,63306
22,28803,61982
22,29217,59695
22,29628,57306
22,30040,59394
22,30453,61053
22,30865,70462
22,31277,83755
22,31688,112569
22,32102,159743
22,32513,232373
22,32925,330142
22,33338,470288
22,33750,646622
22,34162,847980
22,34575,1067132
22,34987,1281539
22,35398,1445814
22,35812,1583360
22,36223,1648794
22,36635,1638842
22,37048,1568376
22,37460,1453057
22,37872,1315501
22,38285,1171216
22,38697,1012810
22,39108,864512
22,39522,747537
22,39933,644362
22,40345,557731
22,40758,478799
22,41170,421213
22,41582,367791
22,41993,327629
22,42407,288274
22,42818,263075
22,43230,234427
22,43643,214837
22,44055,195347
22,44467,179225
22,44880,164529
22,45292,153435
22,45703,140092
22,46117,128085
22,46528,123016
22,46940,116319
22,47353,108344
22,47765,103243
22,48177,98977
22,48590,92477
22,49002,88805
22,49413,85156
22,49827,76897
22,50238,75396
22,50650,72023
22,51062,67017
22,51475,65222
22,51887,63172
22,52298,58750
22,52712,58332
22,53123,58219
22,53535,54325
22,53948,49926
22,54360,49454
22,54772,47492
22,55185,47224
22,55597,44531
22,56008,43851
22,56422,42417
22,56833,41865
22,57245,40677
22,57658,39948
22,58070,37988
22,58482,37599
22,58895,33348
22,59307,36055
22,59718,35735
22,60130,33463
22,60543,32719
22,60955,31308
22,61367,32270
22,61780,30225
22,62192,31910
22,62603,29729
22,63017,28884
22,63428,28118
22,63840,27851
22,64253,27420
22,64665,27669
22,65077,27922
22,65490,27139
22,65902,24774
22,66313,26589
22,66727,24064
22,67138,24813
22,67550,26024
22,67963,24430
22,68375,27285
22,68787,22774
22,69198,23094
22,69612,24614
22,70023,22278
22,70435,21593
22,70848,21317
22,71260,22196
22,71672,20364
22,72085,20191
22,72497,20682
22,72908,22711
22,73322,20839
22,73733,21366
22,74145,19844
22,74558,21838
22,74970,19586
22,75382,22334
22,75795,23968
22,76207,27137
22,76618,35362
22,77032,49939
22,77443,76583
22,77855,120427
22,78267,187907
22,78680,281489
22,79092,426680
22,79503,599422
22,79917,810201
22,80328,1054603
22,80740,1314591
22,81153,1538420
22,81565,1722198
22,81977,1819933
22,82390,1865088
22,82802,1798007
22,83213,1686677
22,83627,1528339
22,84038,1351143
22,84450,1165443
22,84863,1010286
22,85275,856789
22,85687,734665
22,86100,628152
22,86512,541518
22,86923,466620
22,87335,417447
22,87748,367191
22,88160,327073
22,88572,288649
22,88985,262362
22,89397,242857
22,89808,218459
22,90222,200761
22,90633,186365
22,91045,167920
22,91458,158819
22,91870,143729
22,92282,138886
22,92695,129676
22,93107,123294
22,93518,114614
22,93932,105834
22,94343,103914
22,94755,97352
22,95168,93201
22,95580,88953
22,95992,86104
22,96403,80768
22,96817,77616
22,97228,75041
22,97640,73054
22,98053,68748
22,98465,64557
22,98877,63724
22,99290,63845
22,99702,59092
23,00113,57462
23,00527,56837
23,00938,53197
23,01350,49795
23,01763,48124
23,02175,47600
23,02587,48602
23,03000,46063
23,03412,44340
23,03823,44605
23,04237,43649
23,04648,41898
23,05060,39930
23,05472,40629
23,05885,36552
23,06297,36402
23,06708,36141
23,07122,35404
23,07533,34575
23,07945,33206
23,08358,34764
23,08770,31103
23,09182,31568
23,09595,32568
23,10007,32675
23,10418,30683
23,10832,33769
23,11243,36146
23,11655,41917
23,12068,55260
23,12480,77492
23,12892,112819
23,13305,167571
23,13717,251108
23,14128,356458
23,14540,496247
23,14953,666296
23,15365,857458
23,15777,1032311
23,16190,1195597
23,16602,1328273
23,17013,1380618
23,17427,1387415
23,17838,1325346
23,18250,1255914
23,18663,1146270
23,19075,1022969
23,19487,893606
23,19900,772129
23,20312,669101
23,20723,579940
23,21137,496109
23,21548,436590
23,21960,384835
23,22373,328941
23,22785,297411
23,23197,263076
23,23608,235749
23,24022,210731
23,24433,193673
23,24845,174161
23,25258,160836
23,25670,145007
23,26082,138283
23,26495,125864
23,26907,117503
23,27318,109422
23,27732,102027
23,28143,95678
23,28555,89611
23,28968,84328
23,29380,80237
23,29792,75179
23,30205,73317
23,30617,69875
23,31028,67058
23,31442,64639
23,31853,61383
23,32265,59165
23,32677,55353
23,33090,55027
23,33502,52778
23,33913,51715
23,34327,48700
23,34738,45415
23,35150,45718
23,35563,43431
23,35975,43566
23,36387,43113
23,36800,40720
23,37212,40791
23,37623,39542
23,38037,37052
23,38448,37091
23,38860,37114
23,39273,34687
23,39685,31893
23,40097,31755
23,40510,33094
23,40922,31325
23,41333,31841
23,41745,30340
23,42158,31105
23,42570,29458
23,42982,28286
23,43395,28885
23,43807,27282
23,44218,27432
23,44632,28349
23,45043,26931
23,45455,26168
23,45868,25433
23,46280,27134
23,46692,24756
23,47105,24877
23,47517,25631
23,47928,24405
23,48342,24916
23,48753,23818
23,49165,24428
23,49578,25173
23,49990,22635
23,50402,22907
23,50813,23445
23,51227,23990
23,51638,23416
23,52050,23042
23,52463,24066
23,52875,24022
23,53287,22842
23,53700,26008
23,54112,23686
23,54523,22833
23,54937,24002
23,55348,23464
23,55760,22935
23,56173,23406
23,56585,22722
23,56997,22365
23,57410,21315
23,57822,23220
23,58233,20446
23,58647,19916
23,59058,20629
23,59470,20861
23,59882,19506
23,60295,20643
23,60707,21337
23,61118,18370
23,61532,19402
23,61943,19864
23,62355,19399
23,62768,19523
23,63180,18414
23,63592,19155
23,64005,18706
23,64417,18625
23,64828,18402
23,65242,19272
23,65653,18778
23,66065,19806
23,66478,20048
23,66890,21090
23,67302,22936
23,67715,28312
23,68127,35000
23,68538,46437
23,68950,70454
23,69363,106019
23,69775,167046
23,70187,244762
23,70600,357037
23,71012,494107
23,71423,669507
23,71837,863191
23,72248,1105786
23,72660,1323785
23,73073,1550559
23,73485,1779168
23,73897,2003735
23,74310,2254890
23,74722,2520200
23,75133,2810366
23,75547,3099926
23,75958,3423592
23,76370,3724429
23,76783,3985051
23,77195,4171562
23,77607,4227269
23,78018,4095708
23,78432,3852740
23,78843,3484557
23,79255,3084163
23,79668,2667891
23,80080,2283312
23,80492,1949288
23,80905,1653990
23,81317,1422602
23,81728,1228575
23,82142,1078566
23,82553,936107
23,82965,835637
23,83378,742313
23,83790,668317
23,84202,594047
23,84615,544587
23,85027,500622
23,85438,454152
23,85852,419680
23,86263,389015
23,86675,359399
23,87087,334763
23,87500,313070
23,87912,292206
23,88323,273477
23,88737,255715
23,89148,242092
23,89560,229002
23,89973,216767
23,90385,205449
23,90797,193931
23,91210,185748
23,91622,178077
23,92033,172386
23,92447,159821
23,92858,152104
23,93270,146827
23,93683,140016
23,94095,132315
23,94507,128376
23,94920,122080
23,95332,116977
23,95743,115237
23,96155,108999
23,96568,107182
23,96980,101786
23,97392,102595
23,97805,92257
23,98217,95572
23,98628,90979
23,99042,90399
23,99453,85729
23,99865,83199
24,00278,79957
24,00690,78139
24,01102,75350
24,01515,74981
24,01927,74206
24,02338,74125
24,02752,71379
24,03163,75326
24,03575,84271
24,03988,96135
24,04400,120791
24,04812,153459
24,05225,214526
24,05637,299249
24,06048,407431
24,06460,545340
24,06873,708050
24,07285,868646
24,07697,1028479
24,08110,1155487
24,08522,1247338
24,08933,1288289
24,09347,1271420
24,09758,1241745
24,10170,1182575
24,10583,1105600
24,10995,1028080
24,11407,983610
24,11820,956368
24,12232,966162
24,12643,994519
24,13057,1063463
24,13468,1144854
24,13880,1217038
24,14293,1291579
24,14705,1337496
24,15117,1344617
24,15528,1319326
24,15942,1263984
24,16353,1164411
24,16765,1073356
24,17178,960840
24,17590,855981
24,18002,745506
24,18415,655861
24,18827,577166
24,19238,517835
24,19652,467951
24,20063,427441
24,20475,412007
24,20888,412310
24,21300,439804
24,21712,488528
24,22125,577892
24,22537,708772
24,22948,870887
24,23362,1068914
24,23773,1284254
24,24185,1478074
24,24597,1655341
24,25010,1783508
24,25422,1839939
24,25833,1822098
24,26247,1745486
24,26658,1634528
24,27070,1479048
24,27483,1315689
24,27895,1156629
24,28307,1021017
24,28720,889396
24,29132,778680
24,29543,682531
24,29957,604850
24,30368,544141
24,30780,481674
24,31193,430928
24,31605,390009
24,32017,358263
24,32430,330325
24,32842,303435
24,33253,277496
24,33665,264390
24,34078,242548
24,34490,231682
24,34902,211874
24,35315,198899
24,35727,187955
24,36138,182729
24,36552,169281
24,36963,162716
24,37375,153594
24,37788,143385
24,38200,138492
24,38612,132609
24,39025,128389
24,39437,122618
24,39848,115692
24,40262,111498
24,40673,107740
24,41085,101559
24,41498,101254
24,41910,95588
24,42322,93886
24,42733,89709
24,43147,87330
24,43558,85128
24,43970,82298
24,44383,83017
24,44795,78588
24,45207,75852
24,45620,72343
24,46032,72442
24,46443,71258
24,46857,68516
24,47268,68717
24,47680,65469
24,48093,65159
24,48505,64430
24,48917,63011
24,49330,60330
24,49742,61361
24,50153,60481
24,50567,58577
24,50978,54265
24,51390,54983
24,51802,54182
24,52215,51472
24,52627,51069
24,53038,49990
24,53452,48905
24,53863,50598
24,54275,47699
24,54688,48418
24,55100,46343
24,55512,45802
24,55925,46407
24,56337,46863
24,56748,46543
24,57162,46043
24,57573,48601
24,57985,45732
24,58398,48677
24,58810,44693
24,59222,48528
24,59635,46952
24,60047,46943
24,60458,48180
24,60870,53977
24,61283,62569
24,61695,80098
24,62107,107508
24,62520,151155
24,62932,220708
24,63343,316680
24,63757,459168
24,64168,638249
24,64580,847161
24,64993,1091872
24,65405,1354630
24,65817,1582138
24,66230,1749373
24,66642,1871367
24,67053,1890611
24,67467,1842394
24,67878,1716301
24,68290,1546863
24,68703,1384570
24,69115,1210255
24,69527,1057545
24,69938,919235
24,70352,794164
24,70763,697641
24,71175,618011
24,71588,541994
24,72000,483281
24,72412,432409
24,72825,396558
24,73237,357333
24,73648,325819
24,74062,300072
24,74473,284256
24,74885,260560
24,75298,242968
24,75710,224780
24,76122,215885
24,76535,201944
24,76947,190605
24,77358,180711
24,77772,170109
24,78183,164561
24,78595,157025
24,79007,156260
24,79420,146081
24,79832,139631
24,80243,130536
24,80657,127861
24,81068,123277
24,81480,123505
24,81893,115102
24,82305,111163
24,82717,107026
24,83130,105309
24,83542,102485
24,83953,99830
24,84367,98190
24,84778,92314
24,85190,88974
24,85603,86817
24,86015,82790
24,86427,80193
24,86840,77166
24,87252,77736
24,87663,73678
24,88075,73833
24,88488,69850
24,88900,70178
24,89312,68676
24,89725,65684
24,90137,65074
24,90548,63802
24,90962,62760
24,91373,62480
24,91785,61786
24,92198,60666
24,92610,57109
24,93022,56907
24,93435,56144
24,93847,55206
24,94258,54425
24,94672,54703
24,95083,54346
24,95495,58323
24,95908,62445
24,96320,73430
24,96732,92376
24,97143,126362
24,97557,169819
24,97968,239800
24,98380,345374
24,98793,485308
24,99205,643798
24,99617,835467
25,00030,1035577
25,00442,1227659
25,00853,1361327
25,01267,1439707
25,01678,1481789
25,02090,1452840
25,02503,1374390
25,02915,1290524
25,03327,1171783
25,03740,1054448
25,04152,952345
25,04563,877685
25,04977,825080
25,05388,804697
25,05800,813049
25,06212,843870
25,06625,913886
25,07037,993255
25,07448,1083450
25,07862,1161135
25,08273,1201198
25,08685,1231250
25,09098,1226996
25,09510,1193688
25,09922,1120684
25,10335,1036210
25,10747,933732
25,11158,840003
25,11572,751002
25,11983,665149
25,12395,582460
25,12808,515670
25,13220,462376
25,13632,410001
25,14045,368505
25,14457,338041
25,14868,302502
25,15280,277329
25,15693,248053
25,16105,236965
25,16517,216927
25,16930,202810
25,17342,186615
25,17753,173056
25,18167,164642
25,18578,153823
25,18990,145097
25,19403,139946
25,19815,133344
25,20227,129353
25,20640,124300
25,21052,116477
25,21463,111548
25,21877,105855
25,22288,105538
25,22700,101823
25,23113,94864
25,23525,91684
25,23937,87759
25,24348,88207
25,24762,82674
25,25173,83220
25,25585,80215
25,25998,77502
25,26410,76306
25,26822,75806
25,27235,73264
25,27647,69671
25,28058,67348
25,28472,65949
25,28883,64290
25,29295,65574
25,29708,61362
25,30120,59435
25,30532,62512
25,30945,59093
25,31357,57024
25,31768,59870
25,32182,55506
25,32593,57813
25,33005,54222
25,33417,55007
25,33830,57335
25,34242,52689
25,34653,51537
25,35067,54233
25,35478,50691
25,35890,50382
25,36303,49859
25,36715,49918
25,37127,49211
25,37540,48315
25,37952,47434
25,38363,45362
25,38777,44503
25,39188,42221
25,39600,43601
25,40013,43819
25,40425,44069
25,40837,44055
25,41250,40854
25,41662,40768
25,42073,42726
25,42485,42739
25,42898,43662
25,43310,39795
25,43722,42010
25,44135,41010
25,44547,42102
25,44958,41632
25,45372,36336
25,45783,40227
25,46195,38959
25,46608,40960
25,47020,41846
25,47432,40720
25,47845,39029
25,48257,43661
25,48668,47782
25,49082,57529
25,49493,71732
25,49905,91762
25,50318,129395
25,50730,187484
25,51142,274909
25,51553,403544
25,51967,563297
25,52378,784476
25,52790,1058291
25,53203,1393100
25,53615,1755310
25,54027,2144847
25,54440,2565760
25,54852,2982924
25,55263,3347052
25,55677,3627099
25,56088,3704452
25,56500,3616451
25,56913,3423927
25,57325,3134087
25,57737,2767764
25,58150,2401893
25,58562,2065047
25,58973,1766568
25,59387,1530541
25,59798,1312148
25,60210,1159319
25,60622,1019115
25,61035,903184
25,61447,806853
25,61858,733013
25,62272,667433
25,62683,607643
25,63095,549212
25,63508,506027
25,63920,473527
25,64332,435747
25,64745,401821
25,65157,380766
25,65568,355740
25,65982,335874
25,66393,318350
25,66805,304200
25,67218,281417
25,67630,267535
25,68042,255384
25,68455,240950
25,68867,232462
25,69278,221996
25,69692,214776
25,70103,204083
25,70515,192776
25,70927,186608
25,71340,181078
25,71752,177400
25,72163,170135
25,72577,163249
25,72988,162935
25,73400,153670
25,73813,148493
25,74225,145531
25,74637,140540
25,75050,138216
25,75462,128841
25,75873,126538
25,76287,124724
25,76698,122794
25,77110,116240
25,77523,116323
25,77935,112497
25,78347,107554
25,78760,106440
25,79172,104974
25,79583,100007
25,79995,99640
25,80408,96862
25,80820,94306
25,81232,93814
25,81645,93408
25,82057,89679
25,82468,88370
25,82882,87740
25,83293,87626
25,83705,87386
25,84118,86241
25,84530,83553
25,84942,85676
25,85355,80428
25,85767,81170
25,86178,78409
25,86592,78331
25,87003,78124
25,87415,75552
25,87828,74894
25,88240,72434
25,88652,70277
25,89063,70723
25,89477,69731
25,89888,68431
25,90300,68069
25,90713,66990
25,91125,64266
25,91537,63864
25,91950,64563
25,92362,62605
25,92773,61814
25,93187,61170
25,93598,62721
25,94010,60995
25,94423,61124
25,94835,64741
25,95247,65144
25,95660,71764
25,96072,87924
25,96483,110284
25,96897,138262
25,97308,191324
25,97720,265478
25,98132,370108
25,98545,511723
25,98957,687674
25,99368,888807
25,99782,1102076
26,00193,1318538
26,00605,1511539
26,01018,1642551
26,01430,1700901
26,01842,1701570
26,02255,1629023
26,02667,1535028
26,03078,1416853
26,03492,1253713
26,03903,1110209
26,04315,974973
26,04728,860188
26,05140,763457
26,05552,674295
26,05965,605592
26,06377,546233
26,06788,488683
26,07200,442563
26,07613,405268
26,08025,376722
26,08437,351901
26,08850,324651
26,09262,304278
26,09673,279821
26,10087,265760
26,10498,248356
26,10910,231506
26,11323,216028
26,11735,209562
26,12147,197598
26,12560,189637
26,12972,184420
26,13383,171312
26,13797,169488
26,14208,163256
26,14620,157293
26,15033,151356
26,15445,148481
26,15857,138321
26,16268,132582
26,16682,131815
26,17093,124995
26,17505,120797
26,17918,118570
26,18330,116160
26,18742,110961
26,19155,108261
26,19567,105465
26,19978,103426
26,20392,100802
26,20803,101141
26,21215,99063
26,21628,93747
26,22040,92606
26,22452,87574
26,22865,89490
26,23277,87915
26,23688,87224
26,24102,82799
26,24513,80407
26,24925,80678
26,25337,77105
26,25750,77402
26,26162,73438
26,26573,75046
26,26987,72284
26,27398,72719
26,27810,69297
26,28223,69531
26,28635,68025
26,29047,68345
26,29460,69310
26,29872,66803
26,30283,67946
26,30697,71037
26,31108,69852
26,31520,70378
26,31933,69170
26,32345,70118
26,32757,72185
26,33170,73882
26,33582,77368
26,33993,81532
26,34405,84619
26,34818,90685
26,35230,99054
26,35642,104018
26,36055,113424
26,36467,116500
26,36878,125540
26,37292,130715
26,37703,132442
26,38115,128590
26,38528,130677
26,38940,122433
26,39352,115169
26,39765,111313
26,40177,102224
26,40588,98446
26,41002,92286
26,41413,86106
26,41825,82034
26,42238,76000
26,42650,74429
26,43062,71034
26,43473,66471
26,43887,65813
26,44298,65516
26,44710,59528
26,45123,61367
26,45535,58596
26,45947,59452
26,46360,58146
26,46772,56326
26,47183,53872
26,47597,52633
26,48008,56096
26,48420,53858
26,48833,54495
26,49245,53927
26,49657,52579
26,50070,51450
26,50482,48801
26,50893,51579
26,51307,51337
26,51718,49067
26,52130,49903
26,52542,50313
26,52955,49786
26,53367,51144
26,53778,49988
26,54192,49419
26,54603,46589
26,55015,46815
26,55428,44118
26,55840,47263
26,56252,46474
26,56665,47412
26,57077,49596
26,57488,48319
26,57902,45814
26,58313,47190
26,58725,47202
26,59138,49152
26,59550,46581
26,59962,44907
26,60375,48681
26,60787,45976
26,61198,45711
26,61610,44865
26,62023,45473
26,62435,45986
26,62847,45253
26,63260,44314
26,63672,42219
26,64083,42734
26,64497,42156
26,64908,44871
26,65320,40141
26,65733,43043
26,66145,42586
26,66557,41761
26,66970,42975
26,67382,42247
26,67793,42476
26,68207,41562
26,68618,42897
26,69030,42591
26,69443,40851
26,69855,42182
26,70267,40450
26,70678,42322
26,71092,42314
26,71503,43311
26,71915,44867
26,72328,44022
26,72740,42633
26,73152,42646
26,73565,42214
26,73977,40698
26,74388,44146
26,74802,42190
26,75213,40791
26,75625,41401
26,76038,41614
26,76450,41549
26,76862,41491
26,77275,44489
26,77687,43023
26,78098,42404
26,78512,39217
26,78923,41115
26,79335,41721
26,79747,43315
26,80160,40201
26,80572,42432
26,80983,41783
26,81397,44934
26,81808,43485
26,82220,41007
26,82633,42799
26,83045,41747
26,83457,42823
26,83870,43419
26,84282,42575
26,84693,42036
26,85107,44294
26,85518,43396
26,85930,43949
26,86343,44092
26,86755,40580
26,87167,42822
26,87580,42935
26,87992,39143
26,88403,42835
26,88815,42446
26,89228,39681
26,89640,42429
26,90052,40990
26,90465,40337
26,90877,41761
26,91288,39699
26,91702,42077
26,92113,39160
26,92525,38045
26,92938,36829
26,93350,38033
26,93762,41247
26,94175,37654
26,94587,39210
26,94998,40097
26,95412,39069
26,95823,39931
26,96235,37528
26,96648,39569
26,97060,36887
26,97472,38726
26,97883,38632
26,98297,37522
26,98708,39230
26,99120,37990
26,99533,37323
26,99945,36756
27,00357,38530
27,00770,36969
27,01182,36736
27,01593,38374
27,02007,40875
27,02418,37041
27,02830,37849
27,03243,38563
27,03655,38362
27,04067,37450
27,04480,39411
27,04892,39465
27,05303,36421
27,05717,38439
27,06128,40431
27,06540,37103
27,06952,37741
27,07365,36351
27,07777,37513
27,08188,37526
27,08602,35530
27,09013,36811
27,09425,38348
27,09838,38358
27,10250,36229
27,10662,37195
27,11075,37432
27,11487,37876
27,11898,36760
27,12312,38666
27,12723,36364
27,13135,36655
27,13548,38044
27,13960,40513
27,14372,38928
27,14785,36064
27,15197,35636
27,15608,37906
27,16020,38887
27,16433,37681
27,16845,37835
27,17257,38310
27,17670,39793
27,18082,39791
27,18493,40749
27,18907,38340
27,19318,40665
27,19730,37026
27,20143,40595
27,20555,41715
27,20967,40063
27,21380,41021
27,21792,41303
27,22203,42480
27,22617,45703
27,23028,51734
27,23440,64334
27,23853,79364
27,24265,101214
27,24677,135489
27,25088,182734
27,25502,249592
27,25913,329289
27,26325,418166
27,26738,513853
27,27150,604884
27,27562,681509
27,27975,744029
27,28387,790937
27,28798,807864
27,29212,794869
27,29623,758014
27,30035,726836
27,30448,674775
27,30860,619194
27,31272,562955
27,31685,498230
27,32097,446418
27,32508,398188
27,32922,361987
27,33333,320996
27,33745,295584
27,34158,268785
27,34570,248795
27,34982,226186
27,35393,211004
27,35807,193536
27,36218,174419
27,36630,168365
27,37043,152796
27,37455,146465
27,37867,137906
27,38280,131449
27,38692,123201
27,39103,120583
27,39517,117978
27,39928,107545
27,40340,105531
27,40753,99518
27,41165,95309
27,41577,94567
27,41990,91771
27,42402,86339
27,42813,84786
27,43227,80087
27,43638,81006
27,44050,77242
27,44462,76064
27,44875,74707
27,45287,72971
27,45698,70801
27,46112,69282
27,46523,67962
27,46935,67598
27,47348,65349
27,47760,63860
27,48172,64444
27,48585,63252
27,48997,60511
27,49408,58718
27,49822,59813
27,50233,62112
27,50645,58744
27,51058,58750
27,51470,55734
27,51882,56631
27,52295,58119
27,52707,55261
27,53118,57031
27,53530,52731
27,53943,52644
27,54355,54138
27,54767,49537
27,55180,53961
27,55592,49297
27,56003,50041
27,56417,51064
27,56828,51819
27,57240,49147
27,57653,49402
27,58065,47491
27,58477,48198
27,58890,48321
27,59302,46980
27,59713,45791
27,60127,48250
27,60538,46815
27,60950,43964
27,61363,45093
27,61775,45857
27,62187,46019
27,62598,45068
27,63012,44033
27,63423,43845
27,63835,46987
27,64248,46700
27,64660,47164
27,65072,45456
27,65485,46909
27,65897,45578
27,66308,47273
27,66722,46798
27,67133,46908
27,67545,47933
27,67958,46698
27,68370,45909
27,68782,46112
27,69195,45484
27,69607,45169
27,70018,45925
27,70432,44346
27,70843,45348
27,71255,43736
27,71667,43967
27,72080,44512
27,72492,45505
27,72903,43176
27,73317,43659
27,73728,43634
27,74140,44267
27,74553,43274
27,74965,42110
27,75377,45059
27,75790,42922
27,76202,41545
27,76613,42808
27,77027,42729
27,77438,40822
27,77850,42742
27,78263,41918
27,78675,41543
27,79087,39536
27,79500,42809
27,79912,41907
27,80323,41307
27,80735,42695
27,81148,43309
27,81560,41789
27,81972,38590
27,82385,43341
27,82797,41075
27,83208,39592
27,83622,42213
27,84033,42261
27,84445,43158
27,84858,42903
27,85270,42379
27,85682,42594
27,86095,41510
27,86507,42543
27,86918,40775
27,87332,42002
27,87743,40298
27,88155,39808
27,88568,40490
27,88980,39161
27,89392,40217
27,89803,38877
27,90217,37879
27,90628,39591
27,91040,40790
27,91453,39541
27,91865,38736
27,92277,36503
27,92690,39512
27,93102,39807
27,93513,37552
27,93927,39074
27,94338,39929
27,94750,38907
27,95163,40502
27,95575,39588
27,95987,40970
27,96400,36887
27,96812,38626
27,97223,39502
27,97637,40324
27,98048,41859
27,98460,41093
27,98872,38848
27,99285,40878
27,99697,40505
28,00108,40113
28,00522,40754
28,00933,40579
28,01345,38962
28,01758,38378
28,02170,41357
28,02582,40806
28,02995,42440
28,03407,38825
28,03818,41358
28,04232,41308
28,04643,41362
28,05055,39487
28,05468,39985
28,05880,39801
28,06292,39694
28,06705,40731
28,07117,40394
28,07528,39877
28,07940,41468
28,08353,39152
28,08765,40220
28,09177,38226
28,09590,42224
28,10002,38452
28,10413,39666
28,10827,39308
28,11238,40342
28,11650,41716
28,12063,41100
28,12475,40140
28,12887,42016
28,13300,40031
28,13712,41225
28,14123,43462
28,14537,41594
28,14948,42000
28,15360,42191
28,15773,41734
28,16185,40481
28,16597,41059
28,17008,40116
28,17422,40538
28,17833,39624
28,18245,40538
28,18658,38959
28,19070,40913
28,19482,40109
28,19895,36785
28,20307,38168
28,20718,39955
28,21132,37843
28,21543,37547
28,21955,40181
28,22368,39499
28,22780,36748
28,23192,38608
28,23605,38237
28,24017,38442
28,24428,41241
28,24842,40836
28,25253,41165
28,25665,38054
28,26077,38680
28,26490,38710
28,26902,41217
28,27313,40424
28,27727,39893
28,28138,41889
28,28550,39236
28,28963,38622
28,29375,40628
28,29787,39063
28,30200,39206
28,30612,41938
28,31023,39816
28,31437,41686
28,31848,40692
28,32260,40065
28,32673,41477
28,33085,40069
28,33497,38894
28,33910,37207
28,34322,38238
28,34733,41785
28,35145,41148
28,35558,38903
28,35970,40021
28,36382,38198
28,36795,37209
28,37207,37945
28,37618,36026
28,38032,39545
28,38443,37923
28,38855,39711
28,39268,38528
28,39680,36762
28,40092,39156
28,40505,38733
28,40917,38010
28,41328,39891
28,41742,37968
28,42153,38954
28,42565,39453
28,42978,41164
28,43390,39275
28,43802,36882
28,44213,37598
28,44627,39639
28,45038,40863
28,45450,38136
28,45863,36691
28,46275,41670
28,46687,39876
28,47100,38141
28,47512,38255
28,47923,39224
28,48337,40442
28,48748,39255
28,49160,40161
28,49573,39088
28,49985,37652
28,50397,36579
28,50810,36975
28,51222,36493
28,51633,39099
28,52047,40338
28,52458,38723
28,52870,39936
28,53282,39894
28,53695,40216
28,54107,41603
28,54518,40795
28,54932,39991
28,55343,40616
28,55755,37998
28,56168,39021
28,56580,37857
28,56992,39410
28,57405,38480
28,57817,39518
28,58228,35798
28,58642,38124
28,59053,39331
28,59465,37168
28,59878,36047
28,60290,38172
28,60702,41128
28,61115,37476
28,61527,37498
28,61938,38519
28,62350,38603
28,62763,36220
28,63175,36991
28,63587,39389
28,64000,35984
28,64412,37998
28,64823,34899
28,65237,37716
28,65648,38778
28,66060,36389
28,66473,37268
28,66885,36984
28,67297,38858
28,67710,37373
28,68122,38249
28,68533,38372
28,68947,37483
28,69358,34730
28,69770,37010
28,70183,36551
28,70595,37446
28,71007,37526
28,71418,39426
28,71832,36662
28,72243,39043
28,72655,36948
28,73068,39496
28,73480,36932
28,73892,37168
28,74305,36934
28,74717,39455
28,75128,36786
28,75542,39340
28,75953,41122
28,76365,37373
28,76778,39113
28,77190,38859
28,77602,40217
28,78015,38852
28,78427,41831
28,78838,36811
28,79252,38188
28,79663,37335
28,80075,40797
28,80487,35717
28,80900,37565
28,81312,37119
28,81723,35899
28,82137,38290
28,82548,37540
28,82960,36039
28,83373,36217
28,83785,37383
28,84197,35571
28,84610,37166
28,85022,35818
28,85433,37454
28,85847,35472
28,86258,37909
28,86670,38657
28,87083,37286
28,87495,36140
28,87907,36848
28,88320,38205
28,88732,36560
28,89143,37952
28,89557,36392
28,89968,37355
28,90380,36709
28,90792,38317
28,91205,36915
28,91617,37565
28,92028,36575
28,92442,36867
28,92853,37066
28,93265,35628
28,93678,38161
28,94090,36531
28,94502,37194
28,94915,36563
28,95327,36385
28,95738,37107
28,96152,37635
28,96563,38849
28,96975,38635
28,97388,37345
28,97800,37790
28,98212,39529
28,98625,37159
28,99037,39459
28,99448,38545
28,99860,36169
29,00273,37887
29,00685,37238
29,01097,37196
29,01510,37101
29,01922,39198
29,02333,36791
29,02747,37351
29,03158,34539
29,03570,36100
29,03983,36089
29,04395,38073
29,04807,37183
29,05220,40733
29,05632,36482
29,06043,37044
29,06457,37573
29,06868,38664
29,07280,39342
29,07693,38780
29,08105,35908
29,08517,37855
29,08928,40395
29,09342,36987
29,09753,38630
29,10165,36763
29,10578,40241
29,10990,40361
29,11402,38074
29,11815,38636
29,12227,39687
29,12638,35005
29,13052,36465
29,13463,39586
29,13875,38139
29,14288,35271
29,14700,35110
29,15112,37369
29,15525,37331
29,15937,36622
29,16348,35569
29,16762,38385
29,17173,36386
29,17585,37392
29,17997,35991
29,18410,35230
29,18822,36947
29,19233,35867
29,19647,38125
29,20058,37306
29,20470,37514
29,20883,36588
29,21295,36218
29,21707,39814
29,22120,37393
29,22532,35476
29,22943,37469
29,23357,37626
29,23768,36453
29,24180,37219
29,24593,37428
29,25005,35781
29,25417,35140
29,25830,35230
29,26242,34844
29,26653,34314
29,27065,36365
29,27478,35028
29,27890,37090
29,28302,35537
29,28715,34475
29,29127,34564
29,29538,37538
29,29952,38144
29,30363,34100
29,30775,36190
29,31188,37409
29,31600,37536
29,32012,36501
29,32425,34249
29,32837,36479
29,33248,35857
29,33662,37282
29,34073,35807
29,34485,36050
29,34898,35499
29,35310,37500
29,35722,38785
29,36133,38076
29,36547,35166
29,36958,35892
29,37370,35286
29,37783,36202
29,38195,35645
29,38607,38187
29,39020,37713
29,39432,38899
29,39843,37845
29,40257,37272
29,40668,38886
29,41080,38489
29,41493,41276
29,41905,42718
29,42317,40265
29,42730,40311
29,43142,40527
29,43553,41170
29,43967,42095
29,44378,39355
29,44790,42082
29,45202,40522
29,45615,40453
29,46027,40136
29,46438,40137
29,46852,39973
29,47263,39358
29,47675,41544
29,48088,41451
29,48500,39057
29,48912,40699
29,49325,38277
29,49737,38046
29,50148,37621
29,50562,37644
29,50973,38091
29,51385,36829
29,51798,38363
29,52210,35900
29,52622,37942
29,53035,37913
29,53447,36908
29,53858,36826
29,54270,38726
29,54683,39181
29,55095,34920
29,55507,38688
29,55920,36177
29,56332,34891
29,56743,35929
29,57157,36761
29,57568,35765
29,57980,35546
29,58393,34049
29,58805,37228
29,59217,35412
29,59630,35395
29,60042,36974
29,60453,35510
29,60867,36728
29,61278,35001
29,61690,36547
29,62103,34086
29,62515,36782
29,62927,36062
29,63338,34874
29,63752,36694
29,64163,36175
29,64575,34751
29,64988,37206
29,65400,36165
29,65812,38454
29,66225,37967
