D:\MassHunter\GCMS\1\data\Amal\Constant flow\80C\80C_1ml-min_6C-min_1.D Tue Aug 06 14:33:39 2024
Start of data points
6,24110	16178
6,24523	16940
6,24935	18288
6,25347	17423
6,25760	16917
6,26172	15002
6,26583	17071
6,26997	16495
6,27408	15275
6,27820	16270
6,28233	13749
6,28645	14853
6,29057	14893
6,29468	14191
6,29882	14933
6,30293	15047
6,30705	14901
6,31118	14733
6,31530	14968
6,31942	14063
6,32355	14054
6,32767	14156
6,33178	13679
6,33592	14608
6,34003	13455
6,34415	13936
6,34828	13643
6,35240	13755
6,35652	14235
6,36065	13316
6,36477	14333
6,36888	13807
6,37302	13466
6,37713	14247
6,38125	14270
6,38537	14238
6,38950	13745
6,39362	13983
6,39773	14012
6,40187	13738
6,40598	14610
6,41010	13715
6,41423	12820
6,41835	13381
6,42247	14008
6,42660	14644
6,43072	12682
6,43483	13033
6,43897	13000
6,44308	12555
6,44720	13150
6,45133	13690
6,45545	13598
6,45957	14257
6,46370	12879
6,46782	14498
6,47193	13831
6,47605	12099
6,48018	13267
6,48430	13395
6,48842	12949
6,49255	13140
6,49667	12177
6,50078	12799
6,50492	11637
6,50903	12265
6,51315	12961
6,51728	11757
6,52140	12336
6,52552	12376
6,52965	12462
6,53377	13034
6,53788	13404
6,54202	14711
6,54613	16579
6,55025	19945
6,55438	28872
6,55850	42296
6,56262	59819
6,56673	81345
6,57087	117027
6,57498	152642
6,57910	192560
6,58323	239070
6,58735	272930
6,59147	310126
6,59560	334856
6,59972	350978
6,60383	358205
6,60797	349387
6,61208	349807
6,61620	340323
6,62033	333128
6,62445	312950
6,62857	295494
6,63270	275370
6,63682	266067
6,64093	248329
6,64507	225766
6,64918	215601
6,65330	204509
6,65742	195482
6,66155	179103
6,66567	172834
6,66978	162220
6,67392	149422
6,67803	138575
6,68215	135309
6,68628	124633
6,69040	114413
6,69452	107511
6,69865	101010
6,70277	94399
6,70688	90059
6,71102	83676
6,71513	77438
6,71925	71507
6,72338	66027
6,72750	59962
6,73162	55768
6,73575	52422
6,73987	49578
6,74398	48358
6,74810	41756
6,75223	37250
6,75635	37533
6,76047	34889
6,76460	33609
6,76872	29801
6,77283	30573
6,77697	28213
6,78108	26613
6,78520	26163
6,78933	23009
6,79345	23004
6,79757	20253
6,80170	20326
6,80582	18564
6,80993	17467
6,81407	18741
6,81818	17648
6,82230	16996
6,82643	15402
6,83055	14749
6,83467	13453
6,83878	14107
6,84292	14257
6,84703	11729
6,85115	12713
6,85528	12799
6,85940	12693
6,86352	11556
6,86765	11167
6,87177	10857
6,87588	11107
6,88002	11176
6,88413	10486
6,88825	10588
6,89238	9637
6,89650	10759
6,90062	10097
6,90475	9617
6,90887	9971
6,91298	10233
6,91712	10296
6,92123	9779
6,92535	9441
6,92947	9010
6,93360	9251
6,93772	8886
6,94183	9735
6,94597	9201
6,95008	8688
6,95420	9746
6,95833	8959
6,96245	9311
6,96657	8529
6,97070	8158
6,97482	9007
6,97893	8938
6,98307	9209
6,98718	9413
6,99130	8442
6,99543	8690
6,99955	9267
7,00367	8884
7,00780	9062
7,01192	8413
7,01603	8597
7,02015	8535
7,02428	8718
7,02840	8069
7,03252	8929
7,03665	8931
7,04077	8154
7,04488	8648
7,04902	8873
7,05313	9372
7,05725	8052
7,06138	9029
7,06550	8637
7,06962	8279
7,07375	7802
7,07787	7509
7,08198	8868
7,08612	7246
7,09023	8836
7,09435	8561
7,09848	8373
7,10260	7269
7,10672	7824
7,11083	7732
7,11497	8300
7,11908	8494
7,12320	7472
7,12733	7725
7,13145	7422
7,13557	8246
7,13970	7982
7,14382	8559
7,14793	7713
7,15207	7498
7,15618	7695
7,16030	7650
7,16443	7780
7,16855	7751
7,17267	7443
7,17680	7347
7,18092	7935
7,18503	7845
7,18917	8330
7,19328	7060
7,19740	7146
7,20152	7279
7,20565	7172
7,20977	7398
7,21388	6854
7,21802	7470
7,22213	7911
7,22625	8127
7,23038	7993
7,23450	7208
7,23862	7263
7,24275	7750
7,24687	6776
7,25098	6122
7,25512	6822
7,25923	6948
7,26335	6514
7,26748	6577
7,27160	7507
7,27572	7680
7,27985	7471
7,28397	6804
7,28808	6903
7,29220	6497
7,29633	8131
7,30045	6831
7,30457	7362
7,30870	6574
7,31282	6908
7,31693	6994
7,32107	6657
7,32518	7299
7,32930	6996
7,33343	6706
7,33755	6663
7,34167	6689
7,34580	6520
7,34992	6587
7,35403	6531
7,35817	6394
7,36228	7045
7,36640	6841
7,37053	6820
7,37465	7095
7,37877	6315
7,38290	7030
7,38702	6098
7,39113	6815
7,39525	6438
7,39938	6922
7,40350	6802
7,40762	6601
7,41175	6795
7,41587	7110
7,41998	6682
7,42412	6682
7,42823	6718
7,43235	6539
7,43648	6270
7,44060	7454
7,44472	6894
7,44885	6879
7,45297	6737
7,45708	7155
7,46122	6519
7,46533	6681
7,46945	6089
7,47358	6460
7,47770	6084
7,48182	5870
7,48593	7701
7,49007	6159
7,49418	7134
7,49830	5910
7,50243	6177
7,50655	6417
7,51067	6411
7,51480	5869
7,51892	6381
7,52303	5969
7,52717	6568
7,53128	6691
7,53540	6416
7,53953	5977
7,54365	6556
7,54777	6397
7,55190	6440
7,55602	6349
7,56013	6291
7,56427	6022
7,56838	6424
7,57250	5698
7,57662	6138
7,58075	6285
7,58487	6361
7,58898	6205
7,59312	5503
7,59723	5449
7,60135	6168
7,60548	5943
7,60960	6347
7,61372	6066
7,61785	5625
7,62197	6309
7,62608	5222
7,63022	6085
7,63433	5944
7,63845	5850
7,64258	6136
7,64670	5431
7,65082	5969
7,65495	5907
7,65907	6000
7,66318	6014
7,66730	6119
7,67143	6055
7,67555	5868
7,67967	5621
7,68380	6496
7,68792	5635
7,69203	5932
7,69617	5595
7,70028	5976
7,70440	5931
7,70853	5884
7,71265	6434
7,71677	6119
7,72090	6084
7,72502	6297
7,72913	5942
7,73327	5146
7,73738	5861
7,74150	5016
7,74563	5399
7,74975	5293
7,75387	5344
7,75798	5396
7,76212	5229
7,76623	5603
7,77035	5821
7,77448	5520
7,77860	5988
7,78272	5008
7,78685	5253
7,79097	5234
7,79508	5469
7,79922	5925
7,80333	6297
7,80745	5789
7,81158	5282
7,81570	4941
7,81982	5108
7,82395	5857
7,82807	4760
7,83218	5848
7,83632	5241
7,84043	4849
7,84455	5000
7,84867	5465
7,85280	5739
7,85692	5583
7,86103	5344
7,86517	5151
7,86928	5532
7,87340	6104
7,87753	5620
7,88165	5156
7,88577	5583
7,88990	5515
7,89402	5820
7,89813	4859
7,90227	5255
7,90638	5520
7,91050	4844
7,91463	5462
7,91875	5134
7,92287	5366
7,92700	5074
7,93112	5656
7,93523	5120
7,93935	5710
7,94348	5842
7,94760	5088
7,95172	5044
7,95585	5042
7,95997	5751
7,96408	5794
7,96822	5970
7,97233	5472
7,97645	6206
7,98058	6593
7,98470	6012
7,98882	6245
7,99295	5684
7,99707	5604
8,00118	5949
8,00532	6119
8,00943	5632
8,01355	5819
8,01768	5163
8,02180	5753
8,02592	4926
8,03003	5007
8,03417	5088
8,03828	5499
8,04240	5125
8,04653	5293
8,05065	4984
8,05477	4787
8,05890	5521
8,06302	5046
8,06713	5151
8,07127	5108
8,07538	4702
8,07950	4952
8,08363	5428
8,08775	5385
8,09187	5536
8,09600	5364
8,10012	4723
8,10423	4725
8,10837	4907
8,11248	5030
8,11660	4843
8,12072	4848
8,12485	5154
8,12897	4313
8,13308	4604
8,13722	4742
8,14133	4945
8,14545	5083
8,14958	4771
8,15370	5081
8,15782	5003
8,16195	4800
8,16607	4984
8,17018	5005
8,17432	5064
8,17843	4144
8,18255	5255
8,18668	4982
8,19080	5432
8,19492	4617
8,19905	5031
8,20317	4724
8,20728	4642
8,21140	4926
8,21553	4901
8,21965	4809
8,22377	4712
8,22790	4223
8,23202	3890
8,23613	4631
8,24027	4384
8,24438	4410
8,24850	4576
8,25263	5049
8,25675	4629
8,26087	4529
8,26500	4793
8,26912	4732
8,27323	5098
8,27737	4906
8,28148	4338
8,28560	4772
8,28973	5164
8,29385	4742
8,29797	4785
8,30208	5006
8,30622	4868
8,31033	4340
8,31445	4343
8,31858	4848
8,32270	4985
8,32682	4526
8,33095	4671
8,33507	3790
8,33918	4397
8,34332	4105
8,34743	3931
8,35155	4992
8,35568	4176
8,35980	4043
8,36392	4538
8,36805	4330
8,37217	5001
8,37628	5052
8,38042	4923
8,38453	4505
8,38865	4808
8,39277	4391
8,39690	4672
8,40102	3792
8,40513	4159
8,40927	4507
8,41338	4287
8,41750	4883
8,42163	4369
8,42575	4697
8,42987	4826
8,43400	4443
8,43812	4225
8,44223	4386
8,44637	3874
8,45048	3878
8,45460	4181
8,45873	4929
8,46285	4747
8,46697	3928
8,47110	4106
8,47522	3806
8,47933	3859
8,48345	4212
8,48758	4640
8,49170	4798
8,49582	4142
8,49995	3937
8,50407	4253
8,50818	4621
8,51232	3975
8,51643	3887
8,52055	4210
8,52468	4005
8,52880	4390
8,53292	4651
8,53705	4151
8,54117	4631
8,54528	4582
8,54942	5367
8,55353	6929
8,55765	8709
8,56178	11413
8,56590	16916
8,57002	24890
8,57413	33123
8,57827	44112
8,58238	62022
8,58650	71375
8,59063	86455
8,59475	97002
8,59887	106815
8,60300	115168
8,60712	119894
8,61123	120409
8,61537	121220
8,61948	113727
8,62360	106748
8,62773	101562
8,63185	96420
8,63597	86779
8,64010	79175
8,64422	73785
8,64833	62615
8,65247	58968
8,65658	52398
8,66070	44359
8,66482	40169
8,66895	35956
8,67307	31652
8,67718	28608
8,68132	25359
8,68543	21680
8,68955	19371
8,69368	17318
8,69780	15283
8,70192	13217
8,70605	12295
8,71017	12132
8,71428	10972
8,71842	10368
8,72253	9559
8,72665	10264
8,73078	7732
8,73490	7591
8,73902	7218
8,74315	6513
8,74727	7194
8,75138	6784
8,75550	5844
8,75963	5624
8,76375	6037
8,76787	5330
8,77200	6318
8,77612	5072
8,78023	5616
8,78437	5153
8,78848	5517
8,79260	5024
8,79673	5344
8,80085	4824
8,80497	4862
8,80910	4626
8,81322	4707
8,81733	4610
8,82147	5173
8,82558	4607
8,82970	4930
8,83383	4564
8,83795	4083
8,84207	4832
8,84618	4036
8,85032	4715
8,85443	4207
8,85855	4209
8,86268	4162
8,86680	3761
8,87092	4949
8,87505	3795
8,87917	3891
8,88328	4114
8,88742	4197
8,89153	4345
8,89565	4581
8,89978	4489
8,90390	3523
8,90802	4490
8,91215	3897
8,91627	3887
8,92038	3706
8,92452	4829
8,92863	3521
8,93275	3859
8,93687	3426
8,94100	3994
8,94512	2831
8,94923	3520
8,95337	3779
8,95748	3717
8,96160	3575
8,96573	3366
8,96985	3222
8,97397	3549
8,97810	3769
8,98222	3877
8,98633	3642
8,99047	3500
8,99458	4082
8,99870	3481
9,00283	3496
9,00695	3887
9,01107	3559
9,01520	3694
9,01932	3903
9,02343	3532
9,02757	2995
9,03168	3630
9,03580	3458
9,03992	3407
9,04405	3622
9,04817	3530
9,05228	3569
9,05642	3775
9,06053	3579
9,06465	3080
9,06878	3682
9,07290	3678
9,07702	3427
9,08115	3606
9,08527	3433
9,08938	3305
9,09352	3637
9,09763	3707
9,10175	3445
9,10588	3754
9,11000	3882
9,11412	3804
9,11825	3074
9,12237	3334
9,12648	3179
9,13060	3355
9,13473	3814
9,13885	3468
9,14297	3688
9,14710	3208
9,15122	3918
9,15533	3549
9,15947	3043
9,16358	3671
9,16770	3642
9,17183	4076
9,17595	3281
9,18007	2930
9,18420	3350
9,18832	3388
9,19243	3563
9,19657	3787
9,20068	3507
9,20480	3510
9,20893	3635
9,21305	3388
9,21717	3603
9,22128	3228
9,22542	4004
9,22953	3088
9,23365	4027
9,23778	4115
9,24190	4579
9,24602	3339
9,25015	3952
9,25427	3393
9,25838	3455
9,26252	3595
9,26663	3666
9,27075	3619
9,27488	3968
9,27900	3348
9,28312	3413
9,28725	3449
9,29137	3373
9,29548	3251
9,29962	3472
9,30373	4066
9,30785	3946
9,31197	4222
9,31610	4370
9,32022	5036
9,32433	5509
9,32847	5486
9,33258	5663
9,33670	4903
9,34083	5129
9,34495	4611
9,34907	4833
9,35320	4455
9,35732	4394
9,36143	3896
9,36557	3590
9,36968	3980
9,37380	3413
9,37793	3694
9,38205	3517
9,38617	3046
9,39030	3579
9,39442	3280
9,39853	3224
9,40265	3805
9,40678	3414
9,41090	2788
9,41502	3648
9,41915	3759
9,42327	3544
9,42738	3480
9,43152	3693
9,43563	3581
9,43975	3985
9,44388	3310
9,44800	3331
9,45212	3007
9,45625	3308
9,46037	2889
9,46448	3458
9,46862	3451
9,47273	3503
9,47685	3137
9,48098	3538
9,48510	3289
9,48922	3434
9,49333	3249
9,49747	3412
9,50158	3316
9,50570	3182
9,50983	2795
9,51395	3068
9,51807	3018
9,52220	3564
9,52632	3227
9,53043	3285
9,53457	2890
9,53868	3102
9,54280	2935
9,54693	3039
9,55105	3398
9,55517	3397
9,55930	2834
9,56342	3426
9,56753	2491
9,57167	3754
9,57578	2921
9,57990	3550
9,58402	3006
9,58815	3335
9,59227	2673
9,59638	3005
9,60052	3128
9,60463	3098
9,60875	2993
9,61288	2923
9,61700	2967
9,62112	3315
9,62525	2639
9,62937	3436
9,63348	2950
9,63762	3059
9,64173	2863
9,64585	2865
9,64998	3042
9,65410	3482
9,65822	2383
9,66235	3336
9,66647	2798
9,67058	3399
9,67470	2853
9,67883	3404
9,68295	3075
9,68707	3018
9,69120	2665
9,69532	2715
9,69943	2648
9,70357	2930
9,70768	3305
9,71180	2647
9,71593	2985
9,72005	3289
9,72417	2462
9,72830	2920
9,73242	2817
9,73653	2863
9,74067	2911
9,74478	3144
9,74890	3162
9,75303	2937
9,75715	3048
9,76127	2994
9,76538	2842
9,76952	2972
9,77363	2778
9,77775	2877
9,78188	3172
9,78600	3276
9,79012	3441
9,79425	2927
9,79837	2859
9,80248	2997
9,80662	2943
9,81073	2580
9,81485	2533
9,81898	3220
9,82310	2911
9,82722	3081
9,83135	3136
9,83547	3441
9,83958	3458
9,84372	2751
9,84783	3358
9,85195	2904
9,85607	3060
9,86020	3049
9,86432	3118
9,86843	3333
9,87257	3014
9,87668	3103
9,88080	2817
9,88493	3242
9,88905	2497
9,89317	3305
9,89730	2743
9,90142	3387
9,90553	3147
9,90967	3345
9,91378	3631
9,91790	3722
9,92203	2765
9,92615	3480
9,93027	3312
9,93440	2962
9,93852	2671
9,94263	3343
9,94675	2906
9,95088	3478
9,95500	2811
9,95912	3391
9,96325	3189
9,96737	3271
9,97148	3143
9,97562	3785
9,97973	4051
9,98385	4473
9,98798	4504
9,99210	5130
9,99622	4263
10,00035	5568
10,00447	5009
10,00858	4897
10,01272	4885
10,01683	4770
10,02095	4481
10,02508	4550
10,02920	4552
10,03332	4534
10,03743	4333
10,04157	4104
10,04568	3261
10,04980	3490
10,05393	2964
10,05805	3772
10,06217	3150
10,06630	3474
10,07042	2879
10,07453	3208
10,07867	2806
10,08278	2994
10,08690	3057
10,09103	2808
10,09515	2390
10,09927	2629
10,10340	2364
10,10752	2705
10,11163	2924
10,11577	2845
10,11988	2679
10,12400	3063
10,12812	2476
10,13225	3349
10,13637	2933
10,14048	2720
10,14462	2797
10,14873	2675
10,15285	2739
10,15698	2617
10,16110	2238
10,16522	2558
10,16935	2585
10,17347	2721
10,17758	2789
10,18172	2838
10,18583	2900
10,18995	2871
10,19408	2598
10,19820	2849
10,20232	2563
10,20645	2816
10,21057	3037
10,21468	2644
10,21880	2695
10,22293	3384
10,22705	2762
10,23117	3072
10,23530	3622
10,23942	2850
10,24353	2640
10,24767	3046
10,25178	2585
10,25590	3459
10,26003	2675
10,26415	2864
10,26827	2590
10,27240	2729
10,27652	2893
10,28063	2985
10,28477	2832
10,28888	2862
10,29300	2458
10,29713	2684
10,30125	2635
10,30537	2527
10,30948	2855
10,31362	2490
10,31773	3205
10,32185	2547
10,32598	2689
10,33010	2676
10,33422	2756
10,33835	3027
10,34247	1894
10,34658	2884
10,35072	2552
10,35483	2491
10,35895	2619
10,36308	2734
10,36720	2642
10,37132	2444
10,37545	2754
10,37957	2528
10,38368	2571
10,38782	2738
10,39193	2376
10,39605	2753
10,40017	2355
10,40430	2863
10,40842	2803
10,41253	2549
10,41667	2468
10,42078	2166
10,42490	2512
10,42903	2246
10,43315	2236
10,43727	2017
10,44140	2494
10,44552	2716
10,44963	2708
10,45377	2393
10,45788	2521
10,46200	2335
10,46613	2816
10,47025	2497
10,47437	2713
10,47850	2457
10,48262	2183
10,48673	2477
10,49085	2646
10,49498	2750
10,49910	2349
10,50322	2817
10,50735	2288
10,51147	2594
10,51558	2898
10,51972	2975
10,52383	2585
10,52795	2378
10,53208	2718
10,53620	2677
10,54032	2449
10,54445	2778
10,54857	2512
10,55268	1994
10,55682	2940
10,56093	2141
10,56505	2521
10,56918	2908
10,57330	2235
10,57742	2526
10,58155	2988
10,58567	2203
10,58978	2135
10,59390	2604
10,59803	2129
10,60215	2196
10,60627	2481
10,61040	2690
10,61452	2097
10,61863	2028
10,62277	2544
10,62688	2363
10,63100	2087
10,63513	2584
10,63925	2527
10,64337	2094
10,64750	2177
10,65162	2704
10,65573	2160
10,65987	2405
10,66398	2386
10,66810	2371
10,67223	2428
10,67635	2440
10,68047	3043
10,68458	2654
10,68872	2639
10,69283	2858
10,69695	2977
10,70108	3051
10,70520	2240
10,70932	3210
10,71345	3647
10,71757	3330
10,72168	2739
10,72582	2845
10,72993	3127
10,73405	3227
10,73818	2961
10,74230	2505
10,74642	2265
10,75055	2437
10,75467	2760
10,75878	2619
10,76292	2515
10,76703	2126
10,77115	2683
10,77527	2566
10,77940	2577
10,78352	2515
10,78763	2131
10,79177	2652
10,79588	2444
10,80000	2144
10,80413	2800
10,80825	2076
10,81237	2468
10,81650	2358
10,82062	2343
10,82473	2768
10,82887	2266
10,83298	2610
10,83710	2385
10,84123	2602
10,84535	2268
10,84947	2450
10,85360	2341
10,85772	2512
10,86183	2385
10,86595	2135
10,87008	2292
10,87420	2391
10,87832	2428
10,88245	2372
10,88657	2580
10,89068	2128
10,89482	2451
10,89893	2378
10,90305	2229
10,90718	2115
10,91130	1979
10,91542	2530
10,91955	2259
10,92367	2365
10,92778	2200
10,93192	2208
10,93603	2593
10,94015	2367
10,94428	2498
10,94840	2133
10,95252	2376
10,95663	2315
10,96077	2320
10,96488	2386
10,96900	2486
10,97313	2822
10,97725	2315
10,98137	2359
10,98550	1942
10,98962	2278
10,99373	2310
10,99787	2052
11,00198	2014
11,00610	2368
11,01023	2354
11,01435	2571
11,01847	2056
11,02260	2789
11,02672	2178
11,03083	1998
11,03497	2618
11,03908	2657
11,04320	2756
11,04732	2604
11,05145	2692
11,05557	2730
11,05968	2637
11,06382	3507
11,06793	2389
11,07205	2858
11,07618	2728
11,08030	2274
11,08442	2359
11,08855	2494
11,09267	2940
11,09678	2677
11,10092	2483
11,10503	2464
11,10915	2176
11,11328	2471
11,11740	1902
11,12152	2727
11,12565	2532
11,12977	2411
11,13388	1830
11,13800	2161
11,14213	2237
11,14625	2881
11,15037	2719
11,15450	2324
11,15862	2775
11,16273	2998
11,16687	2217
11,17098	2179
11,17510	2177
11,17923	2457
11,18335	2839
11,18747	2201
11,19160	2489
11,19572	2450
11,19983	2320
11,20397	1918
11,20808	2392
11,21220	2214
11,21633	2774
11,22045	3678
11,22457	6021
11,22868	9059
11,23282	15353
11,23693	25392
11,24105	41575
11,24518	68565
11,24930	105073
11,25342	150495
11,25755	213945
11,26167	285580
11,26578	368303
11,26992	443747
11,27403	511139
11,27815	566720
11,28228	614605
11,28640	628325
11,29052	626159
11,29465	608936
11,29877	564929
11,30288	517129
11,30702	451300
11,31113	393863
11,31525	341295
11,31937	290347
11,32350	242975
11,32762	204375
11,33173	166646
11,33587	140793
11,33998	115616
11,34410	94992
11,34823	82806
11,35235	70932
11,35647	60673
11,36060	52537
11,36472	44749
11,36883	41419
11,37297	35598
11,37708	31880
11,38120	28439
11,38533	25724
11,38945	23287
11,39357	20943
11,39770	20433
11,40182	17580
11,40593	17315
11,41005	15011
11,41418	13765
11,41830	13171
11,42242	13048
11,42655	12428
11,43067	10714
11,43478	10947
11,43892	9713
11,44303	9254
11,44715	9743
11,45128	8428
11,45540	8579
11,45952	7698
11,46365	7453
11,46777	7612
11,47188	6437
11,47602	6520
11,48013	6715
11,48425	6518
11,48838	6648
11,49250	5664
11,49662	5783
11,50073	4994
11,50487	4923
11,50898	4873
11,51310	4691
11,51723	5518
11,52135	4566
11,52547	4890
11,52960	4260
11,53372	4245
11,53783	3684
11,54197	4589
11,54608	4067
11,55020	4491
11,55433	4266
11,55845	3522
11,56257	3902
11,56670	4585
11,57082	4014
11,57493	4011
11,57907	3893
11,58318	3623
11,58730	2967
11,59142	3734
11,59555	3824
11,59967	3935
11,60378	3441
11,60792	3411
11,61203	3259
11,61615	3472
11,62028	3090
11,62440	2901
11,62852	2959
11,63265	2849
11,63677	2947
11,64088	2893
11,64502	2402
11,64913	2736
11,65325	2511
11,65738	2836
11,66150	2638
11,66562	2615
11,66975	2672
11,67387	2653
11,67798	2657
11,68210	2572
11,68623	2586
11,69035	2696
11,69447	2605
11,69860	2654
11,70272	2230
11,70683	2593
11,71097	2712
11,71508	2513
11,71920	2575
11,72333	2210
11,72745	2250
11,73157	3035
11,73570	2705
11,73982	2474
11,74393	2273
11,74807	2123
11,75218	2561
11,75630	2880
11,76043	2680
11,76455	2328
11,76867	1909
11,77278	1921
11,77692	2678
11,78103	2452
11,78515	2381
11,78928	2276
11,79340	2174
11,79752	2256
11,80165	2287
11,80577	2237
11,80988	2519
11,81402	2060
11,81813	2139
11,82225	2609
11,82638	2304
11,83050	2551
11,83462	2314
11,83875	2409
11,84287	2473
11,84698	2232
11,85112	2762
11,85523	1976
11,85935	1958
11,86347	2242
11,86760	2603
11,87172	2383
11,87583	2758
11,87997	2490
11,88408	2321
11,88820	2131
11,89233	2857
11,89645	2835
11,90057	2570
11,90470	2550
11,90882	2150
11,91293	2661
11,91707	2342
11,92118	2435
11,92530	1891
11,92943	2293
11,93355	2236
11,93767	2753
11,94180	2240
11,94592	2406
11,95003	2306
11,95415	2375
11,95828	1927
11,96240	2154
11,96652	2103
11,97065	2255
11,97477	1775
11,97888	1872
11,98302	1830
11,98713	2080
11,99125	2243
11,99538	1932
11,99950	2277
12,00362	1850
12,00775	2260
12,01187	1947
12,01598	1849
12,02012	1947
12,02423	2100
12,02835	2105
12,03248	1668
12,03660	1898
12,04072	1665
12,04483	2185
12,04897	1802
12,05308	1554
12,05720	2026
12,06133	2074
12,06545	2190
12,06957	2450
12,07370	2409
12,07782	2600
12,08193	2191
12,08607	2462
12,09018	2110
12,09430	1734
12,09843	1992
12,10255	2241
12,10667	2482
12,11080	1752
12,11492	2221
12,11903	1747
12,12317	1983
12,12728	1962
12,13140	2055
12,13553	1672
12,13965	2020
12,14377	1944
12,14788	1960
12,15202	1421
12,15613	2004
12,16025	2307
12,16438	1952
12,16850	2144
12,17262	1609
12,17675	1856
12,18087	2014
12,18498	1750
12,18912	1844
12,19323	1806
12,19735	2614
12,20148	1558
12,20560	2263
12,20972	1890
12,21385	2128
12,21797	1894
12,22208	2114
12,22622	2020
12,23033	1654
12,23445	2142
12,23857	1929
12,24270	1825
12,24682	1994
12,25093	2174
12,25507	3215
12,25918	4626
12,26330	4545
12,26743	4576
12,27155	5602
12,27567	4755
12,27980	4529
12,28392	3791
12,28803	2716
12,29217	2134
12,29628	2409
12,30040	2290
12,30453	2089
12,30865	1757
12,31277	1374
12,31690	2214
12,32102	1767
12,32513	1854
12,32925	2132
12,33338	1975
12,33750	2090
12,34162	2193
12,34575	1747
12,34987	1841
12,35398	2308
12,35812	2436
12,36223	2319
12,36635	1852
12,37048	1905
12,37460	2429
12,37872	1773
12,38285	2115
12,38697	2123
12,39108	2053
12,39522	2086
12,39933	2097
12,40345	1796
12,40758	1564
12,41170	1672
12,41582	1841
12,41993	1772
12,42407	1728
12,42818	2009
12,43230	2189
12,43643	1954
12,44055	1967
12,44467	1934
12,44880	1514
12,45292	2039
12,45703	2436
12,46117	1821
12,46528	1919
12,46940	1738
12,47353	1518
12,47765	1654
12,48177	1871
12,48590	2082
12,49002	2454
12,49413	1744
12,49827	1710
12,50238	2620
12,50650	1720
12,51062	2190
12,51475	1744
12,51887	1948
12,52298	2148
12,52712	2364
12,53123	2238
12,53535	2415
12,53948	2350
12,54360	2331
12,54772	2025
12,55185	1927
12,55597	2242
12,56008	2668
12,56422	3191
12,56833	3382
12,57245	3993
12,57658	4278
12,58070	4575
12,58482	4726
12,58895	4863
12,59307	4692
12,59718	5188
12,60130	4788
12,60543	5503
12,60955	5318
12,61367	4974
12,61780	4654
12,62192	4377
12,62603	4524
12,63017	4513
12,63428	5154
12,63840	7820
12,64253	12119
12,64665	19918
12,65077	31880
12,65490	50307
12,65902	77566
12,66313	117329
12,66727	162753
12,67138	214536
12,67550	266766
12,67963	319022
12,68375	360688
12,68787	395716
12,69198	413312
12,69612	417832
12,70023	403739
12,70435	380928
12,70848	345089
12,71260	300442
12,71672	259859
12,72085	219230
12,72497	182591
12,72908	152352
12,73322	124732
12,73733	101376
12,74145	84417
12,74558	71293
12,74970	57787
12,75382	49295
12,75795	44684
12,76207	38800
12,76618	31671
12,77032	28070
12,77443	25233
12,77855	21465
12,78267	18797
12,78680	19209
12,79092	17312
12,79503	14598
12,79917	14698
12,80328	12366
12,80740	12020
12,81153	10165
12,81565	9338
12,81977	8468
12,82390	8766
12,82802	8623
12,83213	7757
12,83627	7154
12,84038	7567
12,84450	6584
12,84863	5089
12,85275	6339
12,85687	5646
12,86100	5268
12,86512	5123
12,86923	5572
12,87335	5249
12,87748	3382
12,88160	4267
12,88572	3597
12,88985	4125
12,89397	4042
12,89808	4301
12,90222	3740
12,90633	4007
12,91045	3565
12,91458	3637
12,91870	2791
12,92282	3325
12,92695	3499
12,93107	2957
12,93518	3027
12,93932	3141
12,94343	3015
12,94755	3106
12,95168	3034
12,95580	2458
12,95992	2494
12,96403	2194
12,96817	3017
12,97228	2566
12,97640	3083
12,98053	2705
12,98465	2346
12,98877	2233
12,99290	2298
12,99702	2322
13,00113	2558
13,00527	2493
13,00938	1889
13,01350	2229
13,01763	2625
13,02175	2393
13,02587	2338
13,03000	2811
13,03412	2687
13,03823	2945
13,04237	2657
13,04648	2505
13,05060	1936
13,05472	2054
13,05885	2785
13,06297	1682
13,06708	2497
13,07122	1970
13,07533	2105
13,07945	2215
13,08358	2378
13,08770	2238
13,09182	1969
13,09595	2230
13,10007	1745
13,10418	1901
13,10832	1851
13,11243	1681
13,11655	1434
13,12068	2557
13,12480	1882
13,12892	1884
13,13305	1715
13,13717	1922
13,14128	1531
13,14540	1847
13,14953	2209
13,15365	1647
13,15777	1748
13,16190	2006
13,16602	2094
13,17013	1636
13,17427	1896
13,17838	1473
13,18250	1596
13,18663	1756
13,19075	2626
13,19487	2076
13,19900	2357
13,20312	2278
13,20723	1965
13,21137	2273
13,21548	2238
13,21960	2516
13,22373	2547
13,22785	2383
13,23197	2835
13,23608	3076
13,24022	3543
13,24433	3320
13,24845	2867
13,25258	2628
13,25670	3053
13,26082	2922
13,26495	3417
13,26907	3095
13,27318	2867
13,27732	2939
13,28143	1946
13,28555	1945
13,28968	2680
13,29380	2081
13,29792	1884
13,30205	1608
13,30617	1628
13,31028	2153
13,31442	2185
13,31853	1771
13,32265	2251
13,32677	1867
13,33090	1903
13,33502	1535
13,33913	2158
13,34327	2232
13,34738	1553
13,35150	1836
13,35563	1619
13,35975	1589
13,36387	2099
13,36800	1934
13,37212	1569
13,37623	1670
13,38037	2177
13,38448	1348
13,38860	1946
13,39273	1737
13,39685	1880
13,40097	1813
13,40510	1508
13,40922	1561
13,41333	1545
13,41745	1262
13,42158	1838
13,42570	1294
13,42982	1356
13,43395	1493
13,43807	1554
13,44218	1814
13,44632	2274
13,45043	1211
13,45455	1688
13,45868	1646
13,46280	1656
13,46692	1408
13,47105	1890
13,47517	1120
13,47928	1447
13,48342	1706
13,48753	1633
13,49165	1491
13,49578	2063
13,49990	1889
13,50402	1765
13,50813	1480
13,51227	1454
13,51638	1782
13,52050	1906
13,52463	1652
13,52875	1551
13,53287	1999
13,53700	1579
13,54112	1575
13,54523	2036
13,54937	1718
13,55348	1727
13,55760	1917
13,56173	1410
13,56585	1367
13,56997	1678
13,57410	1771
13,57822	1679
13,58233	1947
13,58647	1685
13,59058	1645
13,59470	1737
13,59882	1554
13,60295	1690
13,60707	1829
13,61118	1697
13,61532	1697
13,61943	1586
13,62355	1174
13,62768	1892
13,63180	1750
13,63592	1463
13,64005	1767
13,64417	1938
13,64828	1890
13,65242	1275
13,65653	1492
13,66065	1927
13,66478	1609
13,66890	1623
13,67302	984
13,67715	2041
13,68127	1623
13,68538	1663
13,68950	1470
13,69363	1705
13,69775	2101
13,70187	1351
13,70600	1450
13,71012	1132
13,71423	1516
13,71837	1672
13,72248	1441
13,72660	1630
13,73073	1657
13,73485	2013
13,73897	1776
13,74310	2313
13,74722	2459
13,75133	2429
13,75547	1804
13,75958	1905
13,76370	2324
13,76783	2585
13,77195	2604
13,77607	2198
13,78020	1869
13,78432	2071
13,78843	2138
13,79255	1932
13,79668	1949
13,80080	1794
13,80492	2055
13,80905	2208
13,81317	1868
13,81728	1304
13,82142	1496
13,82553	2115
13,82965	1790
13,83378	1743
13,83790	1892
13,84202	1075
13,84615	1239
13,85027	1866
13,85438	1446
13,85852	1927
13,86263	996
13,86675	1707
13,87088	1090
13,87500	1390
13,87912	1980
13,88323	1379
13,88737	1800
13,89148	1524
13,89560	1600
13,89973	1618
13,90385	1667
13,90797	1599
13,91210	1243
13,91622	1671
13,92033	1893
13,92447	1223
13,92858	1586
13,93270	1128
13,93683	1722
13,94095	1468
13,94507	1396
13,94920	1314
13,95332	1388
13,95743	1093
13,96157	1361
13,96568	1483
13,96980	1527
13,97392	1425
13,97805	1506
13,98217	1425
13,98628	1500
13,99042	1395
13,99453	1224
13,99865	1525
14,00278	1570
14,00690	1882
14,01102	1346
14,01515	1717
14,01927	2177
14,02338	3086
14,02752	4459
14,03163	9853
14,03575	17428
14,03988	31721
14,04400	56025
14,04812	92832
14,05225	152142
14,05637	230717
14,06048	338049
14,06460	454477
14,06873	585570
14,07285	717656
14,07697	833629
14,08110	941133
14,08522	1004951
14,08933	1029813
14,09347	1020289
14,09758	958271
14,10170	870209
14,10583	778877
14,10995	666912
14,11407	551824
14,11820	456847
14,12232	371799
14,12643	300540
14,13057	243016
14,13468	201833
14,13880	160021
14,14293	134803
14,14705	111751
14,15117	96087
14,15528	78620
14,15942	67262
14,16353	60635
14,16765	51195
14,17178	46508
14,17590	41477
14,18002	36269
14,18415	33204
14,18827	30409
14,19238	27686
14,19652	24070
14,20063	21657
14,20475	20795
14,20888	19022
14,21300	17813
14,21712	17263
14,22125	15206
14,22537	14869
14,22948	13348
14,23362	12179
14,23773	11856
14,24185	12642
14,24597	9675
14,25010	10004
14,25422	9362
14,25833	8266
14,26247	8615
14,26658	8032
14,27070	7643
14,27483	6805
14,27895	8066
14,28307	6834
14,28720	6957
14,29132	6173
14,29543	6845
14,29957	6379
14,30368	5860
14,30780	4803
14,31193	5057
14,31605	5331
14,32017	4532
14,32430	4579
14,32842	4554
14,33253	4429
14,33665	5339
14,34078	3487
14,34490	3709
14,34902	4182
14,35315	3878
14,35727	3626
14,36138	3695
14,36552	3024
14,36963	3352
14,37375	3280
14,37788	4070
14,38200	3354
14,38612	3253
14,39025	3147
14,39437	3244
14,39848	2686
14,40262	2559
14,40673	2919
14,41085	3009
14,41498	3145
14,41910	2811
14,42322	2931
14,42733	3001
14,43147	2660
14,43558	2517
14,43970	2664
14,44383	2616
14,44795	2164
14,45207	2801
14,45620	2534
14,46032	3143
14,46443	1931
14,46857	1992
14,47268	1776
14,47680	1855
14,48093	1926
14,48505	1715
14,48917	2429
14,49330	2169
14,49742	2047
14,50153	2005
14,50567	1804
14,50978	2150
14,51390	2407
14,51802	1120
14,52215	2143
14,52627	2217
14,53038	2018
14,53452	1983
14,53863	1613
14,54275	1827
14,54688	1790
14,55100	2026
14,55512	2520
14,55925	2266
14,56337	1715
14,56748	2438
14,57162	2344
14,57573	3193
14,57985	2220
14,58398	2999
14,58810	2169
14,59222	2275
14,59635	2919
14,60047	3184
14,60458	3834
14,60870	4227
14,61283	5506
14,61695	5550
14,62107	6278
14,62520	7189
14,62932	7989
14,63343	9920
14,63757	8681
14,64168	9426
14,64580	10042
14,64993	11105
14,65405	9332
14,65817	8844
14,66230	8525
14,66642	7305
14,67053	7527
14,67467	6444
14,67878	5720
14,68290	4736
14,68703	4784
14,69115	3520
14,69527	3040
14,69938	3235
14,70352	2904
14,70763	2971
14,71175	2548
14,71588	2706
14,72000	2036
14,72412	1805
14,72825	2143
14,73237	2252
14,73648	1386
14,74062	1177
14,74473	1655
14,74885	1172
14,75298	1081
14,75710	2385
14,76122	1692
14,76535	2150
14,76947	1766
14,77358	1785
14,77772	1185
14,78183	1108
14,78595	1274
14,79007	1742
14,79420	1554
14,79832	1908
14,80243	1220
14,80657	1132
14,81068	1425
14,81480	1544
14,81893	1281
14,82305	1753
14,82717	1354
14,83130	1785
14,83542	1131
14,83953	1436
14,84367	1220
14,84778	1633
14,85190	1218
14,85603	1140
14,86015	1279
14,86427	1084
14,86840	1619
14,87252	1647
14,87663	1449
14,88075	1118
14,88488	1452
14,88900	1398
14,89312	1121
14,89725	1081
14,90137	792
14,90548	1283
14,90962	1384
14,91373	1338
14,91785	1198
14,92198	1286
14,92610	1457
14,93022	1253
14,93435	1153
14,93847	1568
14,94258	1566
14,94672	1169
14,95083	1665
14,95495	1243
14,95908	945
14,96320	1502
14,96732	1033
14,97143	904
14,97557	1001
14,97968	1059
14,98380	1145
14,98793	1052
14,99205	1044
14,99617	1137
15,00030	1178
15,00442	1038
15,00853	1162
15,01267	1216
15,01678	1072
15,02090	969
15,02503	1150
15,02915	1204
15,03327	1481
15,03740	714
15,04152	1242
15,04563	1367
15,04977	954
15,05388	1268
15,05800	1222
15,06212	1218
15,06625	1902
15,07037	1678
15,07448	3336
15,07862	2965
15,08273	3728
15,08685	3139
15,09098	3405
15,09510	2334
15,09922	2224
15,10335	1293
15,10747	1839
15,11158	1511
15,11572	1484
15,11983	817
15,12395	1049
15,12808	1588
15,13220	1412
15,13632	1640
15,14045	1587
15,14457	1505
15,14868	1208
15,15280	1120
15,15693	858
15,16105	1005
15,16517	1357
15,16930	987
15,17342	823
15,17753	1030
15,18167	1376
15,18578	709
15,18990	626
15,19403	996
15,19815	1249
15,20227	920
15,20640	988
15,21052	1099
15,21463	1121
15,21877	743
15,22288	1572
15,22700	1340
15,23113	1353
15,23525	1480
15,23937	926
15,24348	1481
15,24762	960
15,25173	1350
15,25585	1434
15,25998	900
15,26410	1070
15,26822	1514
15,27235	940
15,27647	1315
15,28058	1560
15,28472	1035
15,28883	1478
15,29295	1425
15,29708	1708
15,30120	1006
15,30532	838
15,30945	998
15,31357	1058
15,31768	1371
15,32182	1022
15,32593	1183
15,33005	874
15,33418	847
15,33830	1108
15,34242	1132
15,34653	983
15,35067	892
15,35478	908
15,35890	1186
15,36303	749
15,36715	1157
15,37127	1051
15,37540	1423
15,37952	1378
15,38363	2209
15,38777	4646
15,39188	8211
15,39600	14189
15,40013	27815
15,40425	48164
15,40837	77359
15,41250	120913
15,41662	175752
15,42073	251854
15,42487	334808
15,42898	412333
15,43310	490716
15,43722	549240
15,44135	590121
15,44547	592695
15,44958	582048
15,45372	543012
15,45783	487057
15,46195	428973
15,46608	361821
15,47020	301533
15,47432	244411
15,47845	200335
15,48257	165047
15,48668	132798
15,49082	107144
15,49493	86508
15,49905	72942
15,50318	59882
15,50730	50993
15,51142	42140
15,51555	35910
15,51967	30207
15,52378	26778
15,52790	24552
15,53203	21095
15,53615	18589
15,54027	18284
15,54440	15839
15,54852	14053
15,55263	13320
15,55677	11099
15,56088	10739
15,56500	9523
15,56913	8378
15,57325	9026
15,57737	7871
15,58150	6505
15,58562	7204
15,58973	6604
15,59387	5823
15,59798	6149
15,60210	5003
15,60623	5445
15,61035	4897
15,61447	5661
15,61858	4353
15,62272	4353
15,62683	4151
15,63095	3986
15,63508	4073
15,63920	2418
15,64332	3382
15,64745	4138
15,65157	3361
15,65568	3431
15,65982	3253
15,66393	2756
15,66805	2825
15,67218	2466
15,67630	2441
15,68042	2364
15,68455	2120
15,68867	1696
15,69278	2779
15,69692	2605
15,70103	2290
15,70515	2665
15,70927	2265
15,71340	2057
15,71752	2046
15,72163	2138
15,72577	1993
15,72988	1730
15,73400	1661
15,73813	1976
15,74225	1307
15,74637	2174
15,75050	1815
15,75462	1179
15,75873	1742
15,76287	1442
15,76698	1614
15,77110	1304
15,77523	1574
15,77935	1361
15,78347	1011
15,78760	1491
15,79172	1227
15,79583	1330
15,79995	1404
15,80408	1984
15,80820	1628
15,81232	1034
15,81645	1357
15,82057	1466
15,82468	819
15,82882	952
15,83293	1220
15,83705	1210
15,84118	1497
15,84530	1357
15,84942	1285
15,85355	1249
15,85767	1289
15,86178	1337
15,86592	1425
15,87003	1864
15,87415	1091
15,87828	1069
15,88240	1078
15,88652	924
15,89063	776
15,89477	1048
15,89888	915
15,90300	877
15,90713	718
15,91125	1438
15,91537	1455
15,91950	1115
15,92362	828
15,92773	1404
15,93187	861
15,93598	1132
15,94010	1044
15,94423	1501
15,94835	1050
15,95247	1293
15,95660	840
15,96072	1177
15,96483	724
15,96897	1283
15,97308	1034
15,97720	543
15,98132	1123
15,98545	1410
15,98957	897
15,99368	1052
15,99782	1480
16,00193	952
16,00605	935
16,01018	775
16,01430	856
16,01842	1174
16,02255	912
16,02667	639
16,03078	1026
16,03492	882
16,03903	1031
16,04315	1210
16,04728	883
16,05140	940
16,05552	1179
16,05965	667
16,06377	1261
16,06788	1660
16,07200	2056
16,07613	1906
16,08025	1729
16,08437	3189
16,08850	3437
16,09262	3995
16,09673	3770
16,10087	4281
16,10498	4745
16,10910	4446
16,11323	4817
16,11735	4962
16,12147	4087
16,12560	3397
16,12972	3319
16,13383	3044
16,13797	2562
16,14208	2361
16,14620	2128
16,15033	1572
16,15445	1780
16,15857	1415
16,16268	1365
16,16682	1420
16,17093	1336
16,17505	703
16,17918	1158
16,18330	1519
16,18742	1290
16,19155	846
16,19567	1112
16,19978	1142
16,20392	1008
16,20803	712
16,21215	906
16,21628	528
16,22040	1221
16,22452	1233
16,22865	803
16,23277	944
16,23688	684
16,24102	924
16,24513	829
16,24925	1150
16,25337	1396
16,25750	1201
16,26162	857
16,26573	594
16,26987	967
16,27398	1465
16,27810	949
16,28223	765
16,28635	755
16,29047	982
16,29460	587
16,29872	673
16,30283	771
16,30697	789
16,31108	1266
16,31520	731
16,31933	792
16,32345	1050
16,32757	854
16,33170	676
16,33582	527
16,33993	854
16,34405	659
16,34818	856
16,35230	915
16,35642	868
16,36055	653
16,36467	730
16,36878	483
16,37292	626
16,37703	703
16,38115	825
16,38528	1052
16,38940	1014
16,39352	791
16,39765	1089
16,40177	851
16,40588	1056
16,41002	1108
16,41413	714
16,41825	705
16,42238	988
16,42650	1331
16,43062	1105
16,43473	1115
16,43887	1066
16,44298	1005
16,44710	1101
16,45123	1238
16,45535	1083
16,45947	822
16,46360	434
16,46772	1023
16,47183	851
16,47597	594
16,48008	849
16,48420	1201
16,48833	1292
16,49245	802
16,49657	874
16,50070	1112
16,50482	877
16,50893	1122
16,51307	1235
16,51718	1079
16,52130	968
16,52542	981
16,52955	1308
16,53367	1435
16,53778	1630
16,54192	2731
16,54603	2091
16,55015	3664
16,55428	3426
16,55840	4117
16,56252	4778
16,56665	5331
16,57077	4905
16,57488	4761
16,57902	5048
16,58313	3951
16,58725	4091
16,59138	3546
16,59550	2451
16,59962	2455
16,60375	2179
16,60787	1658
16,61198	1154
16,61610	1751
16,62023	1120
16,62435	1412
16,62847	1653
16,63260	1103
16,63672	1326
16,64083	894
16,64497	1119
16,64908	751
16,65320	1249
16,65733	579
16,66145	495
16,66557	778
16,66970	634
16,67382	1138
16,67793	642
16,68207	579
16,68618	1405
16,69030	1486
16,69443	3822
16,69855	7427
16,70267	16447
16,70678	29832
16,71092	54473
16,71503	93183
16,71915	154795
16,72328	241108
16,72740	358812
16,73152	505577
16,73565	669271
16,73977	852618
16,74388	1023372
16,74802	1189006
16,75213	1302036
16,75625	1381301
16,76038	1386348
16,76450	1318248
16,76862	1215910
16,77275	1066624
16,77687	902454
16,78098	743314
16,78512	600369
16,78923	487461
16,79335	383320
16,79747	306665
16,80160	242199
16,80572	200361
16,80983	163028
16,81397	133442
16,81808	111587
16,82220	92620
16,82633	79558
16,83045	69343
16,83457	59842
16,83870	53509
16,84282	47166
16,84693	42267
16,85107	36727
16,85518	32758
16,85930	30195
16,86343	29278
16,86755	24918
16,87167	24220
16,87580	20546
16,87992	20032
16,88403	18542
16,88815	16843
16,89228	14761
16,89640	14551
16,90052	14578
16,90465	13134
16,90877	12521
16,91288	10230
16,91702	11537
16,92113	10173
16,92525	8418
16,92938	9310
16,93350	7652
16,93762	7947
16,94175	7246
16,94587	6699
16,94998	6276
16,95412	5681
16,95823	5590
16,96235	5921
16,96648	5358
16,97060	5542
16,97472	5943
16,97885	4454
16,98297	4546
16,98708	4561
16,99120	3384
16,99533	3423
16,99945	3496
17,00357	2891
17,00770	3336
17,01182	3445
17,01593	2787
17,02007	3841
17,02418	2837
17,02830	2806
17,03243	3384
17,03655	2837
17,04067	2208
17,04480	3214
17,04892	2613
17,05303	2871
17,05717	2695
17,06128	2926
17,06540	2563
17,06953	2615
17,07365	1609
17,07777	2125
17,08188	2314
17,08602	2181
17,09013	2438
17,09425	1757
17,09838	1851
17,10250	1616
17,10662	1720
17,11075	1528
17,11487	1793
17,11898	1996
17,12312	1992
17,12723	1570
17,13135	1288
17,13548	968
17,13960	2041
17,14372	1927
17,14785	1677
17,15197	928
17,15608	1008
17,16022	1889
17,16433	1366
17,16845	1738
17,17257	1075
17,17670	1344
17,18082	1321
17,18493	1028
17,18907	1321
17,19318	1420
17,19730	1204
17,20143	1031
17,20555	1005
17,20967	878
17,21380	1008
17,21792	1308
17,22203	1011
17,22617	928
17,23028	1258
17,23440	1135
17,23853	1167
17,24265	1125
17,24677	1101
17,25090	900
17,25502	776
17,25913	659
17,26325	1000
17,26738	980
17,27150	1052
17,27562	1195
17,27975	765
17,28387	1162
17,28798	1030
17,29212	1032
17,29623	1062
17,30035	1064
17,30448	627
17,30860	796
17,31272	1080
17,31685	735
17,32097	924
17,32508	901
17,32922	640
17,33333	1106
17,33745	1003
17,34158	907
17,34570	1093
17,34982	1109
17,35393	1796
17,35807	783
17,36218	1081
17,36630	1549
17,37043	2021
17,37455	1808
17,37867	1752
17,38280	2264
17,38692	1912
17,39103	2639
17,39517	2398
17,39928	2118
17,40340	2149
17,40753	1486
17,41165	1838
17,41577	1594
17,41990	1122
17,42402	1593
17,42813	1474
17,43227	1374
17,43638	716
17,44050	598
17,44462	1268
17,44875	1386
17,45287	1035
17,45698	1099
17,46112	794
17,46523	847
17,46935	990
17,47348	491
17,47760	1323
17,48172	497
17,48585	829
17,48997	502
17,49408	872
17,49822	675
17,50233	653
17,50645	392
17,51058	560
17,51470	439
17,51882	585
17,52295	565
17,52707	701
17,53118	722
17,53530	869
17,53943	849
17,54355	813
17,54767	815
17,55180	707
17,55592	824
17,56003	934
17,56417	1361
17,56828	2552
17,57240	6090
17,57653	11107
17,58065	20549
17,58477	36903
17,58890	65002
17,59302	101538
17,59713	154293
17,60127	219989
17,60538	306357
17,60950	394688
17,61363	475751
17,61775	542282
17,62187	593826
17,62598	624115
17,63012	622109
17,63423	597279
17,63835	557372
17,64248	483855
17,64660	433008
17,65072	360162
17,65485	291852
17,65897	236621
17,66308	195376
17,66722	155198
17,67133	123882
17,67545	101982
17,67958	82445
17,68370	67829
17,68782	59984
17,69195	49120
17,69607	41310
17,70018	34070
17,70432	31420
17,70843	27265
17,71255	23446
17,71667	22926
17,72080	19778
17,72492	16964
17,72903	15322
17,73317	13260
17,73728	12290
17,74140	11572
17,74553	9110
17,74965	9258
17,75377	7927
17,75790	6944
17,76202	8514
17,76613	6873
17,77027	6283
17,77438	5041
17,77850	4878
17,78263	5638
17,78675	4502
17,79087	3981
17,79500	3280
17,79912	3729
17,80323	3085
17,80735	2467
17,81148	2300
17,81560	2614
17,81972	2754
17,82385	1848
17,82797	1949
17,83208	2439
17,83622	2584
17,84033	2047
17,84445	1937
17,84858	1674
17,85270	1750
17,85682	1473
17,86095	1774
17,86507	1872
17,86918	2242
17,87332	1346
17,87743	1677
17,88155	1232
17,88568	1332
17,88980	892
17,89392	1508
17,89803	1709
17,90217	1118
17,90628	1117
17,91040	2046
17,91453	1345
17,91865	1259
17,92277	1203
17,92690	1152
17,93102	1124
17,93513	963
17,93927	1186
17,94338	1723
17,94750	1546
17,95163	2477
17,95575	4666
17,95987	8796
17,96400	18944
17,96812	34028
17,97223	58043
17,97637	93732
17,98048	150520
17,98460	223057
17,98872	304867
17,99285	394919
17,99697	492583
18,00108	588665
18,00522	669480
18,00933	714851
18,01345	730378
18,01758	713475
18,02170	666142
18,02582	594626
18,02995	504273
18,03407	428181
18,03818	344287
18,04232	277550
18,04643	222194
18,05055	175369
18,05468	140455
18,05880	114282
18,06292	91845
18,06705	76579
18,07117	64307
18,07528	53568
18,07940	45279
18,08353	40259
18,08765	31895
18,09177	29462
18,09590	25399
18,10002	23156
18,10413	21848
18,10827	18789
18,11238	16480
18,11650	15343
18,12063	14517
18,12475	11545
18,12887	11274
18,13300	11409
18,13712	10329
18,14123	8405
18,14537	9688
18,14948	6859
18,15360	7019
18,15773	7609
18,16185	6188
18,16597	5479
18,17008	5267
18,17422	4837
18,17833	4602
18,18245	3772
18,18658	4054
18,19070	3784
18,19482	3599
18,19895	3604
18,20307	3534
18,20718	3668
18,21132	2904
18,21543	2709
18,21955	2890
18,22368	2204
18,22780	2650
18,23192	2430
18,23605	2560
18,24017	2082
18,24428	2485
18,24842	2162
18,25253	1985
18,25665	1790
18,26077	2283
18,26490	2385
18,26902	2087
18,27313	2092
18,27727	2304
18,28138	1464
18,28550	1725
18,28963	2154
18,29375	1578
18,29787	1553
18,30200	2089
18,30612	1738
18,31023	1605
18,31437	1599
18,31848	1345
18,32260	1908
18,32673	1757
18,33085	2276
18,33497	1930
18,33910	1569
18,34322	1906
18,34733	1508
18,35145	1922
18,35558	1582
18,35970	1885
18,36382	1248
18,36795	1292
18,37207	1450
18,37618	1499
18,38032	1932
18,38443	1591
18,38855	1300
18,39268	1575
18,39680	1468
18,40092	1176
18,40505	1736
18,40917	1247
18,41328	1676
18,41742	1560
18,42153	1307
18,42565	1121
18,42978	1224
18,43390	1256
18,43802	1280
18,44213	1165
18,44627	1350
18,45038	925
18,45450	1516
18,45863	421
18,46275	843
18,46687	1251
18,47100	456
18,47512	483
18,47923	715
18,48337	1024
18,48748	866
18,49160	1388
18,49573	1336
18,49985	401
18,50397	1016
18,50810	466
18,51222	607
18,51633	765
18,52047	405
18,52458	620
18,52870	1157
18,53283	567
18,53695	799
18,54107	645
18,54518	581
18,54932	550
18,55343	533
18,55755	686
18,56168	395
18,56580	908
18,56992	653
18,57405	444
18,57817	1197
18,58228	631
18,58642	626
18,59053	889
18,59465	568
18,59878	1187
18,60290	521
18,60702	1102
18,61115	589
18,61527	842
18,61938	508
18,62352	607
18,62763	328
18,63175	587
18,63587	549
18,64000	763
18,64412	1024
18,64823	765
18,65237	951
18,65648	769
18,66060	393
18,66473	537
18,66885	560
18,67297	368
18,67710	0
18,68122	758
18,68533	476
18,68947	270
18,69358	539
18,69770	727
18,70183	814
18,70595	575
18,71007	368
18,71420	618
18,71832	399
18,72243	656
18,72655	794
18,73068	879
18,73480	277
18,73892	655
18,74305	868
18,74717	1021
18,75128	496
18,75542	842
18,75953	1519
18,76365	1782
18,76778	1082
18,77190	1421
18,77602	1717
18,78015	1163
18,78427	1890
18,78838	1897
18,79252	1928
18,79663	2173
18,80075	2324
18,80488	3066
18,80900	5307
18,81312	9874
18,81723	22042
18,82137	41859
18,82548	69598
18,82960	110633
18,83373	171417
18,83785	246274
18,84197	333151
18,84610	431928
18,85022	518191
18,85433	598507
18,85847	655402
18,86258	687653
18,86670	683399
18,87083	652673
18,87495	591119
18,87907	530201
18,88320	451660
18,88732	381111
18,89143	310752
18,89557	251757
18,89968	202375
18,90380	158609
18,90792	129470
18,91205	105625
18,91617	85716
18,92028	68774
18,92442	58096
18,92853	49051
18,93265	42293
18,93678	36087
18,94090	30849
18,94502	27790
18,94915	23270
18,95327	19579
18,95738	21521
18,96152	17001
18,96563	15333
18,96975	13808
18,97388	12057
18,97800	11410
18,98212	10538
18,98625	9302
18,99037	7845
18,99448	8450
18,99860	7672
19,00273	6896
19,00685	6623
19,01097	5706
19,01510	5480
19,01922	5169
19,02333	4321
19,02747	4888
19,03158	4004
19,03570	4078
19,03983	3880
19,04395	3051
19,04807	2718
19,05220	3165
19,05632	2962
19,06043	2865
19,06457	2711
19,06868	2102
19,07280	3069
19,07693	2418
19,08105	1973
19,08517	1646
19,08928	2070
19,09342	1579
19,09753	1962
19,10165	1664
19,10578	2320
19,10990	1948
19,11402	1481
19,11815	1284
19,12227	1540
19,12638	2081
19,13052	1808
19,13463	1050
19,13875	1677
19,14288	1197
19,14700	1274
19,15112	1580
19,15525	2738
19,15937	5088
19,16348	11089
19,16762	21117
19,17173	42216
19,17585	74885
19,17997	132253
19,18410	210026
19,18822	319756
19,19233	470459
19,19647	657801
19,20058	892570
19,20470	1145346
19,20883	1420707
19,21295	1708673
19,21707	1990884
19,22120	2206773
19,22532	2328182
19,22943	2376876
19,23357	2282839
19,23768	2095609
19,24180	1844983
19,24593	1543612
19,25005	1258456
19,25417	1003903
19,25830	791513
19,26242	616280
19,26653	474009
19,27065	381480
19,27478	310806
19,27890	250946
19,28302	210043
19,28715	175967
19,29127	146390
19,29538	127694
19,29952	111807
19,30363	95089
19,30775	88000
19,31188	74690
19,31600	68360
19,32012	64074
19,32425	55590
19,32837	50551
19,33248	45668
19,33662	42443
19,34073	39619
19,34485	35395
19,34898	32203
19,35310	31535
19,35722	27776
19,36133	27082
19,36547	25790
19,36958	22710
19,37370	21833
19,37783	19169
19,38195	19756
19,38607	19246
19,39020	16811
19,39432	15032
19,39843	15798
19,40257	13246
19,40668	13410
19,41080	12508
19,41493	12011
19,41905	10606
19,42317	10911
19,42730	9841
19,43142	9238
19,43553	10280
19,43967	7882
19,44378	7317
19,44790	7092
19,45202	7176
19,45615	7440
19,46027	6303
19,46438	7096
19,46852	5551
19,47263	5616
19,47675	4226
19,48088	6149
19,48500	6207
19,48912	4267
19,49325	4276
19,49737	4569
19,50148	3979
19,50562	4370
19,50973	3556
19,51385	3835
19,51798	5185
19,52210	3617
19,52622	3983
19,53035	3323
19,53447	3499
19,53858	2783
19,54270	2811
19,54683	3098
19,55095	3443
19,55507	2496
19,55920	2334
19,56332	2667
19,56743	2491
19,57157	2690
19,57568	2675
19,57980	1901
19,58393	2393
19,58805	2235
19,59217	2046
19,59630	2413
19,60042	2058
19,60453	2121
19,60867	2161
19,61278	1761
19,61690	1962
19,62103	1938
19,62515	1703
19,62927	1606
19,63338	1547
19,63752	2027
19,64163	1866
19,64575	1856
19,64988	2302
19,65400	2659
19,65812	2307
19,66225	2233
19,66637	2157
19,67048	2030
19,67462	2022
19,67873	1866
19,68285	2634
19,68698	1820
19,69110	1325
19,69522	2160
19,69935	2100
19,70347	1210
19,70758	1214
19,71172	1386
19,71583	1632
19,71995	1462
19,72407	1317
19,72820	1406
19,73232	1917
19,73643	1929
19,74057	1622
19,74468	1703
19,74880	1619
19,75293	1369
19,75705	1440
19,76117	2331
19,76530	3324
19,76942	3881
19,77353	5604
19,77767	5631
19,78178	6658
19,78590	7706
19,79003	8335
19,79415	10203
19,79827	12157
19,80240	10987
19,80652	10717
19,81063	9456
19,81475	10065
19,81888	9155
19,82300	8036
19,82712	7370
19,83125	7071
19,83537	9120
19,83948	10837
19,84362	17926
19,84773	30419
19,85185	50611
19,85598	81456
19,86010	125450
19,86422	187204
19,86835	267645
19,87247	358122
19,87658	458244
19,88072	550971
19,88483	642512
19,88895	700737
19,89308	720209
19,89720	723161
19,90132	676382
19,90543	606569
19,90957	531508
19,91368	445737
19,91780	371124
19,92193	306947
19,92605	247363
19,93017	204468
19,93430	161515
19,93842	126021
19,94253	105528
19,94667	83733
19,95078	71688
19,95490	61852
19,95903	51445
19,96315	44742
19,96727	38979
19,97140	34884
19,97552	29780
19,97963	25494
19,98377	22131
19,98788	19816
19,99200	18911
19,99612	17565
20,00025	16799
20,00437	14017
20,00848	12712
20,01262	13007
20,01673	13402
20,02085	11717
20,02498	11439
20,02910	11187
20,03322	11659
20,03735	11399
20,04147	13295
20,04558	14124
20,04972	13280
20,05383	12308
20,05795	13370
20,06208	12370
20,06620	10624
20,07032	9018
20,07445	7110
20,07857	6829
20,08268	6214
20,08682	4673
20,09093	5418
20,09505	4701
20,09917	4163
20,10330	4136
20,10742	3812
20,11153	3737
20,11567	4743
20,11978	3556
20,12390	3828
20,12803	3386
20,13215	3499
20,13627	3879
20,14040	3416
20,14452	1758
20,14863	2861
20,15277	1954
20,15688	2196
20,16100	1713
20,16513	1996
20,16925	2641
20,17337	2013
20,17750	2741
20,18162	1639
20,18573	1309
20,18985	1606
20,19398	1818
20,19810	1432
20,20222	1557
20,20635	1422
20,21047	1323
20,21458	1884
20,21872	1503
20,22283	1126
20,22695	1372
20,23108	953
20,23520	1139
20,23932	1597
20,24345	1396
20,24757	1143
20,25168	1387
20,25582	1835
20,25993	757
20,26405	1526
20,26818	1187
20,27230	1421
20,27642	1265
20,28053	1272
20,28467	1406
20,28878	1016
20,29290	1082
20,29703	875
20,30115	1930
20,30527	1241
20,30940	2445
20,31352	4300
20,31763	8238
20,32177	15384
20,32588	29065
20,33000	52583
20,33413	86621
20,33825	134719
20,34237	203315
20,34650	291751
20,35062	400975
20,35473	512680
20,35887	625844
20,36298	728254
20,36710	789423
20,37122	821383
20,37535	816609
20,37947	767569
20,38358	692853
20,38772	606755
20,39183	504096
20,39595	416150
20,40008	336921
20,40420	263899
20,40832	211019
20,41245	165394
20,41657	132984
20,42068	108959
20,42482	90697
20,42893	72953
20,43305	64577
20,43718	53584
20,44130	45588
20,44542	39018
20,44955	37703
20,45367	30636
20,45778	27807
20,46190	24766
20,46603	22099
20,47015	20419
20,47427	18719
20,47840	16689
20,48252	15718
20,48663	14665
20,49077	13333
20,49488	14266
20,49900	12561
20,50313	11939
20,50725	11047
20,51137	11255
20,51550	9374
20,51962	8368
20,52373	9970
20,52787	8973
20,53198	8937
20,53610	7721
20,54023	6615
20,54435	6613
20,54847	5862
20,55258	6017
20,55672	4480
20,56083	5349
20,56495	4046
20,56908	4364
20,57320	3940
20,57732	4588
20,58145	3214
20,58557	3656
20,58968	3496
20,59382	4008
20,59793	2782
20,60205	2775
20,60618	2709
20,61030	2097
20,61442	2176
20,61855	1971
20,62267	1467
20,62678	2695
20,63092	1920
20,63503	2418
20,63915	1600
20,64327	1912
20,64740	2282
20,65152	1875
20,65563	1423
20,65977	1330
20,66388	1188
20,66800	1391
20,67213	2058
20,67625	1804
20,68037	742
20,68450	1364
20,68862	1451
20,69273	1876
20,69687	1720
20,70098	2257
20,70510	1769
20,70923	1556
20,71335	1621
20,71747	2209
20,72160	1711
20,72572	1778
20,72983	1171
20,73395	1257
20,73808	835
20,74220	1818
20,74632	1144
20,75045	1138
20,75457	1907
20,75868	1091
20,76282	1327
20,76693	1269
20,77105	1291
20,77518	923
20,77930	605
20,78342	1089
20,78755	1896
20,79167	1540
20,79578	1185
20,79992	1001
20,80403	1048
20,80815	1086
20,81228	1474
20,81640	1773
20,82052	592
20,82463	1389
20,82877	1565
20,83288	1178
20,83700	352
20,84113	713
20,84525	565
20,84937	1221
20,85350	902
20,85762	748
20,86173	690
20,86587	347
20,86998	697
20,87410	671
20,87823	835
20,88235	1090
20,88647	735
20,89060	1376
20,89472	1065
20,89883	1280
20,90297	1283
20,90708	1578
20,91120	1394
20,91532	1598
20,91945	725
20,92357	679
20,92768	1512
20,93182	595
20,93593	819
20,94005	1371
20,94418	830
20,94830	797
20,95242	1141
20,95655	1270
20,96067	1458
20,96478	2275
20,96892	3217
20,97303	7242
20,97715	13208
20,98128	26780
20,98540	48516
20,98952	81452
20,99365	130689
20,99777	200264
21,00188	282298
21,00600	384274
21,01013	494129
21,01425	578548
21,01837	672486
21,02250	735908
21,02662	771318
21,03073	766824
21,03487	727148
21,03898	668622
21,04310	585408
21,04723	508793
21,05135	417632
21,05547	335433
21,05960	270904
21,06372	219394
21,06783	175378
21,07197	142936
21,07608	111873
21,08020	91778
21,08433	81641
21,08845	64079
21,09257	56390
21,09668	46619
21,10082	41938
21,10493	35592
21,10905	32485
21,11318	29794
21,11730	25713
21,12142	23652
21,12555	22142
21,12967	22226
21,13378	21597
21,13792	21062
21,14203	23314
21,14615	25075
21,15028	27194
21,15440	27886
21,15852	29926
21,16265	29461
21,16677	27883
21,17088	27295
21,17502	25187
21,17913	25000
21,18325	20988
21,18737	19996
21,19150	17754
21,19562	15777
21,19973	13833
21,20387	12165
21,20798	10575
21,21210	8738
21,21623	8117
21,22035	8086
21,22447	6505
21,22860	6327
21,23272	5191
21,23683	5023
21,24097	5345
21,24508	5831
21,24920	4085
21,25333	3752
21,25745	2754
21,26157	3695
21,26570	2945
21,26982	3413
21,27393	2852
21,27805	2290
21,28218	2839
21,28630	3036
21,29042	2478
21,29455	2037
21,29867	2003
21,30278	1775
21,30692	1793
21,31103	2125
21,31515	1874
21,31928	1261
21,32340	1847
21,32752	2188
21,33165	2556
21,33577	2442
21,33988	1451
21,34402	2258
21,34813	1778
21,35225	1877
21,35638	1610
21,36050	2121
21,36462	1188
21,36873	1959
21,37287	1774
21,37698	1683
21,38110	1313
21,38523	1227
21,38935	455
21,39347	2017
21,39760	1734
21,40172	1159
21,40583	1722
21,40997	1581
21,41408	1741
21,41820	3403
21,42233	5436
21,42645	8246
21,43057	16064
21,43470	32124
21,43882	54792
21,44293	93936
21,44707	148890
21,45118	228443
21,45530	339967
21,45942	483254
21,46355	640269
21,46767	837322
21,47178	1043054
21,47592	1262487
21,48003	1439188
21,48415	1581360
21,48828	1675501
21,49240	1700874
21,49652	1644213
21,50065	1510219
21,50477	1319586
21,50888	1124526
21,51302	912572
21,51713	724381
21,52125	573244
21,52538	450341
21,52950	357890
21,53362	283995
21,53775	232051
21,54187	189864
21,54598	155126
21,55010	133340
21,55423	112161
21,55835	97910
21,56247	86356
21,56660	73677
21,57072	66118
21,57483	60651
21,57897	54298
21,58308	50203
21,58720	43258
21,59133	38887
21,59545	34811
21,59957	35327
21,60370	30936
21,60782	28703
21,61193	27057
21,61607	25881
21,62018	23465
21,62430	21437
21,62843	19972
21,63255	17956
21,63667	17211
21,64078	16989
21,64492	16104
21,64903	15807
21,65315	12596
21,65728	12016
21,66140	11879
21,66552	11679
21,66965	10897
21,67377	10014
21,67788	8590
21,68202	8877
21,68613	8594
21,69025	8272
21,69438	7885
21,69850	7582
21,70262	6927
21,70675	6894
21,71087	7135
21,71498	6593
21,71912	5976
21,72323	5190
21,72735	6480
21,73147	5527
21,73560	5401
21,73972	5267
21,74383	5502
21,74797	5567
21,75208	4886
21,75620	4445
21,76033	5104
21,76445	4456
21,76857	4661
21,77270	4483
21,77682	3835
21,78093	4521
21,78507	5695
21,78918	8552
21,79330	16686
21,79743	25762
21,80155	41902
21,80567	71663
21,80980	117713
21,81392	175462
21,81803	251577
21,82217	346321
21,82628	434703
21,83040	540898
21,83452	638307
21,83865	715068
21,84277	771145
21,84688	792734
21,85102	778790
21,85513	725941
21,85925	656766
21,86338	585157
21,86750	493627
21,87162	408651
21,87575	333060
21,87987	267156
21,88398	214901
21,88812	176481
21,89223	143675
21,89635	115814
21,90048	97625
21,90460	78404
21,90872	69690
21,91285	58683
21,91697	50978
21,92108	44106
21,92520	40080
21,92933	35272
21,93345	32557
21,93757	28120
21,94170	26634
21,94582	23698
21,94993	22555
21,95407	19887
21,95818	18363
21,96230	17719
21,96643	17603
21,97055	21402
21,97467	26631
21,97880	41216
21,98292	64538
21,98703	100392
21,99117	152992
21,99528	236972
21,99940	346402
22,00353	479736
22,00765	650613
22,01177	836396
22,01588	1051942
22,02002	1249657
22,02413	1442835
22,02825	1574864
22,03238	1625350
22,03650	1590300
22,04062	1513289
22,04475	1344125
22,04887	1154181
22,05298	972571
22,05712	790483
22,06123	645012
22,06535	506016
22,06948	405519
22,07360	331328
22,07772	267234
22,08185	215050
22,08597	183115
22,09008	151931
22,09422	129725
22,09833	111400
22,10245	97793
22,10657	87442
22,11070	78296
22,11482	69261
22,11893	61356
22,12307	55587
22,12718	50939
22,13130	46447
22,13543	42023
22,13955	39020
22,14367	36692
22,14780	33582
22,15192	31419
22,15603	29234
22,16017	25434
22,16428	25203
22,16840	22380
22,17253	21454
22,17665	20890
22,18077	19988
22,18490	17855
22,18902	16541
22,19313	15461
22,19725	14695
22,20138	15006
22,20550	12922
22,20962	11282
22,21375	12975
22,21787	12164
22,22198	11584
22,22612	10128
22,23023	10650
22,23435	9493
22,23848	11383
22,24260	6752
22,24672	7520
22,25085	7919
22,25497	8042
22,25908	7299
22,26322	7209
22,26733	7496
22,27145	7091
22,27558	6514
22,27970	5557
22,28382	5776
22,28793	5899
22,29207	5414
22,29618	5507
22,30030	5922
22,30443	5951
22,30855	4878
22,31267	5858
22,31680	7828
22,32092	6744
22,32503	9567
22,32917	7469
22,33328	7076
22,33740	6383
22,34153	4927
22,34565	3964
22,34977	4197
22,35390	4673
22,35802	2927
22,36213	3355
22,36627	4104
22,37038	2036
22,37450	3354
22,37862	3333
22,38275	3607
22,38687	3793
22,39098	3809
22,39512	4747
22,39923	5146
22,40335	6976
22,40748	8382
22,41160	14102
22,41572	25439
22,41985	44152
22,42397	71569
22,42808	117576
22,43222	176364
22,43633	259794
22,44045	351372
22,44458	453061
22,44870	555878
22,45282	645468
22,45695	704681
22,46107	744253
22,46518	724275
22,46930	686945
22,47343	628470
22,47755	551800
22,48167	468481
22,48580	392069
22,48992	318883
22,49403	258042
22,49817	207068
22,50228	167179
22,50640	138002
22,51053	111508
22,51465	93126
22,51877	79032
22,52290	68257
22,52702	58781
22,53113	51826
22,53527	46120
22,53938	40905
22,54350	36894
22,54763	33102
22,55175	31022
22,55587	25297
22,55998	24505
22,56412	21705
22,56823	20324
22,57235	18365
22,57648	17728
22,58060	15487
22,58472	15095
22,58885	13576
22,59297	12830
22,59708	11541
22,60122	11038
22,60533	9273
22,60945	9556
22,61358	10249
22,61770	7491
22,62182	8725
22,62595	8310
22,63007	7743
22,63418	6494
22,63832	6853
22,64243	6857
22,64655	7468
22,65067	7663
22,65480	7324
22,65892	4937
22,66303	7202
22,66717	7165
22,67128	5397
22,67540	6575
22,67953	6062
22,68365	5505
22,68777	6306
22,69190	6316
22,69602	6582
22,70013	5378
22,70427	5782
22,70838	6024
22,71250	4778
22,71663	5043
22,72075	5293
22,72487	6039
22,72900	5513
22,73312	6021
22,73723	6047
22,74135	5759
22,74548	6074
22,74960	5753
22,75372	6234
22,75785	5230
22,76197	4502
22,76608	4578
22,77022	4794
22,77433	4610
22,77845	5286
22,78258	3220
22,78670	4051
22,79082	3689
22,79495	4427
22,79907	3175
22,80318	3130
22,80732	3912
22,81143	4482
22,81555	4436
22,81968	5039
22,82380	6524
22,82792	11299
22,83203	16049
22,83617	29703
22,84028	49555
22,84440	83039
22,84853	131089
22,85265	195214
22,85677	274952
22,86090	369218
22,86502	464148
22,86913	551760
22,87327	628881
22,87738	674971
22,88150	688514
22,88563	677164
22,88975	638029
22,89387	585616
22,89800	509425
22,90212	422042
22,90623	354621
22,91037	289776
22,91448	233122
22,91860	188949
22,92272	153801
22,92685	125374
22,93097	102379
22,93508	84265
22,93922	71390
22,94333	61399
22,94745	51959
22,95158	45324
22,95570	39662
22,95982	34779
22,96395	31198
22,96807	27011
22,97218	24596
22,97632	22786
22,98043	21865
22,98455	20380
22,98868	18714
22,99280	17685
22,99692	15373
23,00105	14842
23,00517	13596
23,00928	13454
23,01340	11766
23,01753	10269
23,02165	10796
23,02577	10254
23,02990	8822
23,03402	9038
23,03813	9506
23,04227	9914
23,04638	8131
23,05050	7226
23,05463	7719
23,05875	8237
23,06287	7422
23,06700	6942
23,07112	7550
23,07523	6065
23,07937	7453
23,08348	5677
23,08760	4949
23,09173	4528
23,09585	6100
23,09997	4978
23,10408	4613
23,10822	4617
23,11233	4678
23,11645	4608
23,12058	4567
23,12470	4829
23,12882	4845
23,13295	4035
23,13707	2860
23,14118	3392
23,14532	3411
23,14943	2636
23,15355	3292
23,15768	2483
23,16180	3713
23,16592	3400
23,17005	3137
23,17417	3113
23,17828	2868
23,18242	3318
23,18653	2962
23,19065	2850
23,19477	2747
23,19890	2292
23,20302	2306
23,20713	1733
23,21127	1597
23,21538	2955
23,21950	1799
23,22363	2198
23,22775	2301
23,23187	2285
23,23600	2375
23,24012	2536
23,24423	2611
23,24837	2965
23,25248	2678
23,25660	1588
23,26073	1575
23,26485	1566
23,26897	2176
23,27310	2479
23,27722	2489
23,28133	3061
23,28545	2626
23,28958	2132
23,29370	3246
23,29782	2656
23,30195	2578
23,30607	2057
23,31018	2279
23,31432	3288
23,31843	2975
23,32255	2579
23,32668	2030
23,33080	2293
23,33492	2012
23,33905	2383
23,34317	2163
23,34728	1352
23,35142	1791
23,35553	1638
23,35965	1589
23,36378	1318
23,36790	2340
23,37202	2025
23,37613	1507
23,38027	1822
23,38438	1847
23,38850	905
23,39263	1170
23,39675	1862
23,40087	1524
23,40500	2103
23,40912	1227
23,41323	1423
23,41737	2833
23,42148	5065
23,42560	7704
23,42973	15604
23,43385	27071
23,43797	46854
23,44210	76207
23,44622	117597
23,45033	173340
23,45447	244776
23,45858	317963
23,46270	398491
23,46683	488857
23,47095	551392
23,47507	596302
23,47918	618060
23,48332	607623
23,48743	572246
23,49155	520211
23,49568	457594
23,49980	392339
23,50392	336003
23,50805	293761
23,51217	265225
23,51628	259499
23,52042	272657
23,52453	317459
23,52865	392024
23,53278	497033
23,53690	634709
23,54102	791139
23,54515	970551
23,54927	1146116
23,55338	1337602
23,55752	1514906
23,56163	1622225
23,56575	1650144
23,56987	1638894
23,57400	1522516
23,57812	1347140
23,58223	1147788
23,58637	942136
23,59048	767204
23,59460	615092
23,59873	497184
23,60285	402309
23,60697	328973
23,61110	273317
23,61522	226821
23,61933	194623
23,62347	165128
23,62758	147551
23,63170	123919
23,63583	108009
23,63995	100510
23,64407	88557
23,64820	78612
23,65232	72176
23,65643	64507
23,66055	60440
23,66468	55085
23,66880	50827
23,67292	46597
23,67705	45134
23,68117	40674
23,68528	38482
23,68942	36165
23,69353	34481
23,69765	29958
23,70178	29423
23,70590	25391
23,71002	26277
23,71415	25283
23,71827	22920
23,72238	23087
23,72652	19133
23,73063	19129
23,73475	18737
23,73888	18157
23,74300	17663
23,74712	14924
23,75123	15798
23,75537	15454
23,75948	14508
23,76360	12883
23,76773	13112
23,77185	11564
23,77597	11149
23,78010	13199
23,78422	12458
23,78833	11785
23,79247	11570
23,79658	10687
23,80070	11548
23,80483	14594
23,80895	19024
23,81307	27249
23,81720	37360
23,82132	57248
23,82543	88013
23,82957	132914
23,83368	195023
23,83780	265967
23,84192	341596
23,84605	420452
23,85017	495835
23,85428	552486
23,85842	585405
23,86253	601142
23,86665	579704
23,87078	538786
23,87490	475015
23,87902	414760
23,88315	343524
23,88727	293833
23,89138	236255
23,89552	195187
23,89963	155706
23,90375	130342
23,90788	106438
23,91200	88031
23,91612	77562
23,92025	65186
23,92437	55791
23,92848	47980
23,93260	40640
23,93673	37447
23,94085	35099
23,94497	31174
23,94910	28865
23,95322	25943
23,95733	24428
23,96147	20470
23,96558	20993
23,96970	20126
23,97383	17365
23,97795	16324
23,98207	16923
23,98620	15681
23,99032	14967
23,99443	14693
23,99857	12661
24,00268	14823
24,00680	14658
24,01093	17905
24,01505	20384
24,01917	28385
24,02328	42063
24,02742	65625
24,03153	102224
24,03565	153852
24,03978	214890
24,04390	301810
24,04802	393749
24,05215	494733
24,05627	586823
24,06038	673624
24,06452	734575
24,06863	753768
24,07275	752167
24,07688	696358
24,08100	638493
24,08512	558617
24,08925	464325
24,09337	390563
24,09748	321056
24,10162	262588
24,10573	214822
24,10985	171850
24,11397	141394
24,11810	114202
24,12222	102445
24,12633	87887
24,13047	74534
24,13458	63700
24,13870	55892
24,14283	51608
24,14695	45918
24,15107	42937
24,15520	38659
24,15932	35801
24,16343	33189
24,16757	32060
24,17168	30132
24,17580	27249
24,17993	25820
24,18405	24075
24,18817	23292
24,19230	21594
24,19642	21031
24,20053	19468
24,20465	19368
24,20878	17224
24,21290	14642
24,21702	14507
24,22115	15125
24,22527	11813
24,22938	12066
24,23352	11200
24,23763	11851
24,24175	12175
24,24588	9989
24,25000	9005
24,25412	8962
24,25825	9291
24,26237	7878
24,26648	8065
24,27062	8175
24,27473	7015
24,27885	8885
24,28298	6604
24,28710	7150
24,29122	7043
24,29533	6634
24,29947	6344
24,30358	5792
24,30770	6956
24,31183	7095
24,31595	6353
24,32007	5828
24,32420	5976
24,32832	5831
24,33243	6017
24,33657	5251
24,34068	5447
24,34480	5700
24,34893	6266
24,35305	5439
24,35717	5388
24,36130	4907
24,36542	5421
24,36953	4775
24,37367	4828
24,37778	5184
24,38190	3786
24,38602	4863
24,39015	4943
24,39427	4892
24,39838	4275
24,40252	3813
24,40663	4505
24,41075	3035
24,41488	4287
24,41900	3636
24,42312	4207
24,42725	3401
24,43137	4455
24,43548	4587
24,43962	4771
24,44373	4654
24,44785	6341
24,45198	7165
24,45610	6842
24,46022	7503
24,46435	7849
24,46847	7871
24,47258	9062
24,47670	12815
24,48083	20137
24,48495	31888
24,48907	52197
24,49320	84252
24,49732	132107
24,50143	200097
24,50557	283034
24,50968	384024
24,51380	496014
24,51793	608972
24,52205	696570
24,52617	766902
24,53030	795463
24,53442	794826
24,53853	740661
24,54267	672770
24,54678	581417
24,55090	492377
24,55503	401986
24,55915	331216
24,56327	264958
24,56738	216570
24,57152	177879
24,57563	145374
24,57975	119825
24,58388	103496
24,58800	90247
24,59212	78202
24,59625	67416
24,60037	60506
24,60448	51503
24,60862	48750
24,61273	44448
24,61685	40317
24,62098	37305
24,62510	34805
24,62922	31328
24,63335	29487
24,63747	27309
24,64158	25307
24,64572	25559
24,64983	23535
24,65395	23078
24,65807	19870
24,66220	21631
24,66632	18980
24,67043	19028
24,67457	18220
24,67868	16918
24,68280	16324
24,68693	16593
24,69105	15364
24,69517	13778
24,69930	13864
24,70342	13130
24,70753	12512
24,71167	12038
24,71578	12489
24,71990	10896
24,72403	9933
24,72815	10069
24,73227	10346
24,73640	8194
24,74052	9512
24,74463	8558
24,74875	8745
24,75288	9847
24,75700	10320
24,76112	7626
24,76525	9613
24,76937	8312
24,77348	7494
24,77762	7133
24,78173	7251
24,78585	7412
24,78998	6610
24,79410	7133
24,79822	7173
24,80235	6359
24,80647	6554
24,81058	7969
24,81472	8209
24,81883	9640
24,82295	10538
24,82708	17485
24,83120	30187
24,83532	46489
24,83943	72189
24,84357	114093
24,84768	172585
24,85180	238605
24,85593	334712
24,86005	416222
24,86417	499857
24,86830	579537
24,87242	633468
24,87653	662586
24,88067	655105
24,88478	620993
24,88890	550724
24,89303	483577
24,89715	412972
24,90127	339206
24,90540	280386
24,90952	232855
24,91363	189476
24,91777	156626
24,92188	125999
24,92600	108506
24,93012	92173
24,93425	80702
24,93837	66160
24,94248	59639
24,94662	53842
24,95073	45616
24,95485	41841
24,95898	37338
24,96310	34954
24,96722	33026
24,97135	31050
24,97547	27396
24,97958	25676
24,98372	23048
24,98783	23027
24,99195	20968
24,99608	19940
25,00020	18776
25,00432	16595
25,00845	15593
25,01257	15880
25,01668	14592
25,02080	14359
25,02493	13184
25,02905	12807
25,03317	13645
25,03730	12244
25,04142	12110
25,04553	12017
25,04967	11034
25,05378	10902
25,05790	10307
25,06203	9245
25,06615	9351
25,07027	9674
25,07440	8593
25,07852	8980
25,08263	8090
25,08677	9004
25,09088	7251
25,09500	7243
25,09913	7420
25,10325	6981
25,10737	7320
25,11150	8403
25,11562	8216
25,11973	6899
25,12385	6439
25,12798	6985
25,13210	6501
25,13622	6850
25,14035	4858
25,14447	5885
25,14858	6740
25,15272	6106
25,15683	5679
25,16095	6092
25,16508	6833
25,16920	6204
25,17332	5261
25,17745	4772
25,18157	5701
25,18568	5734
25,18982	5044
25,19393	5448
25,19805	4837
25,20218	4800
25,20630	4891
25,21042	5629
25,21453	6327
25,21867	6202
25,22278	6101
25,22690	6111
25,23103	7493
25,23515	7690
25,23927	7733
25,24340	6612
25,24752	6672
25,25163	5507
25,25577	6897
25,25988	7389
25,26400	7101
25,26813	5805
25,27225	6597
25,27637	6227
25,28050	6029
25,28462	5935
25,28873	5013
25,29287	5048
25,29698	5049
25,30110	5648
25,30522	4525
25,30935	4687
25,31347	5162
25,31758	4851
25,32172	3625
25,32583	4154
25,32995	5247
25,33408	3763
25,33820	3582
25,34232	5008
25,34645	4622
25,35057	3645
25,35468	4213
25,35882	5518
25,36293	4319
25,36705	4044
25,37118	5375
25,37530	6068
25,37942	7397
25,38355	9808
25,38767	14871
25,39178	22651
25,39590	37177
25,40003	56350
25,40415	89399
25,40827	134859
25,41240	193679
25,41652	268906
25,42063	345404
25,42477	439615
25,42888	521988
25,43300	606078
25,43713	685395
25,44125	740149
25,44537	781911
25,44950	828913
25,45362	891840
25,45773	964775
25,46187	1052648
25,46598	1163541
25,47010	1277146
25,47423	1402967
25,47835	1523287
25,48247	1634047
25,48658	1685880
25,49072	1651928
25,49483	1521110
25,49895	1364142
25,50308	1174118
25,50720	974502
25,51132	787118
25,51545	645667
25,51957	515032
25,52368	428278
25,52782	344847
25,53193	290486
25,53605	249352
25,54018	216195
25,54430	185824
25,54842	160803
25,55255	144656
25,55667	129852
25,56078	120162
25,56492	105374
25,56903	96691
25,57315	91422
25,57727	83997
25,58140	78629
25,58552	73413
25,58963	66056
25,59377	62663
25,59788	59191
25,60200	56646
25,60613	53668
25,61025	47921
25,61437	47345
25,61850	45396
25,62262	41624
25,62673	41189
25,63087	36968
25,63498	37081
25,63910	34297
25,64323	32083
25,64735	32033
25,65147	29371
25,65560	29808
25,65972	26018
25,66383	26171
25,66795	24003
25,67208	27074
25,67620	23456
25,68032	23173
25,68445	22776
25,68857	21920
25,69268	20114
25,69682	20283
25,70093	19478
25,70505	17825
25,70918	18559
25,71330	17314
25,71742	17037
25,72155	16366
25,72567	16940
25,72978	18673
25,73392	20035
25,73803	19983
25,74215	24877
25,74628	33567
25,75040	45385
25,75452	67884
25,75863	99351
25,76277	145624
25,76688	202337
25,77100	276725
25,77513	357618
25,77925	441518
25,78337	503934
25,78750	562875
25,79162	587225
25,79573	585269
25,79987	575371
25,80398	527989
25,80810	479180
25,81223	437336
25,81635	400996
25,82047	374138
25,82460	367013
25,82872	378564
25,83283	410997
25,83697	444188
25,84108	503743
25,84520	543164
25,84932	578836
25,85345	585643
25,85757	584024
25,86168	557870
25,86582	522856
25,86993	455587
25,87405	402964
25,87818	343053
25,88230	294560
25,88642	243721
25,89055	201285
25,89467	170995
25,89878	143652
25,90292	128526
25,90703	113195
25,91115	102706
25,91528	108030
25,91940	115113
25,92352	137925
25,92765	170577
25,93177	218270
25,93588	285809
25,94000	370431
25,94413	456643
25,94825	546259
25,95237	629608
25,95650	696560
25,96062	740914
25,96473	748053
25,96887	716037
25,97298	654327
25,97710	585274
25,98123	506259
25,98535	431542
25,98947	356349
25,99360	296222
25,99772	243650
26,00183	205662
26,00597	172309
26,01008	152952
26,01420	130156
26,01833	117064
26,02245	100379
26,02657	91509
26,03068	81469
26,03482	70274
26,03893	66867
26,04305	62208
26,04718	56956
26,05130	52547
26,05542	50842
26,05955	45420
26,06367	43268
26,06778	42209
26,07192	39821
26,07603	38193
26,08015	35493
26,08428	33057
26,08840	29913
26,09252	27662
26,09665	26194
26,10077	29328
26,10488	25345
26,10902	23655
26,11313	24029
26,11725	24163
26,12137	21670
26,12550	19450
26,12962	20358
26,13373	20693
26,13787	19363
26,14198	18282
26,14610	17682
26,15023	17053
26,15435	14891
26,15847	17025
26,16260	16335
26,16672	16604
26,17083	17092
26,17497	16452
26,17908	17860
26,18320	18117
26,18733	18880
26,19145	17475
26,19557	15371
26,19970	17042
26,20382	12847
26,20793	13536
26,21205	14479
26,21618	14334
26,22030	13437
26,22442	12529
26,22855	12228
26,23267	12640
26,23678	11897
26,24092	12589
26,24503	11666
26,24915	12125
26,25328	10413
26,25740	10941
26,26152	10376
26,26565	9875
26,26977	9897
26,27388	9994
26,27802	9693
26,28213	8588
26,28625	9645
26,29038	8968
26,29450	10580
26,29862	9008
26,30273	8588
26,30687	10684
26,31098	10038
26,31510	10830
26,31923	12778
26,32335	15855
26,32747	23399
26,33160	34133
26,33572	49979
26,33983	76053
26,34397	114300
26,34808	162657
26,35220	235871
26,35633	320487
26,36045	413660
26,36457	517865
26,36870	622699
26,37282	696076
26,37693	754507
26,38107	774137
26,38518	759657
26,38930	697996
26,39342	625428
26,39755	539357
26,40167	450523
26,40578	376133
26,40992	310496
26,41403	261214
26,41815	214224
26,42228	182352
26,42640	155334
26,43052	133070
26,43465	115952
26,43877	101536
26,44288	93086
26,44702	83272
26,45113	76022
26,45525	64987
26,45938	63617
26,46350	62328
26,46762	56927
26,47175	53346
26,47587	53568
26,47998	52214
26,48410	47037
26,48823	45234
26,49235	43203
26,49647	41433
26,50060	38656
26,50472	39336
26,50883	38922
26,51297	34439
26,51708	36244
26,52120	32923
26,52533	31572
26,52945	30932
26,53357	29005
26,53770	26330
26,54182	27315
26,54593	23763
26,55007	23795
26,55418	22670
26,55830	20646
26,56243	22411
26,56655	19249
26,57067	20815
26,57478	18835
26,57892	17223
26,58303	16759
26,58715	16668
26,59128	17062
26,59540	16092
26,59952	16134
26,60365	15609
26,60777	14935
26,61188	15785
26,61602	15844
26,62013	13151
26,62425	13722
26,62838	14446
26,63250	13815
26,63662	15052
26,64075	14016
26,64487	11955
26,64898	13769
26,65312	13097
26,65723	13728
26,66135	13668
26,66547	16539
26,66960	19362
26,67372	26333
26,67783	38987
26,68197	57254
26,68608	85710
26,69020	123189
26,69433	179003
26,69845	245737
26,70257	326635
26,70670	401592
26,71082	483882
26,71493	551362
26,71907	601013
26,72318	616233
26,72730	605270
26,73143	570961
26,73555	520250
26,73967	468061
26,74380	400404
26,74792	352110
26,75203	324165
26,75617	300173
26,76028	301613
26,76440	314380
26,76852	347440
26,77265	383155
26,77677	428057
26,78088	472230
26,78502	505724
26,78913	523414
26,79325	525113
26,79738	514838
26,80150	478485
26,80562	434394
26,80975	381901
26,81387	330259
26,81798	278582
26,82212	231527
26,82623	196469
26,83035	163483
26,83448	139190
26,83860	119080
26,84272	105560
26,84685	90262
26,85097	81207
26,85508	71894
26,85920	66207
26,86333	59390
26,86745	55009
26,87157	50296
26,87570	45161
26,87982	44452
26,88393	39431
26,88807	35668
26,89218	35750
26,89630	33569
26,90043	31812
26,90455	29441
26,90867	29700
26,91280	28519
26,91692	26305
26,92103	25368
26,92517	24056
26,92928	22802
26,93340	23692
26,93753	22547
26,94165	23043
26,94577	20433
26,94988	19568
26,95402	21485
26,95813	18540
26,96225	19414
26,96638	18019
26,97050	18166
26,97462	17138
26,97875	17266
26,98287	18215
26,98698	16957
26,99112	16901
26,99523	15063
26,99935	16412
27,00348	15363
27,00760	14896
27,01172	13761
27,01585	15440
27,01997	14230
27,02408	14105
27,02822	13451
27,03233	14440
27,03645	13960
27,04057	14287
27,04470	14563
27,04882	13558
27,05293	12848
27,05707	14154
27,06118	13893
27,06530	12313
27,06943	11361
27,07355	12981
27,07767	11955
27,08180	11191
27,08592	11000
27,09003	11567
27,09417	11103
27,09828	12124
27,10240	11988
27,10653	11863
27,11065	10958
27,11477	12248
27,11890	11103
27,12302	11796
27,12713	12533
27,13125	11513
27,13538	10997
27,13950	13172
27,14362	11415
27,14775	12164
27,15187	12041
27,15598	11850
27,16012	12387
27,16423	11342
27,16835	10206
27,17248	11553
27,17660	10845
27,18072	11718
27,18485	11827
27,18897	11551
27,19308	11480
27,19722	14422
27,20133	14985
27,20545	22318
27,20958	30069
27,21370	41657
27,21782	61635
27,22193	89848
27,22607	132978
27,23018	191732
27,23430	268159
27,23843	366131
27,24255	478697
27,24667	625235
27,25080	775371
27,25492	942515
27,25903	1113982
27,26317	1273244
27,26728	1398333
27,27140	1491920
27,27553	1518284
27,27965	1459601
27,28377	1323739
27,28790	1150406
27,29202	968806
27,29613	790027
27,30027	642556
27,30438	528083
27,30850	433130
27,31262	365217
27,31675	309669
27,32087	264555
27,32498	232417
27,32912	202402
27,33323	179609
27,33735	159031
27,34148	147419
27,34560	129940
27,34972	120814
27,35385	110859
27,35797	107648
27,36208	97028
27,36622	88097
27,37033	82314
27,37445	78525
27,37858	76052
27,38270	72080
27,38682	69529
27,39095	62467
27,39507	60161
27,39918	58648
27,40330	56390
27,40743	50385
27,41155	50969
27,41567	47217
27,41980	46766
27,42392	44994
27,42803	45144
27,43217	40605
27,43628	41015
27,44040	39746
27,44453	38803
27,44865	36727
27,45277	35629
27,45690	35326
27,46102	36274
27,46513	33506
27,46927	31327
27,47338	31088
27,47750	30791
27,48163	29806
27,48575	27887
27,48987	28861
27,49398	26003
27,49812	28898
27,50223	25819
27,50635	25752
27,51048	24034
27,51460	24162
27,51872	23313
27,52285	24501
27,52697	22607
27,53108	23644
27,53522	23843
27,53933	21930
27,54345	25306
27,54758	24114
27,55170	24613
27,55582	23834
27,55995	22466
27,56407	21526
27,56818	21110
27,57232	23472
27,57643	22398
27,58055	20378
27,58467	19661
27,58880	20792
27,59292	19469
27,59703	20492
27,60117	18666
27,60528	18900
27,60940	17414
27,61353	17839
27,61765	17456
27,62177	16565
27,62590	17312
27,63002	16138
27,63413	17821
27,63827	15948
27,64238	17147
27,64650	17463
27,65063	14976
27,65475	16999
27,65887	16272
27,66300	18859
27,66712	20836
27,67123	28146
27,67535	33838
27,67948	48220
27,68360	72593
27,68772	107625
27,69185	148355
27,69597	209921
27,70008	286027
27,70422	368305
27,70833	470496
27,71245	559210
27,71658	636813
27,72070	687546
27,72482	720277
27,72895	706188
27,73307	668028
27,73718	611696
27,74132	531608
27,74543	457159
27,74955	393371
27,75368	330245
27,75780	275164
27,76192	226250
27,76603	197815
27,77017	174859
27,77428	149652
27,77840	132759
27,78253	121149
27,78665	106586
27,79077	96543
27,79490	87935
27,79902	83564
27,80313	77876
27,80727	68821
27,81138	66241
27,81550	61485
27,81963	57277
27,82375	54003
27,82787	49596
27,83200	51603
27,83612	48774
27,84023	44299
27,84437	39420
27,84848	41393
27,85260	39851
27,85672	38532
27,86085	35083
27,86497	35134
27,86908	33124
27,87322	31971
27,87733	30568
27,88145	28824
27,88558	28390
27,88970	29257
27,89382	27958
27,89795	27019
27,90207	23706
27,90618	28346
27,91032	24776
27,91443	22707
27,91855	23313
27,92268	22758
27,92680	22396
27,93092	22205
27,93505	23017
27,93917	22112
27,94328	21036
27,94740	21289
27,95153	19621
27,95565	18412
27,95977	18271
27,96390	19844
27,96802	19991
27,97213	19030
27,97627	19544
27,98038	18957
27,98450	18790
27,98863	18912
27,99275	19137
27,99687	18683
28,00100	18806
28,00512	21569
28,00923	22369
28,01337	21345
28,01748	23558
28,02160	25356
28,02573	24585
28,02985	25323
28,03397	24594
28,03808	26520
28,04222	23515
28,04633	22304
28,05045	22467
28,05458	22437
28,05870	22403
28,06282	20128
28,06695	22392
28,07107	19708
28,07518	20492
28,07932	19058
28,08343	18273
28,08755	18658
28,09168	19273
28,09580	18780
28,09992	18561
28,10405	17417
28,10817	17320
28,11228	15897
28,11642	15423
28,12053	15454
28,12465	14875
28,12877	16237
28,13290	14915
28,13702	15967
28,14113	14148
28,14527	13273
28,14938	13265
28,15350	15198
28,15763	15054
28,16175	14569
28,16587	14827
28,17000	13094
28,17412	14289
28,17823	14850
28,18237	16758
28,18648	14977
28,19060	14768
28,19473	17109
28,19885	14736
28,20297	16790
28,20710	17384
28,21122	15989
28,21533	17588
28,21945	16015
28,22358	16852
28,22770	16237
28,23182	15246
28,23595	16289
28,24007	16238
28,24418	17464
28,24832	16563
28,25243	16333
28,25655	16952
28,26068	16060
28,26480	15464
28,26892	16732
28,27305	18111
28,27717	17522
28,28128	17117
28,28542	17540
28,28953	17081
28,29365	17486
28,29778	18835
28,30190	16462
28,30602	17904
28,31015	17449
28,31427	17819
28,31838	17775
28,32250	16088
28,32663	17840
28,33075	15529
28,33487	15455
28,33900	13425
28,34312	16309
28,34723	15643
28,35137	14897
28,35548	13199
28,35960	15377
28,36373	14270
28,36785	12916
28,37197	14930
28,37610	15496
28,38022	17166
28,38433	17047
28,38847	18361
28,39258	17388
28,39670	18080
28,40083	17119
28,40495	15542
28,40907	16119
28,41318	14871
28,41732	16314
28,42143	15737
28,42555	14627
28,42968	15673
28,43380	14673
28,43792	13356
28,44205	14513
28,44617	15255
28,45028	15084
28,45442	12787
28,45853	13371
28,46265	14570
28,46678	13889
28,47090	13441
28,47502	13870
28,47915	14221
28,48327	12812
28,48738	12180
28,49152	13186
28,49563	14997
28,49975	13903
28,50387	14078
28,50800	12796
28,51212	14611
28,51623	13166
28,52037	13814
28,52448	15259
28,52860	14667
28,53273	15391
28,53685	17595
28,54097	16839
28,54510	17978
28,54922	18062
28,55333	16140
28,55747	17108
28,56158	19182
28,56570	18605
28,56983	16605
28,57395	17033
28,57807	16073
28,58220	16069
28,58632	14360
28,59043	15475
28,59455	15882
28,59868	13732
28,60280	13127
28,60692	13625
28,61105	13125
28,61517	13663
28,61928	14950
28,62342	12619
28,62753	14225
28,63165	13652
28,63578	14960
28,63990	16311
28,64402	12080
28,64815	14962
28,65227	13801
28,65638	13895
28,66052	13765
28,66463	13330
28,66875	14113
28,67288	13501
28,67700	14292
28,68112	12993
28,68523	13075
28,68937	13863
28,69348	15058
28,69760	13924
28,70173	14441
28,70585	13920
28,70997	13138
28,71410	13086
28,71822	14689
28,72233	13608
28,72647	15111
28,73058	13826
28,73470	13432
28,73883	13775
28,74295	12597
28,74707	13895
28,75120	13717
28,75532	13643
28,75943	13780
28,76357	13634
28,76768	12707
28,77180	12827
28,77592	14894
28,78005	14758
28,78417	14865
28,78828	14202
28,79242	12221
28,79653	13882
28,80065	12977
28,80478	13292
28,80890	14971
28,81302	15091
28,81715	13672
28,82127	12607
28,82538	15315
28,82952	14655
28,83363	14669
28,83775	12414
28,84188	13288
28,84600	11952
28,85012	15108
28,85425	15251
28,85837	13911
28,86248	13456
28,86660	14158
28,87073	14681
28,87485	14488
28,87897	13419
28,88310	13939
28,88722	14804
28,89133	15516
28,89547	16757
28,89958	15006
28,90370	16765
28,90783	14735
28,91195	16186
28,91607	16741
28,92020	16049
28,92432	16022
28,92843	17187
28,93257	19417
28,93668	20059
28,94080	24187
28,94493	32669
28,94905	43295
28,95317	57338
28,95728	81838
28,96142	112300
28,96553	145867
28,96965	189283
28,97378	234397
28,97790	280201
28,98202	315165
28,98615	346567
28,99027	362331
28,99438	362872
28,99852	357385
29,00263	332831
29,00675	305677
29,01088	277886
29,01500	238981
29,01912	210621
29,02325	182480
29,02737	158215
29,03148	135943
29,03562	111784
29,03973	98791
29,04385	88605
29,04797	77979
29,05210	69173
29,05622	61417
29,06033	59034
29,06447	52849
29,06858	50915
29,07270	45378
29,07683	43044
29,08095	40812
29,08507	38908
29,08920	33209
29,09332	32743
29,09743	31406
29,10157	29265
29,10568	29222
29,10980	29721
29,11393	26712
29,11805	28615
29,12217	27441
29,12630	26058
29,13042	25272
29,13453	24606
29,13865	22906
29,14278	23204
29,14690	22325
29,15102	23014
29,15515	23063
29,15927	20975
29,16338	21574
29,16752	20734
29,17163	18837
29,17575	19758
29,17988	18916
29,18400	21092
29,18812	19844
29,19225	18477
29,19637	19490
29,20048	18948
29,20462	18997
29,20873	19332
29,21285	18531
29,21698	18822
29,22110	20458
29,22522	17091
29,22933	18774
29,23347	16054
29,23758	17729
29,24170	18808
29,24583	17540
29,24995	17270
29,25407	16536
29,25820	17744
29,26232	15343
29,26643	17159
29,27057	17279
29,27468	17125
29,27880	18451
29,28293	18127
29,28705	16443
29,29117	16428
29,29530	17065
29,29942	15076
29,30353	14990
29,30767	16737
29,31178	15274
29,31590	16015
29,32002	16014
29,32415	14545
29,32827	15849
29,33238	13394
29,33652	16358
29,34063	15388
29,34475	15046
29,34888	15316
29,35300	16156
29,35712	16223
29,36125	15404
29,36537	16778
29,36948	15990
29,37362	15143
29,37773	16824
29,38185	15871
29,38598	16722
29,39010	15803
29,39422	13515
29,39835	15601
29,40247	16426
29,40658	16758
29,41070	16355
29,41483	16847
29,41895	15622
29,42307	15066
29,42720	16138
29,43132	17261
29,43543	17137
29,43957	16898
29,44368	15153
29,44780	15673
29,45193	16300
29,45605	15304
29,46017	16326
29,46430	15769
29,46842	15735
29,47253	14868
29,47667	15332
29,48078	14306
29,48490	14031
29,48903	14333
29,49315	15222
29,49727	15333
29,50138	14626
29,50552	13334
29,50963	15561
29,51375	14539
29,51788	15840
29,52200	15759
29,52612	15997
29,53025	14804
29,53437	16779
29,53848	16125
29,54262	15878
29,54673	15201
29,55085	16961
29,55498	14383
29,55910	15926
29,56322	16375
29,56735	17117
29,57147	16487
29,57558	16384
29,57972	15212
29,58383	16777
29,58795	15007
29,59207	15307
29,59620	14244
29,60032	14726
29,60443	14852
29,60857	12673
29,61268	13896
29,61680	15339
29,62093	14317
29,62505	15023
29,62917	13391
29,63330	14893
29,63742	13893
29,64153	13372
29,64567	13799
29,64978	14744
29,65390	13604
29,65803	13600
29,66215	14085
29,66627	14301
29,67040	13983
29,67452	15057
29,67863	15204
29,68275	14307
29,68688	14124
29,69100	16058
29,69512	14270
29,69925	15055
29,70337	14895
29,70748	13442
29,71162	13844
29,71573	15191
29,71985	14342
29,72398	14480
29,72810	13802
29,73222	14458
29,73635	15780
29,74047	15386
29,74458	13300
29,74872	14151
29,75283	14636
29,75695	14070
29,76108	14423
29,76520	13918
29,76932	14064
29,77343	14389
29,77757	15444
29,78168	15925
29,78580	14233
29,78993	14108
29,79405	14535
29,79817	15852
29,80230	13411
29,80642	14085
29,81053	14655
29,81467	15920
29,81878	15902
29,82290	16063
29,82703	16273
29,83115	15664
29,83527	18115
29,83940	14736
29,84352	17834
29,84763	18087
29,85177	16658
29,85588	18496
29,86000	17235
29,86412	16858
29,86825	16652
29,87237	17297
29,87648	17307
29,88062	16581
29,88473	16530
29,88885	15472
29,89298	14214
29,89710	15314
29,90122	15792
29,90535	14774
29,90947	17057
29,91358	14936
29,91772	16352
29,92183	15579
29,92595	14238
29,93008	15218
29,93420	16260
29,93832	15449
29,94245	16311
29,94657	17418
29,95068	15605
29,95482	14701
29,95893	16350
29,96305	15638
29,96717	16760
29,97130	15078
29,97542	16729
29,97953	17279
