D:\MassHunter\GCMS\1\data\Amal\Constant flow\120C\120C_1ml-min_7C-min_3.D Mon Sep 16 19:23:23 2024
Start of data points
5,29100	146265
5,29513	144216
5,29925	143913
5,30337	139101
5,30750	135622
5,31162	136578
5,31573	136669
5,31985	136159
5,32398	136151
5,32810	135488
5,33222	138732
5,33635	136104
5,34047	134562
5,34458	130919
5,34872	132575
5,35283	133422
5,35695	132201
5,36108	133629
5,36520	132671
5,36932	130974
5,37345	132008
5,37757	129010
5,38168	134717
5,38582	134558
5,38993	131716
5,39405	131824
5,39818	131567
5,40230	132652
5,40642	129225
5,41055	134075
5,41467	129205
5,41878	126399
5,42290	127353
5,42703	129896
5,43115	123707
5,43527	125292
5,43940	123809
5,44352	120384
5,44763	120563
5,45177	118670
5,45588	120498
5,46000	122655
5,46413	131461
5,46825	153421
5,47237	197628
5,47650	274640
5,48062	391582
5,48473	542480
5,48887	700041
5,49298	849414
5,49710	977660
5,50123	1062413
5,50535	1105026
5,50947	1102696
5,51358	1075201
5,51772	1060360
5,52183	1017254
5,52595	978890
5,53008	931397
5,53420	895673
5,53832	854255
5,54245	818256
5,54657	783478
5,55068	749037
5,55482	713409
5,55893	684910
5,56305	651278
5,56718	628229
5,57130	597763
5,57542	576954
5,57955	547312
5,58367	529741
5,58778	505919
5,59192	482876
5,59603	460168
5,60015	436008
5,60427	417130
5,60840	395215
5,61252	377450
5,61663	360367
5,62077	343596
5,62488	324957
5,62900	304240
5,63313	281883
5,63725	268546
5,64137	253249
5,64550	235938
5,64962	222726
5,65373	207102
5,65787	201603
5,66198	187482
5,66610	178485
5,67023	167334
5,67435	158397
5,67847	153778
5,68260	142798
5,68672	139996
5,69083	135702
5,69495	127811
5,69908	122579
5,70320	117163
5,70732	114390
5,71145	110957
5,71557	108852
5,71968	102658
5,72382	101490
5,72793	101491
5,73205	97117
5,73618	96194
5,74030	96373
5,74442	95400
5,74855	91049
5,75267	91140
5,75678	87107
5,76092	85867
5,76503	83916
5,76915	83068
5,77328	83122
5,77740	81849
5,78152	84040
5,78563	82069
5,78977	79628
5,79388	80334
5,79800	80033
5,80213	77789
5,80625	79787
5,81037	76710
5,81450	77894
5,81862	76358
5,82273	75807
5,82687	78226
5,83098	71179
5,83510	73495
5,83923	73830
5,84335	75418
5,84747	73036
5,85160	72223
5,85572	73592
5,85983	73670
5,86397	73161
5,86808	71793
5,87220	71696
5,87632	70535
5,88045	72399
5,88457	71082
5,88868	70197
5,89282	73041
5,89693	70673
5,90105	72596
5,90518	70865
5,90930	66663
5,91342	70340
5,91755	68171
5,92167	67638
5,92578	70846
5,92992	67750
5,93403	68452
5,93815	68388
5,94228	67861
5,94640	69348
5,95052	67645
5,95465	68826
5,95877	69937
5,96288	69903
5,96700	67469
5,97113	69997
5,97525	67944
5,97937	66674
5,98350	66894
5,98762	68796
5,99173	69521
5,99587	68259
5,99998	69071
6,00410	67369
6,00823	69166
6,01235	67527
6,01647	67997
6,02060	67209
6,02472	66260
6,02883	65121
6,03297	64767
6,03708	67062
6,04120	65965
6,04533	66268
6,04945	66361
6,05357	63405
6,05768	62643
6,06182	62390
6,06593	65342
6,07005	63901
6,07418	63400
6,07830	62939
6,08242	63281
6,08655	62160
6,09067	60940
6,09478	61716
6,09892	60263
6,10303	62202
6,10715	62351
6,11128	62436
6,11540	60363
6,11952	59708
6,12365	60082
6,12777	60082
6,13188	60679
6,13602	58073
6,14013	57845
6,14425	60649
6,14837	58729
6,15250	57011
6,15662	59433
6,16073	56960
6,16487	58043
6,16898	59957
6,17310	58031
6,17723	58172
6,18135	56372
6,18547	58758
6,18960	58304
6,19372	57419
6,19783	58930
6,20197	60192
6,20608	60450
6,21020	59333
6,21433	58501
6,21845	60239
6,22257	57793
6,22670	54781
6,23082	56786
6,23493	55649
6,23905	56918
6,24318	56513
6,24730	56811
6,25142	55071
6,25555	54955
6,25967	52800
6,26378	55658
6,26792	56441
6,27203	55781
6,27615	53640
6,28028	55082
6,28440	53471
6,28852	52476
6,29265	52053
6,29677	53833
6,30088	52569
6,30502	51759
6,30913	51387
6,31325	50827
6,31738	48885
6,32150	50679
6,32562	49047
6,32973	49098
6,33387	48859
6,33798	46800
6,34210	48942
6,34623	49959
6,35035	49362
6,35447	50223
6,35860	49828
6,36272	48750
6,36683	47300
6,37097	47239
6,37508	48271
6,37920	47752
6,38333	47561
6,38745	45986
6,39157	46323
6,39570	45722
6,39982	46052
6,40393	45956
6,40807	46404
6,41218	44748
6,41630	45321
6,42042	43916
6,42455	44822
6,42867	44462
6,43278	44693
6,43692	43766
6,44103	43853
6,44515	45707
6,44928	44842
6,45340	43378
6,45752	43806
6,46165	43987
6,46577	44235
6,46988	45632
6,47402	44297
6,47813	44187
6,48225	43568
6,48638	46086
6,49050	44085
6,49462	43345
6,49875	43097
6,50287	43708
6,50698	42316
6,51110	43218
6,51523	42722
6,51935	44541
6,52347	44879
6,52760	45099
6,53172	45619
6,53583	49609
6,53997	62253
6,54408	83689
6,54820	125314
6,55233	197265
6,55645	312407
6,56057	464067
6,56470	645710
6,56882	850983
6,57293	1054745
6,57707	1228827
6,58118	1351046
6,58530	1444798
6,58943	1471205
6,59355	1485568
6,59767	1448332
6,60178	1399678
6,60592	1347745
6,61003	1297350
6,61415	1217905
6,61828	1149945
6,62240	1086731
6,62652	1014175
6,63065	967710
6,63477	903657
6,63888	852106
6,64302	797215
6,64713	737234
6,65125	694770
6,65538	645219
6,65950	592588
6,66362	548129
6,66775	500760
6,67187	460463
6,67598	412260
6,68012	377010
6,68423	343623
6,68835	307241
6,69247	277339
6,69660	253476
6,70072	227755
6,70483	203106
6,70897	182828
6,71308	170224
6,71720	152059
6,72133	143346
6,72545	129270
6,72957	118851
6,73370	109143
6,73782	102601
6,74193	95123
6,74607	91142
6,75018	84533
6,75430	81332
6,75843	74948
6,76255	73335
6,76667	71448
6,77080	65627
6,77492	62334
6,77903	61602
6,78315	60911
6,78728	57762
6,79140	58841
6,79552	54490
6,79965	53039
6,80377	52672
6,80788	51399
6,81202	49034
6,81613	51838
6,82025	48684
6,82438	49335
6,82850	46047
6,83262	47779
6,83675	48360
6,84087	46163
6,84498	43786
6,84912	44150
6,85323	45908
6,85735	44431
6,86148	46021
6,86560	44080
6,86972	43521
6,87383	43324
6,87797	43488
6,88208	43497
6,88620	42036
6,89033	41463
6,89445	42076
6,89857	43764
6,90270	40804
6,90682	40997
6,91093	40405
6,91507	40609
6,91918	39101
6,92330	40898
6,92743	39678
6,93155	39067
6,93567	40557
6,93980	41403
6,94392	40083
6,94803	40069
6,95217	38984
6,95628	38812
6,96040	39282
6,96453	39846
6,96865	39193
6,97277	39834
6,97688	38993
6,98102	41214
6,98513	37952
6,98925	37683
6,99338	37820
6,99750	38954
7,00162	36865
7,00575	37204
7,00987	37026
7,01398	36556
7,01812	38097
7,02223	38739
7,02635	36548
7,03048	35831
7,03460	36475
7,03872	35609
7,04285	36902
7,04697	37497
7,05108	35028
7,05522	33877
7,05933	35610
7,06345	34560
7,06757	36886
7,07170	33651
7,07582	34116
7,07993	35199
7,08407	34629
7,08818	33922
7,09230	34921
7,09643	32738
7,10055	35276
7,10467	33663
7,10880	33684
7,11292	32097
7,11703	34061
7,12117	34589
7,12528	32516
7,12940	33611
7,13353	33629
7,13765	33303
7,14177	33683
7,14590	32773
7,15002	33077
7,15413	31914
7,15825	33280
7,16238	32684
7,16650	33617
7,17062	34085
7,17475	34625
7,17887	33806
7,18298	32673
7,18712	31894
7,19123	33268
7,19535	32657
7,19948	31990
7,20360	32007
7,20772	33479
7,21185	31019
7,21597	31452
7,22008	31781
7,22422	32238
7,22833	31671
7,23245	32596
7,23658	30269
7,24070	31765
7,24482	37545
7,24893	42854
7,25307	57323
7,25718	82335
7,26130	121988
7,26543	183633
7,26955	265966
7,27367	370772
7,27780	492834
7,28192	603847
7,28603	706217
7,29017	781880
7,29428	838199
7,29840	873379
7,30253	878636
7,30665	867165
7,31077	846800
7,31490	811439
7,31902	765489
7,32313	731698
7,32727	685961
7,33138	644104
7,33550	597063
7,33962	552544
7,34375	509634
7,34787	468552
7,35198	426597
7,35612	388186
7,36023	354813
7,36435	319955
7,36848	286649
7,37260	256735
7,37672	224429
7,38085	201011
7,38497	182448
7,38908	162350
7,39322	144872
7,39733	126029
7,40145	115736
7,40558	106672
7,40970	96636
7,41382	86958
7,41795	79242
7,42207	75568
7,42618	68946
7,43030	64628
7,43443	60367
7,43855	56785
7,44267	55576
7,44680	54003
7,45092	48920
7,45503	48671
7,45917	47073
7,46328	47079
7,46740	45998
7,47153	44296
7,47565	42808
7,47977	41053
7,48390	38057
7,48802	37838
7,49213	37123
7,49627	37344
7,50038	36108
7,50450	35463
7,50863	36064
7,51275	35176
7,51687	37481
7,52098	35576
7,52512	32851
7,52923	33281
7,53335	33875
7,53748	34618
7,54160	33122
7,54572	33652
7,54985	35259
7,55397	35034
7,55808	37158
7,56222	36619
7,56633	38767
7,57045	38725
7,57458	39638
7,57870	40351
7,58282	38645
7,58695	38034
7,59107	39646
7,59518	39706
7,59932	38576
7,60343	35893
7,60755	37314
7,61167	36477
7,61580	34948
7,61992	35333
7,62403	33730
7,62817	34401
7,63228	34670
7,63640	32467
7,64053	29856
7,64465	29788
7,64877	28929
7,65290	30688
7,65702	31384
7,66113	29685
7,66527	30218
7,66938	27683
7,67350	27078
7,67763	29507
7,68175	28138
7,68587	30103
7,69000	27060
7,69412	27237
7,69823	28048
7,70235	27522
7,70648	28813
7,71060	27662
7,71472	28188
7,71885	26461
7,72297	25698
7,72708	28335
7,73122	27894
7,73533	27420
7,73945	26273
7,74358	26157
7,74770	26740
7,75182	25687
7,75595	24339
7,76007	25999
7,76418	25334
7,76832	24377
7,77243	26123
7,77655	25964
7,78068	25610
7,78480	24628
7,78892	25031
7,79303	26263
7,79717	24746
7,80128	26703
7,80540	25506
7,80953	24478
7,81365	23756
7,81777	25021
7,82190	24868
7,82602	24735
7,83013	24627
7,83427	25408
7,83838	25506
7,84250	23714
7,84663	24444
7,85075	24606
7,85487	24258
7,85900	25289
7,86312	25370
7,86723	24866
7,87137	23620
7,87548	25774
7,87960	24365
7,88372	23667
7,88785	25578
7,89197	25568
7,89608	25791
7,90022	24577
7,90433	24486
7,90845	24628
7,91258	23594
7,91670	25170
7,92082	25747
7,92495	25904
7,92907	23303
7,93318	25883
7,93732	24244
7,94143	24536
7,94555	24840
7,94968	25160
7,95380	24620
7,95792	24948
7,96205	25407
7,96617	24774
7,97028	25016
7,97440	24840
7,97853	23576
7,98265	24948
7,98677	24694
7,99090	23948
7,99502	24163
7,99913	24390
8,00327	23280
8,00738	23377
8,01150	22927
8,01563	23079
8,01975	24451
8,02387	24545
8,02800	24930
8,03212	23848
8,03623	25062
8,04037	29078
8,04448	31064
8,04860	37811
8,05273	61295
8,05685	96276
8,06097	161169
8,06508	265857
8,06922	410447
8,07333	607101
8,07745	849658
8,08158	1110661
8,08570	1385414
8,08982	1634616
8,09395	1839998
8,09807	1972564
8,10218	2055773
8,10632	2064033
8,11043	2039620
8,11455	1947603
8,11868	1859434
8,12280	1744282
8,12692	1606845
8,13105	1481786
8,13517	1344460
8,13928	1208897
8,14342	1083107
8,14753	958977
8,15165	842909
8,15577	731016
8,15990	642217
8,16402	548692
8,16813	474403
8,17227	407859
8,17638	348761
8,18050	311248
8,18463	264090
8,18875	232235
8,19287	204056
8,19700	176778
8,20112	160005
8,20523	141175
8,20937	126570
8,21348	114898
8,21760	105237
8,22173	95035
8,22585	89309
8,22997	81787
8,23410	77728
8,23822	70679
8,24233	65950
8,24645	63802
8,25058	60962
8,25470	58386
8,25882	57091
8,26295	53850
8,26707	50887
8,27118	50085
8,27532	47506
8,27943	46576
8,28355	43945
8,28768	43359
8,29180	42882
8,29592	41754
8,30005	40117
8,30417	38352
8,30828	39649
8,31242	39278
8,31653	38170
8,32065	37656
8,32478	36371
8,32890	36320
8,33302	33928
8,33713	35174
8,34127	33641
8,34538	31039
8,34950	31424
8,35363	32495
8,35775	30960
8,36187	31367
8,36600	31655
8,37012	30373
8,37423	28613
8,37837	28776
8,38248	30231
8,38660	29524
8,39073	28007
8,39485	25467
8,39897	26978
8,40310	28441
8,40722	25917
8,41133	28012
8,41547	25508
8,41958	27070
8,42370	25879
8,42782	24548
8,43195	25489
8,43607	26869
8,44018	25607
8,44432	25275
8,44843	26290
8,45255	25098
8,45668	24346
8,46080	25041
8,46492	25690
8,46905	23701
8,47317	24588
8,47728	23914
8,48142	24049
8,48553	22987
8,48965	23033
8,49378	23092
8,49790	23776
8,50202	23010
8,50615	22069
8,51027	24069
8,51438	24012
8,51852	22850
8,52263	21707
8,52675	22387
8,53087	22531
8,53500	22556
8,53912	23357
8,54323	22118
8,54737	23570
8,55148	21603
8,55560	22734
8,55973	22199
8,56385	23112
8,56797	21489
8,57210	21166
8,57622	21350
8,58033	21652
8,58447	22417
8,58858	21151
8,59270	21085
8,59683	22590
8,60095	22177
8,60507	21798
8,60920	21995
8,61332	21693
8,61743	21400
8,62155	22692
8,62568	21810
8,62980	22130
8,63392	22545
8,63805	22511
8,64217	23460
8,64628	21236
8,65042	21332
8,65453	22188
8,65865	22168
8,66278	20924
8,66690	22086
8,67102	21260
8,67515	22997
8,67927	22298
8,68338	22011
8,68752	22289
8,69163	22306
8,69575	21110
8,69988	21570
8,70400	20727
8,70812	21042
8,71223	21155
8,71637	21161
8,72048	21773
8,72460	21762
8,72873	20883
8,73285	21455
8,73697	21952
8,74110	20870
8,74522	21223
8,74933	21686
8,75347	23253
8,75758	22077
8,76170	26025
8,76583	24373
8,76995	25991
8,77407	26401
8,77820	29359
8,78232	29057
8,78643	28659
8,79057	28480
8,79468	27930
8,79880	29622
8,80292	28576
8,80705	28877
8,81117	28049
8,81528	27999
8,81942	27120
8,82353	26731
8,82765	26767
8,83178	25542
8,83590	26474
8,84002	23729
8,84415	23996
8,84827	22015
8,85238	22884
8,85652	22547
8,86063	22111
8,86475	22091
8,86888	20554
8,87300	20887
8,87712	20581
8,88125	21223
8,88537	19797
8,88948	20901
8,89360	19748
8,89773	18636
8,90185	20016
8,90597	19237
8,91010	20660
8,91422	19578
8,91833	25433
8,92247	33939
8,92658	47268
8,93070	74696
8,93483	122205
8,93895	188347
8,94307	286890
8,94720	412598
8,95132	565458
8,95543	712642
8,95957	872803
8,96368	1007308
8,96780	1116982
8,97193	1181470
8,97605	1212253
8,98017	1207417
8,98428	1159633
8,98842	1101778
8,99253	1023400
8,99665	918492
9,00078	824368
9,00490	728820
9,00902	624439
9,01315	539342
9,01727	463895
9,02138	396692
9,02552	335560
9,02963	283969
9,03375	243008
9,03788	208683
9,04200	179773
9,04612	152656
9,05025	135239
9,05437	121093
9,05848	106350
9,06262	91631
9,06673	85303
9,07085	79248
9,07497	69289
9,07910	63968
9,08322	59931
9,08733	56345
9,09147	54778
9,09558	49015
9,09970	47077
9,10383	42360
9,10795	41216
9,11207	39807
9,11620	39653
9,12032	37802
9,12443	36316
9,12857	35772
9,13268	34366
9,13680	32478
9,14093	33534
9,14505	31123
9,14917	30984
9,15330	29978
9,15742	29518
9,16153	28912
9,16565	27817
9,16978	27165
9,17390	26015
9,17802	25786
9,18215	26396
9,18627	26630
9,19038	25777
9,19452	24847
9,19863	25654
9,20275	24231
9,20688	24093
9,21100	24303
9,21512	22500
9,21925	22100
9,22337	21661
9,22748	21073
9,23162	20992
9,23573	22484
9,23985	22770
9,24398	21693
9,24810	21995
9,25222	22315
9,25633	21704
9,26047	21283
9,26458	20131
9,26870	21497
9,27283	18678
9,27695	20035
9,28107	20543
9,28520	20406
9,28932	19475
9,29343	21096
9,29757	20116
9,30168	19299
9,30580	19460
9,30993	19645
9,31405	18846
9,31817	18544
9,32230	18795
9,32642	18950
9,33053	19062
9,33467	17823
9,33878	19542
9,34290	17695
9,34702	17789
9,35115	18115
9,35527	17776
9,35938	18361
9,36352	19366
9,36763	19031
9,37175	18840
9,37588	17974
9,38000	18103
9,38412	20019
9,38825	18299
9,39237	20048
9,39648	20037
9,40062	20785
9,40473	20158
9,40885	21191
9,41298	23082
9,41710	22314
9,42122	22655
9,42535	23645
9,42947	23316
9,43358	23585
9,43770	22718
9,44183	21762
9,44595	22418
9,45007	22335
9,45420	21413
9,45832	19587
9,46243	19185
9,46657	19753
9,47068	20699
9,47480	17592
9,47893	18330
9,48305	18027
9,48717	17891
9,49130	17423
9,49542	18017
9,49953	16606
9,50367	15867
9,50778	17078
9,51190	17889
9,51603	18421
9,52015	16773
9,52427	17105
9,52838	16911
9,53252	17327
9,53663	16467
9,54075	16712
9,54488	16842
9,54900	15926
9,55312	17762
9,55725	17420
9,56137	15659
9,56548	17814
9,56962	15422
9,57373	17350
9,57785	15692
9,58198	16085
9,58610	16416
9,59022	16303
9,59435	16649
9,59847	15786
9,60258	16454
9,60672	16870
9,61083	16554
9,61495	17001
9,61907	18277
9,62320	19045
9,62732	19838
9,63143	20302
9,63557	20166
9,63968	21272
9,64380	21649
9,64793	22769
9,65205	21804
9,65617	23065
9,66030	22798
9,66442	21951
9,66853	21820
9,67267	19952
9,67678	20630
9,68090	19902
9,68503	19728
9,68915	19032
9,69327	19909
9,69740	18634
9,70152	18472
9,70563	18873
9,70975	18306
9,71388	17176
9,71800	17595
9,72212	16712
9,72625	16482
9,73037	16984
9,73448	17151
9,73862	16317
9,74273	16168
9,74685	17318
9,75098	16011
9,75510	16807
9,75922	15598
9,76335	15483
9,76747	17715
9,77158	17862
9,77572	15895
9,77983	17401
9,78395	15095
9,78808	15778
9,79220	15516
9,79632	16294
9,80043	15438
9,80457	15675
9,80868	15442
9,81280	16465
9,81693	15114
9,82105	15547
9,82517	18594
9,82930	21076
9,83342	26811
9,83753	41895
9,84167	72073
9,84578	128404
9,84990	217160
9,85403	360520
9,85815	565954
9,86227	831306
9,86640	1162392
9,87052	1562474
9,87463	1944480
9,87877	2286736
9,88288	2544442
9,88700	2750366
9,89112	2827005
9,89525	2787525
9,89937	2652197
9,90348	2465843
9,90762	2207970
9,91173	1928647
9,91585	1671407
9,91998	1411478
9,92410	1179067
9,92822	976202
9,93235	804246
9,93647	662538
9,94058	549120
9,94472	454660
9,94883	391987
9,95295	328859
9,95708	278918
9,96120	242809
9,96532	213372
9,96945	190635
9,97357	170894
9,97768	156194
9,98180	143204
9,98593	131814
9,99005	121718
9,99417	114191
9,99830	103753
10,00242	93252
10,00653	88819
10,01067	83476
10,01478	79023
10,01890	73485
10,02303	70063
10,02715	64447
10,03127	61165
10,03540	58831
10,03952	57505
10,04363	54135
10,04777	50537
10,05188	48370
10,05600	44379
10,06013	44121
10,06425	43123
10,06837	40408
10,07250	40724
10,07662	38654
10,08073	36136
10,08485	35397
10,08898	33780
10,09310	34174
10,09722	33260
10,10135	32423
10,10547	30094
10,10958	30963
10,11372	29591
10,11783	29156
10,12195	28278
10,12608	28219
10,13020	26660
10,13432	25682
10,13845	26974
10,14257	27799
10,14668	26440
10,15082	28293
10,15493	27668
10,15905	28512
10,16318	29402
10,16730	29650
10,17142	30704
10,17553	30295
10,17967	31796
10,18378	29948
10,18790	29049
10,19203	27572
10,19615	29386
10,20027	27658
10,20440	26960
10,20852	26646
10,21263	26818
10,21677	26158
10,22088	22710
10,22500	23066
10,22913	23388
10,23325	20971
10,23737	23035
10,24150	22689
10,24562	20375
10,24973	20980
10,25387	19091
10,25798	18203
10,26210	19005
10,26622	19407
10,27035	20786
10,27447	18034
10,27858	18528
10,28272	16959
10,28683	16613
10,29095	17932
10,29508	18214
10,29920	18775
10,30332	18211
10,30745	18505
10,31157	17288
10,31568	18956
10,31982	19422
10,32393	20095
10,32805	19832
10,33218	20094
10,33630	21626
10,34042	22271
10,34455	22891
10,34867	21800
10,35278	21582
10,35690	20807
10,36103	21720
10,36515	20398
10,36927	21027
10,37340	18780
10,37752	18439
10,38163	17822
10,38577	16493
10,38988	17757
10,39400	17459
10,39813	17257
10,40225	15978
10,40637	16662
10,41050	16273
10,41462	16009
10,41873	16915
10,42287	15998
10,42698	15710
10,43110	14501
10,43523	15643
10,43935	15399
10,44347	14608
10,44758	15172
10,45172	15699
10,45583	14512
10,45995	13881
10,46408	15418
10,46820	15621
10,47232	15662
10,47645	16532
10,48057	14933
10,48468	14091
10,48882	15275
10,49293	15084
10,49705	15890
10,50118	16413
10,50530	16580
10,50942	19469
10,51355	24425
10,51767	36245
10,52178	55644
10,52592	92887
10,53003	149167
10,53415	239172
10,53827	354790
10,54240	510646
10,54652	688966
10,55063	871799
10,55477	1062291
10,55888	1186539
10,56300	1285699
10,56713	1333822
10,57125	1340877
10,57537	1266676
10,57950	1181545
10,58362	1069132
10,58773	938382
10,59187	805746
10,59598	682470
10,60010	574386
10,60423	483661
10,60835	402047
10,61247	338035
10,61660	284122
10,62072	244035
10,62483	211425
10,62895	182744
10,63308	156205
10,63720	138208
10,64132	123068
10,64545	107999
10,64957	94094
10,65368	86923
10,65782	80514
10,66193	72785
10,66605	65396
10,67018	61310
10,67430	55598
10,67842	53215
10,68255	49683
10,68667	47179
10,69078	42889
10,69492	40523
10,69903	40366
10,70315	37513
10,70728	38569
10,71140	36576
10,71552	34414
10,71963	32748
10,72377	34370
10,72788	32039
10,73200	31309
10,73613	29619
10,74025	30520
10,74437	27766
10,74850	28677
10,75262	25496
10,75673	26404
10,76087	25163
10,76498	25446
10,76910	32356
10,77323	41928
10,77735	59000
10,78147	97543
10,78560	154344
10,78972	247919
10,79383	378096
10,79797	543797
10,80208	750623
10,80620	963684
10,81032	1178319
10,81445	1362812
10,81857	1468993
10,82268	1539646
10,82682	1545298
10,83093	1479642
10,83505	1363902
10,83918	1204867
10,84330	1034756
10,84742	869667
10,85155	738771
10,85567	604481
10,85978	497081
10,86392	401893
10,86803	336118
10,87215	275686
10,87628	234577
10,88040	198342
10,88452	167358
10,88865	149043
10,89277	128112
10,89688	113002
10,90100	100459
10,90513	93120
10,90925	82974
10,91337	74260
10,91750	72680
10,92162	64104
10,92573	60669
10,92987	57937
10,93398	50850
10,93810	52382
10,94223	46747
10,94635	43426
10,95047	44395
10,95460	39951
10,95872	38327
10,96283	36709
10,96697	35795
10,97108	35371
10,97520	32621
10,97933	33079
10,98345	31269
10,98757	29769
10,99168	28632
10,99582	28985
10,99993	30045
11,00405	29853
11,00818	25446
11,01230	26980
11,01642	24373
11,02055	25989
11,02467	23010
11,02878	23021
11,03292	21961
11,03703	23126
11,04115	23093
11,04528	22354
11,04940	22220
11,05352	21259
11,05765	21839
11,06177	19978
11,06588	20448
11,07002	19446
11,07413	20065
11,07825	20803
11,08237	19543
11,08650	17598
11,09062	18972
11,09473	18061
11,09887	18441
11,10298	18352
11,10710	17750
11,11123	17374
11,11535	17040
11,11947	17116
11,12360	16678
11,12772	17748
11,13183	16652
11,13597	16301
11,14008	17383
11,14420	16530
11,14833	16864
11,15245	16831
11,15657	16542
11,16070	16712
11,16482	17174
11,16893	15874
11,17305	16436
11,17718	16803
11,18130	15318
11,18542	15860
11,18955	14994
11,19367	14351
11,19778	15670
11,20192	14575
11,20603	14206
11,21015	14249
11,21428	14765
11,21840	14399
11,22252	15321
11,22665	12956
11,23077	13961
11,23488	14772
11,23902	14351
11,24313	15164
11,24725	13245
11,25138	16004
11,25550	15446
11,25962	13778
11,26373	14756
11,26787	14872
11,27198	14328
11,27610	15276
11,28023	14656
11,28435	13502
11,28847	15030
11,29260	16079
11,29672	15489
11,30083	15701
11,30497	15525
11,30908	15588
11,31320	16387
11,31733	17707
11,32145	16958
11,32557	15661
11,32970	15827
11,33382	13843
11,33793	15377
11,34207	14910
11,34618	15517
11,35030	15670
11,35442	14686
11,35855	15631
11,36267	14779
11,36678	14343
11,37092	14077
11,37503	14513
11,37915	15321
11,38328	12975
11,38740	14018
11,39152	15058
11,39565	13053
11,39977	13679
11,40388	11023
11,40802	13611
11,41213	12553
11,41625	14186
11,42038	14408
11,42450	15027
11,42862	15323
11,43275	13895
11,43687	13693
11,44098	16153
11,44510	16079
11,44923	14456
11,45335	17326
11,45747	23561
11,46160	33757
11,46572	53425
11,46983	87368
11,47397	146110
11,47808	238476
11,48220	355071
11,48633	514257
11,49045	705633
11,49457	918551
11,49870	1109028
11,50282	1291607
11,50693	1403412
11,51107	1468615
11,51518	1463461
11,51930	1388552
11,52343	1276514
11,52755	1132044
11,53167	969382
11,53580	818142
11,53992	680989
11,54403	560691
11,54815	461769
11,55228	377013
11,55640	310657
11,56052	262526
11,56465	218527
11,56877	188567
11,57288	165718
11,57702	143317
11,58113	125471
11,58525	110983
11,58938	100437
11,59350	88800
11,59762	80904
11,60175	75203
11,60587	67784
11,60998	61584
11,61412	58748
11,61823	54601
11,62235	52125
11,62648	49515
11,63060	46628
11,63472	44383
11,63883	42040
11,64297	40868
11,64708	39539
11,65120	37704
11,65533	36076
11,65945	35782
11,66357	34064
11,66770	32226
11,67182	31219
11,67593	28921
11,68007	29637
11,68418	30651
11,68830	28742
11,69243	28872
11,69655	30158
11,70067	33515
11,70480	46701
11,70892	70809
11,71303	115305
11,71717	201317
11,72128	356058
11,72540	574754
11,72952	917259
11,73365	1365817
11,73777	1932385
11,74188	2585467
11,74602	3258957
11,75013	3931205
11,75425	4512015
11,75838	4928240
11,76250	5112894
11,76662	5019119
11,77075	4686082
11,77487	4221674
11,77898	3596129
11,78312	3008350
11,78723	2454748
11,79135	1986941
11,79548	1596369
11,79960	1280388
11,80372	1037893
11,80785	848527
11,81197	695622
11,81608	600059
11,82020	505194
11,82433	435854
11,82845	385938
11,83257	332493
11,83670	294129
11,84082	263881
11,84493	238723
11,84907	212822
11,85318	195745
11,85730	178313
11,86143	164877
11,86555	153747
11,86967	140437
11,87380	129325
11,87792	122355
11,88203	113249
11,88617	103748
11,89028	100709
11,89440	94972
11,89853	87945
11,90265	82807
11,90677	80052
11,91088	75677
11,91502	72018
11,91913	67939
11,92325	67737
11,92738	62439
11,93150	61659
11,93562	58167
11,93975	57071
11,94387	53998
11,94798	51044
11,95212	49883
11,95623	46340
11,96035	46877
11,96448	44058
11,96860	42399
11,97272	39708
11,97685	40763
11,98097	39932
11,98508	39727
11,98922	36500
11,99333	36690
11,99745	35205
12,00157	33203
12,00570	33846
12,00982	32678
12,01393	32198
12,01807	32817
12,02218	28566
12,02630	29687
12,03043	29598
12,03455	29178
12,03867	28283
12,04280	28395
12,04692	28400
12,05103	26844
12,05517	24794
12,05928	26545
12,06340	23952
12,06753	24481
12,07165	23419
12,07577	24037
12,07990	22420
12,08402	24280
12,08813	24045
12,09225	24275
12,09638	22873
12,10050	24478
12,10462	24136
12,10875	22293
12,11287	23607
12,11698	22647
12,12112	23044
12,12523	23693
12,12935	22970
12,13348	21764
12,13760	23204
12,14172	21789
12,14585	21254
12,14997	22113
12,15408	20444
12,15822	19591
12,16233	20608
12,16645	18474
12,17058	18536
12,17470	18608
12,17882	18754
12,18293	18255
12,18707	16997
12,19118	18440
12,19530	19036
12,19943	15595
12,20355	18375
12,20767	17608
12,21180	17155
12,21592	18758
12,22003	18075
12,22417	20474
12,22828	19305
12,23240	20477
12,23653	19543
12,24065	19939
12,24477	19346
12,24890	18380
12,25302	20173
12,25713	20469
12,26127	20302
12,26538	19667
12,26950	26602
12,27362	37752
12,27775	55032
12,28187	88555
12,28598	149120
12,29012	242643
12,29423	374706
12,29835	542105
12,30248	744626
12,30660	960494
12,31072	1170544
12,31485	1353340
12,31897	1489527
12,32308	1569408
12,32722	1519050
12,33133	1442550
12,33545	1318817
12,33958	1150744
12,34370	987386
12,34782	828911
12,35195	678407
12,35607	559568
12,36018	464219
12,36430	383883
12,36843	315554
12,37255	268746
12,37667	224120
12,38080	192474
12,38492	167101
12,38903	147016
12,39317	131661
12,39728	116497
12,40140	107723
12,40553	97066
12,40965	91727
12,41377	87786
12,41790	84842
12,42202	83515
12,42613	80427
12,43027	79818
12,43438	80403
12,43850	77395
12,44263	75245
12,44675	73053
12,45087	69345
12,45498	65150
12,45912	58490
12,46323	57339
12,46735	52992
12,47148	51558
12,47560	45142
12,47972	41153
12,48385	41226
12,48797	38927
12,49208	37180
12,49622	35435
12,50033	35712
12,50445	34041
12,50858	31396
12,51270	31699
12,51682	29301
12,52095	29580
12,52507	27378
12,52918	28013
12,53332	26355
12,53743	25917
12,54155	26994
12,54567	25884
12,54980	26132
12,55392	24654
12,55803	23785
12,56217	25567
12,56628	22109
12,57040	23274
12,57453	23709
12,57865	22923
12,58277	21506
12,58690	22257
12,59102	20710
12,59513	21942
12,59927	20061
12,60338	21061
12,60750	20894
12,61163	19801
12,61575	19921
12,61987	20136
12,62400	21545
12,62812	26445
12,63223	33504
12,63635	54708
12,64048	89886
12,64460	150456
12,64872	251743
12,65285	394504
12,65697	586518
12,66108	823075
12,66522	1089484
12,66933	1340926
12,67345	1557316
12,67758	1727425
12,68170	1781234
12,68582	1764240
12,68995	1648247
12,69407	1495238
12,69818	1287216
12,70232	1096487
12,70643	909977
12,71055	733688
12,71468	602055
12,71880	494567
12,72292	402226
12,72703	330551
12,73117	281317
12,73528	235504
12,73940	202217
12,74353	173413
12,74765	156570
12,75177	138956
12,75590	120050
12,76002	108597
12,76413	100874
12,76827	92212
12,77238	84310
12,77650	76965
12,78063	70192
12,78475	66983
12,78887	62252
12,79300	56982
12,79712	56993
12,80123	54510
12,80537	50236
12,80948	46674
12,81360	41857
12,81772	42192
12,82185	41897
12,82597	39913
12,83008	38516
12,83422	35509
12,83833	33310
12,84245	34153
12,84658	33996
12,85070	32136
12,85482	31612
12,85895	30200
12,86307	30879
12,86718	28957
12,87132	30067
12,87543	28255
12,87955	27486
12,88368	26958
12,88780	27643
12,89192	27410
12,89605	25146
12,90017	26303
12,90428	26096
12,90840	25730
12,91253	23796
12,91665	23753
12,92077	24088
12,92490	22949
12,92902	22644
12,93313	22874
12,93727	20165
12,94138	21166
12,94550	21042
12,94963	20969
12,95375	19962
12,95787	19774
12,96200	18666
12,96612	19840
12,97023	18967
12,97437	17452
12,97848	18936
12,98260	18408
12,98673	19160
12,99085	18863
12,99497	17704
12,99908	17391
13,00322	18418
13,00733	18136
13,01145	19409
13,01558	19165
13,01970	18821
13,02382	18083
13,02795	18769
13,03207	18002
13,03618	17276
13,04032	17180
13,04443	16749
13,04855	15099
13,05268	16440
13,05680	15835
13,06092	16378
13,06505	17370
13,06917	17026
13,07328	15669
13,07742	15590
13,08153	16675
13,08565	15552
13,08977	16317
13,09390	14206
13,09802	15836
13,10213	15797
13,10627	15845
13,11038	15569
13,11450	14881
13,11863	14236
13,12275	14038
13,12687	14951
13,13100	15545
13,13512	14854
13,13923	14655
13,14337	14439
13,14748	16277
13,15160	15127
13,15573	15070
13,15985	15835
13,16397	14569
13,16810	16142
13,17222	16536
13,17633	15569
13,18047	18878
13,18458	20831
13,18870	29418
13,19282	41386
13,19695	67245
13,20107	113792
13,20518	188790
13,20932	305621
13,21343	474885
13,21755	686145
13,22168	918756
13,22580	1165667
13,22992	1385097
13,23405	1558615
13,23817	1662210
13,24228	1679219
13,24642	1604876
13,25053	1490714
13,25465	1325226
13,25878	1137853
13,26290	956318
13,26702	787061
13,27115	656096
13,27527	529445
13,27938	432891
13,28350	358132
13,28763	303717
13,29175	257021
13,29587	215295
13,30000	188372
13,30412	162716
13,30823	145569
13,31237	131427
13,31648	115694
13,32060	106943
13,32473	94379
13,32885	88064
13,33297	79175
13,33710	73653
13,34122	69232
13,34533	66130
13,34947	60341
13,35358	57450
13,35770	54830
13,36183	49176
13,36595	49185
13,37007	46949
13,37418	44713
13,37832	41573
13,38243	40728
13,38655	38415
13,39068	37420
13,39480	35525
13,39892	34511
13,40305	32455
13,40717	33243
13,41128	31938
13,41542	30965
13,41953	29742
13,42365	28887
13,42778	26424
13,43190	26798
13,43602	25701
13,44015	26831
13,44427	25522
13,44838	25612
13,45252	25368
13,45663	24126
13,46075	25280
13,46487	25645
13,46900	24422
13,47312	26675
13,47723	27456
13,48137	31127
13,48548	34338
13,48960	38098
13,49373	39364
13,49785	44492
13,50197	45682
13,50610	47811
13,51022	47527
13,51433	47617
13,51847	45710
13,52258	45547
13,52670	44203
13,53083	49809
13,53495	53943
13,53907	75553
13,54320	117210
13,54732	193819
13,55143	319860
13,55555	510394
13,55968	783624
13,56380	1140137
13,56792	1598772
13,57205	2109671
13,57617	2630187
13,58028	3125986
13,58442	3557689
13,58853	3788920
13,59265	3855776
13,59678	3712837
13,60090	3402054
13,60502	2999492
13,60915	2546017
13,61327	2096184
13,61738	1707891
13,62152	1367051
13,62563	1109507
13,62975	892862
13,63388	736452
13,63800	615387
13,64212	518161
13,64623	442089
13,65037	381747
13,65448	334671
13,65860	291078
13,66273	258032
13,66685	234190
13,67097	212412
13,67510	193569
13,67922	177079
13,68333	158949
13,68747	146095
13,69158	136026
13,69570	127558
13,69983	116599
13,70395	112010
13,70807	102553
13,71220	94176
13,71632	91114
13,72043	85838
13,72457	81679
13,72868	78127
13,73280	72368
13,73692	69219
13,74105	68400
13,74517	63654
13,74928	61014
13,75342	59231
13,75753	57638
13,76165	54389
13,76578	52777
13,76990	47826
13,77402	48543
13,77815	46660
13,78227	43609
13,78638	43724
13,79052	43092
13,79463	42336
13,79875	40211
13,80288	38609
13,80700	36912
13,81112	36779
13,81525	35111
13,81937	35866
13,82348	36177
13,82760	34825
13,83173	32828
13,83585	34607
13,83997	32795
13,84410	33444
13,84822	40256
13,85233	49725
13,85647	72179
13,86058	112305
13,86470	177928
13,86883	281184
13,87295	436169
13,87707	633030
13,88120	855913
13,88532	1118850
13,88943	1381758
13,89357	1608725
13,89768	1751145
13,90180	1828538
13,90593	1786917
13,91005	1681772
13,91417	1512275
13,91828	1322222
13,92242	1124926
13,92653	934092
13,93065	761781
13,93478	628556
13,93890	519422
13,94302	429280
13,94715	364197
13,95127	306441
13,95538	264962
13,95952	225863
13,96363	197740
13,96775	172778
13,97188	155624
13,97600	143025
13,98012	127743
13,98425	112647
13,98837	108855
13,99248	98428
13,99662	89439
14,00073	86840
14,00485	86208
14,00897	91306
14,01310	107852
14,01722	147046
14,02133	210511
14,02547	328964
14,02958	508342
14,03370	772823
14,03783	1131571
14,04195	1559266
14,04607	2064507
14,05020	2564813
14,05432	3015102
14,05843	3419421
14,06257	3613123
14,06668	3656553
14,07080	3503465
14,07493	3209522
14,07905	2804898
14,08317	2379326
14,08730	1966179
14,09142	1604417
14,09553	1307158
14,09965	1067122
14,10378	879598
14,10790	733634
14,11202	610767
14,11615	517359
14,12027	450978
14,12438	390995
14,12852	345612
14,13263	304574
14,13675	274181
14,14088	249220
14,14500	223226
14,14912	204828
14,15325	186386
14,15737	172659
14,16148	160075
14,16562	147094
14,16973	139011
14,17385	126625
14,17798	120086
14,18210	115483
14,18622	107231
14,19033	101547
14,19447	92472
14,19858	91537
14,20270	85836
14,20683	83345
14,21095	79749
14,21507	74884
14,21920	71087
14,22332	68360
14,22743	64566
14,23157	64855
14,23568	62214
14,23980	58978
14,24393	56171
14,24805	53511
14,25217	51025
14,25630	53251
14,26042	51526
14,26453	49341
14,26867	46106
14,27278	44709
14,27690	45286
14,28102	46161
14,28515	42559
14,28927	41249
14,29338	42047
14,29752	38223
14,30163	37165
14,30575	38251
14,30988	36874
14,31400	37157
14,31812	34646
14,32225	36028
14,32637	35181
14,33048	33362
14,33462	33191
14,33873	31636
14,34285	31186
14,34698	30187
14,35110	32479
14,35522	33297
14,35935	33081
14,36347	32835
14,36758	37202
14,37170	51463
14,37583	75747
14,37995	116384
14,38407	190504
14,38820	306408
14,39232	457277
14,39643	653345
14,40057	888565
14,40468	1145183
14,40880	1369332
14,41293	1548736
14,41705	1672736
14,42117	1718044
14,42530	1718943
14,42942	1715361
14,43353	1708168
14,43767	1790470
14,44178	1949617
14,44590	2217922
14,45003	2589726
14,45415	3020261
14,45827	3456553
14,46238	3838911
14,46652	4102859
14,47063	4141402
14,47475	3988829
14,47888	3657889
14,48300	3183002
14,48712	2690364
14,49125	2206878
14,49537	1788468
14,49948	1469801
14,50362	1197975
14,50773	982128
14,51185	820618
14,51598	695103
14,52010	593311
14,52422	515273
14,52835	452237
14,53247	397053
14,53658	352092
14,54072	315864
14,54483	283833
14,54895	257472
14,55307	239493
14,55720	221034
14,56132	208269
14,56543	188347
14,56957	175443
14,57368	164375
14,57780	155984
14,58193	143271
14,58605	137286
14,59017	130150
14,59430	124293
14,59842	120979
14,60253	109843
14,60667	108374
14,61078	103217
14,61490	97445
14,61903	94507
14,62315	87815
14,62727	89698
14,63140	82578
14,63552	79991
14,63963	76981
14,64375	73278
14,64788	70717
14,65200	70537
14,65612	66752
14,66025	64235
14,66437	62785
14,66848	63296
14,67262	60184
14,67673	59538
14,68085	56558
14,68498	56655
14,68910	55052
14,69322	54225
14,69735	50990
14,70147	49435
14,70558	46751
14,70972	49085
14,71383	47157
14,71795	46179
14,72208	46443
14,72620	43337
14,73032	46415
14,73443	52906
14,73857	63844
14,74268	86766
14,74680	130453
14,75093	200724
14,75505	304926
14,75917	448151
14,76330	643798
14,76742	866378
14,77153	1086978
14,77567	1294837
14,77978	1449747
14,78390	1555774
14,78803	1578913
14,79215	1518065
14,79627	1390962
14,80040	1255918
14,80452	1084355
14,80863	925927
14,81277	754142
14,81688	630666
14,82100	526690
14,82513	434479
14,82925	366956
14,83337	309230
14,83748	262504
14,84162	231713
14,84573	200992
14,84985	180000
14,85398	159004
14,85810	142879
14,86222	132331
14,86635	119369
14,87047	109421
14,87458	101689
14,87872	96528
14,88283	91890
14,88695	87860
14,89108	79154
14,89520	76038
14,89932	73280
14,90345	71027
14,90757	69083
14,91168	66129
14,91582	61666
14,91993	62201
14,92405	60407
14,92817	57307
14,93230	56796
14,93642	53269
14,94053	49664
14,94467	50669
14,94878	47123
14,95290	45512
14,95703	43814
14,96115	44502
14,96527	42540
14,96940	42064
14,97352	41542
14,97763	38011
14,98177	38554
14,98588	36040
14,99000	36894
14,99413	35493
14,99825	34591
15,00237	34861
15,00650	33588
15,01062	32755
15,01473	32468
15,01885	33340
15,02298	32508
15,02710	31511
15,03122	29496
15,03535	30479
15,03947	30199
15,04358	28342
15,04772	28569
15,05183	28069
15,05595	27706
15,06008	28651
15,06420	27752
15,06832	25941
15,07245	26415
15,07657	25070
15,08068	26276
15,08482	26385
15,08893	25290
15,09305	25459
15,09718	24585
15,10130	24938
15,10542	25621
15,10953	24542
15,11367	25285
15,11778	25150
15,12190	24324
15,12603	22977
15,13015	24476
15,13427	23266
15,13840	23004
15,14252	22171
15,14663	22654
15,15077	23906
15,15488	24156
15,15900	22247
15,16313	20789
15,16725	22338
15,17137	22620
15,17550	20767
15,17962	23035
15,18373	20873
15,18787	21379
15,19198	20561
15,19610	21563
15,20022	20951
15,20435	22983
15,20847	20277
15,21258	20394
15,21672	21539
15,22083	21648
15,22495	20707
15,22908	20905
15,23320	19826
15,23732	23227
15,24145	25178
15,24557	30445
15,24968	40274
15,25382	60091
15,25793	93579
15,26205	152661
15,26618	255137
15,27030	399705
15,27442	594342
15,27855	843564
15,28267	1176766
15,28678	1539676
15,29090	1933386
15,29503	2361525
15,29915	2800151
15,30327	3295247
15,30740	3725654
15,31152	4182704
15,31563	4593310
15,31977	4801066
15,32388	4843168
15,32800	4691597
15,33213	4340091
15,33625	3874512
15,34037	3299093
15,34450	2749654
15,34862	2257399
15,35273	1828374
15,35687	1492207
15,36098	1231741
15,36510	1027681
15,36923	869310
15,37335	742098
15,37747	633512
15,38158	559285
15,38572	489541
15,38983	431359
15,39395	393495
15,39808	351568
15,40220	315144
15,40632	292012
15,41045	267961
15,41457	245918
15,41868	230888
15,42282	214524
15,42693	200273
15,43105	187889
15,43518	174581
15,43930	163425
15,44342	150101
15,44755	145029
15,45167	138422
15,45578	132347
15,45992	130536
15,46403	126413
15,46815	123560
15,47227	123679
15,47640	125415
15,48052	121684
15,48463	121881
15,48877	120453
15,49288	118605
15,49700	116102
15,50113	110631
15,50525	103017
15,50937	97074
15,51350	94919
15,51762	89265
15,52173	85027
15,52587	79438
15,52998	77002
15,53410	74012
15,53823	70607
15,54235	67516
15,54647	66181
15,55060	61050
15,55472	63686
15,55883	58777
15,56295	60997
15,56708	66896
15,57120	76887
15,57532	97587
15,57945	134159
15,58357	195946
15,58768	288173
15,59182	420021
15,59593	580813
15,60005	775204
15,60418	974537
15,60830	1165254
15,61242	1291091
15,61655	1354611
15,62067	1357432
15,62478	1293434
15,62892	1194962
15,63303	1081021
15,63715	940328
15,64128	796255
15,64540	659096
15,64952	554173
15,65363	461036
15,65777	393990
15,66188	326359
15,66600	278224
15,67013	242544
15,67425	213404
15,67837	189593
15,68250	169162
15,68662	146169
15,69073	138397
15,69487	123762
15,69898	118170
15,70310	106895
15,70723	103660
15,71135	98010
15,71547	105081
15,71960	108165
15,72372	125576
15,72783	163961
15,73197	230748
15,73608	340953
15,74020	504319
15,74432	725856
15,74845	978677
15,75257	1247557
15,75668	1519252
15,76082	1748127
15,76493	1913829
15,76905	1944446
15,77318	1898050
15,77730	1765886
15,78142	1583872
15,78555	1395060
15,78967	1174037
15,79378	992646
15,79792	820927
15,80203	691865
15,80615	585460
15,81028	490815
15,81440	417453
15,81852	363035
15,82265	310484
15,82677	277914
15,83088	245315
15,83500	220962
15,83913	202887
15,84325	181882
15,84737	169993
15,85150	158288
15,85562	142065
15,85973	135977
15,86387	125609
15,86798	119183
15,87210	111050
15,87623	105478
15,88035	98902
15,88447	94453
15,88860	91194
15,89272	85262
15,89683	81599
15,90097	80067
15,90508	75551
15,90920	73477
15,91333	73261
15,91745	67930
15,92157	65739
15,92568	62255
15,92982	62027
15,93393	59241
15,93805	59051
15,94218	57621
15,94630	56198
15,95042	55331
15,95455	50823
15,95867	51120
15,96278	49150
15,96692	48743
15,97103	48015
15,97515	47077
15,97928	46639
15,98340	45087
15,98752	46118
15,99165	44972
15,99577	43531
15,99988	42829
16,00402	41431
16,00813	39342
16,01225	39327
16,01637	40370
16,02050	38792
16,02462	38294
16,02873	38763
16,03287	38475
16,03698	38580
16,04110	37076
16,04523	38324
16,04935	36564
16,05347	35592
16,05760	36185
16,06172	36909
16,06583	36486
16,06997	34000
16,07408	33473
16,07820	33171
16,08233	35052
16,08645	37827
16,09057	43113
16,09470	55022
16,09882	80675
16,10293	128965
16,10705	203087
16,11118	325366
16,11530	503623
16,11942	737404
16,12355	1016675
16,12767	1349464
16,13178	1647675
16,13592	1917786
16,14003	2086850
16,14415	2141710
16,14828	2079438
16,15240	1922699
16,15652	1698019
16,16065	1451744
16,16477	1221387
16,16888	1017054
16,17302	839999
16,17713	701255
16,18125	585254
16,18538	493093
16,18950	424297
16,19362	370533
16,19773	320630
16,20187	283053
16,20598	255006
16,21010	231470
16,21423	210847
16,21835	190723
16,22247	176396
16,22660	163639
16,23072	150295
16,23483	143602
16,23897	131526
16,24308	124404
16,24720	117958
16,25133	112496
16,25545	105380
16,25957	101946
16,26370	97554
16,26782	94323
16,27193	88634
16,27607	86413
16,28018	86265
16,28430	81739
16,28842	78073
16,29255	76443
16,29667	71194
16,30078	69890
16,30492	68252
16,30903	67247
16,31315	63703
16,31728	61531
16,32140	59609
16,32552	57356
16,32965	59135
16,33377	57772
16,33788	54798
16,34202	54432
16,34613	54399
16,35025	51310
16,35438	48519
16,35850	49370
16,36262	48229
16,36675	48114
16,37087	47591
16,37498	46598
16,37912	46554
16,38323	47013
16,38735	46573
16,39147	44600
16,39560	45488
16,39972	44379
16,40383	47721
16,40797	52404
16,41208	59199
16,41620	83120
16,42033	121871
16,42445	188769
16,42857	297161
16,43270	444108
16,43682	633705
16,44093	863895
16,44507	1094487
16,44918	1324900
16,45330	1507593
16,45743	1616526
16,46155	1654127
16,46567	1600154
16,46980	1488170
16,47392	1327737
16,47803	1154186
16,48215	985383
16,48628	826750
16,49040	686377
16,49452	581019
16,49865	487324
16,50277	418612
16,50688	355233
16,51102	310102
16,51513	268123
16,51925	237260
16,52338	214147
16,52750	189490
16,53162	173932
16,53575	158888
16,53987	145002
16,54398	136304
16,54812	128477
16,55223	120383
16,55635	110140
16,56048	105621
16,56460	96496
16,56872	92059
16,57283	88487
16,57697	88260
16,58108	81151
16,58520	78079
16,58933	75066
16,59345	74578
16,59757	69751
16,60170	69514
16,60582	68981
16,60993	66353
16,61407	62241
16,61818	59126
16,62230	58446
16,62643	57354
16,63055	55897
16,63467	55256
16,63880	55425
16,64292	51688
16,64703	50747
16,65117	48262
16,65528	47851
16,65940	47138
16,66352	45204
16,66765	45193
16,67177	43883
16,67588	46095
16,68002	40510
16,68413	44350
16,68825	42052
16,69238	41162
16,69650	38555
16,70062	40994
16,70475	39101
16,70887	38914
16,71298	40934
16,71712	39765
16,72123	39393
16,72535	37248
16,72948	37420
16,73360	37343
16,73772	36709
16,74185	36055
16,74597	35509
16,75008	35541
16,75420	34329
16,75833	35322
16,76245	34115
16,76657	34962
16,77070	36157
16,77482	34354
16,77893	37119
16,78307	36836
16,78718	36399
16,79130	36595
16,79543	35729
16,79955	32865
16,80367	37029
16,80780	33772
16,81192	35133
16,81603	34814
16,82017	34929
16,82428	34025
16,82840	33809
16,83253	34187
16,83665	34756
16,84077	34758
16,84488	34283
16,84902	33991
16,85313	32400
16,85725	30774
16,86138	28667
16,86550	29655
16,86962	32569
16,87375	32744
16,87787	31272
16,88198	35559
16,88612	39888
16,89023	51457
16,89435	68120
16,89848	111930
16,90260	179917
16,90672	307784
16,91085	512390
16,91497	809337
16,91908	1249145
16,92322	1797986
16,92733	2456688
16,93145	3221031
16,93557	3933878
16,93970	4701089
16,94382	5270167
16,94793	5624536
16,95207	5721918
16,95618	5497616
16,96030	5041271
16,96443	4451383
16,96855	3773371
16,97267	3158395
16,97680	2592641
16,98092	2117670
16,98503	1747964
16,98917	1469302
16,99328	1230091
16,99740	1052573
17,00153	902783
17,00565	789495
17,00977	694200
17,01390	625888
17,01802	557961
17,02213	504802
17,02625	458489
17,03038	416343
17,03450	381685
17,03862	358493
17,04275	333472
17,04687	312055
17,05098	286015
17,05512	270635
17,05923	251748
17,06335	239170
17,06748	225990
17,07160	211265
17,07572	202257
17,07985	193033
17,08397	183297
17,08808	176604
17,09222	166258
17,09633	158532
17,10045	152103
17,10458	146187
17,10870	139070
17,11282	132907
17,11693	133123
17,12107	128135
17,12518	120091
17,12930	118352
17,13343	114835
17,13755	109133
17,14167	106602
17,14580	104566
17,14992	102906
17,15403	99356
17,15817	94816
17,16228	92111
17,16640	89410
17,17053	89452
17,17465	88930
17,17877	86179
17,18290	84864
17,18702	81411
17,19113	86258
17,19527	89878
17,19938	102738
17,20350	125546
17,20762	173975
17,21175	236343
17,21587	340913
17,21998	485612
17,22412	665915
17,22823	879546
17,23235	1092330
17,23648	1286171
17,24060	1442193
17,24472	1520833
17,24885	1520074
17,25297	1462802
17,25708	1345931
17,26122	1222555
17,26533	1092826
17,26945	981804
17,27358	909592
17,27770	907323
17,28182	936305
17,28595	1022442
17,29007	1135959
17,29418	1282621
17,29830	1394839
17,30243	1511994
17,30655	1556108
17,31067	1548428
17,31480	1505035
17,31892	1382962
17,32303	1264136
17,32717	1149598
17,33128	1070222
17,33540	1026480
17,33953	1032195
17,34365	1121631
17,34777	1271349
17,35190	1456232
17,35602	1691225
17,36013	1888445
17,36427	2083136
17,36838	2184584
17,37250	2196527
17,37663	2090556
17,38075	1933537
17,38487	1713650
17,38898	1484956
17,39312	1281005
17,39723	1081398
17,40135	931811
17,40548	792106
17,40960	684367
17,41372	603148
17,41785	527728
17,42197	468725
17,42608	422930
17,43022	379886
17,43433	344719
17,43845	316363
17,44258	293675
17,44670	269212
17,45082	256914
17,45495	238105
17,45907	221464
17,46318	207801
17,46732	197411
17,47143	187824
17,47555	177167
17,47967	172213
17,48380	160269
17,48792	154360
17,49203	147209
17,49617	141369
17,50028	135554
17,50440	132538
17,50853	128092
17,51265	121126
17,51677	114498
17,52090	114963
17,52502	110542
17,52913	105363
17,53327	101687
17,53738	99558
17,54150	97996
17,54563	95300
17,54975	93626
17,55387	92293
17,55800	88294
17,56212	86009
17,56623	84194
17,57035	81171
17,57448	82916
17,57860	77876
17,58272	76766
17,58685	75336
17,59097	76413
17,59508	76641
17,59922	75804
17,60333	72710
17,60745	72513
17,61158	69195
17,61570	67752
17,61982	69272
17,62395	69600
17,62807	68414
17,63218	64573
17,63632	66041
17,64043	64217
17,64455	62861
17,64868	63437
17,65280	65823
17,65692	70708
17,66103	78676
17,66517	98732
17,66928	133018
17,67340	189563
17,67753	280415
17,68165	416131
17,68577	607719
17,68990	870657
17,69402	1167856
17,69813	1480830
17,70227	1769722
17,70638	1985611
17,71050	2105873
17,71463	2111274
17,71875	2026777
17,72287	1815013
17,72700	1603223
17,73112	1364446
17,73523	1156233
17,73937	970996
17,74348	830732
17,74760	709528
17,75172	614823
17,75585	537425
17,75997	470543
17,76408	415771
17,76822	374029
17,77233	340398
17,77645	306391
17,78058	282530
17,78470	255246
17,78882	245040
17,79295	228208
17,79707	210232
17,80118	198620
17,80532	188279
17,80943	176619
17,81355	168312
17,81768	162030
17,82180	154698
17,82592	146204
17,83005	144942
17,83417	140183
17,83828	132622
17,84240	128951
17,84653	127638
17,85065	120484
17,85477	118060
17,85890	114903
17,86302	109971
17,86713	110132
17,87127	102746
17,87538	105554
17,87950	101220
17,88363	99152
17,88775	95709
17,89187	92593
17,89600	93766
17,90012	90211
17,90423	88296
17,90837	88257
17,91248	85045
17,91660	84973
17,92073	80106
17,92485	81898
17,92897	78664
17,93310	82368
17,93722	78602
17,94133	75154
17,94545	73082
17,94958	77988
17,95370	76302
17,95782	75709
17,96195	76494
17,96607	73148
17,97018	79439
17,97432	85395
17,97843	101226
17,98255	127919
17,98668	179530
17,99080	258840
17,99492	368577
17,99905	540191
18,00317	746772
18,00728	999269
18,01142	1232993
18,01553	1447917
18,01965	1619853
18,02378	1703032
18,02790	1703294
18,03202	1629859
18,03613	1492808
18,04027	1327840
18,04438	1154489
18,04850	984932
18,05263	847527
18,05675	725505
18,06087	631681
18,06500	559448
18,06912	514719
18,07323	502725
18,07737	521807
18,08148	580377
18,08560	668457
18,08973	790886
18,09385	934625
18,09797	1085607
18,10210	1209041
18,10622	1297887
18,11033	1356125
18,11447	1341724
18,11858	1289201
18,12270	1195642
18,12682	1067162
18,13095	947852
18,13507	819865
18,13918	699285
18,14332	609357
18,14743	527093
18,15155	457290
18,15568	408190
18,15980	354460
18,16392	316849
18,16805	284367
18,17217	263803
18,17628	239736
18,18042	220784
18,18453	199521
18,18865	186257
18,19278	175756
18,19690	171417
18,20102	159695
18,20515	151993
18,20927	143583
18,21338	133820
18,21750	132376
18,22163	125456
18,22575	122312
18,22987	115269
18,23400	111957
18,23812	111263
18,24223	103694
18,24637	103492
18,25048	100833
18,25460	97682
18,25873	95833
18,26285	92485
18,26697	93099
18,27110	89432
18,27522	85392
18,27933	84855
18,28347	85918
18,28758	82313
18,29170	83206
18,29583	80941
18,29995	79007
18,30407	77413
18,30818	76765
18,31232	75597
18,31643	78192
18,32055	74714
18,32468	74381
18,32880	74474
18,33292	69868
18,33705	72126
18,34117	68829
18,34528	70944
18,34942	68090
18,35353	68898
18,35765	64674
18,36178	65046
18,36590	64551
18,37002	62045
18,37415	62251
18,37827	59738
18,38238	60244
18,38652	61941
18,39063	64335
18,39475	60560
18,39887	63538
18,40300	64511
18,40712	71373
18,41123	83494
18,41537	105704
18,41948	145236
18,42360	204994
18,42773	305884
18,43185	459977
18,43597	671486
18,44010	962144
18,44422	1341463
18,44833	1785593
18,45247	2285943
18,45658	2785854
18,46070	3298921
18,46483	3705399
18,46895	3972893
18,47307	4044432
18,47720	3855391
18,48132	3510304
18,48543	3061544
18,48955	2581938
18,49368	2171164
18,49780	1814438
18,50192	1525083
18,50605	1287435
18,51017	1098577
18,51428	955136
18,51842	836676
18,52253	741386
18,52665	660574
18,53078	595526
18,53490	537433
18,53902	495114
18,54315	453588
18,54727	415624
18,55138	386205
18,55552	362169
18,55963	341713
18,56375	318248
18,56788	297354
18,57200	283951
18,57612	266964
18,58023	252851
18,58437	241619
18,58848	231111
18,59260	218744
18,59673	213142
18,60085	204600
18,60497	198170
18,60910	189964
18,61322	186948
18,61733	176071
18,62147	170533
18,62558	166579
18,62970	161411
18,63383	157791
18,63795	152857
18,64207	147274
18,64620	146057
18,65032	140160
18,65443	138114
18,65857	130441
18,66268	131835
18,66680	128001
18,67092	124079
18,67505	124127
18,67917	118336
18,68328	116350
18,68742	118925
18,69153	115635
18,69565	113545
18,69978	111819
18,70390	106592
18,70802	103788
18,71215	100232
18,71627	106057
18,72038	100836
18,72452	100623
18,72863	97357
18,73275	99784
18,73688	95592
18,74100	96714
18,74512	97316
18,74925	91453
18,75337	91631
18,75748	90140
18,76160	91133
18,76573	86803
18,76985	88376
18,77397	85288
18,77810	85932
18,78222	84821
18,78633	83468
18,79047	80932
18,79458	83630
18,79870	81477
18,80283	78192
18,80695	80654
18,81107	79980
18,81520	84806
18,81932	95399
18,82343	113857
18,82757	138470
18,83168	186090
18,83580	255081
18,83993	369084
18,84405	517563
18,84817	704506
18,85228	936976
18,85642	1193896
18,86053	1438270
18,86465	1643442
18,86878	1781263
18,87290	1848533
18,87702	1822006
18,88115	1716472
18,88527	1553347
18,88938	1368442
18,89352	1197508
18,89763	1040793
18,90175	908192
18,90588	780033
18,91000	676931
18,91412	597505
18,91825	524162
18,92237	469783
18,92648	426298
18,93062	390944
18,93473	355302
18,93885	328871
18,94297	303993
18,94710	284191
18,95122	267317
18,95533	249345
18,95947	233792
18,96358	220729
18,96770	215997
18,97183	206259
18,97595	192709
18,98007	184901
18,98420	177406
18,98832	171618
18,99243	164269
18,99657	158830
19,00068	153019
19,00480	149263
19,00893	144562
19,01305	138072
19,01717	137930
19,02130	130040
19,02542	127458
19,02953	126644
19,03365	124564
19,03778	120409
19,04190	116927
19,04602	116841
19,05015	109561
19,05427	109299
19,05838	110387
19,06252	103551
19,06663	102754
19,07075	103580
19,07488	104399
19,07900	98901
19,08312	98798
19,08725	94862
19,09137	94510
19,09548	93329
19,09962	92450
19,10373	94160
19,10785	90221
19,11198	88842
19,11610	86257
19,12022	85201
19,12433	85766
19,12847	83540
19,13258	85224
19,13670	83428
19,14083	82690
19,14495	81335
19,14907	80012
19,15320	79715
19,15732	78046
19,16143	80442
19,16557	82275
19,16968	81427
19,17380	80206
19,17793	82040
19,18205	80810
19,18617	82592
19,19030	79597
19,19442	81231
19,19853	81700
19,20267	79437
19,20678	79747
19,21090	76677
19,21502	77899
19,21915	73779
19,22327	77024
19,22738	72421
19,23152	74448
19,23563	75970
19,23975	75061
19,24388	81430
19,24800	83394
19,25212	90335
19,25625	99328
19,26037	108864
19,26448	116161
19,26862	126230
19,27273	133986
19,27685	142233
19,28098	146814
19,28510	145241
19,28922	147299
19,29335	141109
19,29747	133213
19,30158	125170
19,30570	119012
19,30983	110953
19,31395	107172
19,31807	99834
19,32220	92853
19,32632	90754
19,33043	84875
19,33457	83421
19,33868	81391
19,34280	77677
19,34693	74249
19,35105	74594
19,35517	70194
19,35930	72641
19,36342	69494
19,36753	69238
19,37167	68609
19,37578	68936
19,37990	64695
19,38403	64661
19,38815	66895
19,39227	63248
19,39638	64344
19,40052	63323
19,40463	64251
19,40875	64517
19,41288	63772
19,41700	63390
19,42112	64361
19,42525	63117
19,42937	63677
19,43348	62636
19,43762	64188
19,44173	65597
19,44585	64166
19,44998	61911
19,45410	62674
19,45822	61205
19,46235	62189
19,46647	63920
19,47058	60103
19,47472	61833
19,47883	61506
19,48295	59055
19,48707	59202
19,49120	60216
19,49532	59861
19,49943	56699
19,50357	55713
19,50768	59428
19,51180	58691
19,51593	59105
19,52005	58608
19,52417	56787
19,52830	58297
19,53242	57914
19,53653	54549
19,54067	58677
19,54478	56696
19,54890	55837
19,55303	55780
19,55715	57002
19,56127	57406
19,56540	55260
19,56952	56490
19,57363	56012
19,57777	56647
19,58188	57322
19,58600	56633
19,59012	55110
19,59425	55724
19,59837	56773
19,60248	57631
19,60662	59696
19,61073	55672
19,61485	54862
19,61898	54277
19,62310	57671
19,62722	56605
19,63135	55182
19,63547	53240
19,63958	55356
19,64372	55229
19,64783	56455
19,65195	53801
19,65608	54546
19,66020	56029
19,66432	52913
19,66845	53803
19,67257	55513
19,67668	52057
19,68080	53916
19,68493	51947
19,68905	52013
19,69317	53061
19,69730	53207
19,70142	52238
19,70553	53029
19,70967	53442
19,71378	52965
19,71790	55666
19,72203	53385
19,72615	53971
19,73027	56025
19,73440	53974
19,73852	54991
19,74263	53435
19,74677	56084
19,75088	57768
19,75500	50644
19,75913	51290
19,76325	52411
19,76737	53213
19,77148	50610
19,77562	52804
19,77973	55720
19,78385	49328
19,78798	52877
19,79210	50901
19,79622	52901
19,80035	51881
19,80447	52002
19,80858	51142
19,81272	55514
19,81683	50586
19,82095	55664
19,82508	51196
19,82920	51273
19,83332	52005
19,83745	50419
19,84157	50899
19,84568	52189
19,84982	51596
19,85393	51387
19,85805	51327
19,86217	48636
19,86630	50466
19,87042	49444
19,87453	50504
19,87867	50211
19,88278	48723
19,88690	49696
19,89103	48850
19,89515	48428
19,89927	47673
19,90340	48642
19,90752	49339
19,91163	50489
19,91577	48848
19,91988	52008
19,92400	47488
19,92813	48646
19,93225	51725
19,93637	50749
19,94050	51291
19,94462	51878
19,94873	52598
19,95285	51372
19,95698	53447
19,96110	51736
19,96522	50651
19,96935	48617
19,97347	52066
19,97758	50484
19,98172	50659
19,98583	49275
19,98995	48832
19,99408	50808
19,99820	52634
20,00232	54061
20,00645	55458
20,01057	58734
20,01468	66446
20,01882	80500
20,02293	102674
20,02705	132930
20,03118	178865
20,03530	235037
20,03942	318146
20,04353	411201
20,04767	521180
20,05178	622089
20,05590	717989
20,06003	793341
20,06415	853580
20,06827	876309
20,07240	874015
20,07652	834342
20,08063	788298
20,08477	730535
20,08888	661584
20,09300	595451
20,09713	531762
20,10125	474094
20,10537	421957
20,10950	380926
20,11362	335646
20,11773	307938
20,12187	270641
20,12598	252475
20,13010	231691
20,13422	211252
20,13835	195721
20,14247	183540
20,14658	172857
20,15072	163085
20,15483	153013
20,15895	142530
20,16308	138880
20,16720	130032
20,17132	125555
20,17545	120211
20,17957	118728
20,18368	114460
20,18782	107058
20,19193	107102
20,19605	102602
20,20018	101961
20,20430	97669
20,20842	93379
20,21255	93426
20,21667	90518
20,22078	85229
20,22490	86677
20,22903	86320
20,23315	81583
20,23727	81611
20,24140	82002
20,24552	79649
20,24963	78463
20,25377	73746
20,25788	75705
20,26200	74221
20,26613	74361
20,27025	72686
20,27437	73394
20,27850	72919
20,28262	69792
20,28673	70211
20,29087	67604
20,29498	67606
20,29910	67055
20,30323	65007
20,30735	68740
20,31147	65430
20,31558	66403
20,31972	64154
20,32383	62677
20,32795	64755
20,33208	64764
20,33620	62404
20,34032	63515
20,34445	61274
20,34857	62291
20,35268	61953
20,35682	62338
20,36093	62875
20,36505	60485
20,36918	61409
20,37330	58781
20,37742	61024
20,38155	58487
20,38567	58059
20,38978	59076
20,39392	57898
20,39803	58191
20,40215	58585
20,40627	58324
20,41040	56718
20,41452	56894
20,41863	55876
20,42277	57713
20,42688	58034
20,43100	54751
20,43513	56958
20,43925	55372
20,44337	54465
20,44750	55938
20,45162	56179
20,45573	56284
20,45987	55544
20,46398	53645
20,46810	54476
20,47223	53493
20,47635	53951
20,48047	53461
20,48460	56851
20,48872	57924
20,49283	56971
20,49695	55307
20,50108	57950
20,50520	56689
20,50932	56088
20,51345	57253
20,51757	57923
20,52168	55345
20,52582	53201
20,52993	55119
20,53405	56214
20,53818	54112
20,54230	52911
20,54642	52581
20,55055	55800
20,55467	54255
20,55878	55078
20,56292	54632
20,56703	53372
20,57115	50506
20,57528	54332
20,57940	52615
20,58352	51955
20,58763	49645
20,59177	55355
20,59588	52975
20,60000	53690
20,60413	51556
20,60825	51746
20,61237	50998
20,61650	50707
20,62062	53107
20,62473	51732
20,62887	52379
20,63298	51327
20,63710	51070
20,64123	52716
20,64535	54188
20,64947	51496
20,65360	51956
20,65772	51336
20,66183	54426
20,66597	49881
20,67008	51566
20,67420	52744
20,67832	50808
20,68245	53110
20,68657	52882
20,69068	49960
20,69482	49432
20,69893	50893
20,70305	50521
20,70718	51719
20,71130	50901
20,71542	52556
20,71955	50896
20,72367	53388
20,72778	50293
20,73192	52228
20,73603	52476
20,74015	50631
20,74428	53209
20,74840	53836
20,75252	52676
20,75665	55159
20,76077	52080
20,76488	53310
20,76900	52520
20,77313	50627
20,77725	52059
20,78137	51997
20,78550	50677
20,78962	51489
20,79373	53785
20,79787	50668
20,80198	50203
20,80610	50421
20,81023	52229
20,81435	48874
20,81847	53233
20,82260	51636
20,82672	52400
20,83083	51635
20,83497	50555
20,83908	49350
20,84320	51218
20,84733	51154
20,85145	52007
20,85557	50963
20,85968	52149
20,86382	53614
20,86793	52172
20,87205	53557
20,87618	49093
20,88030	52222
20,88442	52222
20,88855	50430
20,89267	51651
20,89678	53217
20,90092	52189
20,90503	51490
20,90915	50379
20,91328	51034
20,91740	52904
20,92152	50923
20,92565	50829
20,92977	49587
20,93388	51444
20,93802	50595
20,94213	52720
20,94625	49705
20,95037	51854
20,95450	47659
20,95862	48680
20,96273	48881
20,96687	49393
20,97098	51457
20,97510	49276
20,97923	49743
20,98335	51125
20,98747	49900
20,99160	48895
20,99572	51634
20,99983	51763
21,00397	48735
21,00808	52781
21,01220	50455
21,01633	49238
21,02045	49724
21,02457	51061
21,02870	48023
21,03282	49395
21,03693	50565
21,04105	50816
21,04518	51659
21,04930	48043
21,05342	51280
21,05755	49956
21,06167	51184
21,06578	47985
21,06992	46057
21,07403	48323
21,07815	50170
21,08228	48349
21,08640	47832
21,09052	46565
21,09465	46287
21,09877	48484
21,10288	48504
21,10702	50487
21,11113	50799
21,11525	50521
21,11938	52026
21,12350	50563
21,12762	51933
21,13173	50284
21,13587	52743
21,13998	51404
21,14410	51888
21,14823	50206
21,15235	53219
21,15647	51610
21,16060	54216
21,16472	52690
21,16883	53476
21,17297	52083
21,17708	51321
21,18120	50806
21,18533	53223
21,18945	52796
21,19357	49263
21,19770	50731
21,20182	50643
21,20593	50173
21,21007	51824
21,21418	52155
21,21830	50023
21,22242	51235
21,22655	51011
21,23067	52070
21,23478	51193
21,23892	52052
21,24303	50747
21,24715	52212
21,25128	50908
21,25540	49770
21,25952	51576
21,26365	50936
21,26777	50132
21,27188	49444
