D:\MassHunter\GCMS\1\data\Amal\Constant flow\150C\150C_1ml-min_3C-min_2.D Fri Aug 30 15:39:02 2024
Start of data points
4,84080	3665164
4,84492	3482196
4,84905	3329169
4,85317	3171494
4,85728	3026006
4,86142	2861117
4,86553	2717554
4,86965	2584482
4,87378	2469757
4,87790	2359979
4,88202	2260847
4,88615	2149352
4,89027	2050348
4,89438	1961405
4,89850	1858856
4,90263	1783337
4,90675	1702514
4,91087	1620003
4,91500	1557125
4,91912	1482474
4,92323	1410348
4,92737	1360672
4,93148	1301540
4,93560	1239962
4,93973	1186452
4,94385	1131322
4,94797	1094863
4,95210	1046960
4,95622	988604
4,96033	949504
4,96447	911285
4,96858	877214
4,97270	843926
4,97683	801668
4,98095	773905
4,98507	741197
4,98918	712295
4,99332	680511
4,99743	650078
5,00155	617621
5,00568	596809
5,00980	568063
5,01392	546426
5,01805	526647
5,02217	503146
5,02628	477151
5,03042	457243
5,03453	440502
5,03865	422344
5,04278	402147
5,04690	389566
5,05102	368454
5,05515	351944
5,05927	343092
5,06338	329505
5,06752	315545
5,07163	306828
5,07575	298283
5,07987	289371
5,08400	280130
5,08812	268791
5,09223	259667
5,09637	250848
5,10048	243603
5,10460	234611
5,10873	231841
5,11285	225343
5,11697	217350
5,12110	209528
5,12522	207958
5,12933	203863
5,13347	195456
5,13758	196022
5,14170	186777
5,14583	186905
5,14995	182233
5,15407	178404
5,15820	174667
5,16232	171655
5,16643	166116
5,17055	163850
5,17468	159053
5,17880	157594
5,18292	154979
5,18705	149730
5,19117	151383
5,19528	145698
5,19942	145065
5,20353	141866
5,20765	141668
5,21178	142220
5,21590	137732
5,22002	136880
5,22415	136792
5,22827	130199
5,23238	131360
5,23652	131871
5,24063	129156
5,24475	130244
5,24888	123908
5,25300	123498
5,25712	123125
5,26123	121664
5,26537	122189
5,26948	120229
5,27360	119734
5,27773	116756
5,28185	118924
5,28597	115116
5,29010	116248
5,29422	114521
5,29833	113297
5,30247	113399
5,30658	112966
5,31070	110540
5,31483	110271
5,31895	111088
5,32307	111016
5,32720	110730
5,33132	110597
5,33543	110022
5,33957	108426
5,34368	106083
5,34780	106893
5,35192	108579
5,35605	107623
5,36017	105105
5,36428	104377
5,36842	104086
5,37253	103280
5,37665	103354
5,38078	99524
5,38490	98441
5,38902	99812
5,39315	101526
5,39727	99084
5,40138	96570
5,40552	98916
5,40963	99114
5,41375	100048
5,41788	98230
5,42200	97807
5,42612	103591
5,43025	108811
5,43437	130865
5,43848	171266
5,44260	242112
5,44673	351895
5,45085	481640
5,45497	631015
5,45910	777384
5,46322	902182
5,46733	979717
5,47147	1040167
5,47558	1067418
5,47970	1068486
5,48383	1062137
5,48795	1034730
5,49207	999413
5,49620	969196
5,50032	946699
5,50443	919982
5,50857	895593
5,51268	860789
5,51680	831490
5,52093	805154
5,52505	779208
5,52917	750773
5,53328	724903
5,53742	707111
5,54153	682625
5,54565	652473
5,54978	633360
5,55390	618378
5,55802	600299
5,56215	578018
5,56627	561293
5,57038	540057
5,57452	517123
5,57863	506150
5,58275	485743
5,58688	463769
5,59100	448576
5,59512	432761
5,59925	417577
5,60337	410372
5,60748	391356
5,61162	374516
5,61573	361320
5,61985	349572
5,62397	331827
5,62810	318389
5,63222	303451
5,63633	287283
5,64047	273539
5,64458	257016
5,64870	242688
5,65283	231840
5,65695	221648
5,66107	211520
5,66520	194935
5,66932	190286
5,67343	183601
5,67757	173231
5,68168	168084
5,68580	157181
5,68993	150899
5,69405	148387
5,69817	139657
5,70230	132625
5,70642	130090
5,71053	125261
5,71465	119711
5,71878	117678
5,72290	111514
5,72702	109263
5,73115	107079
5,73527	104375
5,73938	102360
5,74352	100408
5,74763	95377
5,75175	95668
5,75588	91993
5,76000	89675
5,76412	91698
5,76825	90027
5,77237	85626
5,77648	87874
5,78062	83530
5,78473	84703
5,78885	80395
5,79298	82367
5,79710	79972
5,80122	81825
5,80533	77827
5,80947	78061
5,81358	77314
5,81770	76148
5,82183	75625
5,82595	75641
5,83007	77916
5,83420	76057
5,83832	75790
5,84243	72695
5,84657	76093
5,85068	75027
5,85480	72362
5,85893	73959
5,86305	74154
5,86717	75194
5,87130	73227
5,87542	71973
5,87953	72556
5,88367	70526
5,88778	68528
5,89190	70830
5,89602	70524
5,90015	71812
5,90427	69112
5,90838	74102
5,91252	79346
5,91663	89200
5,92075	113579
5,92488	143174
5,92900	191505
5,93312	250580
5,93725	323374
5,94137	392159
5,94548	459575
5,94962	509768
5,95373	538394
5,95785	563397
5,96198	580467
5,96610	580156
5,97022	573554
5,97435	556776
5,97847	540280
5,98258	535257
5,98672	519496
5,99083	506615
5,99495	497353
5,99907	479185
6,00320	461864
6,00732	445353
6,01143	431255
6,01557	424876
6,01968	415838
6,02380	393564
6,02793	383303
6,03205	374849
6,03617	359854
6,04030	348831
6,04442	336254
6,04853	329212
6,05267	310966
6,05678	299157
6,06090	294657
6,06503	287413
6,06915	271747
6,07327	262962
6,07740	255474
6,08152	247227
6,08563	240402
6,08975	228079
6,09388	216837
6,09800	208412
6,10212	203285
6,10625	194924
6,11037	183829
6,11448	174855
6,11862	166135
6,12273	157382
6,12685	147109
6,13098	143749
6,13510	135493
6,13922	131826
6,14335	125448
6,14747	121278
6,15158	113532
6,15572	111099
6,15983	102198
6,16395	101767
6,16808	100086
6,17220	93409
6,17632	89630
6,18043	90165
6,18457	86539
6,18868	82656
6,19280	80745
6,19693	79453
6,20105	75109
6,20517	74780
6,20930	72901
6,21342	70996
6,21753	71812
6,22167	70177
6,22578	70540
6,22990	66613
6,23403	67199
6,23815	66593
6,24227	66058
6,24640	62723
6,25052	62886
6,25463	62274
6,25877	61445
6,26288	60611
6,26700	59941
6,27112	59233
6,27525	59104
6,27937	58453
6,28348	57790
6,28762	56628
6,29173	55566
6,29585	59954
6,29998	57003
6,30410	54491
6,30822	52525
6,31235	55669
6,31647	54002
6,32058	54562
6,32472	53113
6,32883	54548
6,33295	53629
6,33708	53523
6,34120	51654
6,34532	51373
6,34945	50532
6,35357	50864
6,35768	50633
6,36180	50374
6,36593	51112
6,37005	51543
6,37417	50818
6,37830	50547
6,38242	50790
6,38653	49157
6,39067	50332
6,39478	51396
6,39890	49691
6,40303	48120
6,40715	49522
6,41127	48843
6,41540	47441
6,41952	50929
6,42363	48702
6,42777	49592
6,43188	48111
6,43600	48326
6,44013	47617
6,44425	48425
6,44837	47193
6,45248	46967
6,45662	47248
6,46073	46664
6,46485	48191
6,46898	45692
6,47310	45146
6,47722	47123
6,48135	49826
6,48547	46038
6,48958	47583
6,49372	46776
6,49783	46300
6,50195	47642
6,50608	47234
6,51020	48016
6,51432	46969
6,51845	47683
6,52257	48670
6,52668	53351
6,53082	62302
6,53493	79336
6,53905	107075
6,54317	154158
6,54730	223289
6,55142	313145
6,55553	429914
6,55967	575388
6,56378	699193
6,56790	836347
6,57203	934703
6,57615	1031665
6,58027	1071845
6,58440	1118143
6,58852	1121638
6,59263	1132953
6,59677	1122381
6,60088	1106992
6,60500	1076753
6,60913	1059315
6,61325	1025689
6,61737	995843
6,62150	958046
6,62562	933248
6,62973	898296
6,63385	866278
6,63798	841467
6,64210	817825
6,64622	786152
6,65035	756937
6,65447	728037
6,65858	694209
6,66272	670897
6,66683	646306
6,67095	625704
6,67508	599479
6,67920	567562
6,68332	539559
6,68745	527491
6,69157	494530
6,69568	473786
6,69982	448484
6,70393	425209
6,70805	407531
6,71218	379461
6,71630	361192
6,72042	335248
6,72453	314909
6,72867	291598
6,73278	281357
6,73690	260125
6,74103	241231
6,74515	225811
6,74927	210568
6,75340	194513
6,75752	183256
6,76163	163748
6,76577	155070
6,76988	148905
6,77400	138929
6,77813	130381
6,78225	122405
6,78637	115598
6,79050	108167
6,79462	99411
6,79873	97477
6,80287	88532
6,80698	88839
6,81110	81135
6,81522	79499
6,81935	76972
6,82347	73015
6,82758	70829
6,83172	67559
6,83583	63810
6,83995	63953
6,84408	62044
6,84820	59929
6,85232	58753
6,85645	56787
6,86057	55275
6,86468	53709
6,86882	52177
6,87293	53681
6,87705	50818
6,88118	51956
6,88530	49053
6,88942	47823
6,89355	48911
6,89767	46699
6,90178	44958
6,90590	46675
6,91003	45476
6,91415	44421
6,91827	45514
6,92240	46155
6,92652	44520
6,93063	43361
6,93477	42453
6,93888	42356
6,94300	42473
6,94713	42779
6,95125	41677
6,95537	41238
6,95950	41494
6,96362	41696
6,96773	42513
6,97187	41422
6,97598	42435
6,98010	40898
6,98423	40329
6,98835	41433
6,99247	41463
6,99658	40967
7,00072	40984
7,00483	39829
7,00895	40534
7,01308	38721
7,01720	38837
7,02132	38695
7,02545	40015
7,02957	39092
7,03368	37269
7,03782	37325
7,04193	37492
7,04605	36555
7,05018	37176
7,05430	38632
7,05842	37814
7,06255	39186
7,06667	36567
7,07078	37230
7,07492	37343
7,07903	35436
7,08315	36873
7,08727	35246
7,09140	36951
7,09552	37193
7,09963	34967
7,10377	35376
7,10788	37352
7,11200	36842
7,11613	36724
7,12025	37398
7,12437	35497
7,12850	36996
7,13262	34682
7,13673	35870
7,14087	36053
7,14498	36405
7,14910	36173
7,15323	34667
7,15735	35345
7,16147	35977
7,16560	34440
7,16972	33444
7,17383	33983
7,17795	34401
7,18208	33167
7,18620	34762
7,19032	34647
7,19445	35095
7,19857	33197
7,20268	35020
7,20682	32936
7,21093	32577
7,21505	34651
7,21918	34571
7,22330	33131
7,22742	33195
7,23155	34226
7,23567	34422
7,23978	34212
7,24392	33326
7,24803	32592
7,25215	32782
7,25628	32988
7,26040	32416
7,26452	33411
7,26863	33580
7,27277	33061
7,27688	32394
7,28100	32219
7,28513	33803
7,28925	31880
7,29337	31787
7,29750	33003
7,30162	34178
7,30573	36665
7,30987	39063
7,31398	45694
7,31810	57009
7,32223	73263
7,32635	102306
7,33047	132966
7,33460	178826
7,33872	236364
7,34283	292141
7,34697	356624
7,35108	418932
7,35520	475069
7,35932	534869
7,36345	563580
7,36757	580220
7,37168	596218
7,37582	609176
7,37993	605890
7,38405	596957
7,38818	593516
7,39230	583753
7,39642	568166
7,40055	554533
7,40467	535827
7,40878	523704
7,41292	508784
7,41703	496045
7,42115	476600
7,42528	461300
7,42940	442944
7,43352	425417
7,43765	409452
7,44177	396751
7,44588	376965
7,45000	363893
7,45413	352566
7,45825	338785
7,46237	316780
7,46650	301359
7,47062	284289
7,47473	268180
7,47887	253476
7,48298	235397
7,48710	225929
7,49123	208819
7,49535	195235
7,49947	184602
7,50360	171911
7,50772	161692
7,51183	147399
7,51597	138759
7,52008	125319
7,52420	118740
7,52833	110055
7,53245	102953
7,53657	97542
7,54068	90630
7,54482	86186
7,54893	82064
7,55305	76597
7,55718	70956
7,56130	67429
7,56542	64453
7,56955	60439
7,57367	56785
7,57778	55981
7,58192	51667
7,58603	51948
7,59015	49995
7,59428	46941
7,59840	45934
7,60252	44450
7,60665	42394
7,61077	42921
7,61488	40983
7,61902	42181
7,62313	41039
7,62725	38862
7,63138	39473
7,63550	36234
7,63962	36573
7,64373	36291
7,64787	37114
7,65198	35525
7,65610	35058
7,66023	36203
7,66435	33796
7,66847	35401
7,67260	34414
7,67672	33250
7,68083	32775
7,68497	31973
7,68908	32103
7,69320	31845
7,69733	31579
7,70145	32098
7,70557	31667
7,70970	31772
7,71382	31453
7,71793	31004
7,72207	30646
7,72618	32339
7,73030	31227
7,73442	29876
7,73855	31432
7,74267	30941
7,74678	30211
7,75092	32085
7,75503	30026
7,75915	30607
7,76328	29978
7,76740	28618
7,77152	29035
7,77565	28826
7,77977	31001
7,78388	28569
7,78802	29385
7,79213	29377
7,79625	30887
7,80038	29312
7,80450	31108
7,80862	29632
7,81275	29460
7,81687	31195
7,82098	31719
7,82510	30929
7,82923	30611
7,83335	31062
7,83747	30899
7,84160	29405
7,84572	29959
7,84983	30902
7,85397	30125
7,85808	27706
7,86220	28670
7,86633	29180
7,87045	29495
7,87457	29092
7,87870	29421
7,88282	28442
7,88693	26982
7,89107	29463
7,89518	28599
7,89930	28003
7,90343	26626
7,90755	27943
7,91167	26554
7,91578	27026
7,91992	27198
7,92403	27861
7,92815	26706
7,93228	28797
7,93640	27664
7,94052	26107
7,94465	25000
7,94877	27439
7,95288	27223
7,95702	25515
7,96113	28138
7,96525	26944
7,96938	25258
7,97350	25458
7,97762	24865
7,98175	25104
7,98587	25456
7,98998	26271
7,99412	26931
7,99823	26412
8,00235	25404
8,00647	25361
8,01060	25889
8,01472	24589
8,01883	26725
8,02297	25033
8,02708	25152
8,03120	25431
8,03533	25213
8,03945	24778
8,04357	26862
8,04770	26605
8,05182	23800
8,05593	24606
8,06007	24323
8,06418	25193
8,06830	24578
8,07243	25806
8,07655	25607
8,08067	25290
8,08480	26227
8,08892	23780
8,09303	23848
8,09715	23985
8,10128	25248
8,10540	25322
8,10952	25683
8,11365	24997
8,11777	24751
8,12188	25403
8,12602	24143
8,13013	25183
8,13425	24450
8,13838	24691
8,14250	24627
8,14662	24601
8,15075	25419
8,15487	25216
8,15898	25736
8,16312	27917
8,16723	26296
8,17135	27552
8,17548	27445
8,17960	25329
8,18372	28541
8,18783	27886
8,19197	28112
8,19608	29152
8,20020	27676
8,20433	27778
8,20845	27271
8,21257	27676
8,21670	27599
8,22082	26982
8,22493	26108
8,22907	26978
8,23318	27574
8,23730	26886
8,24143	26344
8,24555	26550
8,24967	27727
8,25380	27624
8,25792	29272
8,26203	35750
8,26617	40988
8,27028	55062
8,27440	76816
8,27852	107033
8,28265	152677
8,28677	216441
8,29088	296894
8,29502	394996
8,29913	504451
8,30325	630894
8,30738	751073
8,31150	874360
8,31562	989548
8,31975	1072175
8,32387	1138517
8,32798	1204255
8,33212	1246517
8,33623	1263081
8,34035	1278377
8,34448	1279278
8,34860	1257163
8,35272	1240132
8,35685	1223554
8,36097	1178205
8,36508	1149308
8,36920	1116401
8,37333	1085905
8,37745	1051582
8,38157	1008257
8,38570	970125
8,38982	927055
8,39393	895461
8,39807	846711
8,40218	806839
8,40630	761157
8,41043	724813
8,41455	679756
8,41867	640188
8,42280	599060
8,42692	567840
8,43103	516868
8,43517	479579
8,43928	437654
8,44340	413262
8,44753	371177
8,45165	343832
8,45577	310822
8,45988	286283
8,46402	262553
8,46813	241317
8,47225	218819
8,47638	195422
8,48050	180777
8,48462	166743
8,48875	153067
8,49287	140908
8,49698	129639
8,50112	120308
8,50523	110398
8,50935	100790
8,51348	95680
8,51760	86928
8,52172	84349
8,52585	76387
8,52997	74356
8,53408	69665
8,53822	64568
8,54233	63940
8,54645	61086
8,55057	59116
8,55470	55592
8,55882	53788
8,56293	53295
8,56707	51258
8,57118	51684
8,57530	49010
8,57943	48271
8,58355	45632
8,58767	46808
8,59180	45126
8,59592	44627
8,60003	44346
8,60417	41496
8,60828	42498
8,61240	39154
8,61653	38427
8,62065	40625
8,62477	39108
8,62890	36198
8,63302	36970
8,63713	37161
8,64125	35491
8,64538	35077
8,64950	35023
8,65362	34154
8,65775	33620
8,66187	33026
8,66598	32733
8,67012	30635
8,67423	30973
8,67835	29425
8,68248	31375
8,68660	29113
8,69072	29114
8,69485	28143
8,69897	27356
8,70308	29157
8,70722	27059
8,71133	26567
8,71545	27105
8,71958	26781
8,72370	25563
8,72782	26803
8,73193	25889
8,73607	25225
8,74018	25190
8,74430	25074
8,74843	24921
8,75255	23593
8,75667	24611
8,76080	23895
8,76492	24845
8,76903	24946
8,77317	24399
8,77728	22911
8,78140	22743
8,78553	22208
8,78965	24068
8,79377	24209
8,79790	23689
8,80202	23642
8,80613	24381
8,81027	24203
8,81438	25006
8,81850	24815
8,82262	24630
8,82675	24314
8,83087	24089
8,83498	24552
8,83912	25419
8,84323	24440
8,84735	26981
8,85148	25757
8,85560	25962
8,85972	24630
8,86385	24915
8,86797	25527
8,87208	25268
8,87622	23617
8,88033	25040
8,88445	25146
8,88858	25499
8,89270	24114
8,89682	24111
8,90095	25554
8,90507	25751
8,90918	23750
8,91330	22824
8,91743	24053
8,92155	22986
8,92567	23209
8,92980	24419
8,93392	22069
8,93803	23174
8,94217	23241
8,94628	24041
8,95040	21991
8,95453	23289
8,95865	22045
8,96277	22202
8,96690	21290
8,97102	22087
8,97513	22119
8,97927	22541
8,98338	21980
8,98750	21845
8,99163	20057
8,99575	21442
8,99987	19877
9,00398	21273
9,00812	20402
9,01223	20326
9,01635	21544
9,02048	21380
9,02460	20614
9,02872	19397
9,03285	20282
9,03697	20526
9,04108	19198
9,04522	19887
9,04933	20513
9,05345	19941
9,05758	19194
9,06170	19972
9,06582	20082
9,06995	19714
9,07407	19967
9,07818	20642
9,08232	21160
9,08643	22595
9,09055	26254
9,09467	30758
9,09880	37753
9,10292	45773
9,10703	63165
9,11117	83428
9,11528	108805
9,11940	143290
9,12353	180978
9,12765	230609
9,13177	280592
9,13590	339120
9,14002	391736
9,14413	445501
9,14827	491490
9,15238	534780
9,15650	581022
9,16063	603910
9,16475	613597
9,16887	625019
9,17300	633406
9,17712	633929
9,18123	609603
9,18535	604050
9,18948	594340
9,19360	581149
9,19772	563903
9,20185	543215
9,20597	533365
9,21008	508805
9,21422	478464
9,21833	464425
9,22245	447051
9,22658	422010
9,23070	397156
9,23482	376329
9,23895	350525
9,24307	330730
9,24718	308976
9,25132	287793
9,25543	266594
9,25955	246071
9,26368	227478
9,26780	202779
9,27192	195138
9,27605	174825
9,28017	161355
9,28428	147844
9,28840	135773
9,29253	124896
9,29665	116264
9,30077	101107
9,30490	98649
9,30902	89508
9,31313	83057
9,31727	78708
9,32138	72606
9,32550	67902
9,32963	61893
9,33375	61245
9,33787	54418
9,34200	52155
9,34612	49698
9,35023	45476
9,35437	43003
9,35848	42151
9,36260	40578
9,36673	39310
9,37085	39408
9,37497	35850
9,37908	36246
9,38322	33064
9,38733	33234
9,39145	32248
9,39558	35148
9,39970	37091
9,40382	46399
9,40795	53506
9,41207	66824
9,41618	85718
9,42032	116948
9,42443	150036
9,42855	200206
9,43268	241015
9,43680	302934
9,44092	363775
9,44505	425293
9,44917	472153
9,45328	529346
9,45742	574905
9,46153	606139
9,46565	647385
9,46977	666985
9,47390	685354
9,47802	687660
9,48213	694064
9,48627	687524
9,49038	675472
9,49450	665116
9,49863	655414
9,50275	638763
9,50687	614921
9,51100	586382
9,51512	574008
9,51923	539961
9,52337	522019
9,52748	496134
9,53160	467085
9,53573	441483
9,53985	416727
9,54397	392008
9,54810	357751
9,55222	336176
9,55633	319190
9,56045	287456
9,56458	261953
9,56870	239709
9,57282	221054
9,57695	199955
9,58107	179907
9,58518	167941
9,58932	151221
9,59343	139489
9,59755	130153
9,60168	115579
9,60580	107476
9,60992	95669
9,61405	90425
9,61817	81403
9,62228	77881
9,62642	71320
9,63053	65638
9,63465	63282
9,63878	57958
9,64290	53789
9,64702	51354
9,65113	47273
9,65527	42879
9,65938	43864
9,66350	41705
9,66763	40066
9,67175	37411
9,67587	36324
9,68000	37268
9,68412	34517
9,68823	31367
9,69237	31305
9,69648	31538
9,70060	29758
9,70473	29935
9,70885	28875
9,71297	27993
9,71710	28133
9,72122	27861
9,72533	26844
9,72947	26663
9,73358	25253
9,73770	24606
9,74182	25936
9,74595	23279
9,75007	24491
9,75418	23253
9,75832	21031
9,76243	21837
9,76655	22655
9,77068	22108
9,77480	22309
9,77892	21348
9,78305	21093
9,78717	21049
9,79128	21446
9,79542	20805
9,79953	20207
9,80365	19319
9,80778	18345
9,81190	19306
9,81602	19643
9,82015	19705
9,82427	19302
9,82838	19254
9,83250	18215
9,83663	20420
9,84075	19170
9,84487	18576
9,84900	18967
9,85312	19268
9,85723	18019
9,86137	16891
9,86548	17171
9,86960	17247
9,87373	16759
9,87785	17429
9,88197	17563
9,88610	17497
9,89022	17531
9,89433	16931
9,89847	15811
9,90258	17088
9,90670	16045
9,91083	17463
9,91495	17045
9,91907	17995
9,92318	15873
9,92732	16327
9,93143	16890
9,93555	16705
9,93968	16955
9,94380	16809
9,94792	16208
9,95205	17054
9,95617	15914
9,96028	16455
9,96442	17630
9,96853	17351
9,97265	15784
9,97678	17566
9,98090	16071
9,98502	15559
9,98915	16781
9,99327	16379
9,99738	16373
10,00152	14838
10,00563	15522
10,00975	15942
10,01387	15429
10,01800	15726
10,02212	14468
10,02623	15408
10,03037	14326
10,03448	15908
10,03860	15748
10,04273	15025
10,04685	14721
10,05097	15323
10,05510	15338
10,05922	14654
10,06333	14597
10,06747	15291
10,07158	15600
10,07570	16364
10,07983	15402
10,08395	15444
10,08807	14999
10,09220	14592
10,09632	15224
10,10043	15098
10,10455	16187
10,10868	15923
10,11280	14063
10,11692	14905
10,12105	15536
10,12517	14973
10,12928	16327
10,13342	14063
10,13753	15144
10,14165	15528
10,14578	15115
10,14990	14781
10,15402	14412
10,15815	15684
10,16227	15659
10,16638	15049
10,17052	14595
10,17463	15602
10,17875	14979
10,18288	14249
10,18700	14857
10,19112	13549
10,19523	15863
10,19937	14048
10,20348	14120
10,20760	14959
10,21173	14448
10,21585	15057
10,21997	15181
10,22410	13737
10,22822	14054
10,23233	14682
10,23647	14288
10,24058	15171
10,24470	14633
10,24883	14628
10,25295	14593
10,25707	13599
10,26120	14385
10,26532	14593
10,26943	13549
10,27357	14045
10,27768	15111
10,28180	14546
10,28592	13245
10,29005	13495
10,29417	12990
10,29828	13824
10,30242	13848
10,30653	13246
10,31065	13825
10,31478	14111
10,31890	13506
10,32302	14834
10,32715	14398
10,33127	14185
10,33538	13611
10,33952	15373
10,34363	16878
10,34775	16794
10,35188	21190
10,35600	26147
10,36012	33511
10,36425	46156
10,36837	59533
10,37248	82570
10,37660	108224
10,38073	141179
10,38485	185076
10,38897	230272
10,39310	282267
10,39722	334454
10,40133	395530
10,40547	450324
10,40958	500416
10,41370	544126
10,41783	581516
10,42195	625234
10,42607	638156
10,43020	660701
10,43432	669850
10,43843	675482
10,44257	670741
10,44668	663770
10,45080	653008
10,45493	641893
10,45905	619091
10,46317	601326
10,46728	582086
10,47142	549502
10,47553	513668
10,47965	495412
10,48378	464873
10,48790	436112
10,49202	405634
10,49615	375278
10,50027	353145
10,50438	322075
10,50852	297150
10,51263	274622
10,51675	254477
10,52088	229864
10,52500	207284
10,52912	190133
10,53325	171306
10,53737	156831
10,54148	143890
10,54562	129266
10,54973	119222
10,55385	107652
10,55797	98654
10,56210	94283
10,56622	81999
10,57033	78298
10,57447	70557
10,57858	66779
10,58270	61204
10,58683	56753
10,59095	54634
10,59507	52783
10,59920	48792
10,60332	46480
10,60743	44324
10,61157	39580
10,61568	38864
10,61980	37398
10,62393	36146
10,62805	34647
10,63217	34219
10,63630	32194
10,64042	30142
10,64453	28959
10,64865	28380
10,65278	28838
10,65690	26190
10,66102	27116
10,66515	26495
10,66927	26095
10,67338	24541
10,67752	25750
10,68163	26397
10,68575	27552
10,68988	29423
10,69400	32778
10,69812	41424
10,70225	53311
10,70637	78579
10,71048	107874
10,71462	148409
10,71873	214371
10,72285	284258
10,72698	382559
10,73110	509386
10,73522	643264
10,73933	808368
10,74347	989842
10,74758	1154473
10,75170	1352552
10,75583	1535842
10,75995	1705567
10,76407	1843193
10,76820	1994947
10,77232	2079565
10,77643	2149103
10,78057	2232226
10,78468	2285688
10,78880	2299806
10,79293	2279546
10,79705	2258561
10,80117	2214633
10,80530	2164922
10,80942	2087172
10,81353	2014082
10,81767	1922502
10,82178	1827459
10,82590	1729807
10,83002	1618133
10,83415	1494303
10,83827	1382655
10,84238	1284528
10,84652	1178899
10,85063	1080052
10,85475	975207
10,85888	889556
10,86300	798540
10,86712	719961
10,87125	659819
10,87537	582524
10,87948	523211
10,88362	476351
10,88773	433037
10,89185	385983
10,89598	349492
10,90010	314180
10,90422	289421
10,90835	261212
10,91247	241938
10,91658	213440
10,92070	197002
10,92483	181985
10,92895	166995
10,93307	154524
10,93720	143554
10,94132	133611
10,94543	121384
10,94957	116901
10,95368	109236
10,95780	102575
10,96193	95926
10,96605	89876
10,97017	88043
10,97430	80875
10,97842	79732
10,98253	74461
10,98667	70049
10,99078	65170
10,99490	64380
10,99903	60994
11,00315	59240
11,00727	55531
11,01140	53292
11,01552	50198
11,01963	50733
11,02375	47896
11,02788	47531
11,03200	45730
11,03612	43466
11,04025	40966
11,04437	41966
11,04848	37835
11,05262	39189
11,05673	36916
11,06085	35332
11,06498	33955
11,06910	34774
11,07322	34522
11,07735	34783
11,08147	33708
11,08558	32994
11,08972	30742
11,09383	30308
11,09795	28798
11,10208	29337
11,10620	28145
11,11032	28541
11,11443	26834
11,11857	25887
11,12268	25224
11,12680	26379
11,13093	25304
11,13505	24000
11,13917	23952
11,14330	23751
11,14742	22261
11,15153	23029
11,15567	22269
11,15978	21277
11,16390	22088
11,16803	23278
11,17215	21745
11,17627	21813
11,18040	19312
11,18452	21957
11,18863	20826
11,19277	20711
11,19688	19142
11,20100	20496
11,20512	19477
11,20925	18697
11,21337	18677
11,21748	19641
11,22162	18006
11,22573	18141
11,22985	18356
11,23398	18778
11,23810	18223
11,24222	18048
11,24635	16020
11,25047	19034
11,25458	17576
11,25872	17913
11,26283	17671
11,26695	16794
11,27108	15109
11,27520	16593
11,27932	14434
11,28345	17125
11,28757	16782
11,29168	15613
11,29580	15407
11,29993	16816
11,30405	16556
11,30817	15731
11,31230	16525
11,31642	15129
11,32053	15641
11,32467	15861
11,32878	15752
11,33290	15866
11,33703	15622
11,34115	15504
11,34527	15814
11,34940	15563
11,35352	15395
11,35763	16277
11,36177	14585
11,36588	14790
11,37000	15128
11,37413	14678
11,37825	14173
11,38237	14066
11,38648	14510
11,39062	15453
11,39473	14275
11,39885	14045
11,40298	13968
11,40710	13553
11,41122	14030
11,41535	13943
11,41947	12697
11,42358	14349
11,42772	13795
11,43183	12513
11,43595	13096
11,44008	13156
11,44420	13430
11,44832	12567
11,45245	13072
11,45657	13829
11,46068	12796
11,46482	12656
11,46893	12395
11,47305	13588
11,47717	14646
11,48130	14462
11,48542	14220
11,48953	14219
11,49367	14163
11,49778	14379
11,50190	14012
11,50603	13965
11,51015	13824
11,51427	13082
11,51840	14895
11,52252	14416
11,52663	15073
11,53077	14762
11,53488	13127
11,53900	13693
11,54313	15623
11,54725	14446
11,55137	14715
11,55550	16510
11,55962	16062
11,56373	17714
11,56785	21780
11,57198	28464
11,57610	34588
11,58022	46238
11,58435	62150
11,58847	81591
11,59258	105157
11,59672	141099
11,60083	178961
11,60495	219493
11,60908	273714
11,61320	330270
11,61732	384076
11,62145	445318
11,62557	502110
11,62968	549732
11,63382	596967
11,63793	633351
11,64205	682463
11,64618	697898
11,65030	712980
11,65442	727401
11,65853	729421
11,66267	714888
11,66678	709637
11,67090	683993
11,67503	676924
11,67915	641419
11,68327	613939
11,68740	589014
11,69152	543421
11,69563	512883
11,69977	476169
11,70388	446269
11,70800	414120
11,71213	379577
11,71625	341218
11,72037	316233
11,72450	293100
11,72862	261004
11,73273	233946
11,73687	217108
11,74098	196395
11,74510	176591
11,74922	161775
11,75335	148471
11,75747	135709
11,76158	125447
11,76572	113908
11,76983	104322
11,77395	98616
11,77808	90132
11,78220	83985
11,78632	79103
11,79045	75769
11,79457	71038
11,79868	66276
11,80282	63392
11,80693	57611
11,81105	56087
11,81518	53620
11,81930	53190
11,82342	50339
11,82755	45932
11,83167	48993
11,83578	44041
11,83990	45376
11,84403	42823
11,84815	38549
11,85227	37249
11,85640	37305
11,86052	36072
11,86463	36514
11,86877	34910
11,87288	31601
11,87700	29789
11,88113	31004
11,88525	29058
11,88937	26622
11,89350	25818
11,89762	26822
11,90173	25883
11,90587	23578
11,90998	23952
11,91410	23576
11,91823	22698
11,92235	21338
11,92647	21674
11,93058	21807
11,93472	20237
11,93883	21545
11,94295	20051
11,94708	19434
11,95120	18942
11,95532	19321
11,95945	17663
11,96357	17100
11,96768	16647
11,97182	17282
11,97593	17580
11,98005	15374
11,98418	15650
11,98830	16479
11,99242	16849
11,99655	16332
12,00067	17192
12,00478	16302
12,00892	14820
12,01303	14870
12,01715	15664
12,02127	15064
12,02540	14386
12,02952	14764
12,03363	14062
12,03777	13850
12,04188	13667
12,04600	13557
12,05013	13984
12,05425	13188
12,05837	13946
12,06250	13197
12,06662	13284
12,07073	12504
12,07487	14516
12,07898	12912
12,08310	13787
12,08723	12872
12,09135	13781
12,09547	11505
12,09960	12535
12,10372	12779
12,10783	13157
12,11195	11867
12,11608	11741
12,12020	12465
12,12432	12635
12,12845	12708
12,13257	12789
12,13668	14639
12,14082	16331
12,14493	20374
12,14905	25510
12,15318	32297
12,15730	44749
12,16142	58968
12,16555	80117
12,16967	111498
12,17378	143891
12,17792	185939
12,18203	233823
12,18615	292486
12,19028	351607
12,19440	418546
12,19852	479424
12,20263	543207
12,20677	604997
12,21088	666403
12,21500	716936
12,21913	748123
12,22325	782655
12,22737	800145
12,23150	823417
12,23562	815393
12,23973	805968
12,24387	801464
12,24798	777979
12,25210	772989
12,25623	727951
12,26035	696655
12,26447	659511
12,26860	611636
12,27272	578071
12,27683	539058
12,28097	495378
12,28508	448765
12,28920	413821
12,29332	372178
12,29745	338726
12,30157	307139
12,30568	276542
12,30982	244077
12,31393	229159
12,31805	205481
12,32218	184177
12,32630	164523
12,33042	151052
12,33455	136244
12,33867	127404
12,34278	112259
12,34692	103235
12,35103	94757
12,35515	88883
12,35928	83073
12,36340	72420
12,36752	69649
12,37165	63980
12,37577	62080
12,37988	57895
12,38400	54307
12,38813	49430
12,39225	48236
12,39637	43164
12,40050	44156
12,40462	41487
12,40873	36447
12,41287	38173
12,41698	34049
12,42110	32921
12,42523	32003
12,42935	31922
12,43347	32165
12,43760	30537
12,44172	27821
12,44583	27482
12,44997	26250
12,45408	26410
12,45820	25195
12,46233	23042
12,46645	23444
12,47057	22911
12,47468	21930
12,47882	22290
12,48293	20515
12,48705	21200
12,49118	20410
12,49530	19068
12,49942	20290
12,50355	21031
12,50767	18993
12,51178	17847
12,51592	18775
12,52003	18253
12,52415	18076
12,52828	17023
12,53240	18028
12,53652	17161
12,54065	16981
12,54477	16473
12,54888	16544
12,55302	16156
12,55713	16110
12,56125	15776
12,56537	15868
12,56950	16159
12,57362	14836
12,57773	13751
12,58187	14516
12,58598	15800
12,59010	13128
12,59423	14342
12,59835	12853
12,60247	13959
12,60660	13697
12,61072	13356
12,61483	13059
12,61897	14146
12,62308	13454
12,62720	13368
12,63133	12756
12,63545	12609
12,63957	12768
12,64370	12169
12,64782	13165
12,65193	12850
12,65607	11374
12,66018	13243
12,66430	11445
12,66842	12116
12,67255	11908
12,67667	11041
12,68078	12335
12,68492	12458
12,68903	11303
12,69315	11134
12,69728	11831
12,70140	12341
12,70552	11685
12,70965	11551
12,71377	11200
12,71788	11055
12,72202	11668
12,72613	10736
12,73025	11951
12,73438	9926
12,73850	10408
12,74262	11020
12,74675	11276
12,75087	10634
12,75498	11150
12,75910	11081
12,76323	10911
12,76735	10320
12,77147	10786
12,77560	10071
12,77972	9627
12,78383	8874
12,78797	9594
12,79208	9860
12,79620	11639
12,80033	10299
12,80445	9275
12,80857	9752
12,81270	9777
12,81682	10627
12,82093	10773
12,82507	10197
12,82918	10001
12,83330	10105
12,83743	10242
12,84155	10494
12,84567	9855
12,84978	10958
12,85392	9153
12,85803	9391
12,86215	9914
12,86628	9797
12,87040	10108
12,87452	9975
12,87865	10332
12,88277	9600
12,88688	9017
12,89102	9781
12,89513	10421
12,89925	9758
12,90338	10790
12,90750	9828
12,91162	10130
12,91575	10625
12,91987	9965
12,92398	10331
12,92812	11141
12,93223	10647
12,93635	10281
12,94047	10432
12,94460	10485
12,94872	10803
12,95283	11363
12,95697	10701
12,96108	11016
12,96520	11631
12,96933	10351
12,97345	10295
12,97757	10930
12,98170	9874
12,98582	10857
12,98993	10588
12,99407	10632
12,99818	9539
13,00230	10667
13,00643	9992
13,01055	10213
13,01467	8860
13,01880	10013
13,02292	9829
13,02703	10237
13,03115	9970
13,03528	9390
13,03940	9974
13,04352	9284
13,04765	10230
13,05177	8879
13,05588	9765
13,06002	10178
13,06413	9877
13,06825	10471
13,07238	13772
13,07650	14552
13,08062	16555
13,08475	22069
13,08887	29333
13,09298	38425
13,09712	50161
13,10123	70264
13,10535	91655
13,10948	120291
13,11360	158620
13,11772	205056
13,12183	249880
13,12597	310486
13,13008	373315
13,13420	432167
13,13833	493201
13,14245	558630
13,14657	618117
13,15070	668644
13,15482	710028
13,15893	749702
13,16307	774874
13,16718	794918
13,17130	793528
13,17543	797337
13,17955	797753
13,18367	779753
13,18780	756520
13,19192	729000
13,19603	690355
13,20017	649752
13,20428	596167
13,20840	567776
13,21252	528013
13,21665	489084
13,22077	446480
13,22488	404468
13,22902	363071
13,23313	336828
13,23725	308923
13,24138	278027
13,24550	246367
13,24962	224181
13,25375	202244
13,25787	185141
13,26198	164073
13,26612	151988
13,27023	136486
13,27435	123719
13,27848	114268
13,28260	104340
13,28672	95719
13,29085	90655
13,29497	83960
13,29908	79269
13,30320	70349
13,30733	66518
13,31145	62139
13,31557	58109
13,31970	54449
13,32382	53721
13,32793	49137
13,33207	44943
13,33618	43167
13,34030	43409
13,34443	40847
13,34855	38122
13,35267	38004
13,35680	35237
13,36092	33828
13,36503	31044
13,36917	30191
13,37328	30503
13,37740	29245
13,38153	26373
13,38565	27023
13,38977	25811
13,39388	26009
13,39802	24821
13,40213	24051
13,40625	22004
13,41038	22795
13,41450	23480
13,41862	23600
13,42275	23414
13,42687	22951
13,43098	21813
13,43512	22990
13,43923	22279
13,44335	21378
13,44748	20722
13,45160	23053
13,45572	23036
13,45985	21875
13,46397	21847
13,46808	22957
13,47222	22589
13,47633	22358
13,48045	21883
13,48457	21964
13,48870	23220
13,49282	22835
13,49693	20543
13,50107	20944
13,50518	20610
13,50930	19311
13,51343	20041
13,51755	19801
13,52167	18853
13,52580	18339
13,52992	19804
13,53403	17022
13,53817	16378
13,54228	16049
13,54640	15911
13,55053	15772
13,55465	16296
13,55877	14539
13,56290	14927
13,56702	15772
13,57113	15511
13,57525	14094
13,57938	14699
13,58350	14653
13,58762	13727
13,59175	11601
13,59587	13178
13,59998	12628
13,60412	14060
13,60823	11922
13,61235	12546
13,61648	12067
13,62060	12566
13,62472	11622
13,62885	10686
13,63297	10820
13,63708	11510
13,64122	12742
13,64533	10333
13,64945	11390
13,65358	10700
13,65770	10745
13,66182	10166
13,66593	10048
13,67007	11565
13,67418	10860
13,67830	10350
13,68243	12351
13,68655	11915
13,69067	13347
13,69480	17447
13,69892	18228
13,70303	24815
13,70717	32671
13,71128	45848
13,71540	63688
13,71953	89106
13,72365	120352
13,72777	168890
13,73190	231121
13,73602	298186
13,74013	389596
13,74427	488532
13,74838	603789
13,75250	731207
13,75662	861558
13,76075	998046
13,76487	1145102
13,76898	1283708
13,77312	1417433
13,77723	1543928
13,78135	1657159
13,78548	1745226
13,78960	1814622
13,79372	1853966
13,79785	1882161
13,80197	1872230
13,80608	1858237
13,81022	1798486
13,81433	1735178
13,81845	1657786
13,82258	1558264
13,82670	1462748
13,83082	1345869
13,83495	1230692
13,83907	1135417
13,84318	1044596
13,84730	930668
13,85143	851107
13,85555	764770
13,85967	686284
13,86380	615174
13,86792	557554
13,87203	499347
13,87617	447666
13,88028	405902
13,88440	365865
13,88853	328857
13,89265	295474
13,89677	269390
13,90090	251636
13,90502	224148
13,90913	209145
13,91327	192099
13,91738	175959
13,92150	161376
13,92563	150888
13,92975	142170
13,93387	129832
13,93798	122765
13,94212	113769
13,94623	108707
13,95035	100766
13,95448	98552
13,95860	90737
13,96272	87055
13,96685	81237
13,97097	77771
13,97508	72479
13,97922	69914
13,98333	66430
13,98745	65283
13,99158	59461
13,99570	57036
13,99982	54933
14,00395	54554
14,00807	51621
14,01218	48079
14,01632	48689
14,02043	46372
14,02455	45297
14,02867	42210
14,03280	40959
14,03692	40086
14,04103	38272
14,04517	36418
14,04928	35578
14,05340	35249
14,05753	31258
14,06165	30304
14,06577	30981
14,06990	30328
14,07402	29743
14,07813	29656
14,08227	28669
14,08638	28604
14,09050	27501
14,09463	27993
14,09875	24831
14,10287	24482
14,10700	24303
14,11112	24629
14,11523	23032
14,11935	23150
14,12348	22138
14,12760	22205
14,13172	21513
14,13585	21855
14,13997	21118
14,14408	20014
14,14822	20106
14,15233	20848
14,15645	19650
14,16058	20134
14,16470	19532
14,16882	17986
14,17295	16921
14,17707	18078
14,18118	18547
14,18532	16663
14,18943	17713
14,19355	16860
14,19768	16920
14,20180	17344
14,20592	16006
14,21003	16249
14,21417	15242
14,21828	16205
14,22240	14533
14,22653	14936
14,23065	16039
14,23477	14552
14,23890	13977
14,24302	14540
14,24713	14361
14,25127	13899
14,25538	15968
14,25950	17012
14,26363	18324
14,26775	21488
14,27187	24457
14,27600	31581
14,28012	39107
14,28423	54099
14,28837	71646
14,29248	96946
14,29660	124707
14,30073	161990
14,30485	202103
14,30897	255217
14,31308	319531
14,31722	374848
14,32133	449597
14,32545	516193
14,32958	589616
14,33370	642572
14,33782	699024
14,34195	757318
14,34607	797907
14,35018	844964
14,35432	866679
14,35843	880862
14,36255	889294
14,36668	870755
14,37080	853613
14,37492	818191
14,37905	796373
14,38317	756253
14,38728	709234
14,39142	663406
14,39553	611332
14,39965	569234
14,40377	513265
14,40790	472963
14,41202	433123
14,41613	388847
14,42027	353217
14,42438	317480
14,42850	289870
14,43263	259938
14,43675	241023
14,44087	219971
14,44500	194683
14,44912	175769
14,45323	160146
14,45737	148827
14,46148	134059
14,46560	123014
14,46973	116494
14,47385	108349
14,47797	100906
14,48210	91854
14,48622	86670
14,49033	80302
14,49445	74400
14,49858	68966
14,50270	66611
14,50682	61067
14,51095	57510
14,51507	56262
14,51918	56239
14,52332	50014
14,52743	50048
14,53155	47978
14,53568	45887
14,53980	47474
14,54392	47087
14,54805	49784
14,55217	55255
14,55628	68383
14,56042	79952
14,56453	98591
14,56865	126073
14,57278	164513
14,57690	209772
14,58102	275227
14,58513	351011
14,58927	432336
14,59338	533933
14,59750	652114
14,60163	784974
14,60575	909511
14,60987	1051874
14,61400	1180203
14,61812	1316789
14,62223	1437616
14,62637	1546477
14,63048	1648303
14,63460	1715529
14,63873	1772463
14,64285	1785040
14,64697	1795478
14,65110	1768628
14,65522	1734434
14,65933	1669446
14,66347	1599198
14,66758	1518573
14,67170	1430462
14,67582	1312385
14,67995	1209469
14,68407	1100329
14,68818	1016525
14,69232	923916
14,69643	829678
14,70055	752111
14,70468	685975
14,70880	621069
14,71292	555283
14,71705	493449
14,72117	449339
14,72528	408667
14,72942	369663
14,73353	336633
14,73765	310315
14,74178	285892
14,74590	257249
14,75002	236237
14,75415	215500
14,75827	205632
14,76238	188154
14,76650	175197
14,77063	162299
14,77475	150852
14,77887	144486
14,78300	131378
14,78712	122446
14,79123	120600
14,79537	109813
14,79948	103395
14,80360	98008
14,80773	95364
14,81185	87656
14,81597	82228
14,82010	77934
14,82422	75507
14,82833	72330
14,83247	67296
14,83658	64601
14,84070	62237
14,84483	58072
14,84895	58739
14,85307	53875
14,85718	54884
14,86132	50726
14,86543	50768
14,86955	49637
14,87368	46236
14,87780	44732
14,88192	41857
14,88605	42960
14,89017	40796
14,89428	37544
14,89842	36703
14,90253	37350
14,90665	35980
14,91078	33201
14,91490	34323
14,91902	32027
14,92315	31371
14,92727	30351
14,93138	29213
14,93552	28947
14,93963	28032
14,94375	26459
14,94787	25760
14,95200	26169
14,95612	25003
14,96023	25068
14,96437	24892
14,96848	24486
14,97260	22532
14,97673	23070
14,98085	21795
14,98497	21026
14,98910	20602
14,99322	21504
14,99733	19583
15,00147	21284
15,00558	19347
15,00970	18980
15,01383	19955
15,01795	18650
15,02207	18673
15,02620	17536
15,03032	18883
15,03443	18555
15,03855	17603
15,04268	17495
15,04680	16306
15,05092	17621
15,05505	15840
15,05917	15223
15,06328	15875
15,06742	16583
15,07153	16804
15,07565	16165
15,07978	14776
15,08390	14860
15,08802	14935
15,09215	14307
15,09627	14244
15,10038	13750
15,10452	14465
15,10863	13753
15,11275	14367
15,11688	13301
15,12100	13040
15,12512	12880
15,12923	13925
15,13337	12878
15,13748	12866
15,14160	12744
15,14573	13027
15,14985	13417
15,15397	12999
15,15810	12246
15,16222	13309
15,16633	12890
15,17047	12464
15,17458	11878
15,17870	11304
15,18283	11338
15,18695	11936
15,19107	13479
15,19520	11987
15,19932	11452
15,20343	11180
15,20757	11401
15,21168	10923
15,21580	13562
15,21992	12841
15,22405	13445
15,22817	13590
15,23228	14724
15,23642	16007
15,24053	19066
15,24465	22137
15,24878	26384
15,25290	34870
15,25702	45296
15,26115	60031
15,26527	78342
15,26938	102083
15,27352	137579
15,27763	173867
15,28175	220906
15,28588	266788
15,29000	333204
15,29412	389953
15,29825	456160
15,30237	523961
15,30648	586361
15,31060	648063
15,31473	701867
15,31885	749251
15,32297	779751
15,32710	807392
15,33122	821734
15,33533	821296
15,33947	814137
15,34358	809664
15,34770	788561
15,35183	761520
15,35595	751095
15,36007	735272
15,36420	716998
15,36832	721315
15,37243	728755
15,37657	754470
15,38068	791357
15,38480	831968
15,38893	895546
15,39305	983262
15,39717	1084152
15,40128	1187244
15,40542	1299865
15,40953	1430628
15,41365	1543208
15,41778	1655660
15,42190	1771593
15,42602	1864804
15,43015	1945870
15,43427	2001396
15,43838	2039088
15,44252	2026726
15,44663	1997831
15,45075	1919309
15,45488	1838990
15,45900	1735925
15,46312	1625128
15,46725	1509759
15,47137	1390320
15,47548	1279637
15,47962	1160091
15,48373	1045638
15,48785	945981
15,49197	851398
15,49610	767092
15,50022	688510
15,50433	622657
15,50847	563853
15,51258	509971
15,51670	457416
15,52083	416535
15,52495	374227
15,52907	341222
15,53320	315897
15,53732	293541
15,54143	269188
15,54557	251059
15,54968	227634
15,55380	209136
15,55793	198900
15,56205	182878
15,56617	170003
15,57030	163172
15,57442	150623
15,57853	145114
15,58265	135978
15,58678	127666
15,59090	120521
15,59502	111215
15,59915	107900
15,60327	99901
15,60738	96086
15,61152	89940
15,61563	86511
15,61975	85089
15,62388	81305
15,62800	76243
15,63212	74638
15,63625	70730
15,64037	68807
15,64448	66529
15,64862	63729
15,65273	60175
15,65685	59351
15,66098	56375
15,66510	52656
15,66922	54062
15,67333	51878
15,67747	50277
15,68158	49711
15,68570	46184
15,68983	45486
15,69395	42751
15,69807	41693
15,70220	43094
15,70632	40755
15,71043	39819
15,71457	37278
15,71868	37363
15,72280	36536
15,72693	34707
15,73105	35308
15,73517	32745
15,73930	33268
15,74342	32610
15,74753	31306
15,75167	32497
15,75578	28697
15,75990	29129
15,76402	30046
15,76815	26959
15,77227	25896
15,77638	26610
15,78052	25887
15,78463	25713
15,78875	24601
15,79288	24959
15,79700	25513
15,80112	25263
15,80525	23185
15,80937	22622
15,81348	22300
15,81762	22854
15,82173	22632
15,82585	22664
15,82998	22418
15,83410	21559
15,83822	20830
15,84235	19593
15,84647	21522
15,85058	20483
15,85472	19774
15,85883	18046
15,86295	19041
15,86707	19406
15,87120	18611
15,87532	18783
15,87943	19200
15,88357	16399
15,88768	18726
15,89180	19158
15,89593	19786
15,90005	22945
15,90417	24545
15,90830	29942
15,91242	34950
15,91653	42355
15,92067	55493
15,92478	72572
15,92890	95148
15,93303	120762
15,93715	154855
15,94127	196301
15,94540	241336
15,94952	291720
15,95363	349561
15,95775	401302
15,96188	472976
15,96600	535423
15,97012	591259
15,97425	644320
15,97837	693451
15,98248	741505
15,98662	769768
15,99073	783717
15,99485	793142
15,99898	795392
16,00310	781195
16,00722	751589
16,01135	723454
16,01547	682864
16,01958	647240
16,02372	601212
16,02783	563823
16,03195	523056
16,03608	477062
16,04020	431058
16,04432	391317
16,04843	362806
16,05257	324356
16,05668	296314
16,06080	267955
16,06493	244924
16,06905	222143
16,07317	203065
16,07730	185744
16,08142	165455
16,08553	151171
16,08967	139354
16,09378	129947
16,09790	115791
16,10203	109860
16,10615	103788
16,11027	97201
16,11440	87352
16,11852	82642
16,12263	75694
16,12677	71256
16,13088	67699
16,13500	64942
16,13912	61766
16,14325	56550
16,14737	56046
16,15148	52863
16,15562	48275
16,15973	46588
16,16385	43434
16,16798	44481
16,17210	40723
16,17622	40089
16,18035	38699
16,18447	36624
16,18858	34895
16,19272	32227
16,19683	32761
16,20095	29574
16,20508	27817
16,20920	28546
16,21332	29818
16,21745	27593
16,22157	25774
16,22568	24631
16,22980	26336
16,23393	24844
16,23805	25373
16,24217	22680
16,24630	22861
16,25042	22139
16,25453	23651
16,25867	20857
16,26278	21373
16,26690	21034
16,27103	20802
16,27515	19928
16,27927	20305
16,28340	19292
16,28752	20418
16,29163	18167
16,29577	17652
16,29988	18296
16,30400	17457
16,30813	16784
16,31225	17265
16,31637	18151
16,32048	17116
16,32462	16232
16,32873	16054
16,33285	16297
16,33698	18106
16,34110	16160
16,34522	15615
16,34935	15417
16,35347	14382
16,35758	15068
16,36172	15475
16,36583	13850
16,36995	14079
16,37408	13912
16,37820	14728
16,38232	13465
16,38645	11881
16,39057	12136
16,39468	13566
16,39882	14492
16,40293	13038
16,40705	12941
16,41117	12728
16,41530	11422
16,41942	13875
16,42353	12499
16,42767	12228
16,43178	12576
16,43590	11991
16,44003	13105
16,44415	12064
16,44827	12539
16,45240	10528
16,45652	12900
16,46063	10615
16,46477	12353
16,46888	9832
16,47300	9722
16,47713	10944
16,48125	10601
16,48537	11453
16,48950	9478
16,49362	9145
16,49773	10298
16,50185	10023
16,50598	10175
16,51010	11001
16,51422	10672
16,51835	9875
16,52247	10094
16,52658	10030
16,53072	9558
16,53483	9438
16,53895	10391
16,54308	9534
16,54720	10510
16,55132	9955
16,55545	8892
16,55957	11123
16,56368	10140
16,56782	8804
16,57193	10627
16,57605	10111
16,58018	9883
16,58430	9821
16,58842	8703
16,59253	8218
16,59667	9245
16,60078	9472
16,60490	8615
16,60903	7914
16,61315	9143
16,61727	8974
16,62140	9316
16,62552	8505
16,62963	10029
16,63377	9209
16,63788	8219
16,64200	9320
16,64613	9891
16,65025	8702
16,65437	9287
16,65850	8447
16,66262	8412
16,66673	9603
16,67087	9294
16,67498	8397
16,67910	8640
16,68322	8553
16,68735	9050
16,69147	9156
16,69558	8382
16,69972	7419
16,70383	8798
16,70795	7225
16,71208	9711
16,71620	8917
16,72032	8855
16,72445	8417
16,72857	8901
16,73268	8431
16,73682	7230
16,74093	9022
16,74505	7424
16,74918	9205
16,75330	9003
16,75742	8226
16,76155	9167
16,76567	9085
16,76978	8058
16,77390	7445
16,77803	9015
16,78215	8005
16,78627	8273
16,79040	8175
16,79452	8182
16,79863	9346
16,80277	8259
16,80688	8031
16,81100	7841
16,81513	9014
16,81925	8155
16,82337	8837
16,82750	7769
16,83162	7618
16,83573	8500
16,83987	8541
16,84398	6889
16,84810	7508
16,85223	7209
16,85635	7659
16,86047	8872
16,86458	8545
16,86872	9326
16,87283	10040
16,87695	10690
16,88108	14480
16,88520	17738
16,88932	24269
16,89345	32394
16,89757	43177
16,90168	56092
16,90582	74571
16,90993	99255
16,91405	129407
16,91818	166178
16,92230	211964
16,92642	257134
16,93055	308290
16,93467	361426
16,93878	416760
16,94292	473475
16,94703	524854
16,95115	573190
16,95527	620295
16,95940	656520
16,96352	674934
16,96763	698763
16,97177	709331
16,97588	703246
16,98000	681340
16,98413	671123
16,98825	636047
16,99237	610811
16,99650	578046
17,00062	534926
17,00473	506832
17,00887	462248
17,01298	422609
17,01710	393113
17,02123	363517
17,02535	337363
17,02947	313167
17,03360	284829
17,03772	277129
17,04183	264087
17,04595	260942
17,05008	265804
17,05420	282914
17,05832	305262
17,06245	347504
17,06657	395519
17,07068	458535
17,07482	541743
17,07893	635743
17,08305	744775
17,08718	881657
17,09130	1019177
17,09542	1175579
17,09955	1315369
17,10367	1482876
17,10778	1636241
17,11192	1761499
17,11603	1908575
17,12015	2013019
17,12428	2091127
17,12840	2153296
17,13252	2161319
17,13663	2151668
17,14077	2096955
17,14488	2027663
17,14900	1916346
17,15313	1799108
17,15725	1661445
17,16137	1529829
17,16550	1401994
17,16962	1281150
17,17373	1148358
17,17787	1044325
17,18198	937667
17,18610	841924
17,19023	764039
17,19435	687763
17,19847	620924
17,20260	559461
17,20672	516133
17,21083	466502
17,21497	421124
17,21908	392530
17,22320	363197
17,22732	331096
17,23145	313284
17,23557	278882
17,23968	258624
17,24382	243649
17,24793	226001
17,25205	214520
17,25618	197914
17,26030	183334
17,26442	176437
17,26855	161180
17,27267	153239
17,27678	148489
17,28092	139904
17,28503	130987
17,28915	124421
17,29328	116932
17,29740	113196
17,30152	106582
17,30565	100376
17,30977	99160
17,31388	91628
17,31800	88842
17,32213	85341
17,32625	79927
17,33037	78590
17,33450	72350
17,33862	70849
17,34273	67548
17,34687	64954
17,35098	65379
17,35510	60748
17,35923	60500
17,36335	59196
17,36747	56544
17,37160	54561
17,37572	52928
17,37983	51025
17,38397	45938
17,38808	48553
17,39220	45531
17,39633	44617
17,40045	41536
17,40457	40795
17,40868	40920
17,41282	38148
17,41693	38311
17,42105	38432
17,42518	35910
17,42930	36194
17,43342	33689
17,43755	33482
17,44167	33160
17,44578	29407
17,44992	30076
17,45403	29559
17,45815	29279
17,46228	29134
17,46640	28563
17,47052	30168
17,47465	27269
17,47877	27390
17,48288	27858
17,48702	25571
17,49113	25669
17,49525	23880
17,49938	25081
17,50350	24186
17,50762	24855
17,51173	23641
17,51587	25357
17,51998	26271
17,52410	28699
17,52823	31031
17,53235	35657
17,53647	42453
17,54060	52702
17,54472	64435
17,54883	83213
17,55297	106464
17,55708	132566
17,56120	166479
17,56533	206010
17,56945	251327
17,57357	307867
17,57770	359409
17,58182	407322
17,58593	462379
17,59007	522612
17,59418	573134
17,59830	609979
17,60242	647124
17,60655	667072
17,61067	688049
17,61478	709809
17,61892	701742
17,62303	684446
17,62715	675552
17,63128	648684
17,63540	623621
17,63952	578604
17,64365	543451
17,64777	507064
17,65188	466580
17,65602	432012
17,66013	389245
17,66425	359863
17,66838	322184
17,67250	293342
17,67662	274599
17,68075	246953
17,68487	221969
17,68898	205173
17,69310	182406
17,69723	173356
17,70135	156612
17,70547	144257
17,70960	130833
17,71372	120245
17,71783	113843
17,72197	103463
17,72608	96441
17,73020	90908
17,73433	85062
17,73845	79592
17,74257	74558
17,74670	68969
17,75082	64984
17,75493	61625
17,75907	57269
17,76318	56917
17,76730	54177
17,77143	50655
17,77555	48526
17,77967	45757
17,78378	43644
17,78792	42505
17,79203	39173
17,79615	40588
17,80028	36816
17,80440	36884
17,80852	33428
17,81265	33352
17,81677	31368
17,82088	32206
17,82502	30058
17,82913	29202
17,83325	28303
17,83738	27041
17,84150	26261
17,84562	27201
17,84975	26522
17,85387	25608
17,85798	25622
17,86212	23180
17,86623	25356
17,87035	23629
17,87447	22096
17,87860	22036
17,88272	21791
17,88683	21317
17,89097	21366
17,89508	21396
17,89920	23141
17,90333	22719
17,90745	27973
17,91157	30587
17,91570	36405
17,91982	43783
17,92393	57095
17,92807	75756
17,93218	95267
17,93630	127119
17,94043	156318
17,94455	203470
17,94867	257364
17,95280	310890
17,95692	382353
17,96103	453054
17,96515	531929
17,96928	612830
17,97340	690830
17,97752	766089
17,98165	824216
17,98577	894057
17,98988	933455
17,99402	950896
17,99813	972345
18,00225	964125
18,00638	938357
18,01050	910881
18,01462	879231
18,01875	842483
18,02287	786948
18,02698	728093
18,03112	678376
18,03523	615720
18,03935	573187
18,04348	521450
18,04760	478446
18,05172	434972
18,05583	394807
18,05997	357571
18,06408	326548
18,06820	300647
18,07233	273522
18,07645	246246
18,08057	230176
18,08470	213931
18,08882	194072
18,09293	179885
18,09707	169200
18,10118	150394
18,10530	141911
18,10943	132852
18,11355	124053
18,11767	117570
18,12180	109943
18,12592	102768
18,13003	96282
18,13417	90676
18,13828	85077
18,14240	81703
18,14652	77565
18,15065	72347
18,15477	71888
18,15888	66500
18,16302	61444
18,16713	58911
18,17125	56897
18,17538	56704
18,17950	51562
18,18362	51174
18,18775	50567
18,19187	47740
18,19598	44963
18,20012	43367
18,20423	42400
18,20835	43252
18,21248	37641
18,21660	36904
18,22072	35088
18,22485	33788
18,22897	34107
18,23308	31861
18,23720	32195
18,24133	30878
18,24545	30397
18,24957	28324
18,25370	28045
18,25782	27174
18,26193	25840
18,26607	25717
18,27018	25810
18,27430	24714
18,27843	26277
18,28255	23571
18,28667	22605
18,29080	22298
18,29492	23129
18,29903	22511
18,30317	20860
18,30728	21573
18,31140	20037
18,31553	20314
18,31965	20612
18,32377	17983
18,32788	19436
18,33202	18804
18,33613	17601
18,34025	16895
18,34438	19363
18,34850	17078
18,35262	16653
18,35675	17162
18,36087	16774
18,36498	17074
18,36912	16046
18,37323	14884
18,37735	14902
18,38148	15364
18,38560	14379
18,38972	14742
18,39385	14219
18,39797	14754
18,40208	14717
18,40622	15355
18,41033	14445
18,41445	13962
18,41857	14330
18,42270	14046
18,42682	13134
18,43093	13574
18,43507	12843
18,43918	12739
18,44330	13127
18,44743	12755
18,45155	11724
18,45567	12016
18,45980	11367
18,46392	13341
18,46803	12480
18,47217	12559
18,47628	11433
18,48040	11767
18,48453	11345
18,48865	12054
18,49277	11759
18,49690	12419
18,50102	11899
18,50513	11213
18,50925	10393
18,51338	11806
18,51750	9698
18,52162	10780
18,52575	9930
18,52987	11351
18,53398	10677
18,53812	10632
18,54223	10117
18,54635	10328
18,55048	10901
18,55460	10805
18,55872	10231
18,56285	11297
18,56697	10298
18,57108	10517
18,57522	11429
18,57933	10783
18,58345	10730
18,58758	9780
18,59170	9965
18,59582	11621
18,59993	10565
18,60407	10585
18,60818	8826
18,61230	8699
18,61643	10247
18,62055	9401
18,62467	10726
18,62880	10019
18,63292	10042
18,63703	9307
18,64117	9548
18,64528	10095
18,64940	10550
18,65353	10358
18,65765	9625
18,66177	10348
18,66590	9466
18,67002	10145
18,67413	9934
18,67827	9332
18,68238	10120
18,68650	9214
18,69062	9416
18,69475	9028
18,69887	10220
18,70298	8940
18,70712	10480
18,71123	11187
18,71535	9984
18,71948	10068
18,72360	9936
18,72772	10715
18,73185	11084
18,73597	11817
18,74008	11852
18,74422	15906
18,74833	16458
18,75245	22238
18,75658	28402
18,76070	36397
18,76482	46944
18,76895	65714
18,77307	88259
18,77718	115437
18,78130	153721
18,78543	200489
18,78955	250172
18,79367	317747
18,79780	387096
18,80192	461809
18,80603	547891
18,81017	630723
18,81428	712864
18,81840	796179
18,82253	874734
18,82665	932131
18,83077	988043
18,83490	1032475
18,83902	1040176
18,84313	1051793
18,84727	1024641
18,85138	996357
18,85550	946696
18,85963	897250
18,86375	838525
18,86787	787487
18,87198	725618
18,87612	662076
18,88023	603073
18,88435	548017
18,88848	497284
18,89260	454696
18,89672	422145
18,90085	376200
18,90497	340843
18,90908	313087
18,91322	285731
18,91733	258175
18,92145	240367
18,92558	223107
18,92970	205134
18,93382	189440
18,93795	178777
18,94207	163485
18,94618	152497
18,95032	143212
18,95443	135293
18,95855	125686
18,96267	120748
18,96680	112078
18,97092	105805
18,97503	100196
18,97917	95177
18,98328	88241
18,98740	80881
18,99153	79513
18,99565	78318
18,99977	74556
19,00390	71281
19,00802	66494
19,01213	65558
19,01627	60253
19,02038	58629
19,02450	57896
19,02863	55449
19,03275	52990
19,03687	50722
19,04100	51287
19,04512	47541
19,04923	46554
19,05337	44521
19,05748	43714
19,06160	40960
19,06572	39392
19,06985	40133
19,07397	41049
19,07808	35798
19,08222	36410
19,08633	34253
19,09045	32212
19,09458	35241
19,09870	31534
19,10282	31499
19,10695	30295
19,11107	28525
19,11518	29155
19,11932	27457
19,12343	27324
19,12755	26221
19,13168	26491
19,13580	26432
19,13992	23567
19,14405	25802
19,14817	23214
19,15228	23768
19,15640	22756
19,16053	22667
19,16465	22860
19,16877	20208
19,17290	21029
19,17702	21230
19,18113	20355
19,18527	20089
19,18938	20405
19,19350	21103
19,19763	18747
19,20175	20429
19,20587	20344
19,21000	18589
19,21412	16943
19,21823	18322
19,22237	17886
19,22648	16566
19,23060	17231
19,23473	16458
19,23885	16176
19,24297	17092
19,24708	17154
19,25122	14842
19,25533	14212
19,25945	15829
19,26358	15459
19,26770	13987
19,27182	14587
19,27595	13513
19,28007	13319
19,28418	14234
19,28832	12593
19,29243	14354
19,29655	14330
19,30068	15969
19,30480	17039
19,30892	16785
19,31305	19334
19,31717	21677
19,32128	24441
19,32542	29549
19,32953	38378
19,33365	50094
19,33777	66920
19,34190	85852
19,34602	111527
19,35013	145329
19,35427	184042
19,35838	233203
19,36250	287658
19,36663	345954
19,37075	409676
19,37487	476893
19,37900	544205
19,38312	615559
19,38723	672281
19,39137	732483
19,39548	772405
19,39960	811968
19,40373	822487
19,40785	823761
19,41197	828666
19,41610	813578
19,42022	788819
19,42433	756382
19,42845	709079
19,43258	676691
19,43670	622307
19,44082	581480
19,44495	539911
19,44907	496262
19,45318	448977
19,45732	412385
19,46143	375637
19,46555	342428
19,46968	311963
19,47380	288300
19,47792	260988
19,48205	235103
19,48617	216923
19,49028	204651
19,49442	188719
19,49853	168682
19,50265	157772
19,50678	144947
19,51090	136568
19,51502	127733
19,51913	119526
19,52327	111199
19,52738	101759
19,53150	97920
19,53563	89437
19,53975	88930
19,54387	82315
19,54800	77373
19,55212	70845
19,55623	69227
19,56037	65310
19,56448	62235
19,56860	60032
19,57273	55411
19,57685	53644
19,58097	51700
19,58510	48086
19,58922	48139
19,59333	45044
19,59747	42769
19,60158	43411
19,60570	39544
19,60982	40222
19,61395	37712
19,61807	37552
19,62218	35466
19,62632	33815
19,63043	32456
19,63455	31410
19,63868	29921
19,64280	30137
19,64692	30435
19,65105	28788
19,65517	27042
19,65928	27673
19,66342	25014
19,66753	24236
19,67165	24153
19,67578	24376
19,67990	23709
19,68402	22039
19,68815	23183
19,69227	22359
19,69638	20146
19,70050	19647
19,70463	19572
19,70875	21378
19,71287	18771
19,71700	19368
19,72112	19876
19,72523	20451
19,72937	18061
19,73348	18659
19,73760	17303
19,74173	18130
19,74585	17523
19,74997	17488
19,75410	17316
19,75822	16550
19,76233	16425
19,76647	17514
19,77058	16560
19,77470	16379
19,77883	16820
19,78295	14909
19,78707	14727
19,79118	16353
19,79532	15358
19,79943	15440
19,80355	17250
19,80768	15707
19,81180	15804
19,81592	15399
19,82005	15340
19,82417	14864
19,82828	13517
19,83242	13335
19,83653	13717
19,84065	12640
19,84478	13610
19,84890	13418
19,85302	13839
19,85715	13448
19,86127	14291
19,86538	13623
19,86952	11603
19,87363	14497
19,87775	12787
19,88187	13329
19,88600	12461
19,89012	13256
19,89423	12053
19,89837	12559
19,90248	12652
19,90660	11143
19,91073	12873
19,91485	11929
19,91897	12873
19,92310	11979
19,92722	11599
19,93133	12400
19,93547	11763
19,93958	11627
19,94370	11277
19,94783	11964
19,95195	11179
19,95607	13313
19,96020	12201
19,96432	11585
19,96843	13863
19,97255	13095
19,97668	12813
19,98080	11967
19,98492	11861
19,98905	11910
19,99317	11461
19,99728	12113
20,00142	12138
20,00553	11827
20,00965	12304
20,01378	12190
20,01790	12089
20,02202	12954
20,02615	10572
20,03027	11603
20,03438	11738
20,03852	10192
20,04263	11036
20,04675	12301
20,05088	12053
20,05500	10700
20,05912	10855
20,06323	11142
20,06737	11001
20,07148	13041
20,07560	12572
20,07973	11187
20,08385	11116
20,08797	11951
20,09210	11562
20,09622	11685
20,10033	12378
20,10447	11479
20,10858	10081
20,11270	11170
20,11683	12207
20,12095	12113
20,12507	11992
20,12920	11424
20,13332	10735
20,13743	11512
20,14157	10900
20,14568	11602
20,14980	10928
20,15392	10270
20,15805	11047
20,16217	10266
20,16628	9984
20,17042	10913
20,17453	11580
20,17865	10765
20,18278	11376
20,18690	10225
20,19102	10055
20,19515	10062
20,19927	9424
20,20338	11297
20,20752	10183
20,21163	10819
20,21575	10410
20,21988	10972
20,22400	9354
20,22812	11653
20,23225	9535
20,23637	10514
20,24048	9020
20,24460	10559
20,24873	10245
20,25285	10167
20,25697	10674
20,26110	10311
20,26522	10050
20,26933	9893
20,27347	11702
20,27758	8544
20,28170	10069
20,28583	10324
20,28995	10739
20,29407	11918
20,29820	13190
20,30232	15028
20,30643	16936
20,31057	20163
20,31468	26602
20,31880	34692
20,32293	46820
20,32705	59444
20,33117	79180
20,33528	103547
20,33942	134453
20,34353	169881
20,34765	212728
20,35178	261951
20,35590	314872
20,36002	372667
20,36415	431020
20,36827	499346
20,37238	551046
20,37652	600731
20,38063	648620
20,38475	692201
20,38888	710151
20,39300	730856
20,39712	730646
20,40125	726413
20,40537	717793
20,40948	700245
20,41362	672114
20,41773	642925
20,42185	598778
20,42597	559413
20,43010	514767
20,43422	478822
20,43833	445442
20,44247	403686
20,44658	375677
20,45070	343497
20,45483	315398
20,45895	292920
20,46307	276534
20,46720	259122
20,47132	252610
20,47543	247532
20,47957	245193
20,48368	254682
20,48780	265264
20,49193	283255
20,49605	317529
20,50017	357312
20,50430	413570
20,50842	479934
20,51253	558637
20,51665	644134
20,52078	756090
20,52490	872229
20,52902	995467
20,53315	1146832
20,53727	1274748
20,54138	1422547
20,54552	1578024
20,54963	1729164
20,55375	1866082
20,55788	1969012
20,56200	2080508
20,56612	2151471
20,57025	2174911
20,57437	2160987
20,57848	2106038
20,58262	2029270
20,58673	1933982
20,59085	1818593
20,59498	1696931
20,59910	1551509
20,60322	1433176
20,60733	1299606
20,61147	1187696
20,61558	1073640
20,61970	976474
20,62383	891482
20,62795	811880
20,63207	729922
20,63620	674176
20,64032	616308
20,64443	563910
20,64857	520656
20,65268	485435
20,65680	445573
20,66093	419152
20,66505	384317
20,66917	355010
20,67330	337218
20,67742	314628
20,68153	299191
20,68567	280756
20,68978	257031
20,69390	243871
20,69803	234248
20,70215	219217
20,70627	207088
20,71038	197127
20,71452	184962
20,71863	178246
20,72275	168239
20,72688	162404
20,73100	152349
20,73512	144825
20,73925	142719
20,74337	132720
20,74748	129243
20,75162	122340
20,75573	121241
20,75985	113994
20,76398	112164
20,76810	107628
20,77222	102254
20,77635	100087
20,78047	97276
20,78458	89932
20,78872	88107
20,79283	85893
20,79695	82971
20,80107	81866
20,80520	78599
20,80932	75831
20,81343	74715
20,81757	72142
20,82168	70192
20,82580	67725
20,82993	67597
20,83405	65020
20,83817	61867
20,84230	57326
20,84642	57941
20,85053	57807
20,85467	55804
20,85878	54560
20,86290	53012
20,86703	51282
20,87115	47985
20,87527	49361
20,87940	47024
20,88352	47601
20,88763	47551
20,89175	46771
20,89588	42765
20,90000	42496
20,90412	42185
20,90825	38976
20,91237	40590
20,91648	38496
20,92062	37081
20,92473	37018
20,92885	34916
20,93298	35182
20,93710	35192
20,94122	35019
20,94535	34860
20,94947	35818
20,95358	35580
20,95772	36845
20,96183	38891
20,96595	44713
20,97008	50800
20,97420	57696
20,97832	68277
20,98243	83801
20,98657	99446
20,99068	121247
20,99480	157111
20,99893	187591
21,00305	235448
21,00717	279901
21,01130	339902
21,01542	391998
21,01953	453365
21,02367	518291
21,02778	582678
21,03190	637920
21,03603	690023
21,04015	741896
21,04427	775289
21,04840	788922
21,05252	824107
21,05663	840368
21,06077	842047
21,06488	849053
21,06900	838080
21,07312	838930
21,07725	843719
21,08137	837110
21,08548	851420
21,08962	867633
21,09373	874010
21,09785	879950
21,10198	907422
21,10610	924205
21,11022	930140
21,11435	943542
21,11847	942712
21,12258	948049
21,12672	930166
21,13083	906590
21,13495	881996
21,13908	846898
21,14320	814486
21,14732	768296
21,15145	721989
21,15557	673459
21,15968	625516
21,16380	589998
21,16793	543376
21,17205	502695
21,17617	451386
21,18030	427300
21,18442	388440
21,18853	361938
21,19267	330729
21,19678	308454
21,20090	286332
21,20503	260962
21,20915	243882
21,21327	223366
21,21740	207903
21,22152	192944
21,22563	185417
21,22977	172570
21,23388	161570
21,23800	147315
21,24213	137073
21,24625	129670
21,25037	123112
21,25448	117610
21,25862	112037
21,26273	107219
21,26685	99909
21,27098	93138
21,27510	89099
21,27922	86043
21,28335	82929
21,28747	78156
21,29158	73330
21,29572	70976
21,29983	70073
21,30395	67529
21,30808	63826
21,31220	63705
21,31632	59856
21,32045	61151
21,32457	57737
21,32868	57477
21,33282	59721
21,33693	61099
21,34105	65329
21,34517	71437
21,34930	82495
21,35342	91814
21,35753	109379
21,36167	129167
21,36578	158203
21,36990	190422
21,37403	232977
21,37815	278859
21,38227	339289
21,38640	402095
21,39052	466422
21,39463	540320
21,39877	623673
21,40288	696595
21,40700	770590
21,41113	827097
21,41525	876754
21,41937	918051
21,42350	952522
21,42762	966792
21,43173	969504
21,43585	951683
21,43998	923023
21,44410	887257
21,44822	838082
21,45235	808631
21,45647	744515
21,46058	695232
21,46472	653626
21,46883	601583
21,47295	549496
21,47708	505900
21,48120	471566
21,48532	424540
21,48945	400003
21,49357	364898
21,49768	334129
21,50182	310389
21,50593	291269
21,51005	270536
21,51418	252363
21,51830	239764
21,52242	220032
21,52653	206323
21,53067	190310
21,53478	176793
21,53890	168441
21,54303	160437
21,54715	151490
21,55127	144141
21,55540	138850
21,55952	128544
21,56363	121892
21,56777	117084
21,57188	111377
21,57600	107504
21,58013	105577
21,58425	97900
21,58837	93024
21,59250	91241
21,59662	89054
21,60073	85576
21,60487	79891
21,60898	80806
21,61310	77612
21,61722	74631
21,62135	71094
21,62547	69303
21,62958	70748
21,63372	65489
21,63783	64694
21,64195	62554
21,64608	60465
21,65020	58978
21,65432	57083
21,65845	56023
21,66257	53857
21,66668	52981
21,67082	51112
21,67493	51232
21,67905	46634
21,68318	48114
21,68730	46187
21,69142	43409
21,69555	43286
21,69967	43487
21,70378	40521
21,70790	41001
21,71203	38575
21,71615	37921
21,72027	36675
21,72440	37837
21,72852	36729
21,73263	35677
21,73677	34698
21,74088	32562
21,74500	30673
21,74913	30439
21,75325	29587
21,75737	29587
21,76150	28755
21,76562	32138
21,76973	29893
21,77387	30144
21,77798	28363
21,78210	27356
21,78623	26858
21,79035	28449
21,79447	27373
21,79858	26421
21,80272	26132
21,80683	24917
21,81095	24743
21,81508	23847
21,81920	23525
21,82332	24448
21,82745	23693
21,83157	23904
21,83568	22278
21,83982	23380
21,84393	22802
21,84805	21984
21,85218	19980
21,85630	22023
21,86042	20961
21,86455	20275
21,86867	19663
21,87278	21885
21,87692	20544
21,88103	21853
21,88515	20077
21,88927	18573
21,89340	20453
21,89752	20438
21,90163	18613
21,90577	17977
21,90988	18518
21,91400	19572
21,91813	20171
21,92225	18391
21,92637	19581
21,93050	20570
21,93462	19984
21,93873	19885
21,94287	20073
21,94698	19937
21,95110	19797
21,95523	20148
21,95935	18720
21,96347	17899
21,96760	18225
21,97172	19482
21,97583	19061
21,97995	20004
21,98408	17886
21,98820	17678
21,99232	17443
21,99645	17483
22,00057	16532
22,00468	17601
22,00882	17354
22,01293	17516
22,01705	17237
22,02118	17138
22,02530	18577
22,02942	16326
22,03355	17650
22,03767	16460
22,04178	17620
22,04592	17373
22,05003	15056
22,05415	15547
22,05828	16034
22,06240	16523
22,06652	16865
22,07063	14779
22,07477	15793
22,07888	14753
22,08300	16671
22,08713	15753
22,09125	16145
22,09537	15680
22,09950	15094
22,10362	16187
22,10773	13930
22,11187	15096
22,11598	16205
22,12010	15427
22,12423	15523
22,12835	14575
22,13247	14984
22,13660	15054
22,14072	15106
22,14483	15590
22,14897	14840
22,15308	17222
22,15720	18694
22,16132	20855
22,16545	23651
22,16957	27764
22,17368	30502
22,17782	39442
22,18193	50661
22,18605	64927
22,19018	80964
22,19430	106166
22,19842	133010
22,20255	171567
22,20667	216810
22,21078	267927
22,21492	330970
22,21903	392363
22,22315	463608
22,22728	544024
22,23140	626581
22,23552	706480
22,23965	787457
22,24377	848608
22,24788	908273
22,25200	954879
22,25613	962403
22,26025	974037
22,26437	974078
22,26850	943678
22,27262	915654
22,27673	857862
22,28087	819605
22,28498	757191
22,28910	715551
22,29323	661550
22,29735	606577
22,30147	558284
22,30560	515214
22,30972	476307
22,31383	442582
22,31797	403355
22,32208	375657
22,32620	344388
22,33033	323420
22,33445	297453
22,33857	277897
22,34270	262776
22,34682	244121
22,35093	224857
22,35505	213157
22,35918	200763
22,36330	186870
22,36742	173853
22,37155	167338
22,37567	162318
22,37978	147642
22,38392	141613
22,38803	132551
22,39215	126670
22,39628	122231
22,40040	118219
22,40452	115044
22,40865	108974
22,41277	104065
22,41688	98196
22,42102	94920
22,42513	92532
22,42925	88354
22,43338	83531
22,43750	83358
22,44162	80049
22,44573	76612
22,44987	74428
22,45398	73557
22,45810	68848
22,46223	65959
22,46635	64328
22,47047	62088
22,47460	63034
22,47872	58435
22,48283	58482
22,48697	57429
22,49108	56676
22,49520	52028
22,49933	52300
22,50345	49859
22,50757	50416
22,51170	48023
22,51582	44854
22,51993	46718
22,52407	43017
22,52818	44434
22,53230	41276
22,53642	38772
22,54055	40881
22,54467	39012
22,54878	38862
22,55292	37469
22,55703	38650
22,56115	35421
22,56528	34822
22,56940	33282
22,57352	35651
22,57765	33984
22,58177	32713
22,58588	31119
22,59002	31272
22,59413	30429
22,59825	30232
22,60238	31337
22,60650	29289
22,61062	30278
22,61475	29886
22,61887	29773
22,62298	27444
22,62710	27887
22,63123	28489
22,63535	27990
22,63947	28410
22,64360	26426
22,64772	25418
22,65183	27800
22,65597	26021
22,66008	24449
22,66420	24553
22,66833	25933
22,67245	23095
22,67657	24376
22,68070	23734
22,68482	23481
22,68893	24390
22,69307	21528
22,69718	23507
22,70130	22608
22,70543	23965
22,70955	23098
22,71367	23567
22,71778	24076
22,72192	24590
22,72603	26744
22,73015	31811
22,73428	35304
22,73840	42721
22,74252	53988
22,74665	69474
22,75077	90123
22,75488	113839
22,75902	154085
22,76313	201104
22,76725	262288
22,77138	329604
22,77550	413971
22,77962	510471
22,78375	609658
22,78787	730017
22,79198	846776
22,79612	971816
22,80023	1098376
22,80435	1196498
22,80847	1295025
22,81260	1379241
22,81672	1430563
22,82083	1474670
22,82497	1487720
22,82908	1476913
22,83320	1448257
22,83733	1400610
22,84145	1363282
22,84557	1290966
22,84970	1225971
22,85382	1149967
22,85793	1073716
22,86207	993210
22,86618	922612
22,87030	845118
22,87443	782898
22,87855	716398
22,88267	658270
22,88680	604018
22,89092	557614
22,89503	512531
22,89915	470853
22,90328	429641
22,90740	396935
22,91152	362153
22,91565	338985
22,91977	318645
22,92388	302306
22,92802	274255
22,93213	257793
22,93625	235366
22,94038	224319
22,94450	211526
22,94862	194944
22,95275	188171
22,95687	172756
22,96098	170420
22,96512	157332
22,96923	148863
22,97335	141532
22,97748	135073
22,98160	130116
22,98572	125088
22,98983	117034
22,99397	110617
22,99808	108758
23,00220	103063
23,00633	99811
23,01045	93663
23,01457	91127
23,01870	87242
23,02282	84694
23,02693	80683
23,03107	78451
23,03518	74336
23,03930	71941
23,04343	72314
23,04755	69074
23,05167	66701
23,05580	63579
23,05992	62384
23,06403	58542
23,06817	57593
23,07228	56615
23,07640	54951
23,08052	53574
23,08465	52324
23,08877	51149
23,09288	48260
23,09702	49170
23,10113	46926
23,10525	45073
23,10938	44754
23,11350	42683
23,11762	42240
23,12175	41890
23,12587	39395
23,12998	41300
23,13412	38510
23,13823	36229
23,14235	36118
23,14648	35391
23,15060	36395
23,15472	35763
23,15885	32836
23,16297	33372
23,16708	32109
23,17120	32151
23,17533	33469
23,17945	30546
23,18357	28980
23,18770	31637
23,19182	30141
23,19593	29673
23,20007	32931
23,20418	28598
23,20830	27777
23,21243	29413
23,21655	27798
23,22067	26779
23,22480	26282
23,22892	25757
23,23303	26889
23,23717	28105
23,24128	27323
23,24540	27427
23,24953	26291
23,25365	24544
23,25777	26137
23,26188	25734
23,26602	25889
23,27013	25408
23,27425	25111
23,27838	24222
23,28250	23923
23,28662	21557
23,29075	21838
23,29487	24329
23,29898	23489
23,30312	22142
23,30723	23403
23,31135	23233
23,31548	22452
23,31960	21252
23,32372	21049
23,32785	22217
23,33197	23174
23,33608	21952
23,34022	20971
23,34433	21696
23,34845	22328
23,35257	22882
23,35670	21757
23,36082	21727
23,36493	19620
23,36907	20497
23,37318	21090
23,37730	21873
23,38143	19481
23,38555	20141
23,38967	19710
23,39380	18469
23,39792	18291
23,40203	18912
23,40617	17464
23,41028	18788
23,41440	19690
23,41853	19119
23,42265	17922
23,42677	19260
23,43090	16055
23,43502	17112
23,43913	17105
23,44325	17260
23,44738	16573
23,45150	17386
23,45562	16632
23,45975	17054
23,46387	17622
23,46798	17399
23,47212	17456
23,47623	17742
23,48035	15496
23,48448	15711
23,48860	17084
23,49272	15657
23,49685	15482
23,50097	15555
23,50508	16354
23,50922	16207
23,51333	15512
23,51745	15323
23,52158	15189
23,52570	16647
23,52982	15397
23,53393	14717
23,53807	15752
23,54218	14721
23,54630	14517
23,55043	15788
23,55455	14238
23,55867	15299
23,56280	13343
23,56692	16040
23,57103	15111
23,57517	16330
23,57928	14790
23,58340	13412
23,58753	14681
23,59165	14231
23,59577	14653
23,59990	13696
23,60402	14519
23,60813	14232
23,61227	15292
23,61638	15966
23,62050	15208
23,62462	15382
23,62875	14421
23,63287	14542
23,63698	16136
23,64112	16172
23,64523	15717
23,64935	13985
23,65348	15856
23,65760	15632
23,66172	15156
23,66585	14130
23,66997	14645
23,67408	15828
23,67822	17081
23,68233	15548
23,68645	15145
23,69058	16515
23,69470	15500
23,69882	16403
23,70295	14680
23,70707	13819
23,71118	13012
23,71530	16158
23,71943	14123
23,72355	15431
23,72767	14910
23,73180	14098
23,73592	14832
23,74003	14802
23,74417	14018
23,74828	15586
23,75240	14192
23,75653	14124
23,76065	15074
23,76477	13189
23,76890	15250
23,77302	15277
23,77713	15076
23,78127	14947
23,78538	14134
23,78950	14663
23,79363	13235
23,79775	14326
23,80187	16577
23,80598	14637
23,81012	14803
23,81423	13636
23,81835	15646
23,82248	14749
23,82660	15705
23,83072	17042
23,83485	16486
23,83897	18238
23,84308	21542
23,84722	22453
23,85133	25659
23,85545	30782
23,85958	37536
23,86370	45362
23,86782	57016
23,87195	73454
23,87607	96170
23,88018	119410
23,88432	147602
23,88843	185560
23,89255	232772
23,89668	288624
23,90080	350442
23,90492	428702
23,90903	520886
23,91317	612425
23,91728	718519
23,92140	828821
23,92553	956187
23,92965	1085611
23,93377	1206971
23,93790	1337278
23,94202	1473134
23,94613	1594330
23,95027	1701227
23,95438	1783531
23,95850	1840730
23,96263	1865951
23,96675	1848566
23,97087	1805472
23,97500	1739483
23,97912	1669333
23,98323	1564260
23,98737	1481491
23,99148	1372561
23,99560	1260269
23,99972	1170681
24,00385	1071371
24,00797	979577
24,01208	894192
24,01622	820123
24,02033	757427
24,02445	705689
24,02858	645177
24,03270	602346
24,03682	558286
24,04095	517799
24,04507	481087
24,04918	447118
24,05332	417203
24,05743	398573
24,06155	374116
24,06568	350624
24,06980	326803
24,07392	310339
24,07805	293708
24,08217	279331
24,08628	261271
24,09040	247854
24,09453	239789
24,09865	229285
24,10277	212766
24,10690	212829
24,11102	197614
24,11513	193187
24,11927	178897
24,12338	171657
24,12750	169808
24,13163	162234
24,13575	156169
24,13987	150504
24,14400	141454
24,14812	140681
24,15223	135716
24,15637	127537
24,16048	124820
24,16460	121258
24,16873	117936
24,17285	115337
24,17697	113164
24,18108	109151
24,18522	105107
24,18933	100812
24,19345	96854
24,19758	95735
24,20170	95770
24,20582	90138
24,20995	87130
24,21407	85884
24,21818	84743
24,22232	80227
24,22643	80292
24,23055	77379
24,23468	73603
24,23880	75805
24,24292	69522
24,24705	70540
24,25117	70255
24,25528	68293
24,25942	68794
24,26353	65938
24,26765	64289
24,27177	60732
24,27590	60064
24,28002	60896
24,28413	60386
24,28827	56232
24,29238	56239
24,29650	58335
24,30063	55814
24,30475	53881
24,30887	54000
24,31300	50609
24,31712	50869
24,32123	50146
24,32537	49538
24,32948	47788
24,33360	45984
24,33773	46748
24,34185	44645
24,34597	45321
24,35010	43750
24,35422	42384
24,35833	42102
24,36245	43726
24,36658	42945
24,37070	42128
24,37482	41926
24,37895	41204
24,38307	40394
24,38718	39247
24,39132	40752
24,39543	37682
24,39955	36579
24,40368	38136
24,40780	37575
24,41192	35778
24,41605	36787
24,42017	36478
24,42428	37303
24,42842	35545
24,43253	35486
24,43665	34264
24,44078	34320
24,44490	33597
24,44902	34632
24,45313	33731
24,45727	33408
24,46138	32789
24,46550	34790
24,46963	31658
24,47375	31535
24,47787	31908
24,48200	30899
24,48612	29534
24,49023	30932
24,49437	31063
24,49848	30687
24,50260	31426
24,50673	30140
24,51085	29144
24,51497	28618
24,51910	29803
24,52322	30028
24,52733	29692
24,53147	27761
24,53558	29123
24,53970	28244
24,54382	28819
24,54795	27348
24,55207	27697
24,55618	27678
24,56032	26248
24,56443	25969
24,56855	25492
24,57268	25989
24,57680	25098
24,58092	26509
24,58505	26401
24,58917	26681
24,59328	26663
24,59742	26955
24,60153	26279
24,60565	23181
24,60978	22896
24,61390	24171
24,61802	25647
24,62215	24923
24,62627	24480
24,63038	25509
24,63450	23931
24,63863	24550
24,64275	24062
24,64687	24548
24,65100	23856
24,65512	24401
24,65923	24175
24,66337	23127
24,66748	23736
24,67160	24062
24,67573	24639
24,67985	25244
24,68397	25048
24,68810	25006
24,69222	27092
24,69633	32700
24,70047	37485
24,70458	39545
24,70870	48465
24,71283	58931
24,71695	74496
24,72107	88540
24,72518	109495
24,72932	138314
24,73343	172170
24,73755	208156
24,74168	250747
24,74580	301510
24,74992	361277
24,75405	417855
24,75817	483556
24,76228	549708
24,76642	618847
24,77053	669426
24,77465	735077
24,77878	772634
24,78290	810343
24,78702	828401
24,79115	848145
24,79527	842545
24,79938	830555
24,80352	813097
24,80763	775443
24,81175	743662
24,81587	702236
24,82000	665018
24,82412	620851
24,82823	589463
24,83237	549292
24,83648	506565
24,84060	469818
24,84473	441292
24,84885	409687
24,85297	377767
24,85710	355521
24,86122	331383
24,86533	312850
24,86947	298579
24,87358	273906
24,87770	261720
24,88183	251070
24,88595	239769
24,89007	228621
24,89420	222567
24,89832	210879
24,90243	208619
24,90655	197139
24,91068	194536
24,91480	191177
24,91892	186745
24,92305	180234
24,92717	179952
24,93128	175493
24,93542	173974
24,93953	167924
24,94365	162225
24,94778	156548
24,95190	153528
24,95602	149687
24,96015	144209
24,96427	138008
24,96838	132835
24,97252	126855
24,97663	121466
24,98075	117326
24,98488	112781
24,98900	106089
24,99312	103394
24,99723	101614
25,00137	96279
25,00548	89313
25,00960	89330
25,01373	82931
25,01785	79470
25,02197	77942
25,02610	76513
25,03022	76327
25,03433	70355
25,03847	68864
25,04258	65006
25,04670	65796
25,05083	63177
25,05495	60851
25,05907	59005
25,06320	55654
25,06732	55304
25,07143	56000
25,07557	53365
25,07968	52950
25,08380	51577
25,08792	50919
25,09205	49992
25,09617	50556
25,10028	47117
25,10442	44858
25,10853	44767
25,11265	46226
25,11678	42647
25,12090	42758
25,12502	41954
25,12915	41961
25,13327	40827
25,13738	40718
25,14152	39825
25,14563	37406
25,14975	37674
25,15388	34877
25,15800	36205
25,16212	37018
25,16625	35034
25,17037	34613
25,17448	33739
25,17860	34185
25,18273	31562
25,18685	31984
25,19097	33782
25,19510	33021
25,19922	32495
25,20333	30473
25,20747	32466
25,21158	30418
25,21570	29733
25,21983	29177
25,22395	31431
25,22807	28814
25,23220	28593
25,23632	29053
25,24043	27439
25,24457	27317
25,24868	28072
25,25280	26502
25,25693	26373
25,26105	27979
25,26517	27356
25,26928	26033
25,27342	26490
25,27753	27105
25,28165	24845
25,28578	27304
25,28990	26798
25,29402	27182
25,29815	25897
25,30227	23549
25,30638	24928
25,31052	24006
25,31463	22338
25,31875	24685
25,32288	25276
25,32700	25208
25,33112	23891
25,33525	23569
25,33937	23691
25,34348	22859
25,34762	24212
25,35173	21500
25,35585	22627
25,35997	23274
25,36410	23675
25,36822	22406
25,37233	20934
25,37647	21800
25,38058	22279
25,38470	23665
25,38883	23572
25,39295	21702
25,39707	21713
25,40120	22575
25,40532	21661
25,40943	22385
25,41357	21498
25,41768	22816
25,42180	21311
25,42593	22545
25,43005	21975
25,43417	21516
25,43830	19935
25,44242	19104
25,44653	20693
25,45065	19509
25,45478	20692
25,45890	21513
25,46302	19615
25,46715	19681
25,47127	20082
25,47538	21430
25,47952	21064
25,48363	20412
25,48775	19604
25,49188	19660
25,49600	18761
25,50012	19517
25,50425	19019
25,50837	20888
25,51248	20996
25,51662	19968
25,52073	18721
25,52485	20485
25,52898	17999
25,53310	20245
25,53722	18292
25,54133	18083
25,54547	18310
25,54958	18620
25,55370	19933
25,55783	20209
25,56195	19706
25,56607	19704
25,57020	19711
25,57432	18301
25,57843	19585
25,58257	17938
25,58668	20305
25,59080	19690
25,59493	17269
25,59905	19115
25,60317	19213
25,60730	18947
25,61142	18310
25,61553	19518
25,61967	17053
25,62378	16606
25,62790	19100
25,63203	18039
25,63615	18300
25,64027	16926
25,64438	17666
25,64852	18663
25,65263	18852
25,65675	17810
25,66088	17779
25,66500	17915
25,66912	18265
25,67325	19407
25,67737	17733
25,68148	18862
25,68562	17224
25,68973	16865
25,69385	17080
25,69798	19035
25,70210	17737
25,70622	16839
25,71035	17565
25,71447	17881
25,71858	17851
25,72272	16285
25,72683	15964
25,73095	17358
25,73507	15851
25,73920	18427
25,74332	16341
25,74743	16782
25,75157	16766
25,75568	16811
25,75980	18470
25,76393	16834
25,76805	16506
25,77217	17685
25,77630	17392
25,78042	15813
25,78453	16331
25,78867	18044
25,79278	16241
25,79690	17016
25,80103	17821
25,80515	17942
25,80927	16542
25,81340	15787
25,81752	15910
25,82163	17262
25,82575	16637
25,82988	14936
25,83400	17917
25,83812	17145
25,84225	15632
25,84637	16567
25,85048	17128
25,85462	17396
25,85873	16574
25,86285	16171
25,86698	16005
25,87110	14452
25,87522	16150
25,87935	17113
25,88347	16819
25,88758	15306
25,89172	15939
25,89583	15913
25,89995	16121
25,90408	16058
25,90820	14943
25,91232	16943
25,91643	14403
25,92057	15681
25,92468	13773
25,92880	16706
25,93293	14357
25,93705	15397
25,94117	16978
25,94530	15668
25,94942	14763
25,95353	14961
25,95767	16281
25,96178	14447
25,96590	14493
25,97003	15679
25,97415	15846
25,97827	15199
25,98240	14673
25,98652	14957
25,99063	15675
25,99477	15630
25,99888	14588
26,00300	14464
26,00712	15169
26,01125	14915
26,01537	15133
26,01948	15267
26,02362	13574
26,02773	13910
26,03185	17195
26,03598	15593
26,04010	15050
26,04422	15244
26,04835	14266
26,05247	14182
26,05658	14724
26,06072	14772
26,06483	14975
26,06895	15790
26,07308	14692
26,07720	14077
26,08132	13548
26,08545	15712
26,08957	15357
26,09368	15749
26,09780	15261
26,10193	15277
26,10605	15037
26,11017	15864
26,11430	15681
26,11842	14594
26,12253	15179
26,12667	15615
26,13078	15508
26,13490	15937
26,13903	15952
26,14315	13841
26,14727	14328
26,15140	14083
26,15552	13013
26,15963	15143
26,16377	14874
26,16788	15517
26,17200	14239
26,17613	15117
26,18025	15221
26,18437	14883
26,18848	14534
26,19262	17792
26,19673	15591
26,20085	14842
26,20498	15260
26,20910	14960
26,21322	13011
26,21735	14680
26,22147	15468
26,22558	15266
26,22972	13963
26,23383	14245
26,23795	15266
26,24208	15048
26,24620	16405
26,25032	14345
26,25445	14627
26,25857	15708
26,26268	15426
26,26682	14231
26,27093	15405
26,27505	14283
26,27917	16848
26,28330	14359
26,28742	15665
26,29153	14523
26,29567	14768
26,29978	14733
26,30390	13837
26,30803	15468
26,31215	14523
26,31627	14584
26,32040	15190
26,32452	15175
26,32863	14508
26,33277	14146
26,33688	15660
26,34100	13814
26,34513	15932
26,34925	14402
26,35337	14673
26,35750	15501
26,36162	14423
26,36573	14784
26,36985	14486
26,37398	16146
26,37810	16189
26,38222	13755
26,38635	14554
26,39047	16140
26,39458	15029
26,39872	15659
26,40283	15200
26,40695	15446
26,41108	14569
26,41520	15291
26,41932	15731
26,42345	14578
26,42757	15029
26,43168	13854
26,43582	14431
26,43993	13385
26,44405	13880
26,44818	13916
26,45230	15044
26,45642	15665
26,46053	16522
26,46467	14585
26,46878	15596
26,47290	14423
26,47703	14854
26,48115	14753
26,48527	14590
26,48940	14537
26,49352	14526
26,49763	14047
26,50177	15229
26,50588	14740
26,51000	14544
26,51413	14293
26,51825	15694
26,52237	14539
26,52650	13733
26,53062	15882
26,53473	14917
26,53887	15918
26,54298	15343
26,54710	14103
26,55122	15248
26,55535	13947
26,55947	15257
26,56358	13861
26,56772	13827
26,57183	15786
26,57595	15502
26,58008	14663
26,58420	13398
26,58832	16679
26,59245	14747
26,59657	15362
26,60068	13508
26,60482	14362
26,60893	14789
26,61305	14041
26,61718	15967
26,62130	15336
26,62542	14131
26,62955	14083
26,63367	14186
26,63778	14778
26,64190	15018
26,64603	15034
26,65015	15047
26,65427	15269
26,65840	16366
26,66252	15097
26,66663	13767
26,67077	15065
26,67488	15850
26,67900	14964
26,68313	15104
26,68725	14477
26,69137	15014
26,69550	14098
26,69962	14547
26,70373	14040
26,70787	14223
26,71198	14100
26,71610	15154
26,72023	14728
26,72435	13432
26,72847	14973
26,73258	15177
26,73672	14740
26,74083	14057
26,74495	14214
26,74908	15440
26,75320	15536
26,75732	15049
26,76145	14820
26,76557	14857
26,76968	13847
26,77382	15127
26,77793	14820
26,78205	13836
26,78618	14493
26,79030	15200
26,79442	14939
26,79855	14775
26,80267	16272
26,80678	13224
26,81092	13520
26,81503	13499
26,81915	14702
26,82327	14865
26,82740	14854
26,83152	14537
26,83563	15546
26,83977	14513
26,84388	14594
26,84800	14377
26,85213	14037
26,85625	15697
26,86037	15952
26,86450	14488
26,86862	13881
26,87273	15148
26,87687	15139
26,88098	15771
26,88510	16392
26,88923	15570
26,89335	17548
26,89747	18333
26,90160	21025
26,90572	23518
26,90983	26870
26,91395	32589
26,91808	39043
26,92220	50708
26,92632	58283
26,93045	76635
26,93457	91344
26,93868	118068
26,94282	139128
26,94693	170920
26,95105	205585
26,95518	250566
26,95930	282775
26,96342	323521
26,96755	364367
26,97167	406032
26,97578	439556
26,97992	473623
26,98403	498019
26,98815	513683
26,99228	520337
26,99640	516291
27,00052	519438
27,00463	515805
27,00877	497431
27,01288	482016
27,01700	459036
27,02113	438820
27,02525	414031
27,02937	394973
27,03350	363851
27,03762	337431
27,04173	316807
27,04587	290438
27,04998	268460
27,05410	250091
27,05823	235455
27,06235	214570
27,06647	200751
27,07060	191785
27,07472	171096
27,07883	161301
27,08297	152750
27,08708	143732
27,09120	133596
27,09532	126201
27,09945	117580
27,10357	109788
27,10768	107251
27,11182	100250
27,11593	95049
27,12005	88385
27,12418	83285
27,12830	84158
27,13242	78025
27,13655	73916
27,14067	72256
27,14478	69287
27,14892	64158
27,15303	63019
27,15715	62138
27,16128	60982
27,16540	56491
27,16952	55509
27,17365	53851
27,17777	53286
27,18188	50615
27,18602	49164
27,19013	47622
27,19425	46195
27,19837	44058
27,20250	43361
27,20662	39790
27,21073	39658
27,21487	40615
27,21898	39312
27,22310	37766
27,22723	35981
27,23135	36172
27,23547	34555
27,23960	35454
27,24372	34341
27,24783	34740
27,25197	32200
27,25608	33290
27,26020	28956
27,26433	31672
27,26845	31124
27,27257	29158
27,27670	28273
27,28082	29302
27,28493	28446
27,28905	28586
27,29318	29365
27,29730	26572
27,30142	28480
27,30555	26440
27,30967	27877
27,31378	26936
27,31792	26040
27,32203	24425
27,32615	24007
27,33028	25473
27,33440	24268
27,33852	23689
27,34265	24021
27,34677	24306
27,35088	24720
27,35502	25242
27,35913	25015
27,36325	24132
27,36738	24711
27,37150	24508
27,37562	21074
27,37973	22859
27,38387	23848
27,38798	22254
27,39210	22360
27,39623	21843
27,40035	22032
27,40447	22026
27,40860	21951
27,41272	20634
27,41683	21482
27,42097	21733
27,42508	21420
27,42920	21884
27,43333	21412
27,43745	19953
27,44157	21092
27,44570	22360
27,44982	19643
27,45393	20194
27,45807	19628
27,46218	20647
27,46630	20594
27,47042	20506
27,47455	19884
27,47867	20861
27,48278	21050
27,48692	20799
27,49103	21270
27,49515	20038
27,49928	19640
27,50340	19542
27,50752	19869
