D:\MassHunter\GCMS\1\data\Amal\Constant flow\110C\110C_1ml-min_8C-min_1.D Tue Jul 30 16:44:46 2024
Start of data points
5,59092	25182
5,59503	26154
5,59915	24767
5,60328	23763
5,60740	24448
5,61152	25408
5,61565	24301
5,61977	23934
5,62388	24816
5,62802	25813
5,63213	23720
5,63625	24714
5,64038	24651
5,64450	24137
5,64862	23977
5,65273	23334
5,65687	24028
5,66098	23681
5,66510	24267
5,66923	22991
5,67335	24757
5,67747	25042
5,68160	25255
5,68572	24391
5,68983	26434
5,69397	25097
5,69808	24878
5,70220	24895
5,70633	25403
5,71045	27408
5,71457	25103
5,71870	24438
5,72282	24751
5,72693	25386
5,73107	24348
5,73518	24377
5,73930	23993
5,74342	24292
5,74755	23801
5,75167	23012
5,75578	22554
5,75992	23443
5,76403	23129
5,76815	23438
5,77228	22795
5,77640	20933
5,78052	21359
5,78465	21946
5,78877	22595
5,79288	22637
5,79702	22784
5,80113	23174
5,80525	23271
5,80938	24453
5,81350	24899
5,81762	30953
5,82175	36287
5,82587	48102
5,82998	62187
5,83410	76826
5,83823	95900
5,84235	108706
5,84647	118716
5,85060	124064
5,85472	121496
5,85883	119476
5,86297	113630
5,86708	112547
5,87120	107803
5,87533	103973
5,87945	97709
5,88357	93034
5,88770	88189
5,89182	87724
5,89593	83124
5,90007	79908
5,90418	73113
5,90830	68758
5,91243	67392
5,91655	64025
5,92067	61071
5,92480	59681
5,92892	55785
5,93303	55627
5,93715	52213
5,94128	49029
5,94540	49533
5,94952	44868
5,95365	43437
5,95777	43366
5,96188	40784
5,96602	37857
5,97013	37666
5,97425	35299
5,97838	33604
5,98250	32138
5,98662	30177
5,99075	29420
5,99487	28562
5,99898	28099
6,00312	25014
6,00723	25643
6,01135	24494
6,01548	24643
6,01960	22917
6,02372	22792
6,02783	23836
6,03197	22297
6,03608	20785
6,04020	21310
6,04433	20566
6,04845	18634
6,05257	18594
6,05670	19492
6,06082	19778
6,06493	19634
6,06907	18842
6,07318	18569
6,07730	18557
6,08143	18640
6,08555	17435
6,08967	18585
6,09380	18027
6,09792	16565
6,10203	17606
6,10617	19428
6,11028	16714
6,11440	17379
6,11852	17456
6,12265	15695
6,12677	17308
6,13088	16939
6,13502	17281
6,13913	18244
6,14325	17537
6,14738	17425
6,15150	16826
6,15562	17339
6,15975	16875
6,16387	16982
6,16798	16585
6,17212	16406
6,17623	16716
6,18035	16974
6,18448	15737
6,18860	16763
6,19272	15771
6,19685	16151
6,20097	16328
6,20508	15454
6,20920	15689
6,21333	16395
6,21745	15525
6,22157	16370
6,22570	15435
6,22982	14989
6,23393	15971
6,23807	16041
6,24218	14643
6,24630	15047
6,25043	16095
6,25455	15091
6,25867	15200
6,26280	14981
6,26692	14655
6,27103	15147
6,27517	14227
6,27928	15052
6,28340	13768
6,28753	14841
6,29165	15448
6,29577	14654
6,29988	14854
6,30402	15360
6,30813	14081
6,31225	14026
6,31638	12996
6,32050	14869
6,32462	14439
6,32875	14060
6,33287	13253
6,33698	13005
6,34112	14266
6,34523	13619
6,34935	14119
6,35348	14019
6,35760	14306
6,36172	14061
6,36585	13539
6,36997	13822
6,37408	12714
6,37822	12686
6,38233	12599
6,38645	13264
6,39057	13960
6,39470	13102
6,39882	13417
6,40293	12986
6,40707	15133
6,41118	13754
6,41530	12554
6,41943	12508
6,42355	14228
6,42767	12692
6,43180	12311
6,43592	12292
6,44003	12600
6,44417	13815
6,44828	12393
6,45240	12989
6,45653	13138
6,46065	13459
6,46477	12602
6,46890	13231
6,47302	13026
6,47713	12126
6,48125	11801
6,48538	13103
6,48950	12689
6,49362	11151
6,49775	11603
6,50187	11802
6,50598	11964
6,51012	10665
6,51423	11694
6,51835	12998
6,52248	12647
6,52660	12954
6,53072	12532
6,53485	12467
6,53897	11775
6,54308	11833
6,54722	10358
6,55133	11544
6,55545	11454
6,55958	11362
6,56370	11435
6,56782	12437
6,57193	11768
6,57607	11897
6,58018	11646
6,58430	11691
6,58843	10998
6,59255	12183
6,59667	11178
6,60080	11347
6,60492	11615
6,60903	11659
6,61317	10612
6,61728	11188
6,62140	11242
6,62553	12709
6,62965	11793
6,63377	13566
6,63790	13781
6,64202	12864
6,64613	13867
6,65027	13301
6,65438	13920
6,65850	13190
6,66262	12869
6,66675	12256
6,67087	11636
6,67498	11701
6,67912	11466
6,68323	12607
6,68735	11660
6,69148	11173
6,69560	10819
6,69972	10232
6,70385	10784
6,70797	11427
6,71208	10129
6,71622	11340
6,72033	11004
6,72445	10718
6,72858	10371
6,73270	11159
6,73682	10492
6,74095	10924
6,74507	10104
6,74918	9867
6,75330	10889
6,75743	10709
6,76155	9887
6,76567	9375
6,76980	10550
6,77392	10168
6,77803	9999
6,78217	9817
6,78628	9882
6,79040	10252
6,79453	10137
6,79865	10661
6,80277	10018
6,80690	10077
6,81102	9341
6,81513	9632
6,81927	9915
6,82338	10282
6,82750	9309
6,83163	10084
6,83575	10373
6,83987	10139
6,84398	9391
6,84812	9432
6,85223	10916
6,85635	10904
6,86048	9944
6,86460	10150
6,86872	9144
6,87285	9495
6,87697	10241
6,88108	9789
6,88522	9249
6,88933	9368
6,89345	9951
6,89758	9162
6,90170	9307
6,90582	10031
6,90995	9722
6,91407	9090
6,91818	8887
6,92232	10080
6,92643	8290
6,93055	8947
6,93467	8959
6,93880	9434
6,94292	8495
6,94703	8429
6,95117	8921
6,95528	9115
6,95940	9571
6,96353	9586
6,96765	8870
6,97177	9228
6,97590	9120
6,98002	9485
6,98413	9489
6,98827	10338
6,99238	9052
6,99650	9794
7,00063	9888
7,00475	9089
7,00887	9852
7,01300	9769
7,01712	10503
7,02123	8930
7,02535	8907
7,02948	9803
7,03360	8648
7,03772	8968
7,04185	9174
7,04597	9075
7,05008	8986
7,05422	9984
7,05833	12500
7,06245	18026
7,06658	27839
7,07070	49991
7,07482	79232
7,07895	137315
7,08307	200089
7,08718	283431
7,09132	365138
7,09543	443673
7,09955	502662
7,10368	554169
7,10780	568114
7,11192	560905
7,11603	550161
7,12017	522515
7,12428	491357
7,12840	457516
7,13253	428143
7,13665	384482
7,14077	354700
7,14490	325605
7,14902	296083
7,15313	275225
7,15727	248452
7,16138	223498
7,16550	205606
7,16963	185265
7,17375	166661
7,17787	147719
7,18200	132667
7,18612	117020
7,19023	102773
7,19437	89215
7,19848	75518
7,20260	67795
7,20672	58922
7,21085	50463
7,21497	45146
7,21908	39311
7,22322	35212
7,22733	34094
7,23145	28193
7,23558	26223
7,23970	22275
7,24382	21561
7,24795	19112
7,25207	18104
7,25618	17455
7,26032	15951
7,26443	15133
7,26855	13945
7,27268	13646
7,27680	13390
7,28092	12860
7,28505	11194
7,28917	11640
7,29328	11269
7,29740	10629
7,30153	10533
7,30565	10746
7,30977	10894
7,31390	11186
7,31802	9662
7,32213	8686
7,32627	9229
7,33038	9902
7,33450	9032
7,33863	9436
7,34275	9042
7,34687	8365
7,35100	9463
7,35512	9517
7,35923	8705
7,36337	8288
7,36748	9098
7,37160	8789
7,37573	9034
7,37985	8312
7,38397	8084
7,38808	8370
7,39222	7919
7,39633	8228
7,40045	8002
7,40458	9094
7,40870	7843
7,41282	7733
7,41695	9305
7,42107	8221
7,42518	8117
7,42932	8386
7,43343	7511
7,43755	7792
7,44168	7792
7,44580	8349
7,44992	7823
7,45405	8227
7,45817	7646
7,46228	7962
7,46642	7602
7,47053	8155
7,47465	8078
7,47877	8139
7,48290	7335
7,48702	8056
7,49113	7804
7,49527	7890
7,49938	7114
7,50350	7557
7,50763	7540
7,51175	7479
7,51587	7874
7,52000	6693
7,52412	7782
7,52823	7060
7,53237	6767
7,53648	7490
7,54060	7797
7,54473	7929
7,54885	7176
7,55297	8623
7,55710	7123
7,56122	7299
7,56533	6826
7,56947	6492
7,57358	7224
7,57770	5856
7,58182	7011
7,58595	6512
7,59007	6333
7,59418	7004
7,59832	6346
7,60243	7430
7,60655	5911
7,61068	7050
7,61480	7332
7,61892	6305
7,62305	6157
7,62717	6282
7,63128	6111
7,63542	6612
7,63953	6630
7,64365	7441
7,64778	6578
7,65190	6619
7,65602	6804
7,66015	7287
7,66427	7059
7,66838	6639
7,67250	6854
7,67663	6409
7,68075	6862
7,68487	6761
7,68900	7648
7,69312	6891
7,69723	6408
7,70137	6899
7,70548	7109
7,70960	6475
7,71373	6784
7,71785	6082
7,72197	6171
7,72610	6492
7,73022	6865
7,73433	6566
7,73847	6103
7,74258	6174
7,74670	5819
7,75083	5900
7,75495	5517
7,75907	5647
7,76318	5938
7,76732	6573
7,77143	6734
7,77555	5624
7,77968	5490
7,78380	6347
7,78792	6336
7,79205	5793
7,79617	6484
7,80028	6500
7,80442	5478
7,80853	5604
7,81265	6618
7,81678	7211
7,82090	6075
7,82502	6732
7,82915	7961
7,83327	10996
7,83738	17695
7,84152	27656
7,84563	47148
7,84975	78310
7,85387	120366
7,85800	175574
7,86212	228683
7,86623	290121
7,87037	338830
7,87448	362721
7,87860	388419
7,88273	395190
7,88685	382818
7,89097	364816
7,89510	341918
7,89922	318647
7,90333	285831
7,90747	253645
7,91158	228279
7,91570	201854
7,91983	178881
7,92395	153462
7,92807	133251
7,93220	116250
7,93632	101631
7,94043	84651
7,94455	73099
7,94868	62001
7,95280	52381
7,95692	43916
7,96105	39455
7,96517	34206
7,96928	28561
7,97342	25307
7,97753	23412
7,98165	20581
7,98578	17654
7,98990	16121
7,99402	15288
7,99815	13680
8,00227	13077
8,00638	11696
8,01052	11562
8,01463	11139
8,01875	8596
8,02288	9447
8,02700	8985
8,03112	8551
8,03523	9041
8,03937	8232
8,04348	7669
8,04760	7802
8,05173	7306
8,05585	7660
8,05997	7331
8,06410	7905
8,06822	7592
8,07233	6760
8,07647	7491
8,08058	7269
8,08470	7027
8,08883	7317
8,09295	8673
8,09707	7829
8,10120	8165
8,10532	8126
8,10943	8286
8,11357	8900
8,11768	7881
8,12180	7862
8,12592	8562
8,13005	6845
8,13417	7079
8,13828	7451
8,14242	6926
8,14653	7064
8,15065	7374
8,15478	6780
8,15890	6757
8,16302	7084
8,16715	7653
8,17127	7239
8,17538	7565
8,17952	7647
8,18363	7765
8,18775	7049
8,19188	7778
8,19600	6725
8,20012	6729
8,20425	5549
8,20837	6566
8,21248	6345
8,21660	5971
8,22073	5966
8,22485	5885
8,22897	5671
8,23310	5006
8,23722	5271
8,24133	5452
8,24547	6716
8,24958	5805
8,25370	5561
8,25783	5346
8,26195	5387
8,26607	5245
8,27020	5440
8,27432	5369
8,27843	4770
8,28257	5397
8,28668	4562
8,29080	5276
8,29493	4203
8,29905	5148
8,30317	4912
8,30728	4859
8,31142	4953
8,31553	4963
8,31965	4156
8,32378	5219
8,32790	5543
8,33202	5430
8,33615	4875
8,34027	4546
8,34438	4687
8,34852	4979
8,35263	5265
8,35675	4316
8,36088	4623
8,36500	4471
8,36912	4823
8,37325	5062
8,37737	4389
8,38148	4482
8,38562	3832
8,38973	4300
8,39385	4516
8,39797	4906
8,40210	4648
8,40622	4646
8,41033	4593
8,41447	4574
8,41858	4077
8,42270	4762
8,42683	4708
8,43095	4643
8,43507	4219
8,43920	4572
8,44332	4210
8,44743	4550
8,45157	4371
8,45568	5269
8,45980	4806
8,46393	4990
8,46805	4636
8,47217	4344
8,47630	4785
8,48042	5041
8,48453	5434
8,48865	4255
8,49278	4113
8,49690	4833
8,50102	4612
8,50515	4614
8,50927	4809
8,51338	4599
8,51752	4600
8,52163	3689
8,52575	4262
8,52988	5271
8,53400	4638
8,53812	3935
8,54225	4720
8,54637	4582
8,55048	4624
8,55462	4762
8,55873	4504
8,56285	4729
8,56698	4357
8,57110	5002
8,57522	4693
8,57933	4213
8,58347	4285
8,58758	4337
8,59170	4445
8,59583	4408
8,59995	4679
8,60407	4114
8,60820	4010
8,61232	4271
8,61643	4283
8,62057	4432
8,62468	4569
8,62880	3962
8,63293	5021
8,63705	4463
8,64117	3783
8,64530	4389
8,64942	4409
8,65353	4811
8,65767	5304
8,66178	7570
8,66590	12739
8,67002	21933
8,67415	41414
8,67827	77994
8,68238	138128
8,68652	218559
8,69063	336229
8,69475	475774
8,69888	623642
8,70300	766851
8,70712	889683
8,71125	967455
8,71537	1008558
8,71948	1011918
8,72362	961278
8,72773	889035
8,73185	801953
8,73598	694409
8,74010	606281
8,74422	506745
8,74835	422621
8,75247	347911
8,75658	284013
8,76070	233963
8,76483	186520
8,76895	153828
8,77307	124080
8,77720	100908
8,78132	83169
8,78543	68054
8,78957	56373
8,79368	49133
8,79780	40601
8,80193	35238
8,80605	31839
8,81017	27790
8,81430	26186
8,81842	22963
8,82253	20559
8,82667	18603
8,83078	17270
8,83490	16239
8,83903	14986
8,84315	13951
8,84727	13515
8,85138	13125
8,85552	10383
8,85963	10952
8,86375	10490
8,86788	11542
8,87200	9492
8,87612	9670
8,88025	8098
8,88437	7470
8,88848	8940
8,89262	8083
8,89673	8142
8,90085	7950
8,90498	8996
8,90910	7300
8,91322	7698
8,91735	7041
8,92147	6238
8,92558	5904
8,92972	5907
8,93383	5926
8,93795	6214
8,94207	6869
8,94620	5548
8,95032	6143
8,95443	5338
8,95857	6747
8,96268	5928
8,96680	5310
8,97093	6193
8,97505	6866
8,97917	7762
8,98330	8124
8,98742	6819
8,99153	7253
8,99567	7106
8,99978	6322
9,00390	6259
9,00803	5105
9,01215	5382
9,01627	5349
9,02040	4518
9,02452	4781
9,02863	4928
9,03275	4592
9,03688	4802
9,04100	4177
9,04512	4943
9,04925	5324
9,05337	4452
9,05748	4129
9,06162	4636
9,06573	4307
9,06985	4401
9,07398	4150
9,07810	4453
9,08222	4215
9,08635	4054
9,09047	4380
9,09458	4198
9,09872	4259
9,10283	4083
9,10695	4132
9,11108	3935
9,11520	3050
9,11932	4353
9,12343	3994
9,12757	3819
9,13168	5096
9,13580	4109
9,13993	4085
9,14405	3176
9,14817	4145
9,15230	4218
9,15642	4168
9,16053	4466
9,16467	4231
9,16878	4425
9,17290	4426
9,17703	3771
9,18115	4337
9,18527	4098
9,18940	3988
9,19352	4025
9,19763	5085
9,20177	4053
9,20588	3838
9,21000	4242
9,21413	4341
9,21825	3776
9,22237	3981
9,22648	3962
9,23062	3842
9,23473	3908
9,23885	3892
9,24298	4067
9,24710	4152
9,25122	3193
9,25535	3946
9,25947	3986
9,26358	3892
9,26772	4034
9,27183	3450
9,27595	3716
9,28008	4101
9,28420	3762
9,28832	3876
9,29245	3969
9,29657	3868
9,30068	3954
9,30482	4043
9,30893	4765
9,31305	5354
9,31717	5016
9,32130	5389
9,32542	6146
9,32953	7081
9,33367	8067
9,33778	7253
9,34190	7015
9,34603	8086
9,35015	8576
9,35427	8082
9,35840	7904
9,36252	6965
9,36663	7250
9,37077	6799
9,37488	6447
9,37900	6495
9,38313	6341
9,38725	5651
9,39137	4734
9,39550	4631
9,39962	4550
9,40373	4267
9,40785	3442
9,41198	4443
9,41610	4512
9,42022	4142
9,42435	4046
9,42847	4378
9,43258	4286
9,43672	3912
9,44083	3719
9,44495	3685
9,44908	3575
9,45320	3373
9,45732	3442
9,46145	2877
9,46557	3607
9,46968	2972
9,47382	3273
9,47793	3035
9,48205	3558
9,48618	2876
9,49030	3275
9,49442	3001
9,49853	3222
9,50267	3016
9,50678	3390
9,51090	2565
9,51503	3300
9,51915	3244
9,52327	3740
9,52740	4188
9,53152	5121
9,53563	6943
9,53977	13388
9,54388	24833
9,54800	45726
9,55213	81595
9,55625	138811
9,56037	208974
9,56450	294221
9,56862	392960
9,57273	483832
9,57687	552430
9,58098	592491
9,58510	608849
9,58922	591436
9,59335	540840
9,59747	485191
9,60158	416285
9,60572	341764
9,60983	277470
9,61395	223900
9,61808	177723
9,62220	140290
9,62632	108990
9,63045	84219
9,63457	68483
9,63868	55455
9,64282	44906
9,64693	35704
9,65105	30229
9,65518	24906
9,65930	21218
9,66342	19075
9,66755	17345
9,67167	15745
9,67578	15398
9,67990	13247
9,68403	11054
9,68815	10283
9,69227	10809
9,69640	10167
9,70052	9174
9,70463	8259
9,70877	8390
9,71288	7323
9,71700	7353
9,72113	7288
9,72525	7119
9,72937	6318
9,73350	5446
9,73762	5846
9,74173	6065
9,74587	5468
9,74998	4853
9,75410	5009
9,75823	4589
9,76235	4204
9,76647	4375
9,77058	4118
9,77472	3785
9,77883	4828
9,78295	4740
9,78708	3902
9,79120	3688
9,79532	3776
9,79945	4702
9,80357	3569
9,80768	3635
9,81182	3711
9,81593	3666
9,82005	3453
9,82418	3519
9,82830	4274
9,83242	3968
9,83655	3483
9,84067	3746
9,84478	3619
9,84892	3000
9,85303	3710
9,85715	3076
9,86127	3335
9,86540	3421
9,86952	3536
9,87363	3821
9,87777	3711
9,88188	3079
9,88600	3249
9,89013	3486
9,89425	3460
9,89837	3038
9,90250	3246
9,90662	3039
9,91073	3473
9,91487	3118
9,91898	2768
9,92310	3072
9,92723	3600
9,93135	3106
9,93547	3218
9,93960	3788
9,94372	3139
9,94783	3086
9,95195	3556
9,95608	3383
9,96020	2409
9,96432	3359
9,96845	3290
9,97257	2822
9,97668	2638
9,98082	3359
9,98493	3525
9,98905	2767
9,99318	3347
9,99730	3833
10,00142	3694
10,00555	3790
10,00967	4524
10,01378	5524
10,01792	5340
10,02203	5238
10,02615	6230
10,03028	4896
10,03440	5546
10,03852	4938
10,04263	4171
10,04677	3203
10,05088	3964
10,05500	3339
10,05913	3684
10,06325	3278
10,06737	3127
10,07150	3131
10,07562	2571
10,07973	3182
10,08387	3137
10,08798	2230
10,09210	2611
10,09623	2396
10,10035	3227
10,10447	2675
10,10860	2805
10,11272	2208
10,11683	3078
10,12097	2931
10,12508	3177
10,12920	2708
10,13332	2439
10,13745	2751
10,14157	2133
10,14568	2292
10,14982	2210
10,15393	2338
10,15805	2464
10,16218	2749
10,16630	2650
10,17042	3274
10,17455	3491
10,17867	3322
10,18278	3505
10,18692	4321
10,19103	4043
10,19515	4783
10,19928	4797
10,20340	5233
10,20752	4242
10,21165	5080
10,21577	4490
10,21988	4171
10,22400	4216
10,22813	3812
10,23225	4044
10,23637	3235
10,24050	3709
10,24462	3436
10,24873	3103
10,25287	3205
10,25698	2459
10,26110	2924
10,26523	3461
10,26935	3282
10,27347	3513
10,27760	2792
10,28172	2875
10,28583	3341
10,28997	2805
10,29408	2532
10,29820	2680
10,30233	2809
10,30645	2019
10,31057	2428
10,31468	2308
10,31882	2990
10,32293	2483
10,32705	2662
10,33118	2581
10,33530	2665
10,33942	3003
10,34355	2324
10,34767	2382
10,35178	2673
10,35592	2567
10,36003	2184
10,36415	2935
10,36828	2480
10,37240	2742
10,37652	2489
10,38065	2471
10,38477	2415
10,38888	2434
10,39302	1749
10,39713	1904
10,40125	2589
10,40537	3040
10,40950	3481
10,41362	6624
10,41773	11531
10,42187	22448
10,42598	48307
10,43010	96614
10,43423	175885
10,43835	293632
10,44247	454280
10,44660	645063
10,45072	869966
10,45483	1074618
10,45897	1264225
10,46308	1390618
10,46720	1429154
10,47133	1393191
10,47545	1256595
10,47957	1088026
10,48370	900552
10,48782	708586
10,49193	545208
10,49605	413070
10,50018	310216
10,50430	235058
10,50842	174202
10,51255	138452
10,51667	105598
10,52078	89310
10,52492	76320
10,52903	64895
10,53315	56121
10,53728	47376
10,54140	42186
10,54552	37454
10,54965	33651
10,55377	29680
10,55788	26708
10,56202	23741
10,56613	21240
10,57025	19991
10,57438	19320
10,57850	16895
10,58262	16130
10,58673	13845
10,59087	14104
10,59498	12089
10,59910	12453
10,60323	10958
10,60735	10200
10,61147	11309
10,61560	9219
10,61972	9195
10,62383	8501
10,62797	7598
10,63208	7451
10,63620	8141
10,64033	6735
10,64445	8050
10,64857	6786
10,65270	6320
10,65682	6110
10,66093	5690
10,66507	5816
10,66918	5950
10,67330	5334
10,67742	6123
10,68155	5965
10,68567	6733
10,68978	6221
10,69392	6097
10,69803	8214
10,70215	9024
10,70628	9144
10,71040	7589
10,71452	8088
10,71865	7179
10,72277	7566
10,72688	6905
10,73102	6023
10,73513	5342
10,73925	5218
10,74338	5194
10,74750	5013
10,75162	5690
10,75575	4362
10,75987	3768
10,76398	3988
10,76810	3948
10,77223	4196
10,77635	4029
10,78047	3179
10,78460	3827
10,78872	3867
10,79283	4928
10,79697	6090
10,80108	5707
10,80520	6263
10,80933	5629
10,81345	5409
10,81757	4442
10,82170	4172
10,82582	3399
10,82993	3424
10,83407	2915
10,83818	3086
10,84230	2733
10,84643	3138
10,85055	3345
10,85467	3041
10,85880	3199
10,86292	3764
10,86703	3863
10,87115	3390
10,87528	3990
10,87940	4954
10,88352	4142
10,88765	4394
10,89177	4656
10,89588	5627
10,90002	4712
10,90413	5298
10,90825	4170
10,91238	4732
10,91650	4016
10,92062	3748
10,92475	4023
10,92887	2885
10,93298	3184
10,93712	2966
10,94123	3461
10,94535	3441
10,94948	2871
10,95360	3080
10,95772	2501
10,96183	2349
10,96597	2436
10,97008	2872
10,97420	2621
10,97833	2329
10,98245	2045
10,98657	2515
10,99070	2722
10,99482	2504
10,99893	2078
11,00307	2410
11,00718	2119
11,01130	2322
11,01543	1786
11,01955	2244
11,02367	2140
11,02780	2312
11,03192	2380
11,03603	2873
11,04017	3227
11,04428	2718
11,04840	5844
11,05252	9531
11,05665	18832
11,06077	37031
11,06488	69150
11,06902	115860
11,07313	189795
11,07725	283028
11,08138	383429
11,08550	495577
11,08962	593109
11,09375	664232
11,09787	679323
11,10198	665601
11,10612	601128
11,11023	528641
11,11435	441392
11,11848	353769
11,12260	273156
11,12672	205406
11,13085	158378
11,13497	121754
11,13908	91803
11,14320	73765
11,14733	58562
11,15145	47260
11,15557	40958
11,15970	33838
11,16382	27649
11,16793	24081
11,17207	20698
11,17618	21012
11,18030	16321
11,18443	13874
11,18855	12975
11,19267	12450
11,19680	11801
11,20092	9655
11,20503	9204
11,20917	8157
11,21328	8599
11,21740	7851
11,22153	7157
11,22565	8086
11,22977	6517
11,23388	5963
11,23802	6634
11,24213	5871
11,24625	5572
11,25038	5085
11,25450	4488
11,25862	4564
11,26275	4444
11,26687	4482
11,27098	4078
11,27512	3195
11,27923	4603
11,28335	3476
11,28748	4587
11,29160	6080
11,29572	11927
11,29985	21053
11,30397	42917
11,30808	78801
11,31222	137556
11,31633	223688
11,32045	331064
11,32457	455423
11,32870	577683
11,33282	683421
11,33693	763158
11,34107	771341
11,34518	739338
11,34930	658806
11,35343	559957
11,35755	455107
11,36167	353460
11,36580	268415
11,36992	201707
11,37403	149614
11,37817	113221
11,38228	84926
11,38640	69241
11,39053	52403
11,39465	42884
11,39877	36396
11,40290	30149
11,40702	26920
11,41113	22039
11,41525	20375
11,41938	17422
11,42350	15520
11,42762	14960
11,43175	13458
11,43587	11174
11,43998	10480
11,44412	10778
11,44823	9914
11,45235	9601
11,45648	8352
11,46060	7104
11,46472	7253
11,46885	7392
11,47297	6930
11,47708	6432
11,48122	6067
11,48533	5358
11,48945	5133
11,49358	5611
11,49770	4382
11,50182	4483
11,50593	5467
11,51007	4432
11,51418	3852
11,51830	4696
11,52243	3969
11,52655	4449
11,53067	3927
11,53480	3680
11,53892	4104
11,54303	3354
11,54717	3721
11,55128	4239
11,55540	4121
11,55953	3417
11,56365	3159
11,56777	3957
11,57190	3728
11,57602	2793
11,58013	3626
11,58427	3256
11,58838	3728
11,59250	2947
11,59662	2964
11,60075	3557
11,60487	3128
11,60898	3094
11,61312	2761
11,61723	3460
11,62135	2736
11,62548	2732
11,62960	2337
11,63372	2926
11,63785	2726
11,64197	3307
11,64608	2589
11,65022	2472
11,65433	3036
11,65845	2820
11,66258	2725
11,66670	2523
11,67082	2217
11,67495	2726
11,67907	2725
11,68318	2497
11,68730	2316
11,69143	2506
11,69555	3003
11,69967	2068
11,70380	2409
11,70792	2661
11,71203	2869
11,71617	2864
11,72028	2345
11,72440	2596
11,72853	3099
11,73265	2352
11,73677	3390
11,74090	2440
11,74502	2748
11,74913	2338
11,75327	2231
11,75738	2752
11,76150	2441
11,76563	3345
11,76975	2036
11,77387	2875
11,77798	3215
11,78212	2693
11,78623	2994
11,79035	3160
11,79448	2877
11,79860	2697
11,80272	2955
11,80685	2678
11,81097	2787
11,81508	2556
11,81922	1946
11,82333	2289
11,82745	2466
11,83158	2022
11,83570	2525
11,83982	2471
11,84395	2491
11,84807	1416
11,85218	2457
11,85632	1747
11,86043	2067
11,86455	2647
11,86867	2286
11,87280	1663
11,87692	1815
11,88103	2145
11,88517	2243
11,88928	2247
11,89340	2463
11,89753	2246
11,90165	2354
11,90577	2355
11,90990	2241
11,91402	1853
11,91813	3042
11,92227	4036
11,92638	10784
11,93050	21118
11,93463	40972
11,93875	79206
11,94287	140521
11,94700	218415
11,95112	320358
11,95523	436793
11,95935	562060
11,96348	666419
11,96760	732067
11,97172	751360
11,97585	719365
11,97997	640841
11,98408	546790
11,98822	445592
11,99233	341868
11,99645	261890
12,00058	194823
12,00470	146882
12,00882	109812
12,01295	84875
12,01707	66933
12,02118	54434
12,02532	44997
12,02943	38268
12,03355	29551
12,03768	27456
12,04180	22058
12,04592	20721
12,05003	18514
12,05417	15835
12,05828	15394
12,06240	12418
12,06653	11325
12,07065	10108
12,07477	9407
12,07890	9689
12,08302	8501
12,08713	7211
12,09127	7295
12,09538	6956
12,09950	7784
12,10363	6529
12,10775	7250
12,11187	5078
12,11600	5767
12,12012	4722
12,12423	5634
12,12837	5729
12,13248	5010
12,13660	4992
12,14072	4715
12,14485	5289
12,14897	9105
12,15308	14612
12,15722	30858
12,16133	61393
12,16545	117774
12,16958	219001
12,17370	370871
12,17782	582521
12,18195	863772
12,18607	1212932
12,19018	1631565
12,19432	1989931
12,19843	2312250
12,20255	2536464
12,20668	2528014
12,21080	2394227
12,21492	2061754
12,21905	1680407
12,22317	1279578
12,22728	958657
12,23140	690049
12,23553	493994
12,23965	363089
12,24377	271596
12,24790	213260
12,25202	165450
12,25613	133400
12,26027	112257
12,26438	92060
12,26850	79410
12,27263	70103
12,27675	61448
12,28087	54137
12,28500	48366
12,28912	42668
12,29323	38776
12,29737	35102
12,30148	32635
12,30560	30060
12,30973	28156
12,31385	25951
12,31797	23042
12,32208	21935
12,32622	21443
12,33033	18712
12,33445	17100
12,33858	17631
12,34270	16097
12,34682	15832
12,35095	13821
12,35507	12278
12,35918	12128
12,36332	12232
12,36743	10687
12,37155	9632
12,37568	10470
12,37980	11019
12,38392	9108
12,38805	9019
12,39217	9236
12,39628	8389
12,40042	7052
12,40453	7511
12,40865	7330
12,41277	7002
12,41690	6469
12,42102	6132
12,42513	6072
12,42927	5449
12,43338	5675
12,43750	5200
12,44163	5118
12,44575	4734
12,44987	4809
12,45400	5218
12,45812	4564
12,46223	5385
12,46637	4442
12,47048	4605
12,47460	3506
12,47873	4834
12,48285	4731
12,48697	3993
12,49110	4631
12,49522	4308
12,49933	4220
12,50347	4105
12,50758	4479
12,51170	3990
12,51582	3862
12,51995	4140
12,52407	4793
12,52818	4616
12,53232	4760
12,53643	4433
12,54055	4074
12,54468	4030
12,54880	3731
12,55292	3189
12,55705	4328
12,56117	4739
12,56528	5228
12,56942	7128
12,57353	7349
12,57765	8404
12,58178	7231
12,58590	4797
12,59002	4399
12,59415	3523
12,59827	2886
12,60238	3410
12,60650	3596
12,61063	3504
12,61475	3536
12,61887	3463
12,62300	4331
12,62712	3638
12,63123	4748
12,63537	3692
12,63948	4518
12,64360	3770
12,64773	3520
12,65185	3204
12,65597	3225
12,66010	5442
12,66422	7426
12,66833	14136
12,67247	29568
12,67658	55789
12,68070	101702
12,68483	175937
12,68895	277386
12,69307	400181
12,69718	536567
12,70132	649958
12,70543	737751
12,70955	785481
12,71368	770237
12,71780	723078
12,72192	624322
12,72605	507551
12,73017	399121
12,73428	300653
12,73842	224611
12,74253	170054
12,74665	125659
12,75078	95119
12,75490	76003
12,75902	61107
12,76315	49471
12,76727	42813
12,77138	36254
12,77552	29727
12,77963	26289
12,78375	23562
12,78787	22609
12,79200	21900
12,79612	21388
12,80023	20501
12,80437	22975
12,80848	22315
12,81260	23409
12,81673	22956
12,82085	23912
12,82497	22153
12,82910	19272
12,83322	17816
12,83733	16596
12,84147	14117
12,84558	10876
12,84970	9813
12,85383	8711
12,85795	8703
12,86207	8113
12,86620	7000
12,87032	6862
12,87443	5801
12,87855	6819
12,88268	6834
12,88680	4527
12,89092	4439
12,89505	4689
12,89917	4713
12,90328	3705
12,90742	4510
12,91153	3886
12,91565	3788
12,91978	3411
12,92390	3611
12,92802	3573
12,93215	2865
12,93627	4018
12,94038	3184
12,94452	3182
12,94863	2996
12,95275	3013
12,95688	3292
12,96100	3338
12,96512	3496
12,96923	2668
12,97337	2734
12,97748	2824
12,98160	3543
12,98573	5162
12,98985	9093
12,99397	16509
12,99810	36174
13,00222	70435
13,00633	126685
13,01047	213328
13,01458	329133
13,01870	467944
13,02283	616004
13,02695	755488
13,03107	842608
13,03520	889729
13,03932	868330
13,04343	774917
13,04757	664014
13,05168	520713
13,05580	398204
13,05992	298056
13,06405	220705
13,06817	158804
13,07228	120573
13,07642	95108
13,08053	70155
13,08465	57910
13,08878	46241
13,09290	40570
13,09702	33882
13,10115	29585
13,10527	26277
13,10938	23420
13,11352	20670
13,11763	18597
13,12175	18038
13,12588	16121
13,13000	13553
13,13412	13188
13,13825	12730
13,14237	11123
13,14648	11074
13,15060	10584
13,15473	8304
13,15885	8328
13,16297	7885
13,16710	8038
13,17122	7118
13,17533	6549
13,17947	6009
13,18358	5757
13,18770	6680
13,19183	6195
13,19595	6053
13,20007	5681
13,20420	4799
13,20832	5493
13,21243	5296
13,21657	5237
13,22068	4931
13,22480	5633
13,22893	5265
13,23305	5647
13,23717	5131
13,24128	4825
13,24542	5510
13,24953	5213
13,25365	5098
13,25778	4129
13,26190	4307
13,26602	4518
13,27015	4952
13,27427	5624
13,27838	4402
13,28252	4153
13,28663	4132
13,29075	3377
13,29488	4102
13,29900	3462
13,30312	3552
13,30725	3484
13,31137	4118
13,31548	3657
13,31962	3448
13,32373	3332
13,32785	3907
13,33197	3982
13,33610	3308
13,34022	3610
13,34433	3528
13,34847	4172
13,35258	3410
13,35670	3110
13,36083	4274
13,36495	3918
13,36907	3431
13,37320	3893
13,37732	3205
13,38143	3066
13,38557	2470
13,38968	3275
13,39380	3104
13,39793	3307
13,40205	2479
13,40617	3011
13,41030	2888
13,41442	3567
13,41853	2926
13,42265	2974
13,42678	2267
13,43090	2506
13,43502	3291
13,43915	2293
13,44327	2790
13,44738	2868
13,45152	2349
13,45563	3229
13,45975	2404
13,46388	2998
13,46800	3038
13,47212	3010
13,47625	3309
13,48037	4064
13,48448	4989
13,48862	8446
13,49273	14438
13,49685	26174
13,50098	53036
13,50510	99378
13,50922	172238
13,51333	271419
13,51747	402311
13,52158	541081
13,52570	675973
13,52983	800416
13,53395	853492
13,53807	864448
13,54220	792433
13,54632	692680
13,55043	566393
13,55457	450808
13,55868	339586
13,56280	250547
13,56693	189492
13,57105	143891
13,57517	106801
13,57930	83499
13,58342	66459
13,58753	55149
13,59167	44512
13,59578	37271
13,59990	34186
13,60402	28869
13,60815	24228
13,61227	22427
13,61638	21296
13,62052	18476
13,62463	16103
13,62875	14328
13,63288	13842
13,63700	13262
13,64112	13056
13,64525	10535
13,64937	9748
13,65348	9545
13,65762	9934
13,66173	8195
13,66585	6866
13,66998	7570
13,67410	7047
13,67822	6685
13,68235	6020
13,68647	4857
13,69058	6306
13,69470	5298
13,69883	5928
13,70295	5571
13,70707	4859
13,71120	4609
13,71532	4581
13,71943	4593
13,72357	3482
13,72768	4081
13,73180	4792
13,73593	3750
13,74005	4137
13,74417	4307
13,74830	4874
13,75242	4219
13,75653	5913
13,76067	5173
13,76478	6594
13,76890	8200
13,77303	8870
13,77715	12927
13,78127	15607
13,78538	17673
13,78952	17306
13,79363	20281
13,79775	21388
13,80188	25958
13,80600	38149
13,81012	66848
13,81425	116089
13,81837	202414
13,82248	334352
13,82662	510133
13,83073	733617
13,83485	1004519
13,83898	1273915
13,84310	1537759
13,84722	1756102
13,85135	1889577
13,85547	1874114
13,85958	1726097
13,86372	1485715
13,86783	1197633
13,87195	917654
13,87607	672759
13,88020	483689
13,88432	347651
13,88843	255191
13,89257	194668
13,89668	150731
13,90080	119765
13,90493	102801
13,90905	85284
13,91317	72296
13,91730	61895
13,92142	54490
13,92553	50868
13,92967	43485
13,93378	38811
13,93790	37185
13,94203	32461
13,94615	29397
13,95027	26825
13,95440	25646
13,95852	22780
13,96263	22351
13,96675	21472
13,97088	19738
13,97500	18145
13,97912	16017
13,98325	16707
13,98737	15894
13,99148	13817
13,99562	13223
13,99973	11562
14,00385	11122
14,00798	11123
14,01210	11761
14,01622	10150
14,02035	9213
14,02447	9021
14,02858	9483
14,03272	8757
14,03683	8830
14,04095	8899
14,04508	7657
14,04920	8110
14,05332	7350
14,05745	6978
14,06157	6359
14,06568	6352
14,06980	5709
14,07393	7069
14,07805	8977
14,08217	14980
14,08630	26896
14,09042	51592
14,09453	90538
14,09867	155464
14,10278	251362
14,10690	369684
14,11103	510595
14,11515	648181
14,11927	765113
14,12340	859543
14,12752	900074
14,13163	871297
14,13577	800240
14,13988	681374
14,14400	549396
14,14813	424144
14,15225	323118
14,15637	240498
14,16048	181189
14,16462	135150
14,16873	107696
14,17285	84411
14,17698	69954
14,18110	54666
14,18522	46944
14,18935	38480
14,19347	33328
14,19758	29458
14,20172	28078
14,20583	25309
14,20995	21732
14,21408	20458
14,21820	22243
14,22232	24413
14,22645	32634
14,23057	51472
14,23468	88404
14,23882	156895
14,24293	260150
14,24705	410597
14,25117	623037
14,25530	866939
14,25942	1139435
14,26353	1425606
14,26767	1636324
14,27178	1791549
14,27590	1796030
14,28003	1673869
14,28415	1462001
14,28827	1184719
14,29240	918393
14,29652	690649
14,30063	507259
14,30477	372656
14,30888	275138
14,31300	213383
14,31713	166009
14,32125	136676
14,32537	109330
14,32950	95046
14,33362	82372
14,33773	68231
14,34185	59413
14,34598	54768
14,35010	48044
14,35422	43446
14,35835	40430
14,36247	36532
14,36658	32513
14,37072	31530
14,37483	29069
14,37895	26914
14,38308	24485
14,38720	23723
14,39132	22346
14,39545	21400
14,39957	20085
14,40368	19395
14,40782	18584
14,41193	17181
14,41605	14929
14,42018	14607
14,42430	14731
14,42842	14531
14,43253	13088
14,43667	14066
14,44078	11485
14,44490	11831
14,44903	10034
14,45315	9600
14,45727	9402
14,46140	10095
14,46552	8723
14,46963	8214
14,47377	8186
14,47788	9026
14,48200	9280
14,48613	7155
14,49025	7610
14,49437	7606
14,49850	6827
14,50262	6796
14,50673	6520
14,51087	7164
14,51498	7156
14,51910	7031
14,52322	6185
14,52735	6649
14,53147	6991
14,53558	8661
14,53972	12979
14,54383	21250
14,54795	41294
14,55208	76103
14,55620	137686
14,56032	232209
14,56445	353021
14,56857	496880
14,57268	641270
14,57682	775139
14,58093	836726
14,58505	856742
14,58918	817446
14,59330	722764
14,59742	598270
14,60155	475188
14,60567	366039
14,60978	276409
14,61390	207957
14,61803	158360
14,62215	121045
14,62627	96487
14,63040	75819
14,63452	64493
14,63863	52012
14,64277	46457
14,64688	38781
14,65100	33861
14,65513	28591
14,65925	25926
14,66337	24769
14,66750	22074
14,67162	20254
14,67573	17898
14,67987	17902
14,68398	18034
14,68810	16443
14,69223	15257
14,69635	15846
14,70047	14100
14,70458	13545
14,70872	11757
14,71283	12834
14,71695	11190
14,72108	9479
14,72520	10417
14,72932	9445
14,73345	10371
14,73757	9549
14,74168	9240
14,74582	10101
14,74993	10783
14,75405	9475
14,75818	9110
14,76230	9842
14,76642	8013
14,77055	8746
14,77467	8463
14,77878	8257
14,78292	7736
14,78703	7036
14,79115	7180
14,79527	6747
14,79940	6995
14,80352	8179
14,80763	7670
14,81177	7080
14,81588	8119
14,82000	8426
14,82413	6296
14,82825	6661
14,83237	6931
14,83650	5871
14,84062	5723
14,84473	5508
14,84887	5757
14,85298	5774
14,85710	5788
14,86123	5684
14,86535	8681
14,86947	15074
14,87360	25335
14,87772	50485
14,88183	93711
14,88595	159337
14,89008	258734
14,89420	383174
14,89832	516023
14,90245	650652
14,90657	755523
14,91068	809375
14,91482	808852
14,91893	756901
14,92305	656366
14,92718	541075
14,93130	430543
14,93542	326932
14,93955	249870
14,94367	188357
14,94778	141100
14,95192	109445
14,95603	85253
14,96015	69650
14,96428	52549
14,96840	47912
14,97252	40871
14,97663	36463
14,98077	31734
14,98488	28520
14,98900	26764
14,99313	24901
14,99725	22172
15,00137	20486
15,00550	20137
15,00962	18237
15,01373	16033
15,01787	16971
15,02198	16319
15,02610	15278
15,03023	14569
15,03435	15895
15,03847	13462
15,04260	13101
15,04672	12947
15,05083	11536
15,05497	12220
15,05908	11484
15,06320	11028
15,06732	10028
15,07145	9915
15,07557	8734
15,07968	8913
15,08382	7631
15,08793	8379
15,09205	6971
15,09618	8892
15,10030	8585
15,10442	6356
15,10855	8333
15,11267	6949
15,11678	7355
15,12092	7368
15,12503	7346
15,12915	6112
15,13328	6681
15,13740	7117
15,14152	6869
15,14565	6570
15,14977	7154
15,15388	7002
15,15800	6206
15,16213	6861
15,16625	5401
15,17037	5013
15,17450	6256
15,17862	5749
15,18273	5054
15,18687	5181
15,19098	6467
15,19510	5962
15,19923	5713
15,20335	6246
15,20747	5518
15,21160	5095
15,21572	4423
15,21983	5649
15,22397	5164
15,22808	5229
15,23220	5316
15,23633	5743
15,24045	5532
15,24457	4301
15,24868	4341
15,25282	4686
15,25693	4564
15,26105	4105
15,26518	4182
15,26930	4939
15,27342	4589
15,27755	4047
15,28167	4566
15,28578	4081
15,28992	3836
15,29403	4578
15,29815	4641
15,30228	4860
15,30640	5736
15,31052	5634
15,31465	6275
15,31877	7313
15,32288	13216
15,32702	24133
15,33113	45012
15,33525	85902
15,33937	152556
15,34350	260321
15,34762	412543
15,35173	599613
15,35587	825123
15,35998	1072564
15,36410	1348252
15,36823	1605082
15,37235	1826945
15,37647	2033518
15,38060	2233165
15,38472	2382632
15,38883	2429619
15,39297	2311934
15,39708	2034037
15,40120	1697132
15,40533	1330335
15,40945	991405
15,41357	738297
15,41770	552976
15,42182	402248
15,42593	309440
15,43005	239894
15,43418	194652
15,43830	166161
15,44242	140050
15,44655	119097
15,45067	102502
15,45478	92881
15,45892	82054
15,46303	75928
15,46715	66204
15,47128	58921
15,47540	56778
15,47952	51566
15,48365	48199
15,48777	42979
15,49188	41759
15,49602	38178
15,50013	35246
15,50425	33556
15,50838	32382
15,51250	28612
15,51662	27068
15,52073	26418
15,52487	26267
15,52898	25866
15,53310	23991
15,53723	23586
15,54135	25650
15,54547	26163
15,54960	26971
15,55372	29007
15,55783	29825
15,56197	32055
15,56608	30696
15,57020	28816
15,57433	25370
15,57845	25775
15,58257	22775
15,58670	20814
15,59082	19290
15,59493	18131
15,59907	17427
15,60318	19386
15,60730	24143
15,61142	37626
15,61555	61055
15,61967	102060
15,62378	160013
15,62792	252190
15,63203	363332
15,63615	482398
15,64028	603448
15,64440	678710
15,64852	713522
15,65265	705777
15,65677	652877
15,66088	563192
15,66502	465083
15,66913	370839
15,67325	281442
15,67738	215808
15,68150	163671
15,68562	125957
15,68975	98298
15,69387	79653
15,69798	63822
15,70212	54110
15,70623	44739
15,71035	39497
15,71447	38371
15,71860	33142
15,72272	30837
15,72683	29272
15,73097	29320
15,73508	34906
15,73920	45147
15,74333	69078
15,74745	108681
15,75157	173965
15,75570	270595
15,75982	388931
15,76393	545424
15,76807	700974
15,77218	839951
15,77630	932534
15,78043	963280
15,78455	932155
15,78867	841393
15,79280	713873
15,79692	571507
15,80103	441123
15,80515	336562
15,80928	255749
15,81340	196274
15,81752	151645
15,82165	122264
15,82577	97904
15,82988	83682
15,83402	69594
15,83813	63734
15,84225	57799
15,84638	53422
15,85050	49819
15,85462	46617
15,85875	40231
15,86287	37016
15,86698	33969
15,87112	30694
15,87523	28963
15,87935	26339
15,88348	23993
15,88760	23573
15,89172	23039
15,89583	19583
15,89997	18947
15,90408	18335
15,90820	18904
15,91233	17485
15,91645	16496
15,92057	17329
15,92470	15925
15,92882	15602
15,93293	15774
15,93707	15352
15,94118	13966
15,94530	14899
15,94943	13233
15,95355	13023
15,95767	11417
15,96180	13449
15,96592	10801
15,97003	9862
15,97417	11263
15,97828	10708
15,98240	11603
15,98652	9725
15,99065	10558
15,99477	10445
15,99888	10444
16,00302	8733
16,00713	10555
16,01125	8358
16,01538	9843
16,01950	9581
16,02362	8468
16,02775	9166
16,03187	8847
16,03598	9066
16,04012	8448
16,04423	9640
16,04835	9374
16,05248	10506
16,05660	12599
16,06072	14246
16,06485	24393
16,06897	40500
16,07308	71965
16,07720	127875
16,08133	208513
16,08545	332357
16,08957	479675
16,09370	662073
16,09782	841821
16,10193	992272
16,10607	1080757
16,11018	1086266
16,11430	1016203
16,11843	869107
16,12255	704219
16,12667	547938
16,13080	417610
16,13492	306023
16,13903	231822
16,14317	179007
16,14728	140616
16,15140	111279
16,15553	90486
16,15965	81307
16,16377	68952
16,16788	60607
16,17202	53463
16,17613	49225
16,18025	45226
16,18438	40537
16,18850	35993
16,19262	33254
16,19675	32300
16,20087	30843
16,20498	29664
16,20912	26590
16,21323	24878
16,21735	25659
16,22148	24967
16,22560	24382
16,22972	22445
16,23385	23054
16,23797	20013
16,24208	23077
16,24622	19609
16,25033	17820
16,25445	18280
16,25857	17666
16,26270	17511
16,26682	15326
16,27093	15853
16,27507	14220
16,27918	14332
16,28330	15932
16,28743	13916
16,29155	14319
16,29567	14798
16,29980	15124
16,30392	13926
16,30803	16007
16,31217	14198
16,31628	12108
16,32040	12535
16,32453	13072
16,32865	13474
16,33277	15498
16,33690	13673
16,34102	14006
16,34513	18214
16,34925	25977
16,35338	40109
16,35750	71428
16,36162	126277
16,36575	200393
16,36987	306156
16,37398	441830
16,37812	589871
16,38223	731142
16,38635	823113
16,39048	874458
16,39460	852414
16,39872	780450
16,40285	673068
16,40697	539209
16,41108	421107
16,41522	324749
16,41933	246312
16,42345	187671
16,42758	142856
16,43170	113341
16,43582	91740
16,43993	76284
16,44407	65297
16,44818	57625
16,45230	50059
16,45643	45165
16,46055	40749
16,46467	36996
16,46880	33667
16,47292	31510
16,47703	27980
16,48117	26054
16,48528	26526
16,48940	24003
16,49353	21912
16,49765	21091
16,50177	19875
16,50590	20145
16,51002	18451
16,51413	19204
16,51827	18734
16,52238	14804
16,52650	17132
16,53062	16687
16,53475	14606
16,53887	14690
16,54298	13909
16,54712	14933
16,55123	14239
16,55535	13788
16,55948	12902
16,56360	12918
16,56772	12436
16,57185	11515
16,57597	10820
16,58008	11288
16,58422	12313
16,58833	11452
16,59245	11183
16,59658	12017
16,60070	10791
16,60482	11483
16,60895	12098
16,61307	11097
16,61718	11238
16,62130	11982
16,62543	9965
16,62955	10009
16,63367	10752
16,63780	11040
16,64192	10976
16,64603	10668
16,65017	9725
16,65428	10246
16,65840	9136
16,66253	9602
16,66665	11400
16,67077	9663
16,67490	11105
16,67902	10581
16,68313	10052
16,68727	9265
16,69138	10259
16,69550	10705
16,69963	10028
16,70375	9728
16,70787	10195
16,71198	12394
16,71612	9286
16,72023	10636
16,72435	10426
16,72848	10797
16,73260	10665
16,73672	9275
16,74085	9992
16,74497	8150
16,74908	9724
16,75322	10536
16,75733	12633
16,76145	13760
16,76558	18822
16,76970	33148
16,77382	61054
16,77795	106939
16,78207	187693
16,78618	311473
16,79032	483339
16,79443	733381
16,79855	1046531
16,80267	1421460
16,80680	1830669
16,81092	2263973
16,81503	2653947
16,81917	2899888
16,82328	2981215
16,82740	2844262
16,83153	2523222
16,83565	2042168
16,83977	1597866
16,84390	1190441
16,84802	885374
16,85213	658707
16,85627	503081
16,86038	387799
16,86450	313347
16,86863	257179
16,87275	219598
16,87687	184631
16,88100	159834
16,88512	139400
16,88923	127486
16,89335	114670
16,89748	101769
16,90160	95969
16,90572	89094
16,90985	83106
16,91397	77296
16,91808	70500
16,92222	64295
16,92633	61966
16,93045	58105
16,93458	57607
16,93870	55870
16,94282	49789
16,94695	49086
16,95107	46285
16,95518	45138
16,95932	43306
16,96343	40456
16,96755	38251
16,97168	38451
16,97580	35463
16,97992	33433
16,98403	32906
16,98817	32744
16,99228	32449
16,99640	28609
17,00053	28842
17,00465	28088
17,00877	26079
17,01290	25170
17,01702	26936
17,02113	26858
17,02527	25630
17,02938	25227
17,03350	27627
17,03763	31125
17,04175	37901
17,04587	55710
17,05000	84426
17,05412	133910
17,05823	211785
17,06237	313622
17,06648	442947
17,07060	572822
17,07472	698564
17,07885	780600
17,08297	807132
17,08708	775163
17,09122	709470
17,09533	604245
17,09945	496474
17,10358	407986
17,10770	350185
17,11182	324476
17,11595	347663
17,12007	393958
17,12418	480124
17,12832	573786
17,13243	672234
17,13655	739671
17,14068	771891
17,14480	752451
17,14892	717174
17,15305	659788
17,15717	615687
17,16128	604026
17,16540	628458
17,16953	704620
17,17365	817503
17,17777	926434
17,18190	1035222
17,18602	1077612
17,19013	1089622
17,19427	1031861
17,19838	905992
17,20250	766545
17,20663	607285
17,21075	473140
17,21487	369935
17,21900	291329
17,22312	233229
17,22723	186233
17,23137	164404
17,23548	136065
17,23960	118600
17,24373	105608
17,24785	95516
17,25197	85605
17,25608	77761
17,26022	71042
17,26433	68109
17,26845	62753
17,27258	58564
17,27670	52881
17,28082	50564
17,28495	49344
17,28907	44083
17,29318	44071
17,29732	40580
17,30143	40393
17,30555	41798
17,30968	35953
17,31380	34314
17,31792	33296
17,32205	31585
17,32617	32650
17,33028	30949
17,33442	27899
17,33853	29437
17,34265	29014
17,34678	29509
17,35090	31489
17,35502	32859
17,35913	33173
17,36327	31529
17,36738	29445
17,37150	27219
17,37563	25984
17,37975	23499
17,38387	24886
17,38800	22840
17,39212	22449
17,39623	21913
17,40037	21480
17,40448	21554
17,40860	22369
17,41273	21431
17,41685	21569
17,42097	20427
17,42510	21604
17,42922	22003
17,43333	22644
17,43747	27719
17,44158	35187
17,44570	52890
17,44982	84236
17,45395	135865
17,45807	213298
17,46218	333674
17,46632	478071
17,47043	640157
17,47455	817667
17,47868	964330
17,48280	1075163
17,48692	1109029
17,49105	1064809
17,49517	958947
17,49928	807679
17,50342	630512
17,50753	491930
17,51165	370367
17,51578	284709
17,51990	226508
17,52402	182585
17,52815	153180
17,53227	131567
17,53638	109847
17,54050	96696
17,54463	88414
17,54875	78271
17,55287	70531
17,55700	65813
17,56112	58401
17,56523	54404
17,56937	53638
17,57348	51961
17,57760	50268
17,58173	46102
17,58585	44552
17,58997	44169
17,59410	41117
17,59822	39820
17,60233	39061
17,60647	38591
17,61058	34785
17,61470	35462
17,61883	33225
17,62295	32567
17,62707	31630
17,63118	30987
17,63532	28705
17,63943	27225
17,64355	29177
17,64768	27146
17,65180	26433
17,65592	27753
17,66005	26399
17,66417	25524
17,66828	26390
17,67242	26163
17,67653	26561
17,68065	22333
17,68478	22957
17,68890	22112
17,69302	21534
17,69715	21913
17,70127	19568
17,70538	20964
17,70952	20148
17,71363	22352
17,71775	23426
17,72187	27802
17,72600	38182
17,73012	56936
17,73423	90556
17,73837	147299
17,74248	226785
17,74660	338548
17,75073	475434
17,75485	614999
17,75897	756571
17,76310	857387
17,76722	906612
17,77133	884200
17,77547	808079
17,77958	699375
17,78370	573870
17,78783	463431
17,79195	362652
17,79607	283335
17,80020	223123
17,80432	179207
17,80843	147909
17,81255	134812
17,81668	132730
17,82080	144924
17,82492	172373
17,82905	227695
17,83317	293939
17,83728	383274
17,84142	472848
17,84553	563729
17,84965	634472
17,85378	669656
17,85790	656628
17,86202	607459
17,86615	537210
17,87027	453994
17,87438	364780
17,87852	298549
17,88263	239580
17,88675	188033
17,89088	151942
17,89500	127264
17,89912	109736
17,90323	92046
17,90737	78867
17,91148	71843
17,91560	64227
17,91973	60067
17,92385	56169
17,92797	50322
17,93210	47144
17,93622	47132
17,94033	41239
17,94447	39521
17,94858	38727
17,95270	36287
17,95683	37490
17,96095	34194
17,96507	32695
17,96920	30944
17,97332	30203
17,97743	26793
17,98157	29680
17,98568	27739
17,98980	25598
17,99392	27916
17,99805	26054
18,00217	25427
18,00628	27012
18,01042	23830
18,01453	24010
18,01865	24352
18,02278	24342
18,02690	23121
18,03102	24766
18,03515	22836
18,03927	23902
18,04338	23149
18,04752	22370
18,05163	22995
18,05575	22896
18,05988	19804
18,06400	19361
18,06812	21299
18,07225	20475
18,07637	18175
18,08048	18615
18,08460	21068
18,08873	17940
18,09285	19756
18,09697	20790
18,10110	20023
18,10522	19194
18,10933	23636
18,11347	27214
18,11758	40156
18,12170	61870
18,12583	95263
18,12995	149275
18,13407	226408
18,13820	336599
18,14232	467758
18,14643	632527
18,15057	828002
18,15468	1054751
18,15880	1281743
18,16293	1532902
18,16705	1730868
18,17117	1906272
18,17528	1986954
18,17942	1948083
18,18353	1792782
18,18765	1522393
18,19178	1228877
18,19590	952703
18,20002	731775
18,20415	556062
18,20827	439696
18,21238	355595
18,21652	293258
18,22063	247708
18,22475	214177
18,22888	189988
18,23300	171502
18,23712	152461
18,24125	135972
18,24537	124282
18,24948	115599
18,25362	106230
18,25773	98847
18,26185	92051
18,26597	84679
18,27010	81689
18,27422	78144
18,27833	71226
18,28247	71506
18,28658	66327
18,29070	62136
18,29483	61202
18,29895	57678
18,30307	54855
18,30720	53699
18,31132	49262
18,31543	48719
18,31957	46386
18,32368	44188
18,32780	45838
18,33193	42087
18,33605	42158
18,34017	39487
18,34430	41656
18,34842	38198
18,35253	39528
18,35665	37789
18,36078	36580
18,36490	35669
18,36902	34985
18,37315	34123
18,37727	32853
18,38138	33761
18,38552	33239
18,38963	32668
18,39375	31082
18,39788	30441
18,40200	31217
18,40612	31774
18,41025	30228
18,41437	28735
18,41848	29381
18,42262	28876
18,42673	27874
18,43085	27278
18,43498	25854
18,43910	26623
18,44322	26650
18,44733	24806
18,45147	24283
18,45558	23834
18,45970	25601
18,46383	25572
18,46795	24905
18,47207	24908
18,47620	24177
18,48032	24229
18,48443	24162
18,48857	24368
18,49268	25882
18,49680	30848
18,50093	41238
18,50505	51848
18,50917	78506
18,51330	119567
18,51742	178406
18,52153	256435
18,52567	364551
18,52978	485483
18,53390	622171
18,53802	750422
18,54215	849947
18,54627	930254
18,55038	951453
18,55452	932655
18,55863	842704
18,56275	735246
18,56688	623210
18,57100	507251
18,57512	411675
18,57925	335672
18,58337	271456
18,58748	224096
18,59162	186010
18,59573	155494
18,59985	139776
18,60398	127262
18,60810	112129
18,61222	100458
18,61635	93362
18,62047	83385
18,62458	78716
18,62870	71257
18,63283	69180
18,63695	64919
18,64107	61116
18,64520	55057
18,64932	55123
18,65343	49569
18,65757	48966
18,66168	48577
18,66580	46073
18,66993	46158
18,67405	41998
18,67817	41816
18,68230	39622
18,68642	37418
18,69053	36122
18,69467	36378
18,69878	35172
18,70290	34849
18,70703	35035
18,71115	33406
18,71527	31490
18,71938	31054
18,72352	30768
18,72763	28868
18,73175	28815
18,73588	27905
18,74000	28027
18,74412	26794
18,74825	27762
18,75237	26893
18,75648	26106
18,76062	26123
18,76473	24456
18,76885	24580
18,77298	23465
18,77710	23543
18,78122	25462
18,78535	24030
18,78947	23604
18,79358	23713
18,79772	23002
18,80183	23948
18,80595	23306
18,81007	22018
18,81420	22682
18,81832	23821
18,82243	22154
18,82657	24192
18,83068	22283
18,83480	24826
18,83893	23564
18,84305	25036
18,84717	24010
18,85130	24853
18,85542	25684
18,85953	26383
18,86367	26989
18,86778	30780
18,87190	29749
18,87603	30060
18,88015	30693
18,88427	29210
18,88840	26942
18,89252	24008
18,89663	23461
18,90075	22140
18,90488	22137
18,90900	21345
18,91312	20041
18,91725	19284
18,92137	21122
18,92548	19705
18,92962	20166
18,93373	19691
18,93785	19502
18,94198	19254
18,94610	20657
18,95022	18396
18,95435	19998
18,95847	18840
18,96258	20454
18,96672	19277
18,97083	19373
18,97495	22157
18,97908	21692
18,98320	20892
18,98732	21902
18,99143	19662
18,99557	17226
18,99968	20889
19,00380	19008
19,00793	20212
19,01205	19154
19,01617	19269
19,02030	19793
19,02442	20119
19,02853	19241
19,03267	18462
19,03678	19268
19,04090	20334
19,04503	18729
19,04915	18563
19,05327	20203
19,05740	19538
19,06152	19948
19,06563	19320
19,06977	18398
19,07388	19722
19,07800	19541
19,08213	18040
19,08625	20156
19,09037	18545
19,09448	20176
19,09862	19858
19,10273	18227
19,10685	21352
19,11098	19922
19,11510	19041
19,11922	19479
19,12335	19275
19,12747	19147
19,13158	18513
19,13572	17468
19,13983	18493
19,14395	20460
19,14808	17655
19,15220	19159
19,15632	16357
19,16045	17304
19,16457	17781
19,16868	17976
19,17282	19436
19,17693	18853
19,18105	17069
19,18517	17486
19,18930	17602
19,19342	16474
19,19753	17686
19,20167	17765
19,20578	18173
19,20990	19381
19,21403	17517
19,21815	17480
19,22227	19042
19,22640	17909
19,23052	18019
19,23463	17966
19,23877	18147
19,24288	17849
19,24700	18855
19,25113	18448
19,25525	17793
19,25937	18253
19,26350	16044
19,26762	17669
19,27173	15537
19,27585	15745
19,27998	17237
19,28410	16241
19,28822	16800
19,29235	17236
19,29647	17561
19,30058	17344
19,30472	15977
19,30883	16952
19,31295	18626
19,31708	17155
19,32120	16605
19,32532	16686
19,32945	17815
19,33357	17986
19,33768	16922
19,34182	17554
19,34593	16731
19,35005	16405
19,35418	18222
19,35830	15649
19,36242	17011
19,36653	16295
19,37067	16900
19,37478	17636
19,37890	17885
19,38303	16914
19,38715	18428
19,39127	16444
19,39540	17431
19,39952	15107
19,40363	18257
19,40777	18209
19,41188	16952
19,41600	17992
19,42013	16545
19,42425	17604
19,42837	17702
19,43250	18748
19,43662	18486
19,44073	17599
19,44487	16795
19,44898	17541
19,45310	19182
19,45722	16695
19,46135	16733
19,46547	17605
19,46958	16810
19,47372	16129
19,47783	17458
19,48195	16465
19,48608	15641
19,49020	16088
19,49432	15585
19,49845	16711
19,50257	17167
19,50668	16264
19,51082	15369
19,51493	16387
19,51905	14614
19,52318	16950
19,52730	16577
19,53142	14282
19,53555	18313
19,53967	16306
19,54378	15006
19,54790	16466
19,55203	15730
19,55615	17864
19,56027	17217
19,56440	16224
19,56852	16046
19,57263	16798
19,57677	17280
19,58088	16230
19,58500	16610
19,58913	18333
19,59325	15762
19,59737	16862
19,60150	16487
19,60562	16860
19,60973	16255
19,61387	16733
19,61798	15875
19,62210	17223
19,62623	17147
19,63035	18574
19,63447	19383
19,63858	21547
19,64272	27897
19,64683	36207
19,65095	51168
19,65508	75495
19,65920	108942
19,66332	152580
19,66745	205615
19,67157	271584
19,67568	330136
19,67982	391403
19,68393	446774
19,68805	473055
19,69218	496209
19,69630	487733
19,70042	462313
19,70455	417585
19,70867	367152
19,71278	326181
19,71692	274436
19,72103	229466
19,72515	196854
19,72927	166257
19,73340	143116
19,73752	119850
19,74163	104823
19,74577	89194
19,74988	81433
19,75400	74929
19,75813	68609
19,76225	60856
19,76637	58439
19,77050	54679
19,77462	50212
19,77873	45300
19,78287	45491
19,78698	42505
19,79110	39137
19,79523	39377
19,79935	37840
19,80347	38158
19,80760	32644
19,81172	33129
19,81583	34824
19,81995	29661
19,82408	32497
19,82820	31747
19,83232	30864
19,83645	29618
19,84057	28942
19,84468	27782
19,84882	26474
19,85293	26993
19,85705	26873
19,86118	25326
19,86530	24996
19,86942	25923
19,87355	25621
19,87767	25729
19,88178	24867
19,88592	24769
19,89003	23374
19,89415	23706
19,89828	24275
19,90240	22862
19,90652	21502
19,91063	22432
19,91477	21905
19,91888	22793
19,92300	22621
19,92713	20665
19,93125	21823
19,93537	22027
19,93950	22682
19,94362	19834
19,94773	21533
19,95187	20128
19,95598	20386
19,96010	19888
19,96423	20016
19,96835	20452
19,97247	20035
19,97660	19445
19,98072	19748
19,98483	19397
19,98897	18195
19,99308	18999
19,99720	18796
20,00132	19380
20,00545	18152
20,00957	18286
20,01368	20304
20,01782	18436
20,02193	19299
20,02605	17896
20,03018	18539
20,03430	17897
20,03842	18602
20,04255	17723
20,04667	19511
20,05078	17479
20,05492	17878
20,05903	19397
20,06315	18148
