D:\MassHunter\GCMS\1\data\Amal\Constant flow\140C\140C_1ml-min_8C-min_2.D Fri Aug 30 18:21:53 2024
Start of data points
5,09085	257015
5,09497	244984
5,09910	232910
5,10322	232814
5,10733	220896
5,11147	220441
5,11558	216341
5,11970	205402
5,12383	203535
5,12795	196123
5,13207	190392
5,13620	187797
5,14032	184841
5,14443	178229
5,14857	178878
5,15268	171032
5,15680	170813
5,16093	166023
5,16505	161868
5,16917	158519
5,17328	154159
5,17742	151392
5,18153	154031
5,18565	145737
5,18978	139720
5,19390	142730
5,19802	140256
5,20215	138388
5,20627	134073
5,21038	132481
5,21452	132693
5,21863	131617
5,22275	128248
5,22688	125094
5,23100	125140
5,23512	123450
5,23925	121365
5,24337	117621
5,24748	119254
5,25162	116990
5,25573	114686
5,25985	115409
5,26397	114419
5,26810	112454
5,27222	109361
5,27633	113214
5,28047	114255
5,28458	113434
5,28870	110972
5,29283	109579
5,29695	107507
5,30107	105979
5,30520	107003
5,30932	107700
5,31343	104069
5,31757	106396
5,32168	105115
5,32580	103000
5,32993	103016
5,33405	100324
5,33817	101872
5,34230	99556
5,34642	99121
5,35053	99217
5,35465	97150
5,35878	95192
5,36290	95920
5,36702	100539
5,37115	111484
5,37527	142736
5,37938	205970
5,38352	317185
5,38763	489558
5,39175	693530
5,39588	899081
5,40000	1081374
5,40412	1204864
5,40825	1269601
5,41237	1283719
5,41648	1271480
5,42062	1249341
5,42473	1221257
5,42885	1165514
5,43298	1124437
5,43710	1084703
5,44122	1045735
5,44533	992860
5,44947	966891
5,45358	915804
5,45770	878656
5,46183	846371
5,46595	814271
5,47007	784008
5,47420	749831
5,47832	715958
5,48243	685256
5,48657	666945
5,49068	634352
5,49480	600268
5,49893	576326
5,50305	548829
5,50717	522910
5,51130	495079
5,51542	475148
5,51953	452194
5,52367	421360
5,52778	395714
5,53190	368951
5,53602	345629
5,54015	325454
5,54427	300188
5,54838	274911
5,55252	259766
5,55663	241310
5,56075	227659
5,56488	208845
5,56900	196578
5,57312	187811
5,57725	173379
5,58137	165853
5,58548	159708
5,58962	147656
5,59373	141008
5,59785	132364
5,60198	126814
5,60610	125987
5,61022	118304
5,61435	110440
5,61847	107143
5,62258	101002
5,62670	97976
5,63083	99295
5,63495	96783
5,63907	92489
5,64320	88912
5,64732	86504
5,65143	85132
5,65557	83938
5,65968	85990
5,66380	80742
5,66793	82675
5,67205	78704
5,67617	74571
5,68030	77884
5,68442	75860
5,68853	76233
5,69267	76102
5,69678	73310
5,70090	72695
5,70503	73921
5,70915	72829
5,71327	72838
5,71738	70209
5,72152	72690
5,72563	71752
5,72975	70320
5,73388	71008
5,73800	72802
5,74212	70635
5,74625	70999
5,75037	69498
5,75448	71327
5,75862	71298
5,76273	73372
5,76685	80104
5,77098	94890
5,77510	129306
5,77922	187786
5,78335	275391
5,78747	382115
5,79158	494449
5,79572	597753
5,79983	669324
5,80395	715218
5,80808	731489
5,81220	734224
5,81632	723736
5,82043	712013
5,82457	688058
5,82868	653735
5,83280	630181
5,83693	608371
5,84105	584037
5,84517	560452
5,84930	532201
5,85342	510763
5,85753	493307
5,86167	467389
5,86578	445957
5,86990	427000
5,87403	409898
5,87815	385362
5,88227	372305
5,88640	348095
5,89052	331149
5,89463	314439
5,89877	297527
5,90288	281046
5,90700	258612
5,91112	242047
5,91525	223085
5,91937	210828
5,92348	194934
5,92762	185020
5,93173	166413
5,93585	158745
5,93998	146727
5,94410	139414
5,94822	127601
5,95235	124992
5,95647	115249
5,96058	110496
5,96472	105456
5,96883	99620
5,97295	96470
5,97708	91923
5,98120	87213
5,98532	83529
5,98945	77528
5,99357	75979
5,99768	76662
6,00180	72755
6,00593	73173
6,01005	69673
6,01417	69535
6,01830	67569
6,02242	69325
6,02653	65369
6,03067	63634
6,03478	62813
6,03890	62046
6,04303	61211
6,04715	62498
6,05127	59519
6,05540	59167
6,05952	59333
6,06363	56796
6,06777	56459
6,07188	56541
6,07600	57006
6,08013	57137
6,08425	56045
6,08837	57284
6,09248	55070
6,09662	55169
6,10073	55633
6,10485	55722
6,10898	55047
6,11310	55568
6,11722	56375
6,12135	54879
6,12547	54435
6,12958	53585
6,13372	54970
6,13783	53714
6,14195	54546
6,14608	52210
6,15020	52903
6,15432	51142
6,15845	52733
6,16257	51528
6,16668	52811
6,17082	50579
6,17493	50034
6,17905	51120
6,18317	51337
6,18730	51859
6,19142	48810
6,19553	51922
6,19967	49636
6,20378	50308
6,20790	50867
6,21203	49003
6,21615	49536
6,22027	48427
6,22440	48503
6,22852	52478
6,23263	50687
6,23677	59633
6,24088	75280
6,24500	118635
6,24913	191179
6,25325	324157
6,25737	505131
6,26150	733532
6,26562	986456
6,26973	1229728
6,27385	1413321
6,27798	1541221
6,28210	1606720
6,28622	1614965
6,29035	1598249
6,29447	1561667
6,29858	1513278
6,30272	1426949
6,30683	1370702
6,31095	1300147
6,31508	1236763
6,31920	1174455
6,32332	1118229
6,32745	1048940
6,33157	987309
6,33568	929886
6,33982	876495
6,34393	815079
6,34805	763369
6,35218	714575
6,35630	662344
6,36042	609746
6,36453	558776
6,36867	509483
6,37278	452699
6,37690	409427
6,38103	370740
6,38515	334473
6,38927	300341
6,39340	267206
6,39752	244089
6,40163	216802
6,40577	192379
6,40988	174657
6,41400	159112
6,41813	143416
6,42225	130812
6,42637	119299
6,43050	109321
6,43462	101340
6,43873	94238
6,44287	89042
6,44698	79419
6,45110	77745
6,45522	72511
6,45935	70363
6,46347	66470
6,46758	64192
6,47172	60995
6,47583	58845
6,47995	57097
6,48408	54547
6,48820	52876
6,49232	51321
6,49645	49084
6,50057	50029
6,50468	49379
6,50882	46976
6,51293	47631
6,51705	47594
6,52118	46167
6,52530	45394
6,52942	44106
6,53355	44450
6,53767	44026
6,54178	44280
6,54590	43962
6,55003	43732
6,55415	43245
6,55827	42741
6,56240	44137
6,56652	40327
6,57063	42499
6,57477	42433
6,57888	40520
6,58300	39610
6,58713	42848
6,59125	41304
6,59537	39893
6,59950	41155
6,60362	39694
6,60773	38601
6,61187	40163
6,61598	39195
6,62010	40202
6,62423	39165
6,62835	37775
6,63247	40987
6,63658	38340
6,64072	36941
6,64483	36411
6,64895	37749
6,65308	38325
6,65720	35942
6,66132	36721
6,66545	36910
6,66957	39146
6,67368	37797
6,67782	37609
6,68193	37577
6,68605	36985
6,69018	35588
6,69430	35953
6,69842	37191
6,70255	37440
6,70667	35561
6,71078	36146
6,71492	35061
6,71903	36838
6,72315	36605
6,72727	36786
6,73140	36462
6,73552	35058
6,73963	34081
6,74377	33786
6,74788	35476
6,75200	34469
6,75613	34117
6,76025	35070
6,76437	36300
6,76850	32946
6,77262	34488
6,77673	34371
6,78087	37100
6,78498	42738
6,78910	54502
6,79323	74554
6,79735	117058
6,80147	187270
6,80560	290240
6,80972	413134
6,81383	555278
6,81795	685014
6,82208	803081
6,82620	887445
6,83032	924178
6,83445	952972
6,83857	937507
6,84268	923107
6,84682	871676
6,85093	838385
6,85505	796316
6,85918	756407
6,86330	706905
6,86742	661553
6,87155	611072
6,87567	579929
6,87978	532848
6,88392	492410
6,88803	457462
6,89215	411778
6,89628	376109
6,90040	338628
6,90452	301139
6,90863	271812
6,91277	236719
6,91688	212483
6,92100	184842
6,92513	163283
6,92925	146153
6,93337	130445
6,93750	116039
6,94162	106307
6,94573	95405
6,94987	85677
6,95398	79147
6,95810	73779
6,96223	68826
6,96635	61907
6,97047	58297
6,97460	54490
6,97872	53191
6,98283	50486
6,98697	52270
6,99108	48289
6,99520	46486
6,99932	43861
7,00345	44504
7,00757	43841
7,01168	42162
7,01582	41381
7,01993	39616
7,02405	39988
7,02818	38667
7,03230	38555
7,03642	37830
7,04055	38556
7,04467	35072
7,04878	35948
7,05292	36164
7,05703	35705
7,06115	34521
7,06528	35151
7,06940	33091
7,07352	34916
7,07765	33204
7,08177	34382
7,08588	34955
7,09000	34113
7,09413	33626
7,09825	34958
7,10237	35270
7,10650	35009
7,11062	37439
7,11473	37435
7,11887	35624
7,12298	35457
7,12710	37892
7,13123	35349
7,13535	37229
7,13947	35679
7,14360	35458
7,14772	33925
7,15183	33683
7,15597	34093
7,16008	35258
7,16420	33063
7,16833	33422
7,17245	32856
7,17657	33098
7,18068	32208
7,18482	32532
7,18893	33380
7,19305	32975
7,19718	29555
7,20130	30480
7,20542	31129
7,20955	30039
7,21367	29538
7,21778	29936
7,22192	29125
7,22603	29608
7,23015	31071
7,23428	30678
7,23840	29407
7,24252	28745
7,24665	30105
7,25077	29227
7,25488	29663
7,25902	30291
7,26313	29025
7,26725	29104
7,27137	31308
7,27550	29803
7,27962	28058
7,28373	27844
7,28787	28383
7,29198	28470
7,29610	28922
7,30023	27459
7,30435	28374
7,30847	27047
7,31260	29500
7,31672	28384
7,32083	26932
7,32497	29750
7,32908	30196
7,33320	26889
7,33733	30043
7,34145	28526
7,34557	28245
7,34970	28783
7,35382	27716
7,35793	29727
7,36205	30494
7,36618	28231
7,37030	28549
7,37442	27703
7,37855	27310
7,38267	27438
7,38678	30009
7,39092	31780
7,39503	40281
7,39915	53326
7,40328	85913
7,40740	151293
7,41152	266993
7,41565	437667
7,41977	678715
7,42388	990706
7,42802	1308193
7,43213	1614670
7,43625	1871556
7,44038	2060717
7,44450	2204807
7,44862	2231649
7,45275	2191080
7,45687	2112566
7,46098	2004314
7,46510	1886425
7,46923	1766892
7,47335	1613226
7,47747	1484229
7,48160	1334923
7,48572	1195129
7,48983	1076077
7,49397	949718
7,49808	830871
7,50220	721362
7,50633	624740
7,51045	529755
7,51457	453649
7,51870	387646
7,52282	336113
7,52693	282324
7,53107	241898
7,53518	205105
7,53930	179106
7,54343	154423
7,54755	136157
7,55167	121879
7,55578	106277
7,55992	95959
7,56403	86086
7,56815	78621
7,57228	74709
7,57640	67265
7,58052	63458
7,58465	58941
7,58877	56811
7,59288	53666
7,59702	48552
7,60113	48661
7,60525	48007
7,60938	44646
7,61350	42658
7,61762	41738
7,62175	41742
7,62587	38760
7,62998	38854
7,63412	38332
7,63823	38431
7,64235	37044
7,64647	39055
7,65060	39568
7,65472	37230
7,65883	39446
7,66297	40853
7,66708	41154
7,67120	39538
7,67533	41267
7,67945	41163
7,68357	40241
7,68770	40358
7,69182	38458
7,69593	39203
7,70007	36455
7,70418	35964
7,70830	34289
7,71243	36499
7,71655	34937
7,72067	33691
7,72480	33352
7,72892	33831
7,73303	33300
7,73715	34230
7,74128	32738
7,74540	33700
7,74952	32586
7,75365	31502
7,75777	31987
7,76188	35020
7,76602	32718
7,77013	31230
7,77425	30954
7,77838	31328
7,78250	32410
7,78662	31414
7,79075	30037
7,79487	30630
7,79898	28374
7,80312	28428
7,80723	28094
7,81135	28158
7,81548	27686
7,81960	29260
7,82372	27398
7,82783	29686
7,83197	28987
7,83608	28165
7,84020	30863
7,84433	30646
7,84845	28454
7,85257	29997
7,85670	29522
7,86082	30636
7,86493	30290
7,86907	30620
7,87318	32740
7,87730	34383
7,88143	35301
7,88555	35430
7,88967	37135
7,89380	41164
7,89792	42248
7,90203	51338
7,90617	68053
7,91028	95147
7,91440	149635
7,91852	234366
7,92265	344018
7,92677	487025
7,93088	644943
7,93502	798823
7,93913	939670
7,94325	1035679
7,94738	1101251
7,95150	1130527
7,95562	1110277
7,95975	1072505
7,96387	1016520
7,96798	941396
7,97212	867804
7,97623	787688
7,98035	716897
7,98448	632270
7,98860	563290
7,99272	487016
7,99685	424112
8,00097	359520
8,00508	306712
8,00920	265388
8,01333	225092
8,01745	192103
8,02157	164063
8,02570	142971
8,02982	120759
8,03393	103343
8,03807	90872
8,04218	83631
8,04630	76870
8,05043	66739
8,05455	63219
8,05867	62333
8,06280	68433
8,06692	87605
8,07103	127586
8,07517	194517
8,07928	298961
8,08340	442981
8,08753	610485
8,09165	793102
8,09577	960257
8,09988	1109950
8,10402	1213666
8,10813	1266615
8,11225	1279294
8,11638	1246955
8,12050	1189600
8,12462	1107805
8,12875	1018551
8,13287	915282
8,13698	812872
8,14112	720338
8,14523	631518
8,14935	537011
8,15348	458473
8,15760	384965
8,16172	320421
8,16585	266739
8,16997	226115
8,17408	191571
8,17822	163043
8,18233	142129
8,18645	118222
8,19057	106131
8,19470	91590
8,19882	82946
8,20293	74987
8,20707	67749
8,21118	63008
8,21530	57613
8,21943	53693
8,22355	51563
8,22767	47000
8,23180	44669
8,23592	43978
8,24003	43226
8,24417	41995
8,24828	39314
8,25240	37651
8,25653	35128
8,26065	33978
8,26477	32735
8,26890	33569
8,27302	32312
8,27713	31117
8,28125	29374
8,28538	29936
8,28950	28966
8,29362	28183
8,29775	29173
8,30187	28298
8,30598	27338
8,31012	27185
8,31423	26756
8,31835	25036
8,32248	25390
8,32660	26809
8,33072	25095
8,33485	25132
8,33897	25785
8,34308	24643
8,34722	23991
8,35133	24594
8,35545	24694
8,35958	23762
8,36370	24811
8,36782	23667
8,37193	23898
8,37607	23800
8,38018	24825
8,38430	24865
8,38843	23611
8,39255	22095
8,39667	22511
8,40080	24348
8,40492	23692
8,40903	21789
8,41317	22265
8,41728	23249
8,42140	22999
8,42553	23609
8,42965	22042
8,43377	21089
8,43790	22040
8,44202	22740
8,44613	22609
8,45027	22577
8,45438	22793
8,45850	21373
8,46262	21854
8,46675	21368
8,47087	20783
8,47498	21503
8,47912	21159
8,48323	21001
8,48735	21932
8,49148	21182
8,49560	21509
8,49972	21495
8,50385	21173
8,50797	21214
8,51208	19936
8,51622	21484
8,52033	20460
8,52445	20265
8,52858	19404
8,53270	19709
8,53682	20788
8,54095	19579
8,54507	20583
8,54918	19679
8,55330	20867
8,55743	20125
8,56155	19611
8,56567	20304
8,56980	19709
8,57392	20686
8,57803	19689
8,58217	20546
8,58628	23353
8,59040	24969
8,59453	31993
8,59865	47106
8,60277	73053
8,60690	126401
8,61102	203070
8,61513	321257
8,61927	475399
8,62338	648372
8,62750	846401
8,63163	1024216
8,63575	1167345
8,63987	1249683
8,64398	1285556
8,64812	1284486
8,65223	1233051
8,65635	1152930
8,66048	1045054
8,66460	944225
8,66872	822312
8,67285	713756
8,67697	606016
8,68108	505515
8,68522	425112
8,68933	360525
8,69345	292521
8,69758	244195
8,70170	205192
8,70582	172042
8,70995	144134
8,71407	123478
8,71818	107464
8,72232	93679
8,72643	82162
8,73055	73705
8,73467	65059
8,73880	59841
8,74292	55210
8,74703	51594
8,75117	52419
8,75528	64113
8,75940	91303
8,76353	150094
8,76765	256894
8,77177	452318
8,77590	754674
8,78002	1189240
8,78413	1733809
8,78827	2325622
8,79238	2942444
8,79650	3525169
8,80063	3989677
8,80475	4286497
8,80887	4380928
8,81300	4304804
8,81712	4081855
8,82123	3739277
8,82535	3333120
8,82948	2868964
8,83360	2446134
8,83772	2036515
8,84185	1660057
8,84597	1341823
8,85008	1087386
8,85422	874209
8,85833	710705
8,86245	574636
8,86658	477055
8,87070	396265
8,87482	328601
8,87895	279578
8,88307	244668
8,88718	210513
8,89132	185228
8,89543	161673
8,89955	143504
8,90368	130499
8,90780	115661
8,91192	106702
8,91603	99641
8,92017	92183
8,92428	86568
8,92840	80160
8,93253	75151
8,93665	71424
8,94077	67624
8,94490	63192
8,94902	62681
8,95313	55266
8,95727	55418
8,96138	53154
8,96550	51102
8,96963	50022
8,97375	47082
8,97787	47203
8,98200	42324
8,98612	42599
8,99023	40962
8,99437	40622
8,99848	40860
9,00260	38245
9,00673	37318
9,01085	38355
9,01497	35297
9,01908	34537
9,02322	32994
9,02733	34704
9,03145	33908
9,03558	32613
9,03970	30422
9,04382	30386
9,04795	28160
9,05207	31146
9,05618	28744
9,06032	29848
9,06443	28210
9,06855	29449
9,07268	27656
9,07680	27525
9,08092	27716
9,08505	27293
9,08917	28901
9,09328	28025
9,09742	28577
9,10153	27479
9,10565	25754
9,10977	25492
9,11390	27208
9,11802	26611
9,12213	25220
9,12627	27002
9,13038	24803
9,13450	25648
9,13863	24789
9,14275	23939
9,14687	23008
9,15100	23595
9,15512	24124
9,15923	24165
9,16337	24788
9,16748	24336
9,17160	23260
9,17573	24528
9,17985	24412
9,18397	25149
9,18810	25704
9,19222	24736
9,19633	26744
9,20045	25980
9,20458	23698
9,20870	27854
9,21282	31734
9,21695	39150
9,22107	56340
9,22518	89100
9,22932	149896
9,23343	241280
9,23755	384513
9,24168	564602
9,24580	776994
9,24992	981046
9,25405	1184480
9,25817	1335984
9,26228	1414836
9,26642	1424501
9,27053	1381920
9,27465	1279492
9,27878	1156062
9,28290	1023357
9,28702	871608
9,29113	735480
9,29527	609380
9,29938	501378
9,30350	411711
9,30763	333449
9,31175	271943
9,31587	226708
9,32000	186375
9,32412	160047
9,32823	136441
9,33237	117650
9,33648	103332
9,34060	95462
9,34473	84113
9,34885	76988
9,35297	70588
9,35710	66694
9,36122	63071
9,36533	59596
9,36947	55278
9,37358	53989
9,37770	48898
9,38182	43974
9,38595	45618
9,39007	42735
9,39418	39187
9,39832	37633
9,40243	34603
9,40655	34991
9,41068	34675
9,41480	31491
9,41892	32317
9,42305	29646
9,42717	30833
9,43128	29572
9,43542	29296
9,43953	28433
9,44365	26863
9,44778	28105
9,45190	26541
9,45602	25815
9,46015	26360
9,46427	27745
9,46838	28353
9,47250	33679
9,47663	48493
9,48075	71876
9,48487	126069
9,48900	209119
9,49312	339690
9,49723	521604
9,50137	735805
9,50548	975990
9,50960	1228293
9,51373	1423585
9,51785	1558149
9,52197	1614208
9,52610	1596679
9,53022	1496194
9,53433	1345927
9,53847	1173099
9,54258	1000771
9,54670	840906
9,55083	684699
9,55495	553773
9,55907	443917
9,56318	351069
9,56732	294328
9,57143	240781
9,57555	193769
9,57968	167030
9,58380	141899
9,58792	124336
9,59205	109023
9,59617	96279
9,60028	87206
9,60442	77957
9,60853	70034
9,61265	63968
9,61678	60609
9,62090	54879
9,62502	51999
9,62915	50228
9,63327	44369
9,63738	43806
9,64152	41323
9,64563	42742
9,64975	38710
9,65387	38077
9,65800	36455
9,66212	35687
9,66623	34410
9,67037	32180
9,67448	32756
9,67860	30359
9,68273	30334
9,68685	31540
9,69097	28720
9,69510	28018
9,69922	27972
9,70333	28473
9,70747	28138
9,71158	28045
9,71570	25536
9,71983	25792
9,72395	25243
9,72807	23440
9,73220	24016
9,73632	22266
9,74043	23122
9,74455	22861
9,74868	22106
9,75280	23444
9,75692	24628
9,76105	22304
9,76517	22349
9,76928	22027
9,77342	21468
9,77753	22017
9,78165	22415
9,78578	22307
9,78990	23097
9,79402	20998
9,79815	23612
9,80227	21075
9,80638	21847
9,81052	21071
9,81463	22555
9,81875	21514
9,82288	20597
9,82700	20126
9,83112	20969
9,83523	21427
9,83937	22983
9,84348	20329
9,84760	19384
9,85173	19633
9,85585	20621
9,85997	19084
9,86410	17799
9,86822	19654
9,87233	19240
9,87647	20288
9,88058	21108
9,88470	18223
9,88883	19082
9,89295	19398
9,89707	18343
9,90120	17916
9,90532	20405
9,90943	19726
9,91357	19245
9,91768	18482
9,92180	19743
9,92592	19272
9,93005	21529
9,93417	23121
9,93828	29616
9,94242	40834
9,94653	67973
9,95065	119046
9,95478	198075
9,95890	323170
9,96302	504061
9,96715	714590
9,97127	964137
9,97538	1188624
9,97952	1384631
9,98363	1522742
9,98775	1595019
9,99188	1555811
9,99600	1458288
10,00012	1322022
10,00425	1143806
10,00837	956404
10,01248	794296
10,01660	642963
10,02073	521784
10,02485	417924
10,02897	337277
10,03310	278038
10,03722	225870
10,04133	187674
10,04547	159344
10,04958	138111
10,05370	118687
10,05783	105058
10,06195	93255
10,06607	82493
10,07020	77051
10,07432	67865
10,07843	62385
10,08257	58434
10,08668	55046
10,09080	54051
10,09493	46397
10,09905	45314
10,10317	43463
10,10728	41431
10,11142	38501
10,11553	36707
10,11965	37962
10,12378	36235
10,12790	34830
10,13202	33300
10,13615	34035
10,14027	31642
10,14438	32797
10,14852	30391
10,15263	30529
10,15675	27973
10,16088	28637
10,16500	28675
10,16912	27143
10,17325	25610
10,17737	25951
10,18148	25818
10,18562	26986
10,18973	26839
10,19385	34615
10,19797	50468
10,20210	79628
10,20622	144806
10,21033	264150
10,21447	463016
10,21858	746738
10,22270	1155234
10,22683	1632351
10,23095	2173915
10,23507	2720422
10,23920	3150313
10,24332	3463253
10,24743	3600526
10,25157	3506728
10,25568	3250780
10,25980	2869866
10,26393	2425794
10,26805	1984098
10,27217	1581503
10,27630	1251570
10,28042	994938
10,28453	780182
10,28865	623285
10,29278	503226
10,29690	412354
10,30102	344553
10,30515	290453
10,30927	246937
10,31338	214384
10,31752	190765
10,32163	174317
10,32575	161608
10,32988	140026
10,33400	130982
10,33812	124155
10,34225	114250
10,34637	108314
10,35048	101099
10,35462	93667
10,35873	87982
10,36285	81218
10,36698	76638
10,37110	71589
10,37522	67353
10,37933	62599
10,38347	60134
10,38758	57971
10,39170	55033
10,39583	50890
10,39995	50772
10,40407	48091
10,40820	46309
10,41232	44140
10,41643	41223
10,42057	42182
10,42468	39461
10,42880	37401
10,43293	36131
10,43705	39530
10,44117	37522
10,44530	37131
10,44942	36977
10,45353	36445
10,45767	37450
10,46178	42910
10,46590	53300
10,47003	70946
10,47415	111648
10,47827	185454
10,48238	301900
10,48652	470171
10,49063	689173
10,49475	942624
10,49888	1208361
10,50300	1442303
10,50712	1614892
10,51125	1715419
10,51537	1705127
10,51948	1622013
10,52362	1449126
10,52773	1265238
10,53185	1053033
10,53598	861077
10,54010	698242
10,54422	563230
10,54835	452561
10,55247	363372
10,55658	296465
10,56072	246370
10,56483	205656
10,56895	177440
10,57307	157429
10,57720	133992
10,58132	121636
10,58543	105290
10,58957	98806
10,59368	90673
10,59780	84559
10,60193	87075
10,60605	102418
10,61017	142001
10,61430	219504
10,61842	360140
10,62253	589658
10,62667	914359
10,63078	1332499
10,63490	1864671
10,63903	2421427
10,64315	2910260
10,64727	3293466
10,65140	3493279
10,65552	3493342
10,65963	3300479
10,66375	2956049
10,66788	2522250
10,67200	2095133
10,67612	1677359
10,68025	1344926
10,68437	1067169
10,68848	847464
10,69262	678137
10,69673	554712
10,70085	453577
10,70498	381088
10,70910	321274
10,71322	271943
10,71735	239015
10,72147	212091
10,72558	187398
10,72972	166196
10,73383	151103
10,73795	136631
10,74208	125916
10,74620	115985
10,75032	106770
10,75443	97839
10,75857	93262
10,76268	85497
10,76680	81214
10,77093	75815
10,77505	73121
10,77917	66480
10,78330	65384
10,78742	59735
10,79153	59164
10,79567	58998
10,79978	57051
10,80390	57212
10,80803	51367
10,81215	49349
10,81627	50295
10,82040	50116
10,82452	46200
10,82863	43905
10,83277	44697
10,83688	41453
10,84100	40563
10,84512	38474
10,84925	38343
10,85337	37912
10,85748	38468
10,86162	35271
10,86573	35992
10,86985	34212
10,87398	34706
10,87810	32141
10,88222	33453
10,88635	34386
10,89047	35550
10,89458	42761
10,89872	57280
10,90283	87576
10,90695	140843
10,91108	241720
10,91520	399896
10,91932	614937
10,92345	900926
10,92757	1219641
10,93168	1594146
10,93580	1983628
10,93993	2371268
10,94405	2784328
10,94817	3148594
10,95230	3581418
10,95642	3946376
10,96053	4218381
10,96467	4357963
10,96878	4291350
10,97290	4009810
10,97703	3569777
10,98115	3002636
10,98527	2457985
10,98940	1970232
10,99352	1566174
10,99763	1238485
11,00177	977767
11,00588	791044
11,01000	650971
11,01413	535617
11,01825	454905
11,02237	386452
11,02648	338019
11,03062	295289
11,03473	259889
11,03885	232596
11,04298	209935
11,04710	189439
11,05122	171928
11,05535	154772
11,05947	144687
11,06358	137286
11,06772	125726
11,07183	116430
11,07595	110849
11,08008	101552
11,08420	99701
11,08832	88018
11,09245	88816
11,09657	83312
11,10068	80601
11,10482	77397
11,10893	75327
11,11305	74451
11,11717	67919
11,12130	67690
11,12542	63828
11,12953	62811
11,13367	61568
11,13778	58737
11,14190	57936
11,14603	56466
11,15015	58104
11,15427	54614
11,15840	51970
11,16252	52630
11,16663	50379
11,17077	50038
11,17488	45897
11,17900	47829
11,18313	46161
11,18725	44697
11,19137	42697
11,19550	41282
11,19962	41192
11,20373	38608
11,20785	38874
11,21198	42801
11,21610	55150
11,22022	70657
11,22435	107751
11,22847	175985
11,23258	280888
11,23672	443635
11,24083	644307
11,24495	882238
11,24908	1133678
11,25320	1328492
11,25732	1485932
11,26145	1550506
11,26557	1527568
11,26968	1436372
11,27382	1274896
11,27793	1090906
11,28205	902248
11,28618	735299
11,29030	593890
11,29442	480629
11,29853	386598
11,30267	311790
11,30678	257206
11,31090	218821
11,31503	187111
11,31915	156381
11,32327	141483
11,32740	123932
11,33152	107964
11,33563	100273
11,33977	93169
11,34388	87664
11,34800	79145
11,35213	76879
11,35625	71197
11,36037	68861
11,36450	63917
11,36862	61402
11,37273	57947
11,37687	56197
11,38098	54696
11,38510	52455
11,38922	47053
11,39335	47890
11,39747	43597
11,40158	42465
11,40572	44270
11,40983	40666
11,41395	38415
11,41808	40229
11,42220	38474
11,42632	37445
11,43045	35423
11,43457	35148
11,43868	34657
11,44282	36726
11,44693	32682
11,45105	34523
11,45518	33707
11,45930	32881
11,46342	31841
11,46755	29676
11,47167	32915
11,47578	31406
11,47990	29677
11,48403	30049
11,48815	29364
11,49227	29369
11,49640	28510
11,50052	28606
11,50463	28979
11,50877	27381
11,51288	27415
11,51700	26842
11,52113	26083
11,52525	27434
11,52937	27050
11,53350	24123
11,53762	26710
11,54173	25797
11,54587	25326
11,54998	26698
11,55410	26722
11,55823	26647
11,56235	28414
11,56647	27935
11,57058	26657
11,57472	26537
11,57883	26312
11,58295	27012
11,58708	24067
11,59120	26331
11,59532	26288
11,59945	25999
11,60357	24953
11,60768	25460
11,61182	26590
11,61593	25599
11,62005	26769
11,62418	29161
11,62830	36087
11,63242	56063
11,63655	94386
11,64067	171002
11,64478	305949
11,64892	530196
11,65303	880114
11,65715	1379551
11,66127	1975306
11,66540	2710477
11,66952	3441781
11,67363	4111443
11,67777	4634883
11,68188	4856657
11,68600	4836827
11,69013	4581633
11,69425	4180722
11,69837	3703292
11,70250	3189808
11,70662	2693026
11,71073	2233864
11,71487	1835805
11,71898	1503943
11,72310	1224049
11,72723	986692
11,73135	804299
11,73547	673688
11,73960	564473
11,74372	483824
11,74783	407739
11,75195	363453
11,75608	315717
11,76020	279046
11,76432	248894
11,76845	225394
11,77257	202384
11,77668	188134
11,78082	171779
11,78493	159662
11,78905	150079
11,79318	136020
11,79730	131855
11,80142	121878
11,80555	114470
11,80967	104795
11,81378	100438
11,81792	98123
11,82203	94226
11,82615	87452
11,83028	84320
11,83440	82176
11,83852	77357
11,84263	75022
11,84677	72544
11,85088	70230
11,85500	66760
11,85913	64762
11,86325	61691
11,86737	61814
11,87150	59663
11,87562	59656
11,87973	56019
11,88387	52372
11,88798	53886
11,89210	52049
11,89623	50439
11,90035	53391
11,90447	50837
11,90860	52258
11,91272	52367
11,91683	58961
11,92097	67804
11,92508	87221
11,92920	122243
11,93332	186419
11,93745	281304
11,94157	420057
11,94568	607762
11,94982	820129
11,95393	1043916
11,95805	1242290
11,96218	1368926
11,96630	1412613
11,97042	1398978
11,97455	1282913
11,97867	1139913
11,98278	973262
11,98692	810614
11,99103	651352
11,99515	528250
11,99928	424008
12,00340	345280
12,00752	285366
12,01165	236931
12,01577	201342
12,01988	177763
12,02402	161276
12,02813	168584
12,03225	184474
12,03637	225464
12,04050	320664
12,04462	465107
12,04873	676322
12,05287	939730
12,05698	1236754
12,06110	1535765
12,06523	1759900
12,06935	1878108
12,07347	1877388
12,07760	1775782
12,08172	1584266
12,08583	1358314
12,08997	1142100
12,09408	936236
12,09820	754588
12,10233	608612
12,10645	501753
12,11057	414951
12,11470	347147
12,11882	299925
12,12293	262411
12,12705	229552
12,13118	202743
12,13530	184498
12,13942	164258
12,14355	151279
12,14767	135436
12,15178	127414
12,15592	115244
12,16003	105506
12,16415	103287
12,16828	94650
12,17240	89115
12,17652	86500
12,18065	79921
12,18477	75703
12,18888	75702
12,19302	72865
12,19713	67780
12,20125	64627
12,20538	62993
12,20950	60787
12,21362	59077
12,21773	57253
12,22187	55249
12,22598	53619
12,23010	52210
12,23423	51277
12,23835	48736
12,24247	50997
12,24660	47788
12,25072	46964
12,25483	46786
12,25897	47526
12,26308	45093
12,26720	44727
12,27133	41288
12,27545	43125
12,27957	45252
12,28370	41425
12,28782	41433
12,29193	40544
12,29607	41102
12,30018	39120
12,30430	39510
12,30842	38502
12,31255	39294
12,31667	38713
12,32078	40065
12,32492	42016
12,32903	51577
12,33315	68741
12,33728	106324
12,34140	174463
12,34552	294955
12,34965	474163
12,35377	728220
12,35788	1022198
12,36202	1377737
12,36613	1662504
12,37025	1890015
12,37438	1993098
12,37850	1962880
12,38262	1807991
12,38675	1587167
12,39087	1342011
12,39498	1104193
12,39910	907008
12,40323	744508
12,40735	599561
12,41147	501075
12,41560	418464
12,41972	356945
12,42383	307009
12,42797	265192
12,43208	238433
12,43620	211763
12,44033	193853
12,44445	171860
12,44857	153642
12,45270	144428
12,45682	137243
12,46093	122985
12,46507	114518
12,46918	109783
12,47330	99622
12,47743	96154
12,48155	90853
12,48567	86462
12,48978	85073
12,49392	80057
12,49803	80547
12,50215	74363
12,50628	72569
12,51040	73332
12,51452	69494
12,51865	69218
12,52277	65983
12,52688	62447
12,53102	60294
12,53513	60660
12,53925	60958
12,54338	56477
12,54750	57156
12,55162	54580
12,55575	52429
12,55987	53160
12,56398	54358
12,56812	49205
12,57223	50420
12,57635	48512
12,58047	46477
12,58460	44844
12,58872	47002
12,59283	45993
12,59697	44560
12,60108	46346
12,60520	43153
12,60933	44203
12,61345	42928
12,61757	46445
12,62170	56573
12,62582	73722
12,62993	110548
12,63407	174899
12,63818	287753
12,64230	447269
12,64643	667896
12,65055	927955
12,65467	1193305
12,65880	1438808
12,66292	1607042
12,66703	1652570
12,67115	1589128
12,67528	1473168
12,67940	1284091
12,68352	1086955
12,68765	903149
12,69177	738352
12,69588	604473
12,70002	495407
12,70413	408338
12,70825	342682
12,71238	292854
12,71650	249171
12,72062	216895
12,72475	195081
12,72887	168797
12,73298	152678
12,73712	137289
12,74123	126341
12,74535	117265
12,74948	109430
12,75360	99464
12,75772	93619
12,76183	89163
12,76597	86232
12,77008	83466
12,77420	77833
12,77833	72296
12,78245	70908
12,78657	66178
12,79070	66043
12,79482	63111
12,79893	60447
12,80307	61692
12,80718	58986
12,81130	53913
12,81543	54386
12,81955	52049
12,82367	53192
12,82780	53566
12,83192	50102
12,83603	51064
12,84017	48543
12,84428	46615
12,84840	45637
12,85252	46751
12,85665	46796
12,86077	43693
12,86488	45182
12,86902	46219
12,87313	45632
12,87725	44805
12,88138	43107
12,88550	45573
12,88962	44117
12,89375	40752
12,89787	42593
12,90198	40835
12,90612	41847
12,91023	42897
12,91435	39903
12,91848	41607
12,92260	39282
12,92672	38950
12,93085	38195
12,93497	39377
12,93908	39474
12,94320	39270
12,94733	39559
12,95145	41015
12,95557	38545
12,95970	40080
12,96382	37955
12,96793	37804
12,97207	37180
12,97618	36014
12,98030	38671
12,98443	37619
12,98855	38614
12,99267	36924
12,99680	37180
13,00092	39532
13,00503	41043
13,00917	50569
13,01328	66394
13,01740	101215
13,02153	168110
13,02565	279234
13,02977	463841
13,03388	754772
13,03802	1144943
13,04213	1650170
13,04625	2245902
13,05038	2879183
13,05450	3506286
13,05862	3990426
13,06275	4332073
13,06687	4421467
13,07098	4305682
13,07512	4107388
13,07923	3809923
13,08335	3505368
13,08748	3199990
13,09160	2869117
13,09572	2552103
13,09985	2223853
13,10397	1909614
13,10808	1615377
13,11222	1360517
13,11633	1131525
13,12045	951246
13,12457	797038
13,12870	669893
13,13282	585923
13,13693	506629
13,14107	452800
13,14518	400058
13,14930	360802
13,15343	325401
13,15755	296676
13,16167	272939
13,16580	249546
13,16992	236346
13,17403	216405
13,17817	206287
13,18228	189101
13,18640	181527
13,19053	167806
13,19465	165581
13,19877	157115
13,20290	151170
13,20702	140786
13,21113	133781
13,21525	132621
13,21938	124969
13,22350	120223
13,22762	117721
13,23175	113371
13,23587	107285
13,23998	108251
13,24412	103621
13,24823	103489
13,25235	98304
13,25648	96719
13,26060	96538
13,26472	90424
13,26885	91127
13,27297	89975
13,27708	88750
13,28122	88662
13,28533	88664
13,28945	86319
13,29358	87855
13,29770	91142
13,30182	99360
13,30593	116680
13,31007	157234
13,31418	226298
13,31830	342577
13,32243	503390
13,32655	728621
13,33067	957265
13,33480	1203934
13,33892	1407684
13,34303	1525012
13,34717	1560240
13,35128	1492786
13,35540	1344305
13,35953	1184375
13,36365	1014042
13,36777	874449
13,37190	777603
13,37602	745902
13,38013	768206
13,38427	851981
13,38838	994963
13,39250	1176373
13,39662	1390326
13,40075	1592883
13,40487	1772873
13,40898	1920353
13,41312	2045753
13,41723	2183474
13,42135	2303634
13,42548	2404756
13,42960	2477498
13,43372	2483582
13,43785	2385655
13,44197	2209615
13,44608	1974617
13,45022	1708576
13,45433	1436541
13,45845	1203023
13,46258	1012176
13,46670	845877
13,47082	718513
13,47495	616252
13,47907	536474
13,48318	473990
13,48730	418688
13,49143	378286
13,49555	340314
13,49967	306407
13,50380	280485
13,50792	259967
13,51203	240705
13,51617	221880
13,52028	210143
13,52440	193865
13,52853	188567
13,53265	177934
13,53677	169017
13,54090	159167
13,54502	157914
13,54913	148434
13,55327	140530
13,55738	133860
13,56150	127292
13,56563	125046
13,56975	118953
13,57387	116289
13,57800	109227
13,58212	109829
13,58623	106253
13,59035	101030
13,59448	99454
13,59860	95574
13,60272	95392
13,60685	91579
13,61097	89891
13,61508	86807
13,61922	86978
13,62333	84610
13,62745	82957
13,63158	83587
13,63570	82610
13,63982	79815
13,64395	76774
13,64807	76127
13,65218	75852
13,65632	73177
13,66043	72908
13,66455	75688
13,66868	78254
13,67280	84502
13,67692	104800
13,68103	134665
13,68517	192690
13,68928	291628
13,69340	442055
13,69753	657626
13,70165	937905
13,70577	1243382
13,70990	1552391
13,71402	1789738
13,71813	1915199
13,72227	1922139
13,72638	1807309
13,73050	1596220
13,73463	1392671
13,73875	1171073
13,74287	976399
13,74700	831330
13,75112	702862
13,75523	597566
13,75937	522371
13,76348	451004
13,76760	401744
13,77172	357456
13,77585	323916
13,77997	292177
13,78408	273936
13,78822	250529
13,79233	236604
13,79645	219910
13,80058	206131
13,80470	195649
13,80882	186686
13,81295	179321
13,81707	174248
13,82118	162496
13,82532	156401
13,82943	152379
13,83355	148453
13,83768	144221
13,84180	136128
13,84592	131544
13,85005	127447
13,85417	125441
13,85828	117440
13,86240	116630
13,86653	112671
13,87065	104801
13,87477	105648
13,87890	101942
13,88302	98110
13,88713	98416
13,89127	96816
13,89538	94820
13,89950	93888
13,90363	91161
13,90775	87189
13,91187	87088
13,91600	89682
13,92012	89757
13,92423	87097
13,92837	83817
13,93248	83579
13,93660	84141
13,94073	79000
13,94485	81974
13,94897	75336
13,95308	79036
13,95722	81810
13,96133	87881
13,96545	101322
13,96958	130013
13,97370	181713
13,97782	273662
13,98195	414760
13,98607	613131
13,99018	850008
13,99432	1121871
13,99843	1359592
14,00255	1551517
14,00668	1624750
14,01080	1626012
14,01492	1526035
14,01905	1382205
14,02317	1208127
14,02728	1039358
14,03142	869892
14,03553	734890
14,03965	617510
14,04377	534223
14,04790	457060
14,05202	399549
14,05613	354268
14,06027	323291
14,06438	301105
14,06850	304887
14,07263	323751
14,07675	373259
14,08087	458048
14,08500	587568
14,08912	747566
14,09323	926538
14,09737	1099431
14,10148	1222648
14,10560	1307059
14,10973	1334705
14,11385	1289971
14,11797	1190498
14,12210	1060624
14,12622	923201
14,13033	785195
14,13445	676557
14,13858	566538
14,14270	475661
14,14682	417628
14,15095	352902
14,15507	311122
14,15918	275187
14,16332	247972
14,16743	219486
14,17155	200973
14,17568	186676
14,17980	169448
14,18392	161821
14,18805	148698
14,19217	145956
14,19628	137650
14,20042	129263
14,20453	127842
14,20865	119639
14,21278	114084
14,21690	109655
14,22102	106724
14,22513	106298
14,22927	100994
14,23338	100388
14,23750	97645
14,24163	94549
14,24575	92759
14,24987	92302
14,25400	89721
14,25812	87133
14,26223	84764
14,26637	86572
14,27048	83984
14,27460	82835
14,27873	82322
14,28285	81858
14,28697	80641
14,29110	81813
14,29522	81113
14,29933	75655
14,30347	75620
14,30758	75733
14,31170	74710
14,31582	72364
14,31995	70747
14,32407	69587
14,32818	73066
14,33232	80093
14,33643	88218
14,34055	108966
14,34468	141813
14,34880	193889
14,35292	294350
14,35705	438673
14,36117	641427
14,36528	930672
14,36942	1305961
14,37353	1761424
14,37765	2240864
14,38178	2737267
14,38590	3182910
14,39002	3447638
14,39415	3534424
14,39827	3394420
14,40238	3105851
14,40650	2710922
14,41063	2314840
14,41475	1961117
14,41887	1639150
14,42300	1375801
14,42712	1171775
14,43123	1015129
14,43537	873094
14,43948	766852
14,44360	681120
14,44773	610424
14,45185	554296
14,45597	500840
14,46010	460898
14,46422	424073
14,46833	390996
14,47247	368754
14,47658	339532
14,48070	318448
14,48483	297950
14,48895	286087
14,49307	267992
14,49718	255249
14,50132	244818
14,50543	232635
14,50955	221714
14,51368	209163
14,51780	202374
14,52192	191964
14,52605	186511
14,53017	182286
14,53428	176432
14,53842	175134
14,54253	165129
14,54665	157760
14,55078	155196
14,55490	153630
14,55902	148708
14,56315	144518
14,56727	140571
14,57138	137111
14,57552	135602
14,57963	131083
14,58375	127001
14,58787	126885
14,59200	125259
14,59612	116653
14,60023	121308
14,60437	116438
14,60848	109349
14,61260	114682
14,61673	109675
14,62085	109295
14,62497	104926
14,62910	104452
14,63322	104799
14,63733	104168
14,64147	102985
14,64558	99277
14,64970	101914
14,65383	97622
14,65795	97778
14,66207	97438
14,66620	95575
14,67032	93926
14,67443	95170
14,67855	92815
14,68268	89549
14,68680	89386
14,69092	90883
14,69505	87242
14,69917	87518
14,70328	88147
14,70742	86761
14,71153	87600
14,71565	87621
14,71978	94393
14,72390	102804
14,72802	121303
14,73215	150895
14,73627	200325
14,74038	281581
14,74452	391815
14,74863	547778
14,75275	738626
14,75688	969301
14,76100	1181815
14,76512	1377612
14,76923	1507768
14,77337	1571918
14,77748	1572290
14,78160	1487349
14,78573	1358640
14,78985	1217748
14,79397	1069924
14,79810	938746
14,80222	812906
14,80633	707654
14,81047	630023
14,81458	552417
14,81870	494211
14,82283	442160
14,82695	398610
14,83107	367877
14,83520	337166
14,83932	312460
14,84343	292683
14,84757	272359
14,85168	255691
14,85580	240285
14,85992	225015
14,86405	215888
14,86817	207321
14,87228	194065
14,87642	185622
14,88053	176850
14,88465	171687
14,88878	166020
14,89290	162682
14,89702	153728
14,90115	150751
14,90527	143031
14,90938	143846
14,91352	138217
14,91763	134295
14,92175	132022
14,92588	125761
14,93000	127263
14,93412	120363
14,93825	114800
14,94237	121428
14,94648	113023
14,95060	110672
14,95473	106249
14,95885	104142
14,96297	105462
14,96710	101118
14,97122	100152
14,97533	102053
14,97947	97240
14,98358	94826
14,98770	94172
14,99183	93762
14,99595	95084
15,00007	89845
15,00420	90858
15,00832	90810
15,01243	88352
15,01657	86236
15,02068	86318
15,02480	84780
15,02893	83859
15,03305	84400
15,03717	82209
15,04128	83205
15,04542	82682
15,04953	84320
15,05365	84171
15,05778	81880
15,06190	81062
15,06602	79819
15,07015	81350
15,07427	79070
15,07838	77914
15,08252	78838
15,08663	78121
15,09075	77961
15,09488	79174
15,09900	75942
15,10312	76930
15,10725	73618
15,11137	74553
15,11548	76691
15,11962	73868
15,12373	72312
15,12785	72538
15,13198	74828
15,13610	72173
15,14022	71962
15,14433	72763
15,14847	69441
15,15258	67570
15,15670	69128
15,16083	68166
15,16495	64468
15,16907	68666
15,17320	68243
15,17732	68230
15,18143	66466
15,18557	67333
15,18968	69729
15,19380	71549
15,19793	77367
15,20205	82219
15,20617	87615
15,21030	96726
15,21442	103009
15,21853	114618
15,22267	125620
15,22678	134311
15,23090	137305
15,23502	141001
15,23915	139956
15,24327	135659
15,24738	126977
15,25152	120658
15,25563	118701
15,25975	110503
15,26388	101364
15,26800	101221
15,27212	94980
15,27625	88053
15,28037	80835
15,28448	80846
15,28862	77409
15,29273	73224
15,29685	69060
15,30098	68859
15,30510	69662
15,30922	66436
15,31335	64469
15,31747	69142
15,32158	66055
15,32570	65686
15,32983	63281
15,33395	64272
15,33807	64721
15,34220	62756
15,34632	63149
15,35043	60367
15,35457	61640
15,35868	61111
15,36280	60617
15,36693	63752
15,37105	62120
15,37517	61804
15,37930	64209
15,38342	61788
15,38753	61631
15,39167	61555
15,39578	58530
15,39990	60809
15,40403	58475
15,40815	58251
15,41227	60078
15,41638	58483
15,42052	59785
15,42463	58048
15,42875	60744
15,43288	60159
15,43700	57773
15,44112	57553
15,44525	57494
15,44937	57942
15,45348	59484
15,45762	58058
15,46173	56944
15,46585	57738
15,46998	59986
15,47410	57435
15,47822	58967
15,48235	58987
15,48647	59089
15,49058	59901
15,49472	57864
15,49883	59053
15,50295	58027
15,50707	58959
15,51120	56282
15,51532	58762
15,51943	55524
15,52357	55206
15,52768	52579
15,53180	55056
15,53593	52237
15,54005	56991
15,54417	55408
15,54830	52479
15,55242	54357
15,55653	52481
15,56067	51562
15,56478	54523
15,56890	53341
15,57303	55576
15,57715	54318
15,58127	55677
15,58540	55668
15,58952	56453
15,59363	53494
15,59775	54300
15,60188	54625
15,60600	56255
15,61012	55358
15,61425	55405
15,61837	54135
15,62248	56177
15,62662	54150
15,63073	56802
15,63485	55707
15,63898	56656
15,64310	54006
15,64722	52531
15,65135	55247
15,65547	55486
15,65958	53909
15,66372	55167
15,66783	56993
15,67195	55901
15,67608	55585
15,68020	53969
15,68432	55966
15,68843	56322
15,69257	56044
15,69668	56095
15,70080	56444
15,70493	54381
15,70905	53762
15,71317	55962
15,71730	54636
15,72142	54439
15,72553	54250
15,72967	53370
15,73378	53501
15,73790	52159
15,74203	54735
15,74615	53716
15,75027	51851
15,75440	55472
15,75852	53776
15,76263	56121
15,76677	52878
15,77088	53837
15,77500	53736
15,77912	53213
15,78325	52324
15,78737	52242
15,79148	54012
15,79562	52937
15,79973	54532
15,80385	53888
15,80798	53503
15,81210	54758
15,81622	54054
15,82035	56769
15,82447	50722
15,82858	55209
15,83272	54418
15,83683	51691
15,84095	54569
15,84508	55848
15,84920	54603
15,85332	54434
15,85745	58153
15,86157	60296
15,86568	62888
15,86980	75686
15,87393	89699
15,87805	116301
15,88217	151144
15,88630	210176
15,89042	277725
15,89453	364445
15,89867	470812
15,90278	569177
15,90690	670354
15,91103	759489
15,91515	817786
15,91927	854812
15,92340	840642
15,92752	816260
15,93163	768076
15,93577	717540
15,93988	651651
15,94400	588979
15,94813	522206
15,95225	459689
15,95637	411538
15,96048	360903
15,96462	325637
15,96873	290571
15,97285	266120
15,97698	238234
15,98110	220316
15,98522	200005
15,98935	183378
15,99347	176674
15,99758	160453
16,00172	152857
16,00583	139729
16,00995	135078
16,01408	127308
16,01820	125117
16,02232	119641
16,02645	118647
16,03057	112479
16,03468	106434
16,03882	105562
16,04293	100039
16,04705	98186
16,05117	95424
16,05530	92384
16,05942	94552
16,06353	89466
16,06767	87342
16,07178	87323
16,07590	83507
16,08003	85463
16,08415	79638
16,08827	79059
16,09240	81064
16,09652	76933
16,10063	77705
16,10477	77032
16,10888	73471
16,11300	78420
16,11713	74231
16,12125	74624
16,12537	72466
16,12950	74817
16,13362	71596
16,13773	66884
16,14185	72788
16,14598	73347
16,15010	67824
16,15422	68848
16,15835	66136
16,16247	69926
16,16658	68476
16,17072	66376
16,17483	65769
16,17895	64505
16,18308	63187
16,18720	63162
16,19132	63555
16,19545	65023
16,19957	63485
16,20368	63920
16,20782	63128
16,21193	60162
16,21605	61038
16,22018	62507
16,22430	59857
16,22842	60350
16,23253	58246
16,23667	60794
16,24078	62533
16,24490	57261
16,24903	60561
16,25315	57254
16,25727	59882
16,26140	59896
16,26552	56436
16,26963	61661
16,27377	60685
16,27788	58676
16,28200	58489
16,28613	58159
16,29025	56238
16,29437	57901
16,29850	62067
16,30262	57205
16,30673	57159
16,31087	57874
16,31498	60508
16,31910	57840
16,32322	56035
16,32735	56776
16,33147	55997
16,33558	57382
16,33972	53297
16,34383	58894
16,34795	56191
16,35208	57333
16,35620	58037
16,36032	57403
16,36445	57629
16,36857	57675
16,37268	58306
16,37682	54530
16,38093	53844
16,38505	57067
16,38918	56984
16,39330	56745
16,39742	56917
16,40155	58705
16,40567	57483
16,40978	57899
16,41390	58572
16,41803	54075
16,42215	57421
16,42627	56777
16,43040	56090
16,43452	57780
16,43863	55974
16,44277	56175
16,44688	56268
16,45100	56902
16,45513	53171
16,45925	54755
16,46337	56631
16,46750	55623
16,47162	54538
16,47573	54903
16,47987	54070
16,48398	56032
16,48810	58667
16,49223	55217
16,49635	55946
16,50047	53608
16,50458	53153
16,50872	54930
16,51283	53138
16,51695	54754
16,52108	53401
16,52520	53921
16,52932	55762
16,53345	54293
16,53757	54969
16,54168	55785
16,54582	55323
16,54993	56753
16,55405	57800
16,55818	53548
16,56230	55642
16,56642	54739
16,57055	56597
16,57467	53352
16,57878	54135
16,58292	54734
16,58703	54233
16,59115	56441
16,59527	55408
16,59940	55508
16,60352	55818
16,60763	57045
16,61177	56685
16,61588	54195
16,62000	55779
16,62413	54615
16,62825	55974
16,63237	56633
16,63650	53634
16,64062	52836
16,64473	53700
16,64887	54254
16,65298	53933
16,65710	54580
16,66123	55337
16,66535	54357
16,66947	55240
