D:\MassHunter\GCMS\1\data\Amal\Constant flow\90C\90C_1ml-min_9C-min_3.D Wed Sep 18 20:23:36 2024
Start of data points
5,74088	202863
5,74502	189321
5,74913	180987
5,75325	170011
5,75738	161966
5,76150	154869
5,76562	148727
5,76973	143176
5,77387	137597
5,77798	137288
5,78210	131933
5,78623	126377
5,79035	121803
5,79447	118061
5,79860	115586
5,80272	113000
5,80683	110906
5,81097	106724
5,81508	105755
5,81920	103672
5,82333	101397
5,82745	96733
5,83157	94874
5,83570	92145
5,83982	91485
5,84393	92009
5,84807	86936
5,85218	89450
5,85630	85126
5,86042	84458
5,86455	83874
5,86867	82168
5,87278	81684
5,87692	82973
5,88103	79423
5,88515	80050
5,88928	78197
5,89340	74611
5,89752	75085
5,90165	74835
5,90577	77242
5,90988	74333
5,91402	73147
5,91813	73822
5,92225	72834
5,92638	70566
5,93050	70860
5,93462	72116
5,93875	71950
5,94287	70733
5,94698	70802
5,95110	71972
5,95523	67004
5,95935	70172
5,96347	70306
5,96760	69394
5,97172	70055
5,97583	66706
5,97997	69775
5,98408	71121
5,98820	66560
5,99233	68900
5,99645	67587
6,00057	66366
6,00470	66755
6,00882	67381
6,01293	64650
6,01707	66018
6,02118	65691
6,02530	66131
6,02943	64448
6,03355	64863
6,03767	64692
6,04178	65679
6,04592	64074
6,05003	63197
6,05415	62586
6,05828	63099
6,06240	63769
6,06652	61730
6,07065	62736
6,07477	61788
6,07888	63320
6,08302	62500
6,08713	61814
6,09125	61387
6,09538	62474
6,09950	60406
6,10362	58471
6,10775	60632
6,11187	58834
6,11598	63338
6,12012	57924
6,12423	58190
6,12835	57927
6,13247	59089
6,13660	57267
6,14072	58246
6,14483	57627
6,14897	56327
6,15308	58000
6,15720	58671
6,16133	57128
6,16545	60181
6,16957	55057
6,17370	58956
6,17782	58988
6,18193	57902
6,18607	56161
6,19018	57107
6,19430	56920
6,19843	57961
6,20255	57419
6,20667	57762
6,21080	57735
6,21492	58109
6,21903	56402
6,22315	58075
6,22728	57349
6,23140	53702
6,23552	52946
6,23965	55414
6,24377	53759
6,24788	53179
6,25202	54617
6,25613	56610
6,26025	52827
6,26438	55565
6,26850	57458
6,27262	53418
6,27675	52929
6,28087	54901
6,28498	53414
6,28912	53569
6,29323	50864
6,29735	53604
6,30148	52533
6,30560	51101
6,30972	53650
6,31383	54273
6,31797	53462
6,32208	52480
6,32620	51053
6,33033	48809
6,33445	51321
6,33857	50955
6,34270	49684
6,34682	49108
6,35093	49938
6,35507	49241
6,35918	46423
6,36330	48305
6,36743	46663
6,37155	47281
6,37567	47226
6,37980	47634
6,38392	48760
6,38803	45444
6,39217	48226
6,39628	47905
6,40040	48400
6,40452	49386
6,40865	49543
6,41277	49873
6,41688	49813
6,42102	52725
6,42513	53176
6,42925	53803
6,43338	53004
6,43750	53834
6,44162	53913
6,44575	52986
6,44987	54651
6,45398	54253
6,45812	54262
6,46223	54767
6,46635	57140
6,47048	54453
6,47460	55890
6,47872	57487
6,48285	58478
6,48697	58859
6,49108	57927
6,49522	58799
6,49933	59863
6,50345	61320
6,50757	59752
6,51170	60130
6,51582	58886
6,51993	60892
6,52407	59704
6,52818	56337
6,53230	58751
6,53643	58542
6,54055	56636
6,54467	56779
6,54880	56169
6,55292	53255
6,55703	54810
6,56117	55519
6,56528	50879
6,56940	51152
6,57353	51998
6,57765	48940
6,58177	47906
6,58590	48396
6,59002	48239
6,59413	45615
6,59825	44666
6,60238	44084
6,60650	47451
6,61062	44742
6,61475	44325
6,61887	44464
6,62298	44919
6,62712	43128
6,63123	43582
6,63535	43140
6,63948	42979
6,64360	42479
6,64772	41171
6,65185	42422
6,65597	43025
6,66008	43010
6,66422	41817
6,66833	41988
6,67245	42811
6,67658	42128
6,68070	42910
6,68482	40816
6,68893	42416
6,69307	40666
6,69718	38339
6,70130	41262
6,70543	39448
6,70955	39813
6,71367	39084
6,71780	39736
6,72192	38755
6,72603	39346
6,73017	38107
6,73428	37096
6,73840	37561
6,74253	37131
6,74665	37162
6,75077	36955
6,75490	37103
6,75902	36578
6,76313	36725
6,76727	37299
6,77138	36799
6,77550	38768
6,77962	38864
6,78375	44851
6,78787	55232
6,79198	76272
6,79612	116740
6,80023	183213
6,80435	284481
6,80848	424629
6,81260	588557
6,81672	759329
6,82085	932901
6,82497	1082155
6,82908	1189769
6,83322	1248286
6,83733	1262848
6,84145	1241217
6,84558	1205724
6,84970	1151172
6,85382	1072362
6,85795	1001243
6,86207	932854
6,86618	861894
6,87030	786109
6,87443	710701
6,87855	657134
6,88267	599149
6,88680	544575
6,89092	489618
6,89503	441927
6,89917	398943
6,90328	359324
6,90740	321135
6,91153	277415
6,91565	250201
6,91977	222248
6,92390	199334
6,92802	175762
6,93213	156928
6,93627	145180
6,94038	127537
6,94450	113642
6,94863	106057
6,95275	96868
6,95687	88888
6,96098	82452
6,96512	77883
6,96923	70728
6,97335	66305
6,97748	62405
6,98160	61736
6,98572	58359
6,98985	55592
6,99397	53459
6,99808	51918
7,00222	49345
7,00633	49463
7,01045	46878
7,01458	44626
7,01870	42745
7,02282	43193
7,02695	42316
7,03107	44550
7,03518	40046
7,03932	39844
7,04343	38246
7,04755	38145
7,05167	37581
7,05580	39046
7,05992	39830
7,06403	37258
7,06817	37660
7,07228	37332
7,07640	36766
7,08053	35736
7,08465	35397
7,08877	35910
7,09290	34088
7,09702	33512
7,10113	33279
7,10527	33369
7,10938	33867
7,11350	33192
7,11763	34471
7,12175	33946
7,12587	30986
7,13000	33316
7,13412	32424
7,13823	32315
7,14235	31827
7,14648	32975
7,15060	32109
7,15472	32416
7,15885	30501
7,16297	34158
7,16708	29217
7,17122	30468
7,17533	29942
7,17945	32501
7,18358	30476
7,18770	30991
7,19182	29004
7,19595	29415
7,20007	29517
7,20418	30840
7,20832	29818
7,21243	31334
7,21655	29302
7,22068	28933
7,22480	28591
7,22892	29998
7,23303	27222
7,23717	29760
7,24128	28144
7,24540	28638
7,24953	29601
7,25365	28975
7,25777	29045
7,26190	27452
7,26602	28479
7,27013	27087
7,27427	25791
7,27838	27821
7,28250	29016
7,28663	26382
7,29075	27493
7,29487	28602
7,29900	26974
7,30312	27850
7,30723	27326
7,31137	27152
7,31548	26711
7,31960	27928
7,32372	28930
7,32785	27912
7,33197	29454
7,33608	27398
7,34022	28832
7,34433	27061
7,34845	28476
7,35258	28169
7,35670	26770
7,36082	26139
7,36495	26962
7,36907	28557
7,37318	26594
7,37732	28099
7,38143	28282
7,38555	27495
7,38968	29082
7,39380	28260
7,39792	28755
7,40205	27191
7,40617	28901
7,41028	26908
7,41440	28483
7,41853	27276
7,42265	29710
7,42677	29346
7,43090	27455
7,43502	29020
7,43913	28270
7,44327	29116
7,44738	28827
7,45150	26776
7,45563	27567
7,45975	28363
7,46387	26954
7,46800	26687
7,47212	28660
7,47623	24781
7,48037	25710
7,48448	26208
7,48860	24155
7,49273	25431
7,49685	27366
7,50097	25738
7,50508	24060
7,50922	25343
7,51333	24372
7,51745	25350
7,52158	25685
7,52570	25216
7,52982	24065
7,53395	24012
7,53807	24339
7,54218	24435
7,54632	24684
7,55043	24392
7,55455	24889
7,55868	24093
7,56280	23319
7,56692	24064
7,57105	25036
7,57517	24279
7,57928	24186
7,58342	24382
7,58753	24121
7,59165	25165
7,59577	25996
7,59990	25470
7,60402	25094
7,60813	25395
7,61227	25730
7,61638	25482
7,62050	27207
7,62463	26390
7,62875	26107
7,63287	26626
7,63700	25256
7,64112	26519
7,64523	26253
7,64937	24496
7,65348	25709
7,65760	22931
7,66173	24587
7,66585	26063
7,66997	20883
7,67410	22707
7,67822	22955
7,68233	24603
7,68645	24072
7,69058	23582
7,69470	22251
7,69882	24948
7,70295	23335
7,70707	23703
7,71118	21817
7,71532	22989
7,71943	22948
7,72355	24272
7,72768	24404
7,73180	24892
7,73592	25265
7,74005	23998
7,74417	25994
7,74828	24225
7,75242	24113
7,75653	26045
7,76065	27916
7,76478	27587
7,76890	26874
7,77302	27932
7,77713	26659
7,78127	27394
7,78538	28471
7,78950	27774
7,79363	28481
7,79775	26941
7,80187	27350
7,80600	26827
7,81012	26351
7,81423	25818
7,81837	27853
7,82248	25311
7,82660	24579
7,83073	25234
7,83485	23684
7,83897	24024
7,84310	21635
7,84722	22368
7,85133	23571
7,85547	23743
7,85958	22111
7,86370	21919
7,86782	21397
7,87195	23696
7,87607	20915
7,88018	23066
7,88432	22647
7,88843	21035
7,89255	22273
7,89668	20121
7,90080	22378
7,90492	21044
7,90905	21120
7,91317	21782
7,91728	21894
7,92142	22212
7,92553	21882
7,92965	22628
7,93378	21082
7,93790	20939
7,94202	21338
7,94615	20509
7,95027	21063
7,95438	21266
7,95852	21494
7,96263	20469
7,96675	21259
7,97087	20763
7,97500	21038
7,97912	20754
7,98323	20475
7,98737	21221
7,99148	19526
7,99560	20258
7,99973	20155
8,00385	19838
8,00797	20960
8,01210	19915
8,01622	21922
8,02033	20732
8,02447	20440
8,02858	20239
8,03270	19991
8,03683	21297
8,04095	19991
8,04507	18822
8,04920	18604
8,05332	18504
8,05743	19709
8,06155	18958
8,06568	19261
8,06980	21206
8,07392	20669
8,07805	19056
8,08217	19516
8,08628	19436
8,09042	18361
8,09453	20018
8,09865	19658
8,10278	20652
8,10690	20316
8,11102	19688
8,11515	20175
8,11927	19742
8,12338	20531
8,12752	20350
8,13163	19599
8,13575	19414
8,13988	18291
8,14400	19498
8,14812	20156
8,15223	18115
8,15637	19752
8,16048	20470
8,16460	18958
8,16873	19385
8,17285	19574
8,17697	19200
8,18110	18328
8,18522	18380
8,18933	18734
8,19347	18478
8,19758	20114
8,20170	20163
8,20583	19152
8,20995	18933
8,21407	19044
8,21820	19749
8,22232	19736
8,22643	20003
8,23057	19371
8,23468	19446
8,23880	21166
8,24292	19152
8,24705	20632
8,25117	20967
8,25528	21744
8,25942	21723
8,26353	21750
8,26765	20830
8,27178	20652
8,27590	21227
8,28002	19566
8,28415	20428
8,28827	19619
8,29238	20810
8,29652	21160
8,30063	20722
8,30475	19769
8,30888	17777
8,31300	17337
8,31712	18474
8,32125	18175
8,32537	18120
8,32948	17215
8,33360	18949
8,33773	18410
8,34185	19033
8,34597	18579
8,35010	17510
8,35422	18738
8,35833	18963
8,36247	16446
8,36658	17255
8,37070	17611
8,37483	16887
8,37895	18093
8,38307	19533
8,38720	18805
8,39132	19709
8,39543	18037
8,39957	19039
8,40368	18169
8,40780	20879
8,41193	24611
8,41605	36417
8,42017	59026
8,42428	102630
8,42842	172060
8,43253	291549
8,43665	466701
8,44078	701085
8,44490	973447
8,44902	1257418
8,45315	1536821
8,45727	1747506
8,46138	1899204
8,46552	1993149
8,46963	1982857
8,47375	1907692
8,47788	1761308
8,48200	1595646
8,48612	1400946
8,49025	1236283
8,49437	1048036
8,49848	879614
8,50262	749904
8,50673	623475
8,51085	510449
8,51497	426198
8,51910	353362
8,52322	291957
8,52733	249402
8,53147	211842
8,53558	182213
8,53970	156892
8,54383	140291
8,54795	120078
8,55207	111088
8,55620	100320
8,56032	90666
8,56443	81824
8,56857	74250
8,57268	72123
8,57680	66261
8,58093	60890
8,58505	59683
8,58917	53431
8,59330	52484
8,59742	48920
8,60153	47370
8,60565	42157
8,60978	43601
8,61390	40256
8,61802	37725
8,62215	36913
8,62627	35013
8,63038	34044
8,63452	34601
8,63863	32415
8,64275	32157
8,64688	33579
8,65100	31734
8,65512	31031
8,65925	27710
8,66337	28182
8,66748	28587
8,67162	27552
8,67573	27443
8,67985	26867
8,68398	25527
8,68810	26340
8,69222	26216
8,69633	24561
8,70047	25674
8,70458	24644
8,70870	24212
8,71283	23759
8,71695	21757
8,72107	21576
8,72520	23219
8,72932	21985
8,73343	23007
8,73757	22071
8,74168	21619
8,74580	22771
8,74993	22308
8,75405	21835
8,75817	20386
8,76230	22284
8,76642	22874
8,77053	22850
8,77467	22049
8,77878	21971
8,78290	23100
8,78702	21267
8,79115	23665
8,79527	22629
8,79938	21931
8,80352	23301
8,80763	22060
8,81175	21765
8,81588	21468
8,82000	21571
8,82412	20085
8,82825	21430
8,83237	20554
8,83648	19161
8,84062	19223
8,84473	20535
8,84885	20501
8,85298	19535
8,85710	22021
8,86122	19337
8,86535	20290
8,86947	19903
8,87358	19082
8,87770	18967
8,88183	18587
8,88595	18314
8,89007	19999
8,89420	18492
8,89832	20107
8,90243	18723
8,90657	17454
8,91068	18217
8,91480	17599
8,91893	17975
8,92305	17677
8,92717	17574
8,93130	17070
8,93542	17144
8,93953	17838
8,94367	16700
8,94778	17289
8,95190	16804
8,95603	17673
8,96015	16575
8,96427	17828
8,96838	16852
8,97252	16477
8,97663	17512
8,98075	17786
8,98488	17631
8,98900	16999
8,99312	17757
8,99725	17060
9,00137	17220
9,00548	18280
9,00962	16717
9,01373	18362
9,01785	19073
9,02198	16958
9,02610	17802
9,03022	17210
9,03435	17194
9,03847	17139
9,04258	18169
9,04672	17661
9,05083	17149
9,05495	16521
9,05907	16775
9,06320	15830
9,06732	15754
9,07143	15900
9,07557	15639
9,07968	16356
9,08380	16873
9,08793	16488
9,09205	16261
9,09617	16460
9,10030	16097
9,10442	16972
9,10853	15406
9,11267	15585
9,11678	16793
9,12090	17199
9,12503	17117
9,12915	17768
9,13327	17252
9,13740	17311
9,14152	17819
9,14563	18594
9,14975	18398
9,15388	19425
9,15800	18253
9,16212	18894
9,16625	18689
9,17037	17792
9,17448	16875
9,17862	17853
9,18273	18475
9,18685	18111
9,19098	16375
9,19510	16974
9,19922	16735
9,20335	16925
9,20747	17194
9,21158	16724
9,21572	16448
9,21983	16290
9,22395	16197
9,22808	16280
9,23220	15855
9,23632	16078
9,24043	15131
9,24457	15311
9,24868	16142
9,25280	14364
9,25693	15660
9,26105	15347
9,26517	14618
9,26930	15149
9,27342	14518
9,27753	14237
9,28167	14533
9,28578	14441
9,28990	15302
9,29403	16043
9,29815	17312
9,30227	24102
9,30640	36485
9,31052	63877
9,31463	104220
9,31877	177872
9,32288	283446
9,32700	424298
9,33112	599699
9,33525	779360
9,33937	957377
9,34348	1077738
9,34762	1168160
9,35173	1176576
9,35585	1146851
9,35998	1061237
9,36410	946670
9,36822	821779
9,37235	696610
9,37647	573040
9,38058	470996
9,38472	387811
9,38883	311801
9,39295	254124
9,39708	206461
9,40120	169928
9,40532	141878
9,40945	121609
9,41357	103984
9,41768	93612
9,42180	82099
9,42593	71386
9,43005	64209
9,43417	60577
9,43830	53792
9,44242	50658
9,44653	48365
9,45067	46010
9,45478	43043
9,45890	40564
9,46303	40258
9,46715	39015
9,47127	38892
9,47540	37140
9,47952	36646
9,48363	33691
9,48777	34970
9,49188	32642
9,49600	31620
9,50013	30662
9,50425	30729
9,50837	28461
9,51250	27102
9,51662	26471
9,52073	25516
9,52485	23418
9,52898	23444
9,53310	23113
9,53722	22641
9,54135	23281
9,54547	21736
9,54958	21997
9,55372	20183
9,55783	22428
9,56195	20916
9,56608	20586
9,57020	18787
9,57432	19479
9,57845	19386
9,58257	19545
9,58668	18655
9,59082	17918
9,59493	18804
9,59905	18321
9,60318	17524
9,60730	15796
9,61142	17473
9,61553	16092
9,61967	17485
9,62378	16371
9,62790	16319
9,63203	16112
9,63615	17528
9,64027	17547
9,64440	16971
9,64852	15061
9,65263	15992
9,65677	16295
9,66088	17290
9,66500	17285
9,66913	17895
9,67325	18388
9,67737	20688
9,68150	21872
9,68562	21079
9,68973	21837
9,69387	20752
9,69798	20330
9,70210	20170
9,70622	18940
9,71035	18042
9,71447	16284
9,71858	17878
9,72272	15896
9,72683	16500
9,73095	15507
9,73508	14912
9,73920	14335
9,74332	15708
9,74745	14537
9,75157	14145
9,75568	13925
9,75982	13643
9,76393	14668
9,76805	15234
9,77218	14103
9,77630	14125
9,78042	14591
9,78455	14735
9,78867	12815
9,79278	13252
9,79690	14971
9,80103	14767
9,80515	14019
9,80927	14104
9,81340	15501
9,81752	14043
9,82163	14257
9,82577	13526
9,82988	13291
9,83400	13667
9,83813	14317
9,84225	13250
9,84637	12665
9,85050	13170
9,85462	13269
9,85873	13742
9,86287	12793
9,86698	12796
9,87110	12481
9,87523	13660
9,87935	12685
9,88347	13158
9,88758	13462
9,89172	12759
9,89583	12552
9,89995	13060
9,90408	13222
9,90820	13840
9,91232	13369
9,91645	13483
9,92057	13109
9,92468	12671
9,92882	14172
9,93293	14122
9,93705	13496
9,94118	13902
9,94530	12796
9,94942	12817
9,95355	13731
9,95767	14401
9,96178	13361
9,96592	13875
9,97003	13327
9,97415	13524
9,97827	12928
9,98240	13829
9,98652	13837
9,99063	13864
9,99477	13537
9,99888	12865
10,00300	13071
10,00713	12999
10,01125	13413
10,01537	13906
10,01950	13870
10,02362	13623
10,02773	13654
10,03187	14117
10,03598	13632
10,04010	14397
10,04423	15307
10,04835	12713
10,05247	12678
10,05660	14981
10,06072	13651
10,06483	14900
10,06895	13764
10,07308	14646
10,07720	12522
10,08132	13328
10,08545	12852
10,08957	13007
10,09368	13441
10,09782	13559
10,10193	13712
10,10605	13316
10,11018	12928
10,11430	13318
10,11842	12398
10,12255	13450
10,12667	14102
10,13078	14338
10,13492	12829
10,13903	14411
10,14315	13538
10,14728	14537
10,15140	14021
10,15552	12901
10,15963	14555
10,16377	13038
10,16788	14551
10,17200	14235
10,17613	13866
10,18025	14232
10,18437	15205
10,18850	19966
10,19262	27807
10,19673	47405
10,20087	90259
10,20498	166994
10,20910	306279
10,21323	522111
10,21735	843127
10,22147	1221552
10,22560	1641225
10,22972	2045409
10,23383	2407373
10,23797	2630941
10,24208	2728565
10,24620	2646094
10,25032	2415274
10,25445	2107092
10,25857	1779914
10,26268	1449325
10,26682	1177230
10,27093	923468
10,27505	725949
10,27918	575436
10,28330	455182
10,28742	368920
10,29155	301532
10,29567	254634
10,29978	212615
10,30392	181775
10,30803	161929
10,31215	141752
10,31628	123856
10,32040	111268
10,32452	99858
10,32865	90127
10,33277	80988
10,33688	75696
10,34100	68675
10,34513	64681
10,34925	60685
10,35337	55760
10,35750	53632
10,36162	48968
10,36573	45307
10,36987	43267
10,37398	42513
10,37810	39380
10,38223	39455
10,38635	38408
10,39047	34486
10,39460	34908
10,39872	32726
10,40283	31819
10,40697	28093
10,41108	29562
10,41520	29036
10,41933	28872
10,42345	27051
10,42757	26818
10,43168	26637
10,43582	25285
10,43993	23243
10,44405	24299
10,44818	24619
10,45230	23174
10,45642	22828
10,46055	23256
10,46467	21103
10,46878	21640
10,47292	19962
10,47703	19836
10,48115	20029
10,48528	20911
10,48940	19238
10,49352	19617
10,49765	18224
10,50177	18794
10,50588	20009
10,51002	18239
10,51413	19115
10,51825	16583
10,52237	17086
10,52650	18228
10,53062	18376
10,53473	15392
10,53887	16195
10,54298	15933
10,54710	16779
10,55123	16200
10,55535	15768
10,55947	15263
10,56360	15338
10,56772	13938
10,57183	16133
10,57597	15503
10,58008	15737
10,58420	15052
10,58833	13617
10,59245	15667
10,59657	15477
10,60070	13506
10,60482	14571
10,60893	15824
10,61305	14725
10,61718	15206
10,62130	16840
10,62542	15471
10,62955	16739
10,63367	15249
10,63778	13621
10,64192	15185
10,64603	15943
10,65015	15897
10,65428	15614
10,65840	15063
10,66252	14449
10,66665	14969
10,67077	15827
10,67488	14733
10,67902	14760
10,68313	15606
10,68725	16077
10,69138	15654
10,69550	15839
10,69962	16319
10,70373	16736
10,70787	15600
10,71198	16172
10,71610	15429
10,72023	14946
10,72435	17183
10,72847	15762
10,73260	15164
10,73672	15414
10,74083	15546
10,74497	13877
10,74908	14713
10,75320	15006
10,75733	15317
10,76145	15269
10,76557	15593
10,76970	17478
10,77382	17201
10,77793	19479
10,78207	21387
10,78618	22031
10,79030	27587
10,79442	25806
10,79855	27352
10,80267	27593
10,80678	27231
10,81092	25013
10,81503	24781
10,81915	22800
10,82328	21900
10,82740	19491
10,83152	18818
10,83565	18148
10,83977	17106
10,84388	17504
10,84802	17027
10,85213	13723
10,85625	15119
10,86038	14947
10,86450	15100
10,86862	14797
10,87275	12810
10,87687	13311
10,88098	13979
10,88510	12697
10,88923	12258
10,89335	12990
10,89747	12515
10,90160	13021
10,90572	12879
10,90983	12837
10,91397	11975
10,91808	13050
10,92220	12965
10,92633	12528
10,93045	12264
10,93457	11959
10,93870	12107
10,94282	12593
10,94693	11982
10,95107	11369
10,95518	12232
10,95930	11553
10,96343	13180
10,96755	13382
10,97167	12725
10,97578	11761
10,97992	12890
10,98403	12689
10,98815	11471
10,99228	11772
10,99640	12390
11,00052	11372
11,00465	12308
11,00877	11107
11,01288	11939
11,01702	11618
11,02113	12670
11,02525	12638
11,02938	12993
11,03350	11558
11,03762	11629
11,04175	13339
11,04587	12664
11,04998	12578
11,05412	11784
11,05823	12058
11,06235	12067
11,06647	14171
11,07060	18216
11,07472	28015
11,07883	47738
11,08297	86027
11,08708	163315
11,09120	277003
11,09533	454931
11,09945	681523
11,10357	936448
11,10770	1167836
11,11182	1361853
11,11593	1468929
11,12007	1483475
11,12418	1412254
11,12830	1259371
11,13243	1074986
11,13655	880280
11,14067	703404
11,14480	573124
11,14892	441007
11,15303	352749
11,15717	276597
11,16128	221479
11,16540	183272
11,16952	153843
11,17365	127759
11,17777	109568
11,18188	94327
11,18602	82264
11,19013	73419
11,19425	65111
11,19838	57521
11,20250	55091
11,20662	48800
11,21075	46932
11,21487	43488
11,21898	38732
11,22312	37424
11,22723	32813
11,23135	33771
11,23548	31126
11,23960	29767
11,24372	27617
11,24785	27041
11,25197	24828
11,25608	26353
11,26020	24244
11,26433	23715
11,26845	22546
11,27257	21235
11,27670	20607
11,28082	20706
11,28493	20318
11,28907	20746
11,29318	18606
11,29730	18962
11,30143	19263
11,30555	18997
11,30967	17494
11,31380	18771
11,31792	17075
11,32203	18218
11,32617	15119
11,33028	17694
11,33440	16220
11,33853	16571
11,34265	15857
11,34677	16380
11,35088	14747
11,35502	15122
11,35913	15763
11,36325	14280
11,36738	14810
11,37150	13185
11,37562	14337
11,37975	15423
11,38387	13563
11,38798	13605
11,39212	13570
11,39623	14305
11,40035	11688
11,40448	12664
11,40860	14159
11,41272	11380
11,41685	11542
11,42097	13639
11,42508	12746
11,42922	13786
11,43333	13425
11,43745	13762
11,44157	13330
11,44570	13824
11,44982	13584
11,45393	13618
11,45807	12475
11,46218	12933
11,46630	12948
11,47043	13415
11,47455	12117
11,47867	12366
11,48280	11514
11,48692	11755
11,49103	11329
11,49517	10851
11,49928	11365
11,50340	12483
11,50753	10867
11,51165	12916
11,51577	14289
11,51990	11731
11,52402	14022
11,52813	14401
11,53225	14107
11,53638	18201
11,54050	18669
11,54462	18504
11,54875	18779
11,55287	17813
11,55698	18571
11,56112	17240
11,56523	15250
11,56935	13598
11,57348	15235
11,57760	14945
11,58172	12091
11,58585	13069
11,58997	12664
11,59408	11772
11,59822	12486
11,60233	11798
11,60645	11627
11,61058	11064
11,61470	10638
11,61882	10932
11,62293	10824
11,62707	11553
11,63118	11551
11,63530	11722
11,63943	10284
11,64355	11340
11,64767	10242
11,65180	11173
11,65592	13617
11,66003	13377
11,66417	14480
11,66828	14918
11,67240	15939
11,67653	17638
11,68065	18668
11,68477	16531
11,68890	17529
11,69302	16773
11,69713	17464
11,70127	17742
11,70538	16118
11,70950	15711
11,71362	15284
11,71775	13869
11,72187	13727
11,72598	13448
11,73012	14084
11,73423	12843
11,73835	13158
11,74248	12753
11,74660	11362
11,75072	13502
11,75485	12917
11,75897	11945
11,76308	11521
11,76722	11818
11,77133	11326
11,77545	11771
11,77958	12434
11,78370	13529
11,78782	11661
11,79195	12376
11,79607	12412
11,80018	10191
11,80430	11577
11,80843	11963
11,81255	11619
11,81667	12025
11,82080	10291
11,82492	10822
11,82903	12337
11,83317	10708
11,83728	11831
11,84140	10839
11,84553	11473
11,84965	10528
11,85377	10905
11,85790	10218
11,86202	9103
11,86613	10453
11,87027	10613
11,87438	10627
11,87850	10429
11,88263	9910
11,88675	9518
11,89087	10225
11,89498	10309
11,89912	10623
11,90323	11035
11,90735	11195
11,91148	11747
11,91560	12208
11,91972	14075
11,92385	19609
11,92797	34222
11,93208	65768
11,93622	132103
11,94033	254960
11,94445	472240
11,94858	791406
11,95270	1226795
11,95682	1771420
11,96095	2313640
11,96507	2802358
11,96918	3135477
11,97332	3250921
11,97743	3151676
11,98155	2892951
11,98567	2477274
11,98980	2053826
11,99392	1632953
11,99803	1271550
12,00217	985163
12,00628	759527
12,01040	594465
12,01453	477210
12,01865	388122
12,02277	319374
12,02690	261844
12,03102	223982
12,03513	191075
12,03927	167462
12,04338	144356
12,04750	129211
12,05163	114928
12,05575	103454
12,05987	94171
12,06400	85343
12,06812	78228
12,07223	73766
12,07635	65713
12,08048	60537
12,08460	56472
12,08872	54577
12,09285	50105
12,09697	46756
12,10108	44209
12,10522	42013
12,10933	41119
12,11345	38811
12,11758	38308
12,12170	33838
12,12582	32588
12,12995	33350
12,13407	32295
12,13818	31649
12,14232	32678
12,14643	32627
12,15055	34096
12,15468	36035
12,15880	35182
12,16292	36529
12,16703	34275
12,17117	33363
12,17528	32084
12,17940	31204
12,18353	29063
12,18765	25486
12,19177	25605
12,19590	25420
12,20002	22633
12,20413	21188
12,20827	21284
12,21238	21176
12,21650	21093
12,22063	20088
12,22475	19581
12,22887	19452
12,23300	17891
12,23712	16466
12,24123	17093
12,24537	17843
12,24948	17128
12,25360	16834
12,25772	15377
12,26185	15982
12,26597	16673
12,27008	15269
12,27422	15819
12,27833	15981
12,28245	14950
12,28658	15475
12,29070	13892
12,29482	14877
12,29895	14726
12,30307	16290
12,30718	15032
12,31132	15556
12,31543	15562
12,31955	16403
12,32368	15994
12,32780	16682
12,33192	16083
12,33605	14608
12,34017	14907
12,34428	14622
12,34840	15312
12,35253	15758
12,35665	15575
12,36077	16030
12,36490	15990
12,36902	15768
12,37313	16620
12,37727	17764
12,38138	17190
12,38550	19222
12,38963	17048
12,39375	15767
12,39787	15989
12,40200	15673
12,40612	15064
12,41023	14925
12,41437	13806
12,41848	13354
12,42260	12946
12,42673	12998
12,43085	13050
12,43497	13897
12,43908	11605
12,44322	12639
12,44733	11530
12,45145	12094
12,45558	10890
12,45970	11326
12,46382	11070
12,46795	12008
12,47207	11962
12,47618	11105
12,48032	12835
12,48443	12941
12,48855	10148
12,49268	11230
12,49680	10752
12,50092	10978
12,50505	11681
12,50917	12080
12,51328	13034
12,51742	17319
12,52153	21622
12,52565	39589
12,52977	70843
12,53390	129779
12,53802	230357
12,54213	390455
12,54627	600907
12,55038	847638
12,55450	1106712
12,55863	1322424
12,56275	1448764
12,56687	1493742
12,57100	1448196
12,57512	1319432
12,57923	1135031
12,58337	934835
12,58748	755858
12,59160	600095
12,59573	464361
12,59985	365171
12,60397	288740
12,60810	235385
12,61222	194117
12,61633	164662
12,62045	140488
12,62458	122847
12,62870	109970
12,63282	100973
12,63695	91826
12,64107	88255
12,64518	79361
12,64932	75430
12,65343	67987
12,65755	61720
12,66168	58282
12,66580	52276
12,66992	46755
12,67405	43291
12,67817	39854
12,68228	38496
12,68642	33970
12,69053	31353
12,69465	31875
12,69878	27735
12,70290	28339
12,70702	24802
12,71113	24951
12,71527	24201
12,71938	22317
12,72350	23296
12,72763	22813
12,73175	21505
12,73587	20788
12,74000	21023
12,74412	21114
12,74823	25332
12,75237	30283
12,75648	52194
12,76060	94620
12,76473	164011
12,76885	294890
12,77297	490118
12,77710	744970
12,78122	1042865
12,78533	1318159
12,78947	1552449
12,79358	1704171
12,79770	1724596
12,80183	1628966
12,80595	1444571
12,81007	1207110
12,81418	970215
12,81832	765723
12,82243	588556
12,82655	460467
12,83068	362468
12,83480	286334
12,83892	228105
12,84305	190607
12,84717	155104
12,85128	132737
12,85542	112412
12,85953	100367
12,86365	88095
12,86778	76333
12,87190	71859
12,87602	63502
12,88015	57828
12,88427	56159
12,88838	48949
12,89252	43932
12,89663	41385
12,90075	40764
12,90487	35223
12,90900	34489
12,91312	34919
12,91723	29919
12,92137	30531
12,92548	29382
12,92960	29001
12,93373	26334
12,93785	25500
12,94197	22851
12,94610	24999
12,95022	22980
12,95433	22356
12,95847	21025
12,96258	22047
12,96670	20750
12,97083	20329
12,97495	18816
12,97907	19357
12,98320	19063
12,98732	17897
12,99143	17935
12,99555	19102
12,99968	17716
13,00380	17747
13,00792	15271
13,01205	16051
13,01617	15861
13,02028	16332
13,02442	14944
13,02853	15687
13,03265	16654
13,03678	14360
13,04090	14450
13,04502	15016
13,04915	15247
13,05327	14551
13,05738	14641
13,06152	14564
13,06563	15216
13,06975	13935
13,07388	13514
13,07800	14401
13,08212	13943
13,08623	14122
13,09037	14756
13,09448	13621
13,09860	11302
13,10273	13358
13,10685	12524
13,11097	12836
13,11510	11705
13,11922	12625
13,12333	11476
13,12747	12700
13,13158	13402
13,13570	13509
13,13983	14021
13,14395	13038
13,14807	12831
13,15220	13155
13,15632	12344
13,16043	13243
13,16457	13396
13,16868	13939
13,17280	13530
13,17692	12524
13,18105	13683
13,18517	13945
13,18928	14737
13,19342	13447
13,19753	13274
13,20165	14955
13,20578	13644
13,20990	12959
13,21402	13558
13,21815	15064
13,22227	13963
13,22638	12655
13,23052	13682
13,23463	11979
13,23875	11299
13,24288	12620
13,24700	11446
13,25112	11780
13,25525	12795
13,25937	12496
13,26348	12211
13,26760	12887
13,27173	12141
13,27585	12738
13,27997	12762
13,28410	11215
13,28822	13238
13,29233	12092
13,29647	11510
13,30058	13094
13,30470	10644
13,30883	12293
13,31295	12611
13,31707	13770
13,32120	12437
13,32532	13760
13,32943	16713
13,33357	24082
13,33768	43263
13,34180	76726
13,34593	146326
13,35005	257555
13,35417	428109
13,35828	662078
13,36242	933239
13,36653	1211425
13,37065	1430877
13,37478	1579255
13,37890	1615469
13,38302	1547379
13,38715	1371469
13,39127	1162373
13,39538	963995
13,39952	760918
13,40363	598802
13,40775	471805
13,41188	367198
13,41600	288853
13,42012	229816
13,42425	189647
13,42837	161324
13,43248	136075
13,43662	118243
13,44073	102784
13,44485	91713
13,44897	79312
13,45310	71545
13,45722	62614
13,46133	57258
13,46547	53575
13,46958	50893
13,47370	49215
13,47783	43694
13,48195	42396
13,48607	40580
13,49020	37915
13,49432	37272
13,49843	35126
13,50257	33824
13,50668	32558
13,51080	32029
13,51493	30025
13,51905	28346
13,52317	27087
13,52730	28165
13,53142	28297
13,53553	25640
13,53965	31771
13,54378	48092
13,54790	80528
13,55202	155281
13,55615	303390
13,56027	561437
13,56438	968593
13,56852	1570787
13,57263	2327936
13,57675	3211469
13,58088	4104350
13,58500	4872383
13,58912	5365489
13,59325	5549054
13,59737	5270357
13,60148	4640586
13,60562	3896070
13,60973	3113752
13,61385	2404058
13,61798	1844161
13,62210	1398057
13,62622	1078598
13,63033	846675
13,63447	686305
13,63858	557151
13,64270	460893
13,64683	386675
13,65095	329476
13,65507	282773
13,65920	250016
13,66332	218238
13,66743	196107
13,67157	173730
13,67568	155328
13,67980	142413
13,68393	129462
13,68805	120764
13,69217	107960
13,69630	104400
13,70042	95661
13,70453	87415
13,70867	81262
13,71278	78523
13,71690	72240
13,72102	66343
13,72515	64216
13,72927	59831
13,73338	56850
13,73752	54936
13,74163	53419
13,74575	48919
13,74988	48511
13,75400	43302
13,75812	42667
13,76225	42204
13,76637	40531
13,77048	39262
13,77462	38767
13,77873	36999
13,78285	34719
13,78698	35417
13,79110	32463
13,79522	32716
13,79935	29714
13,80347	31069
13,80758	28380
13,81170	29165
13,81583	29020
13,81995	27164
13,82407	26738
13,82820	26656
13,83232	26038
13,83643	24409
13,84057	24222
13,84468	24853
13,84880	23264
13,85293	21418
13,85705	22277
13,86117	22127
13,86530	22405
13,86942	22048
13,87353	21633
13,87767	23803
13,88178	21288
13,88590	21887
13,89003	22986
13,89415	23742
13,89827	20863
13,90238	22433
13,90652	21829
13,91063	21275
13,91475	20415
13,91888	18022
13,92300	20721
13,92712	19363
13,93125	17423
13,93537	15822
13,93948	16796
13,94362	16353
13,94773	15652
13,95185	18425
13,95598	15991
13,96010	16216
13,96422	16730
13,96835	18558
13,97247	19897
13,97658	19994
13,98072	18782
13,98483	18190
13,98895	17143
13,99307	18747
13,99720	17916
14,00132	18404
14,00543	19390
14,00957	26053
14,01368	39246
14,01780	70403
14,02193	128717
14,02605	227010
14,03017	384747
14,03430	610878
14,03842	888718
14,04253	1190246
14,04667	1457353
14,05078	1622018
14,05490	1674983
14,05903	1623920
14,06315	1483517
14,06727	1276606
14,07140	1041328
14,07552	831507
14,07963	651922
14,08375	512827
14,08788	399430
14,09200	322736
14,09612	259213
14,10025	211785
14,10437	178040
14,10848	149982
14,11262	132256
14,11673	114417
14,12085	102369
14,12498	94469
14,12910	83755
14,13322	79115
14,13735	79545
14,14147	75033
14,14558	75042
14,14972	75309
14,15383	77890
14,15795	73815
14,16208	71262
14,16620	67003
14,17032	62615
14,17443	59162
14,17857	51001
14,18268	50608
14,18680	45020
14,19093	42920
14,19505	39192
14,19917	37710
14,20330	34959
14,20742	34382
14,21153	32582
14,21567	30816
14,21978	30266
14,22390	28399
14,22803	24269
14,23215	25021
14,23627	25186
14,24040	24746
14,24452	24489
14,24863	22918
14,25277	24865
14,25688	24881
14,26100	22007
14,26512	21902
14,26925	22054
14,27337	21945
14,27748	22760
14,28162	20505
14,28573	20632
14,28985	19162
14,29398	20895
14,29810	22294
14,30222	26686
14,30635	38871
14,31047	65494
14,31458	122399
14,31872	228987
14,32283	400404
14,32695	652475
14,33108	980833
14,33520	1316685
14,33932	1639709
14,34345	1856224
14,34757	1955435
14,35168	1915402
14,35582	1744009
14,35993	1494012
14,36405	1224121
14,36817	964535
14,37230	748678
14,37642	581613
14,38053	450050
14,38467	356157
14,38878	283078
14,39290	235981
14,39703	195173
14,40115	160263
14,40527	141591
14,40940	122501
14,41352	110684
14,41763	97127
14,42177	87519
14,42588	80460
14,43000	73108
14,43413	67201
14,43825	61357
14,44237	57373
14,44650	53774
14,45062	49758
14,45473	45961
14,45885	43734
14,46298	42082
14,46710	41345
14,47122	37852
14,47535	36795
14,47947	32463
14,48358	33924
14,48772	30505
14,49183	30545
14,49595	30261
14,50008	30537
14,50420	29327
14,50832	26901
14,51245	26899
14,51657	27224
14,52068	27700
14,52482	26647
14,52893	27465
14,53305	26260
14,53718	24661
14,54130	24653
14,54542	25536
14,54953	22571
14,55367	24714
14,55778	21889
14,56190	22143
14,56603	20500
14,57015	20675
14,57427	19078
14,57840	19120
14,58252	19290
14,58663	20071
14,59077	19924
14,59488	19772
14,59900	18048
14,60313	19022
14,60725	19558
14,61137	20188
14,61550	19376
14,61962	18474
14,62373	18895
14,62787	17555
14,63198	18407
14,63610	18357
14,64022	18289
14,64435	19663
14,64847	17207
14,65258	18805
14,65672	19160
14,66083	16252
14,66495	17691
14,66908	18230
14,67320	17079
14,67732	15949
14,68145	16196
14,68557	14901
14,68968	16598
14,69382	16460
14,69793	16018
14,70205	15913
14,70618	16463
14,71030	15649
14,71442	13869
14,71855	14521
14,72267	14920
14,72678	15023
14,73090	14232
14,73503	14867
14,73915	15363
14,74327	16515
14,74740	16726
14,75152	18586
14,75563	23676
14,75977	36423
14,76388	63115
14,76800	114785
14,77213	208293
14,77625	363510
14,78037	573658
14,78450	856124
14,78862	1174150
14,79273	1479567
14,79687	1703333
14,80098	1818825
14,80510	1808507
14,80923	1663696
14,81335	1469135
14,81747	1232220
14,82158	995297
14,82572	781294
14,82983	616423
14,83395	478997
14,83808	376276
14,84220	305466
14,84632	251886
14,85045	207761
14,85457	170814
14,85868	152261
14,86282	130980
14,86693	111029
14,87105	99136
14,87518	87958
14,87930	80293
14,88342	74791
14,88755	68300
14,89167	63644
14,89578	57836
14,89992	55058
14,90403	51742
14,90815	48979
14,91227	45566
14,91640	43495
14,92052	43123
14,92463	40759
14,92877	38568
14,93288	36129
14,93700	36958
14,94113	33981
14,94525	34516
14,94937	34442
14,95350	32785
14,95762	28859
14,96173	31005
14,96587	27911
14,96998	30682
14,97410	26996
14,97823	27111
14,98235	28418
14,98647	27139
14,99060	27633
14,99472	26484
14,99883	25153
15,00295	24215
15,00708	24726
15,01120	23778
15,01532	26058
15,01945	26342
15,02357	27937
15,02768	32565
15,03182	42803
15,03593	58927
15,04005	94770
15,04418	166716
15,04830	293677
15,05242	519503
15,05655	876057
15,06067	1377114
15,06478	2015619
15,06892	2737159
15,07303	3417252
15,07715	3973352
15,08128	4260646
15,08540	4267005
15,08952	3977236
15,09363	3436446
15,09777	2806361
15,10188	2211522
15,10600	1717071
15,11013	1322181
15,11425	1035724
15,11837	805373
15,12250	640990
15,12662	532374
15,13073	437374
15,13487	368014
15,13898	316720
15,14310	270991
15,14723	235734
15,15135	209763
15,15547	187329
15,15960	166621
15,16372	149794
15,16783	140603
15,17197	128813
15,17608	116892
15,18020	109147
15,18432	101462
15,18845	97877
15,19257	89751
15,19668	85342
15,20082	78607
15,20493	74656
15,20905	71330
15,21318	66272
15,21730	64112
15,22142	59233
15,22555	57599
15,22967	53919
15,23378	50077
15,23792	50808
15,24203	48927
15,24615	48493
15,25028	44647
15,25440	44182
15,25852	41499
15,26265	41299
15,26677	40305
15,27088	36987
15,27500	37339
15,27913	39256
15,28325	38655
15,28737	50653
15,29150	72535
15,29562	115424
15,29973	194655
15,30387	333300
15,30798	538708
15,31210	807728
15,31623	1131262
15,32035	1460472
15,32447	1740221
15,32860	1904639
15,33272	1950565
15,33683	1893542
15,34097	1687094
15,34508	1459046
15,34920	1211930
15,35333	970673
15,35745	760381
15,36157	603417
15,36568	476185
15,36982	382004
15,37393	313346
15,37805	257857
15,38218	218853
15,38630	188505
15,39042	162255
15,39455	142996
15,39867	126373
15,40278	117923
15,40692	107461
15,41103	101676
15,41515	101359
15,41928	114546
15,42340	149031
15,42752	230285
15,43165	389624
15,43577	658263
15,43988	1051432
15,44402	1613538
15,44813	2263659
15,45225	2906084
15,45637	3490914
15,46050	3913924
15,46462	4028816
15,46873	3888307
15,47287	3486286
15,47698	2954281
15,48110	2392377
15,48523	1890917
15,48935	1470653
15,49347	1145167
15,49760	901139
15,50172	725934
15,50583	581143
15,50997	480826
15,51408	407098
15,51820	350672
15,52233	304778
15,52645	267370
15,53057	232213
15,53470	207206
15,53882	186235
15,54293	170430
15,54705	155459
15,55118	145089
15,55530	133977
15,55942	122224
15,56355	113131
15,56767	105759
15,57178	100665
15,57592	95057
15,58003	89055
15,58415	86256
15,58828	79430
15,59240	76121
15,59652	72810
15,60065	68419
15,60477	64957
15,60888	63362
15,61302	60830
15,61713	58913
15,62125	54156
15,62538	53900
15,62950	52583
15,63362	50805
15,63773	48766
15,64187	48083
15,64598	45765
15,65010	46760
15,65423	43226
15,65835	43534
15,66247	41992
15,66660	40355
15,67072	39649
15,67483	39228
15,67897	37632
15,68308	37414
15,68720	36795
15,69133	39964
15,69545	40081
15,69957	50061
15,70370	72099
15,70782	115261
15,71193	198017
15,71607	347361
15,72018	560411
15,72430	854789
15,72842	1167839
15,73255	1489006
15,73667	1760727
15,74078	1931528
15,74492	2041630
15,74903	2090134
15,75315	2229538
15,75728	2491187
15,76140	2877751
15,76552	3392784
15,76965	3909744
15,77377	4383175
15,77788	4577528
15,78202	4518815
15,78613	4200960
15,79025	3685378
15,79438	3060274
15,79850	2478318
15,80262	1928547
15,80675	1496120
15,81087	1174862
15,81498	934134
15,81910	761885
15,82323	619462
15,82735	521109
15,83147	447812
15,83560	387765
15,83972	341044
15,84383	302058
15,84797	266135
15,85208	240409
15,85620	220704
15,86033	203105
15,86445	184670
15,86857	170091
15,87270	160181
15,87682	149079
15,88093	136906
15,88507	133127
15,88918	127051
15,89330	118609
15,89743	112182
15,90155	107735
15,90567	102989
15,90980	96601
15,91392	92678
15,91803	86455
15,92215	81529
15,92628	82181
15,93040	78445
15,93452	74025
15,93865	71027
15,94277	69683
15,94688	65777
15,95102	66242
15,95513	62797
15,95925	59876
15,96338	58682
15,96750	59080
15,97162	54689
15,97575	54557
15,97987	52829
15,98398	51204
15,98812	49970
15,99223	52008
15,99635	56414
16,00048	71385
16,00460	98174
16,00872	157254
16,01283	258184
16,01697	430485
16,02108	664066
16,02520	932958
16,02933	1227595
16,03345	1482130
16,03757	1669350
16,04170	1736681
16,04582	1673609
16,04993	1525075
16,05407	1307720
16,05818	1080355
16,06230	873668
16,06643	689360
16,07055	558344
16,07467	443694
16,07880	357116
16,08292	297070
16,08703	243962
16,09117	204841
16,09528	184932
16,09940	158864
16,10352	145162
16,10765	130518
16,11177	117410
16,11588	107305
16,12002	101096
16,12413	91565
16,12825	88376
16,13238	81786
16,13650	80913
16,14062	76413
16,14475	75063
16,14887	68684
16,15298	63580
16,15712	60465
16,16123	59278
16,16535	58823
16,16948	54030
16,17360	50672
16,17772	50441
16,18185	48699
16,18597	48494
16,19008	44474
16,19420	45085
16,19833	44627
16,20245	44909
16,20657	44886
16,21070	42437
16,21482	44541
16,21893	42153
16,22307	41542
16,22718	42047
16,23130	39858
16,23543	39762
16,23955	38984
16,24367	37598
16,24780	36651
16,25192	38799
16,25603	35885
16,26017	36934
16,26428	35149
16,26840	34988
16,27253	33728
16,27665	31371
16,28077	33228
16,28488	31372
16,28902	30555
16,29313	31132
16,29725	28854
16,30138	31188
16,30550	30151
16,30962	32297
16,31375	29524
16,31787	27877
16,32198	28664
16,32612	28577
16,33023	28127
16,33435	30386
16,33848	28380
16,34260	26933
16,34672	27825
16,35085	26170
16,35497	28152
16,35908	28236
16,36322	28332
16,36733	26579
16,37145	27101
16,37557	27093
16,37970	26724
16,38382	26323
16,38793	25572
16,39207	26221
16,39618	30066
16,40030	32768
16,40443	47796
16,40855	77422
16,41267	142304
16,41680	274850
16,42092	524053
16,42503	932605
16,42917	1539332
16,43328	2345946
16,43740	3301702
16,44153	4369066
16,44565	5285856
16,44977	5937794
16,45390	6280942
16,45802	6120972
16,46213	5560463
16,46625	4768397
16,47038	3881599
16,47450	3068522
16,47862	2379855
16,48275	1848641
16,48687	1448080
16,49098	1160478
16,49512	942752
16,49923	775536
16,50335	653676
16,50748	558062
16,51160	483956
16,51572	426070
16,51985	376076
16,52397	333020
16,52808	300475
16,53222	274455
16,53633	248854
16,54045	225408
16,54458	210994
16,54870	195451
16,55282	177967
16,55693	167410
16,56107	156527
16,56518	151083
16,56930	138473
16,57343	131549
16,57755	125385
16,58167	117922
16,58580	114824
16,58992	108500
16,59403	103194
16,59817	100091
16,60228	94616
16,60640	89306
16,61053	89768
16,61465	86838
16,61877	84463
16,62290	82313
16,62702	86145
16,63113	88720
16,63527	90957
16,63938	93716
16,64350	96158
16,64762	100376
16,65175	102271
16,65587	103129
16,65998	111124
16,66412	123869
16,66823	155568
16,67235	218263
16,67648	326896
16,68060	485750
16,68472	703971
16,68885	938664
16,69297	1177691
16,69708	1359678
16,70122	1488237
16,70533	1495527
16,70945	1411997
16,71358	1267097
16,71770	1071374
16,72182	886707
16,72595	720713
16,73007	574098
16,73418	458142
16,73830	377650
16,74243	309398
16,74655	259474
16,75067	215823
16,75480	193024
16,75892	174754
16,76303	162301
16,76717	159394
16,77128	179385
16,77540	228686
16,77953	333856
16,78365	509296
16,78777	766494
16,79190	1074362
16,79602	1467652
16,80013	1815122
16,80427	2081801
16,80838	2224356
16,81250	2214362
16,81663	2045170
16,82075	1793434
16,82487	1509461
16,82898	1234158
16,83312	986998
16,83723	787934
16,84135	632951
16,84548	520925
16,84960	433787
16,85372	367549
16,85785	317205
16,86197	270112
16,86608	238684
16,87022	214467
16,87433	197191
16,87845	175936
16,88258	162237
16,88670	152636
16,89082	141570
16,89495	131722
16,89907	122345
16,90318	115264
16,90732	108795
16,91143	104700
16,91555	99511
16,91967	94979
16,92380	88808
16,92792	83711
16,93203	80129
16,93617	76768
16,94028	74265
16,94440	72253
16,94853	72501
16,95265	67978
16,95677	68285
16,96090	64034
16,96502	61170
16,96913	61496
16,97327	59753
16,97738	59257
16,98150	58835
16,98563	58899
16,98975	56186
16,99387	55324
16,99800	56841
17,00212	52025
17,00623	50484
17,01035	51659
17,01448	48994
17,01860	49971
17,02272	47915
17,02685	48001
17,03097	47385
17,03508	47042
17,03922	46732
17,04333	47982
17,04745	51351
17,05158	62896
17,05570	88607
17,05982	137847
17,06395	242148
17,06807	417781
17,07218	688808
17,07632	1053448
17,08043	1483017
17,08455	1924461
17,08868	2294027
17,09280	2483779
17,09692	2487874
17,10103	2321771
17,10517	2040569
17,10928	1693048
17,11340	1381530
17,11753	1091498
17,12165	873510
17,12577	702662
17,12990	568976
17,13402	473491
17,13813	400875
17,14227	343113
17,14638	297399
17,15050	264253
17,15463	238225
17,15875	213252
17,16287	193253
17,16700	177239
17,17112	162837
17,17523	147430
17,17937	142165
17,18348	132718
17,18760	123853
17,19172	114295
17,19585	114288
17,19997	106357
17,20408	101310
17,20822	100604
17,21233	98215
17,21645	97297
17,22058	92489
17,22470	86250
17,22882	85393
17,23295	80806
17,23707	77533
17,24118	74638
17,24532	71803
17,24943	69226
17,25355	70607
17,25768	69769
17,26180	65226
17,26592	64223
17,27005	64238
17,27417	62778
17,27828	60476
17,28240	57816
17,28653	57595
17,29065	55908
17,29477	56118
17,29890	55246
17,30302	52788
17,30713	54925
17,31127	58511
17,31538	68136
17,31950	95902
17,32363	147154
17,32775	247049
17,33187	406443
17,33600	640110
17,34012	942405
17,34423	1268011
17,34837	1565638
17,35248	1803816
17,35660	1902861
17,36073	1860470
17,36485	1731770
17,36897	1501786
17,37308	1253054
17,37722	1034214
17,38133	833830
17,38545	670085
17,38958	544350
17,39370	440152
17,39782	367334
17,40195	316755
17,40607	272802
17,41018	231885
17,41432	209987
17,41843	183820
17,42255	169577
17,42668	156801
17,43080	142012
17,43492	130244
17,43905	123913
17,44317	115207
17,44728	111897
17,45142	102604
17,45553	97588
17,45965	90619
17,46377	93624
17,46790	85264
17,47202	85003
17,47613	80339
17,48027	77473
17,48438	75156
17,48850	71747
17,49263	71252
17,49675	68859
17,50087	67177
17,50500	66384
17,50912	62261
17,51323	62089
17,51737	60224
17,52148	61704
17,52560	60784
17,52973	61368
17,53385	56507
17,53797	57353
17,54210	55097
17,54622	53997
17,55033	54244
17,55447	57278
17,55858	54594
17,56270	53679
17,56682	52440
17,57095	51292
17,57507	51042
17,57918	50799
17,58332	49288
17,58743	48061
17,59155	50329
17,59568	49566
17,59980	47112
17,60392	47468
17,60805	46967
17,61217	46727
17,61628	48308
17,62042	47069
17,62453	45364
17,62865	46516
17,63278	45576
17,63690	46542
17,64102	44844
17,64515	43575
17,64927	44068
17,65338	44439
17,65750	45129
17,66163	47297
17,66575	46107
17,66987	49309
17,67400	58113
17,67812	78814
17,68223	120451
17,68637	206110
17,69048	361380
17,69460	616809
17,69873	1010115
17,70285	1553879
17,70697	2249260
17,71110	3064750
17,71522	3978394
17,71933	4869151
17,72347	5599829
17,72758	6003475
17,73170	6053667
17,73583	5729427
17,73995	5201522
17,74407	4533103
17,74818	3869436
17,75232	3248935
17,75643	2686369
17,76055	2202241
17,76468	1814497
17,76880	1471007
17,77292	1211985
17,77705	1006438
17,78117	854474
17,78528	735822
17,78942	632060
17,79353	554817
17,79765	496653
17,80178	441247
17,80590	400299
17,81002	367209
17,81415	340684
17,81827	314395
17,82238	288876
17,82652	271602
17,83063	250264
17,83475	237109
17,83887	219249
17,84300	207601
17,84712	197531
17,85123	189780
17,85537	177624
17,85948	170908
17,86360	164674
17,86773	156613
17,87185	150422
17,87597	145147
17,88010	142898
17,88422	137200
17,88833	134352
17,89247	129241
17,89658	126652
17,90070	120863
17,90483	121972
17,90895	117865
17,91307	117702
17,91720	112303
17,92132	115854
17,92543	113421
17,92955	112273
17,93368	119191
17,93780	130620
17,94192	159315
17,94605	214304
17,95017	313899
17,95428	466917
17,95842	678621
17,96253	939727
17,96665	1236003
17,97078	1478916
17,97490	1649888
17,97902	1716731
17,98315	1685262
17,98727	1548332
17,99138	1370917
17,99552	1182154
17,99963	1022505
18,00375	918058
18,00788	889010
18,01200	937812
18,01612	1073170
18,02023	1243278
18,02437	1467443
18,02848	1687958
18,03260	1912729
18,03673	2103387
18,04085	2294601
18,04497	2485286
18,04910	2667735
18,05322	2838109
18,05733	2957788
18,06147	2979625
18,06558	2870681
18,06970	2659869
18,07383	2358642
18,07795	2011053
18,08207	1697446
18,08620	1398008
18,09032	1172717
18,09443	964145
18,09857	820393
18,10268	693170
18,10680	604849
18,11092	537154
18,11505	466110
18,11917	421522
18,12328	380846
18,12742	349797
18,13153	317877
18,13565	291995
18,13978	271204
18,14390	253983
18,14802	239524
18,15215	223852
18,15627	211236
18,16038	202144
18,16452	196013
18,16863	184504
18,17275	175041
18,17688	166986
18,18100	159558
18,18512	153751
18,18925	146679
18,19337	140583
18,19748	137115
18,20160	130264
18,20573	125302
18,20985	124110
18,21397	120788
18,21810	116726
18,22222	112317
18,22633	109028
18,23047	105825
18,23458	103198
18,23870	102518
18,24283	99543
18,24695	97386
18,25107	94949
18,25520	96474
18,25932	94743
18,26343	92166
18,26757	87746
18,27168	86989
18,27580	94202
18,27993	97033
18,28405	107053
18,28817	133943
18,29228	182258
18,29642	273597
18,30053	425378
18,30465	641652
18,30878	936862
18,31290	1304665
18,31702	1686721
18,32115	2051014
18,32527	2311096
18,32938	2428297
18,33352	2376574
18,33763	2177738
18,34175	1911329
18,34588	1624496
18,35000	1340289
18,35412	1108591
18,35825	918842
18,36237	774914
18,36648	657677
18,37062	565218
18,37473	491520
18,37885	433675
18,38297	392609
18,38710	348351
18,39122	317596
18,39533	292503
18,39947	273582
18,40358	255232
18,40770	230913
18,41183	221429
18,41595	214593
18,42007	196664
18,42420	191026
18,42832	183065
18,43243	174227
18,43657	166109
18,44068	164294
18,44480	156108
18,44893	152032
18,45305	144605
18,45717	139695
18,46130	139454
18,46542	128533
18,46953	123028
18,47365	120800
18,47778	117296
18,48190	115051
18,48602	110934
18,49015	108879
18,49427	106156
18,49838	101794
18,50252	101102
18,50663	100414
18,51075	97737
18,51488	95769
18,51900	93981
18,52312	93634
18,52725	93988
18,53137	94308
18,53548	91598
18,53962	88227
18,54373	85027
18,54785	87906
18,55198	88138
18,55610	90140
18,56022	99555
18,56433	122258
18,56847	165428
18,57258	245331
18,57670	374187
18,58083	557243
18,58495	807862
18,58907	1088246
18,59320	1384693
18,59732	1634566
18,60143	1791521
18,60557	1875565
18,60968	1828994
18,61380	1697549
18,61793	1514349
18,62205	1293681
18,62617	1097958
18,63030	916865
18,63442	769451
18,63853	656007
18,64267	560931
18,64678	482696
18,65090	427602
18,65502	385880
18,65915	359888
18,66327	354899
18,66738	371714
18,67152	426510
18,67563	514099
18,67975	637532
18,68388	800611
18,68800	967795
18,69212	1133674
18,69625	1266076
18,70037	1328181
18,70448	1343728
18,70862	1292050
18,71273	1199066
18,71685	1079069
18,72098	947201
18,72510	809322
18,72922	691794
18,73335	593779
18,73747	510287
18,74158	432833
18,74570	382363
18,74983	336772
18,75395	299708
18,75807	268943
18,76220	246325
18,76632	223089
18,77043	208280
18,77457	194510
18,77868	182052
18,78280	169711
18,78693	165275
18,79105	153164
18,79517	146729
18,79930	139364
18,80342	134443
18,80753	128227
18,81167	127462
18,81578	120367
18,81990	116391
18,82403	114425
18,82815	111174
18,83227	109488
18,83638	105548
18,84052	102756
18,84463	101496
18,84875	99618
18,85288	96702
18,85700	95389
18,86112	94070
18,86525	90551
18,86937	93321
18,87348	91450
18,87762	89186
18,88173	86336
18,88585	87532
18,88998	87354
18,89410	83154
18,89822	87254
18,90235	88592
18,90647	91904
18,91058	111909
18,91472	136979
18,91883	191562
18,92295	277180
18,92707	414888
18,93120	622549
18,93532	932875
18,93943	1317777
18,94357	1806480
18,94768	2367950
18,95180	2969326
18,95593	3543747
18,96005	4018800
18,96417	4299724
18,96830	4350307
18,97242	4145444
18,97653	3761928
18,98067	3267557
18,98478	2743118
18,98890	2267316
18,99303	1880549
18,99715	1579583
19,00127	1323459
19,00540	1137621
19,00952	977330
19,01363	859049
19,01775	761975
19,02188	681869
19,02600	621196
19,03012	563007
19,03425	517337
19,03837	474848
19,04248	439317
19,04662	401953
19,05073	378770
19,05485	351162
19,05898	334182
19,06310	311940
19,06722	297434
19,07135	277066
19,07547	262931
19,07958	251951
19,08372	244836
19,08783	231256
19,09195	222789
19,09608	215097
19,10020	205054
19,10432	198306
19,10843	188165
19,11257	186951
19,11668	179079
19,12080	170923
19,12493	164961
19,12905	161174
19,13317	153703
19,13730	155898
19,14142	145957
19,14553	146338
19,14967	144452
19,15378	139108
19,15790	135397
19,16203	131403
19,16615	129865
19,17027	125856
19,17440	127395
19,17852	125134
19,18263	121103
19,18677	119690
19,19088	117422
19,19500	114781
19,19913	112375
19,20325	112299
19,20737	111906
19,21148	108555
19,21562	104683
19,21973	106749
19,22385	105064
19,22798	104305
19,23210	104046
19,23622	98640
19,24035	102239
19,24447	96463
19,24858	98521
19,25272	96505
19,25683	95931
19,26095	96497
19,26508	98447
19,26920	95741
19,27332	103729
19,27745	115565
19,28157	142586
19,28568	178919
19,28982	252405
19,29393	352001
19,29805	508285
19,30217	710968
19,30630	961195
19,31042	1234525
19,31453	1509935
19,31867	1753574
19,32278	1904938
19,32690	1961139
19,33103	1924899
19,33515	1808826
19,33927	1639718
19,34340	1437781
19,34752	1267663
19,35163	1097273
19,35577	945276
19,35988	810799
19,36400	703231
19,36813	614678
19,37225	544900
19,37637	494480
19,38050	444200
19,38462	406247
19,38873	371619
19,39285	340762
19,39698	316481
19,40110	290485
19,40522	277718
19,40935	258061
19,41347	244909
19,41758	237520
19,42172	222309
19,42583	208739
19,42995	199475
19,43408	193085
19,43820	183399
19,44232	180674
19,44645	172744
19,45057	165037
19,45468	158095
19,45882	151807
19,46293	149587
19,46705	146568
19,47118	142641
19,47530	139116
19,47942	133439
19,48353	131142
19,48767	126627
19,49178	121581
19,49590	117873
19,50003	117603
19,50415	116612
19,50827	113062
19,51240	109375
19,51652	108415
19,52063	108474
19,52477	108727
19,52888	105380
19,53300	100055
19,53713	101914
19,54125	99355
19,54537	98824
19,54950	95532
19,55362	97191
19,55773	91356
19,56187	91805
19,56598	92447
19,57010	90525
19,57422	91687
19,57835	89548
19,58247	88370
19,58658	89986
19,59072	88734
19,59483	86760
19,59895	85747
19,60308	84670
19,60720	84694
19,61132	83974
19,61545	81483
19,61957	84149
19,62368	82126
19,62782	81314
19,63193	80501
19,63605	80682
19,64018	79509
19,64430	81298
19,64842	80435
19,65255	82582
19,65667	82080
19,66078	79558
19,66490	83639
19,66903	82529
19,67315	82434
19,67727	79296
19,68140	78977
19,68552	76168
19,68963	74717
19,69377	74533
19,69788	72305
19,70200	72112
19,70613	73482
19,71025	72756
19,71437	69545
19,71850	70236
19,72262	69195
19,72673	71890
19,73087	66652
19,73498	68349
19,73910	71474
19,74323	69366
19,74735	69037
19,75147	69778
19,75558	76087
19,75972	82967
19,76383	87357
19,76795	95301
19,77208	104698
19,77620	112034
19,78032	124706
19,78445	130532
19,78857	135090
19,79268	138311
19,79682	134396
19,80093	132598
19,80505	130655
19,80918	124601
19,81330	115239
19,81742	107637
19,82155	103702
19,82567	96570
19,82978	94338
19,83392	88703
19,83803	81522
19,84215	77547
19,84627	77407
19,85040	77534
19,85452	73531
19,85863	72336
19,86277	70291
19,86688	70434
19,87100	71104
19,87513	67748
19,87925	67914
19,88337	69232
19,88750	66008
19,89162	66023
19,89573	65832
19,89987	63440
19,90398	64760
19,90810	67136
19,91223	63873
19,91635	60457
19,92047	64243
19,92460	61842
19,92872	61574
19,93283	60907
19,93695	62003
19,94108	60250
19,94520	60923
19,94932	59594
19,95345	57971
19,95757	61927
19,96168	60869
19,96582	59824
19,96993	57200
19,97405	57991
19,97818	58799
19,98230	58715
19,98642	58240
19,99055	59975
19,99467	59679
19,99878	58071
20,00292	58438
20,00703	60432
20,01115	58871
20,01528	59638
20,01940	56429
20,02352	54446
20,02763	59879
20,03177	57072
20,03588	57757
20,04000	58673
20,04413	58173
20,04825	56777
20,05237	59611
20,05650	57125
20,06062	55191
20,06473	56508
20,06887	56066
20,07298	56957
20,07710	52873
20,08123	56757
20,08535	55389
20,08947	55792
20,09360	53888
20,09772	55376
20,10183	56171
20,10597	55443
20,11008	54539
20,11420	54288
20,11832	53798
20,12245	54953
20,12657	54289
20,13068	53710
20,13482	54122
20,13893	54627
20,14305	54121
20,14718	55302
20,15130	53368
20,15542	55757
20,15955	53197
20,16367	54106
20,16778	51912
20,17192	51530
20,17603	51091
20,18015	51908
20,18428	51933
20,18840	55543
20,19252	52652
20,19665	54352
20,20077	56427
20,20488	54259
20,20900	55123
20,21313	54132
20,21725	53093
20,22137	56202
20,22550	54758
20,22962	52548
20,23373	56614
20,23787	52583
20,24198	55792
20,24610	52545
20,25023	49892
20,25435	53304
20,25847	54425
20,26260	51230
20,26672	49623
20,27083	50845
20,27497	51731
20,27908	51804
20,28320	49483
20,28733	52825
20,29145	52435
20,29557	51347
20,29968	49806
20,30382	52084
20,30793	52090
20,31205	49430
20,31618	50968
20,32030	51857
20,32442	52900
20,32855	52063
20,33267	53828
20,33678	51476
20,34092	52365
20,34503	52220
20,34915	52117
20,35328	50407
20,35740	51705
20,36152	52551
20,36565	52392
20,36977	52834
20,37388	54953
20,37802	57188
20,38213	65224
20,38625	73479
20,39037	93342
20,39450	124678
20,39862	165945
20,40273	223312
20,40687	303010
20,41098	392419
20,41510	490647
20,41923	592814
20,42335	684072
20,42747	756099
20,43160	808584
20,43572	842311
20,43983	840574
20,44397	818461
20,44808	770796
20,45220	716503
20,45633	664576
20,46045	591904
20,46457	532887
20,46870	475937
20,47282	422405
20,47693	377194
20,48105	337998
20,48518	305020
20,48930	277561
20,49342	249135
20,49755	231201
20,50167	215125
20,50578	198047
20,50992	182973
20,51403	170259
20,51815	163542
20,52228	151096
20,52640	143438
20,53052	137030
20,53465	128279
20,53877	128518
20,54288	119304
20,54702	118292
20,55113	114148
20,55525	109663
20,55938	105453
20,56350	101893
20,56762	97636
20,57173	95150
20,57587	94125
20,57998	92201
20,58410	88280
20,58823	85720
20,59235	87758
20,59647	85688
20,60060	84239
20,60472	83232
20,60883	80328
20,61297	79383
20,61708	77333
20,62120	74831
20,62533	74601
20,62945	77448
20,63357	73127
20,63770	73399
20,64182	71361
20,64593	72000
20,65007	69808
20,65418	70442
20,65830	70925
20,66242	68594
20,66655	68254
20,67067	65496
20,67478	68017
20,67892	67728
20,68303	64873
20,68715	66866
20,69128	64413
20,69540	65850
20,69952	64818
20,70365	63586
20,70777	63635
20,71188	63916
20,71602	62407
20,72013	60959
20,72425	60812
20,72838	57611
20,73250	59313
20,73662	59605
20,74075	59560
20,74487	57690
20,74898	55984
20,75312	60878
20,75723	56225
20,76135	56620
20,76547	57750
20,76960	55185
20,77372	60764
20,77783	55662
20,78197	55605
20,78608	55924
20,79020	55272
20,79433	55774
20,79845	56210
20,80257	58019
20,80670	55494
20,81082	54462
20,81493	55628
20,81907	55291
20,82318	54792
20,82730	55393
20,83143	54676
20,83555	56733
20,83967	55376
20,84380	54471
20,84792	53529
20,85203	54028
20,85615	53468
20,86028	55007
20,86440	53926
20,86852	54396
20,87265	53913
20,87677	55716
20,88088	53225
20,88502	52621
20,88913	51236
20,89325	53939
20,89738	53606
20,90150	54842
20,90562	52510
20,90975	54595
20,91387	51268
20,91798	51386
20,92212	51880
20,92623	50987
20,93035	53242
20,93448	51430
20,93860	54602
20,94272	51472
20,94683	55860
20,95097	51872
20,95508	52568
20,95920	51904
20,96333	50961
20,96745	52646
20,97157	50964
20,97570	52076
20,97982	50446
20,98393	48732
20,98807	51734
20,99218	49979
20,99630	47540
21,00043	51554
21,00455	54175
