D:\MassHunter\GCMS\1\data\Amal\Constant flow\100C\100C_1ml-min_8C-min_1.D Wed Jul 31 13:12:49 2024
Start of data points
5,84095,18077
5,84507,17193
5,84918,17157
5,85332,17188
5,85743,19004
5,86155,17412
5,86568,16221
5,86980,16822
5,87392,17841
5,87805,16563
5,88217,16638
5,88628,15496
5,89040,17254
5,89453,15908
5,89865,16755
5,90277,15954
5,90690,16634
5,91102,15930
5,91513,15777
5,91927,16901
5,92338,16327
5,92750,16056
5,93163,15695
5,93575,15485
5,93987,16395
5,94400,15946
5,94812,16890
5,95223,17485
5,95637,17007
5,96048,16092
5,96460,15540
5,96873,16798
5,97285,17119
5,97697,17564
5,98108,16003
5,98522,15572
5,98933,17413
5,99345,15747
5,99758,15927
6,00170,16065
6,00582,14533
6,00995,15532
6,01407,15781
6,01818,15011
6,02232,14934
6,02643,16649
6,03055,14704
6,03468,14689
6,03880,14372
6,04292,15283
6,04705,15267
6,05117,14552
6,05528,14642
6,05942,15530
6,06353,12848
6,06765,13743
6,07177,14390
6,07590,14413
6,08002,14181
6,08413,14593
6,08827,14206
6,09238,14158
6,09650,13694
6,10063,13608
6,10475,13894
6,10887,14881
6,11300,14197
6,11712,13815
6,12123,14716
6,12537,14807
6,12948,15350
6,13360,13835
6,13773,13589
6,14185,13751
6,14597,13567
6,15010,14350
6,15422,13543
6,15833,13953
6,16245,14996
6,16658,14509
6,17070,14050
6,17482,13228
6,17895,13810
6,18307,13562
6,18718,13942
6,19132,15026
6,19543,13788
6,19955,14252
6,20368,14655
6,20780,14161
6,21192,13496
6,21605,13031
6,22017,13070
6,22428,13516
6,22842,12633
6,23253,13950
6,23665,13415
6,24078,12664
6,24490,13234
6,24902,13733
6,25313,13289
6,25727,12806
6,26138,12621
6,26550,13441
6,26963,13200
6,27375,12977
6,27787,12346
6,28200,13164
6,28612,12811
6,29023,14077
6,29437,13345
6,29848,12952
6,30260,13464
6,30673,12282
6,31085,12390
6,31497,11874
6,31910,12947
6,32322,11628
6,32733,11662
6,33147,12451
6,33558,11414
6,33970,13189
6,34382,12411
6,34795,15616
6,35207,19295
6,35618,25235
6,36032,35631
6,36443,50418
6,36855,61773
6,37268,80802
6,37680,97460
6,38092,110211
6,38505,119635
6,38917,124878
6,39328,123731
6,39742,124840
6,40153,119110
6,40565,114835
6,40978,108266
6,41390,100230
6,41802,98374
6,42215,90822
6,42627,86928
6,43038,80107
6,43450,77436
6,43863,69903
6,44275,67065
6,44687,61915
6,45100,57248
6,45512,54423
6,45923,51775
6,46337,48573
6,46748,45669
6,47160,41720
6,47573,41116
6,47985,36213
6,48397,35285
6,48810,32436
6,49222,30832
6,49633,28203
6,50047,26636
6,50458,24715
6,50870,22733
6,51283,22054
6,51695,19449
6,52107,18746
6,52518,17494
6,52932,16129
6,53343,15297
6,53755,13266
6,54168,13810
6,54580,14309
6,54992,13388
6,55405,13050
6,55817,12813
6,56228,13022
6,56642,12354
6,57053,11307
6,57465,12066
6,57878,11821
6,58290,10766
6,58702,10269
6,59115,11429
6,59527,12167
6,59938,10597
6,60352,10121
6,60763,10219
6,61175,10878
6,61587,9910
6,62000,9828
6,62412,9578
6,62823,10104
6,63237,9419
6,63648,8295
6,64060,9951
6,64473,8589
6,64885,10457
6,65297,9035
6,65710,10477
6,66122,9234
6,66533,9272
6,66947,9566
6,67358,8837
6,67770,8936
6,68183,9250
6,68595,9744
6,69007,9119
6,69420,9285
6,69832,9217
6,70243,8590
6,70657,7920
6,71068,8948
6,71480,8926
6,71892,8168
6,72305,9286
6,72717,8883
6,73128,9284
6,73542,9867
6,73953,7995
6,74365,9151
6,74778,9661
6,75190,9159
6,75602,8280
6,76015,8761
6,76427,8551
6,76838,8400
6,77252,8981
6,77663,8523
6,78075,7559
6,78488,9191
6,78900,8740
6,79312,8737
6,79725,8036
6,80137,8807
6,80548,7716
6,80960,8594
6,81373,9025
6,81785,8236
6,82197,8781
6,82610,9134
6,83022,8980
6,83433,8096
6,83847,8718
6,84258,8455
6,84670,8635
6,85083,9011
6,85495,8440
6,85907,8395
6,86320,8488
6,86732,8449
6,87143,8893
6,87557,8717
6,87968,8477
6,88380,9192
6,88793,9311
6,89205,8760
6,89617,9016
6,90028,8361
6,90442,8986
6,90853,8276
6,91265,9483
6,91678,9050
6,92090,8755
6,92502,8014
6,92915,7971
6,93327,8355
6,93738,8773
6,94152,8224
6,94563,8829
6,94975,8915
6,95388,8224
6,95800,7720
6,96212,8350
6,96625,8808
6,97037,8042
6,97448,8372
6,97862,8339
6,98273,7893
6,98685,8068
6,99097,7699
6,99510,8772
6,99922,8119
7,00333,8143
7,00747,7736
7,01158,8033
7,01570,7899
7,01983,8220
7,02395,8485
7,02807,8104
7,03220,7391
7,03632,8154
7,04043,8056
7,04457,8070
7,04868,7968
7,05280,7950
7,05693,7431
7,06105,8354
7,06517,7681
7,06930,7463
7,07342,7704
7,07753,6980
7,08165,7133
7,08578,7639
7,08990,6643
7,09402,7874
7,09815,8555
7,10227,8028
7,10638,8310
7,11052,8565
7,11463,8238
7,11875,7660
7,12288,8260
7,12700,8359
7,13112,7911
7,13525,8493
7,13937,7564
7,14348,7795
7,14762,7300
7,15173,8609
7,15585,7800
7,15998,7209
7,16410,8049
7,16822,7661
7,17233,7589
7,17647,7421
7,18058,7640
7,18470,8440
7,18883,7884
7,19295,7542
7,19707,8171
7,20120,7845
7,20532,8492
7,20943,6837
7,21357,7840
7,21768,7218
7,22180,8177
7,22593,7648
7,23005,7844
7,23417,7527
7,23830,7659
7,24242,7828
7,24653,7291
7,25067,7028
7,25478,7478
7,25890,7187
7,26302,7250
7,26715,7261
7,27127,7018
7,27538,7604
7,27952,7865
7,28363,7671
7,28775,8328
7,29188,8197
7,29600,8541
7,30012,9145
7,30425,9162
7,30837,9539
7,31248,10952
7,31662,9748
7,32073,9028
7,32485,9527
7,32898,9526
7,33310,8641
7,33722,8882
7,34135,7859
7,34547,8826
7,34958,7900
7,35370,7679
7,35783,7078
7,36195,7760
7,36607,8658
7,37020,6955
7,37432,7925
7,37843,7398
7,38257,7157
7,38668,7438
7,39080,7027
7,39493,7784
7,39905,6749
7,40317,6575
7,40730,7045
7,41142,7094
7,41553,6496
7,41967,6968
7,42378,6045
7,42790,6563
7,43203,7007
7,43615,6122
7,44027,6255
7,44438,6432
7,44852,6062
7,45263,6259
7,45675,6988
7,46088,6483
7,46500,6271
7,46912,6475
7,47325,6381
7,47737,7002
7,48148,6037
7,48562,6980
7,48973,5733
7,49385,6513
7,49798,6202
7,50210,5377
7,50622,6618
7,51035,7430
7,51447,7019
7,51858,6324
7,52272,6237
7,52683,6664
7,53095,6095
7,53507,5973
7,53920,7292
7,54332,6598
7,54743,5976
7,55157,6712
7,55568,6365
7,55980,5659
7,56393,5117
7,56805,5552
7,57217,6325
7,57630,6400
7,58042,6786
7,58453,6296
7,58867,6450
7,59278,5664
7,59690,6331
7,60103,6082
7,60515,6471
7,60927,6428
7,61340,6449
7,61752,6270
7,62163,5723
7,62575,6061
7,62988,5901
7,63400,5670
7,63812,5908
7,64225,6082
7,64637,6009
7,65048,6657
7,65462,6693
7,65873,6511
7,66285,5757
7,66698,6134
7,67110,5669
7,67522,5991
7,67935,5858
7,68347,5833
7,68758,7150
7,69172,6369
7,69583,5843
7,69995,6744
7,70408,6023
7,70820,7008
7,71232,6891
7,71643,7061
7,72057,6524
7,72468,6408
7,72880,7094
7,73293,6612
7,73705,6765
7,74117,6549
7,74530,7085
7,74942,6792
7,75353,7067
7,75767,7006
7,76178,7455
7,76590,7070
7,77003,7427
7,77415,6014
7,77827,7616
7,78240,6529
7,78652,6180
7,79063,5860
7,79477,5901
7,79888,6023
7,80300,6275
7,80712,5911
7,81125,5669
7,81537,4860
7,81948,5974
7,82362,5346
7,82773,5407
7,83185,5402
7,83598,6060
7,84010,5349
7,84422,5037
7,84835,5642
7,85247,5608
7,85658,5198
7,86072,5204
7,86483,6254
7,86895,5766
7,87308,6695
7,87720,8483
7,88132,13316
7,88545,21677
7,88957,38972
7,89368,64879
7,89780,108224
7,90193,174619
7,90605,250636
7,91017,344071
7,91430,428502
7,91842,518815
7,92253,588270
7,92667,620125
7,93078,638698
7,93490,622830
7,93903,609387
7,94315,581351
7,94727,537426
7,95140,489879
7,95552,442460
7,95963,392218
7,96377,349173
7,96788,306776
7,97200,272809
7,97613,229339
7,98025,204149
7,98437,171385
7,98848,147788
7,99262,128508
7,99673,106640
8,00085,87237
8,00498,77164
8,00910,65597
8,01322,54156
8,01735,48018
8,02147,42791
8,02558,35698
8,02972,32549
8,03383,26267
8,03795,24883
8,04208,22327
8,04620,19572
8,05032,17354
8,05445,16506
8,05857,15142
8,06268,13996
8,06682,13277
8,07093,13709
8,07505,12590
8,07917,11238
8,08330,10997
8,08742,11287
8,09153,10338
8,09567,9864
8,09978,10138
8,10390,8764
8,10803,8877
8,11215,8965
8,11627,7714
8,12040,8158
8,12452,9152
8,12863,7998
8,13277,8143
8,13688,7797
8,14100,7929
8,14513,7367
8,14925,6807
8,15337,7921
8,15750,6978
8,16162,7062
8,16573,7509
8,16985,7278
8,17398,7634
8,17810,9345
8,18222,8797
8,18635,9390
8,19047,9479
8,19458,8928
8,19872,8446
8,20283,8467
8,20695,7670
8,21108,7324
8,21520,6162
8,21932,6445
8,22345,6323
8,22757,5634
8,23168,6224
8,23582,6095
8,23993,5864
8,24405,5894
8,24818,5880
8,25230,5551
8,25642,5604
8,26053,6239
8,26467,5909
8,26878,5361
8,27290,5799
8,27703,6186
8,28115,5679
8,28527,6131
8,28940,6634
8,29352,5413
8,29763,6442
8,30177,4820
8,30588,5337
8,31000,6233
8,31413,5837
8,31825,5458
8,32237,5271
8,32650,5665
8,33062,5503
8,33473,6006
8,33887,4843
8,34298,5558
8,34710,4959
8,35123,4906
8,35535,4768
8,35947,5880
8,36358,5913
8,36772,4702
8,37183,4622
8,37595,4786
8,38008,4525
8,38420,5274
8,38832,5021
8,39245,4704
8,39657,4864
8,40068,5282
8,40482,5314
8,40893,5299
8,41305,4595
8,41718,5862
8,42130,4599
8,42542,5127
8,42955,4461
8,43367,4284
8,43778,4060
8,44192,4594
8,44603,4695
8,45015,4601
8,45427,4638
8,45840,4501
8,46252,4950
8,46663,5000
8,47077,5288
8,47488,3923
8,47900,5135
8,48313,5222
8,48725,4540
8,49137,4731
8,49550,4794
8,49962,4929
8,50373,5743
8,50787,5697
8,51198,3874
8,51610,5337
8,52023,4883
8,52435,4521
8,52847,4544
8,53260,5298
8,53672,4694
8,54083,5111
8,54495,3901
8,54908,4413
8,55320,4575
8,55732,4771
8,56145,5055
8,56557,4642
8,56968,5377
8,57382,4546
8,57793,4382
8,58205,4272
8,58618,3916
8,59030,5346
8,59442,5251
8,59855,4983
8,60267,4331
8,60678,4220
8,61092,4795
8,61503,4386
8,61915,4681
8,62328,4874
8,62740,4610
8,63152,4650
8,63563,5245
8,63977,4465
8,64388,5098
8,64800,4397
8,65213,4810
8,65625,4801
8,66037,4776
8,66450,4429
8,66862,4578
8,67273,4779
8,67687,4369
8,68098,4172
8,68510,3945
8,68923,4448
8,69335,4192
8,69747,4205
8,70160,4303
8,70572,4518
8,70983,4737
8,71397,4215
8,71808,4090
8,72220,4616
8,72632,3686
8,73045,4813
8,73457,4776
8,73868,3977
8,74282,4378
8,74693,3854
8,75105,3436
8,75518,4803
8,75930,4561
8,76342,4629
8,76755,5109
8,77167,7104
8,77578,10482
8,77992,18867
8,78403,32536
8,78815,54332
8,79228,89639
8,79640,135807
8,80052,195323
8,80465,261411
8,80877,320129
8,81288,375627
8,81700,415703
8,82113,433510
8,82525,436585
8,82937,428147
8,83350,397482
8,83762,362998
8,84173,321608
8,84587,276671
8,84998,240540
8,85410,205503
8,85823,170276
8,86235,144241
8,86647,116927
8,87060,94571
8,87472,76776
8,87883,62256
8,88297,49706
8,88708,41039
8,89120,35011
8,89533,29818
8,89945,26469
8,90357,22679
8,90768,19859
8,91182,16889
8,91593,14999
8,92005,13353
8,92418,12778
8,92830,12177
8,93242,11160
8,93655,11177
8,94067,10316
8,94478,9607
8,94892,9061
8,95303,9406
8,95715,8514
8,96128,7755
8,96540,9088
8,96952,8969
8,97365,8925
8,97777,8054
8,98188,8196
8,98602,8145
8,99013,8857
8,99425,8727
8,99837,7179
9,00250,7753
9,00662,7836
9,01073,6641
9,01487,8076
9,01898,6352
9,02310,7097
9,02723,5791
9,03135,6591
9,03547,6000
9,03960,6365
9,04372,6808
9,04783,5885
9,05197,5733
9,05608,5515
9,06020,5863
9,06433,5995
9,06845,5606
9,07257,4693
9,07670,5360
9,08082,5267
9,08493,4632
9,08905,4411
9,09318,4250
9,09730,5023
9,10142,4280
9,10555,4662
9,10967,4660
9,11378,3989
9,11792,4603
9,12203,4203
9,12615,4525
9,13028,4677
9,13440,4345
9,13852,4013
9,14265,4795
9,14677,5219
9,15088,4836
9,15502,5205
9,15913,5541
9,16325,5653
9,16738,6122
9,17150,5782
9,17562,5608
9,17973,6703
9,18387,5874
9,18798,5970
9,19210,5364
9,19623,4872
9,20035,4194
9,20447,4132
9,20860,4439
9,21272,3780
9,21683,4190
9,22097,3865
9,22508,4106
9,22920,4295
9,23333,3968
9,23745,3830
9,24157,3910
9,24570,3532
9,24982,3683
9,25393,3649
9,25807,4153
9,26218,4010
9,26630,3818
9,27042,3181
9,27455,3778
9,27867,3454
9,28278,4018
9,28692,4099
9,29103,4229
9,29515,3987
9,29928,3695
9,30340,4320
9,30752,4466
9,31165,3717
9,31577,3957
9,31988,3233
9,32402,3732
9,32813,3819
9,33225,3442
9,33638,3729
9,34050,3443
9,34462,3993
9,34875,3225
9,35287,3206
9,35698,3031
9,36110,3236
9,36523,3680
9,36935,4204
9,37347,3446
9,37760,3852
9,38172,2993
9,38583,3205
9,38997,3462
9,39408,3585
9,39820,3251
9,40233,3036
9,40645,2957
9,41057,3272
9,41470,4229
9,41882,3813
9,42293,3986
9,42707,3283
9,43118,4098
9,43530,3124
9,43943,3553
9,44355,3685
9,44767,2885
9,45178,3394
9,45592,3926
9,46003,3201
9,46415,2876
9,46828,3626
9,47240,3198
9,47652,3239
9,48065,3181
9,48477,3393
9,48888,3451
9,49302,3227
9,49713,3602
9,50125,3756
9,50538,3569
9,50950,3465
9,51362,2923
9,51775,2813
9,52187,3689
9,52598,3513
9,53012,2890
9,53423,3772
9,53835,3731
9,54247,3451
9,54660,3610
9,55072,3161
9,55483,3783
9,55897,3244
9,56308,3693
9,56720,3924
9,57133,3176
9,57545,3804
9,57957,3931
9,58370,3140
9,58782,3207
9,59193,4073
9,59607,3781
9,60018,3530
9,60430,3078
9,60843,3545
9,61255,3143
9,61667,3497
9,62080,3134
9,62492,3166
9,62903,3053
9,63315,2821
9,63728,3632
9,64140,2932
9,64552,3575
9,64965,2664
9,65377,3297
9,65788,3321
9,66202,3144
9,66613,4186
9,67025,4358
9,67438,4166
9,67850,2984
9,68262,3675
9,68675,3566
9,69087,4621
9,69498,4497
9,69912,7123
9,70323,10653
9,70735,23845
9,71148,45771
9,71560,82985
9,71972,148064
9,72383,241516
9,72797,367268
9,73208,521152
9,73620,694820
9,74033,861758
9,74445,1004640
9,74857,1094986
9,75270,1124432
9,75682,1104574
9,76093,1024609
9,76507,911493
9,76918,784209
9,77330,651390
9,77743,537730
9,78155,415655
9,78567,333269
9,78980,259138
9,79392,202786
9,79803,159462
9,80217,124822
9,80628,98868
9,81040,82092
9,81452,66510
9,81865,54547
9,82277,47152
9,82688,42826
9,83102,35408
9,83513,32277
9,83925,27577
9,84338,25780
9,84750,22098
9,85162,21669
9,85575,18943
9,85987,17208
9,86398,14453
9,86812,14986
9,87223,13656
9,87635,12074
9,88048,11688
9,88460,10938
9,88872,9762
9,89285,10673
9,89697,10193
9,90108,8588
9,90522,9667
9,90933,8520
9,91345,7742
9,91757,8065
9,92170,7037
9,92582,6966
9,92993,7255
9,93407,6844
9,93818,6423
9,94230,7649
9,94643,6282
9,95055,5996
9,95467,5851
9,95880,5677
9,96292,5431
9,96703,5198
9,97117,5339
9,97528,5130
9,97940,4468
9,98353,5150
9,98765,4610
9,99177,4954
9,99590,4774
10,00002,4957
10,00413,3682
10,00825,4498
10,01238,3677
10,01650,4514
10,02062,4284
10,02475,3798
10,02887,3864
10,03298,3545
10,03712,4205
10,04123,4430
10,04535,3616
10,04948,3825
10,05360,3937
10,05772,3846
10,06185,3196
10,06597,3943
10,07008,3375
10,07422,2990
10,07833,3784
10,08245,2880
10,08658,3191
10,09070,3444
10,09482,3113
10,09893,3849
10,10307,3306
10,10718,4007
10,11130,3631
10,11543,2809
10,11955,3330
10,12367,3943
10,12780,3213
10,13192,3153
10,13603,4452
10,14017,4799
10,14428,4860
10,14840,5621
10,15253,5833
10,15665,5521
10,16077,4166
10,16490,3445
10,16902,3738
10,17313,3272
10,17727,2818
10,18138,3480
10,18550,2977
10,18962,3281
10,19375,2624
10,19787,3077
10,20198,3159
10,20612,3093
10,21023,3246
10,21435,3234
10,21848,3717
10,22260,2643
10,22672,3123
10,23085,2862
10,23497,3087
10,23908,3385
10,24322,4138
10,24733,3640
10,25145,3387
10,25558,3824
10,25970,3612
10,26382,3262
10,26795,3714
10,27207,2547
10,27618,3375
10,28030,2261
10,28443,3456
10,28855,3133
10,29267,2878
10,29680,2665
10,30092,2778
10,30503,2957
10,30917,3182
10,31328,3440
10,31740,3776
10,32153,3304
10,32565,4176
10,32977,5374
10,33390,5405
10,33802,6888
10,34213,6752
10,34627,7837
10,35038,7906
10,35450,8778
10,35863,8000
10,36275,7216
10,36687,6934
10,37098,7231
10,37512,6101
10,37923,6030
10,38335,5818
10,38748,5558
10,39160,4794
10,39572,4996
10,39985,4441
10,40397,3850
10,40808,3805
10,41222,3641
10,41633,3333
10,42045,3921
10,42458,3873
10,42870,3521
10,43282,2643
10,43695,3000
10,44107,2448
10,44518,3103
10,44932,2615
10,45343,2726
10,45755,2916
10,46167,2716
10,46580,2508
10,46992,2394
10,47403,2996
10,47817,2384
10,48228,3002
10,48640,3309
10,49053,2304
10,49465,2121
10,49877,2983
10,50290,2493
10,50702,2881
10,51113,3134
10,51527,2624
10,51938,2264
10,52350,2078
10,52763,2516
10,53175,2379
10,53587,2168
10,54000,2828
10,54412,2497
10,54823,2106
10,55235,2704
10,55648,2159
10,56060,2641
10,56472,2757
10,56885,2458
10,57297,2306
10,57708,2477
10,58122,2734
10,58533,2297
10,58945,3015
10,59358,2408
10,59770,2144
10,60182,2550
10,60595,2210
10,61007,2328
10,61418,2721
10,61832,1979
10,62243,2866
10,62655,2078
10,63068,2832
10,63480,2942
10,63892,4112
10,64303,7525
10,64717,14892
10,65128,26557
10,65540,52020
10,65953,93735
10,66365,153409
10,66777,234101
10,67190,335860
10,67602,430477
10,68013,533796
10,68427,606941
10,68838,648117
10,69250,642871
10,69663,605717
10,70075,539874
10,70487,456264
10,70900,373602
10,71312,299047
10,71723,229605
10,72137,174184
10,72548,134327
10,72960,102466
10,73372,77746
10,73785,62996
10,74197,48403
10,74608,41393
10,75022,34072
10,75433,28656
10,75845,25050
10,76258,20997
10,76670,18902
10,77082,16172
10,77495,14651
10,77907,12153
10,78318,12655
10,78732,11345
10,79143,8953
10,79555,9276
10,79968,9431
10,80380,8026
10,80792,7383
10,81205,6953
10,81617,6407
10,82028,7382
10,82440,5831
10,82853,5658
10,83265,4771
10,83677,5869
10,84090,5460
10,84502,5082
10,84913,4678
10,85327,4580
10,85738,4816
10,86150,3879
10,86563,3463
10,86975,4252
10,87387,3731
10,87800,3696
10,88212,4474
10,88623,3274
10,89037,2938
10,89448,3807
10,89860,3353
10,90273,3175
10,90685,2973
10,91097,3460
10,91508,3238
10,91922,3060
10,92333,3167
10,92745,3179
10,93158,2959
10,93570,2213
10,93982,3458
10,94395,2309
10,94807,2624
10,95218,2667
10,95632,3085
10,96043,2659
10,96455,2907
10,96868,2731
10,97280,3224
10,97692,2398
10,98105,2871
10,98517,3088
10,98928,2696
10,99342,3005
10,99753,1932
11,00165,2458
11,00577,2325
11,00990,2832
11,01402,2473
11,01813,2073
11,02227,2566
11,02638,2411
11,03050,2363
11,03463,2209
11,03875,2344
11,04287,2109
11,04700,2297
11,05112,2597
11,05523,2810
11,05937,2274
11,06348,2149
11,06760,2337
11,07173,2675
11,07585,2418
11,07997,1396
11,08410,2410
11,08822,1905
11,09233,2292
11,09645,2167
11,10058,2395
11,10470,1875
11,10882,2196
11,11295,1944
11,11707,2242
11,12118,2262
11,12532,2399
11,12943,2549
11,13355,2826
11,13768,3084
11,14180,3606
11,14592,3071
11,15005,4852
11,15417,4929
11,15828,5138
11,16242,4547
11,16653,4224
11,17065,3944
11,17478,3584
11,17890,3987
11,18302,3297
11,18713,2241
11,19127,2804
11,19538,2398
11,19950,2090
11,20363,2450
11,20775,1915
11,21187,2066
11,21600,2604
11,22012,1845
11,22423,2063
11,22837,2120
11,23248,2154
11,23660,1918
11,24073,2199
11,24485,1960
11,24897,1480
11,25310,2013
11,25722,2836
11,26133,2094
11,26547,2344
11,26958,2579
11,27370,2954
11,27782,3319
11,28195,3796
11,28607,3288
11,29018,4411
11,29432,4245
11,29843,4800
11,30255,5193
11,30668,5183
11,31080,3858
11,31492,3742
11,31905,3243
11,32317,2954
11,32728,2529
11,33142,2825
11,33553,3002
11,33965,2363
11,34378,2641
11,34790,2019
11,35202,2639
11,35615,2226
11,36027,2374
11,36438,2372
11,36850,1589
11,37263,1733
11,37675,1860
11,38087,2082
11,38500,1954
11,38912,1725
11,39323,2009
11,39737,2362
11,40148,2454
11,40560,1948
11,40973,2294
11,41385,2476
11,41797,2632
11,42210,2134
11,42622,2071
11,43033,1842
11,43447,2714
11,43858,2128
11,44270,1914
11,44683,2341
11,45095,1825
11,45507,2015
11,45920,2240
11,46332,1842
11,46743,1822
11,47155,1429
11,47568,1621
11,47980,2772
11,48392,1766
11,48805,1908
11,49217,1900
11,49628,1912
11,50042,1950
11,50453,1569
11,50865,1869
11,51278,1617
11,51690,1902
11,52102,1553
11,52515,1993
11,52927,2271
11,53338,1906
11,53752,2009
11,54163,1428
11,54575,2052
11,54988,1955
11,55400,1604
11,55812,2322
11,56223,2478
11,56637,3217
11,57048,6744
11,57460,13433
11,57873,29321
11,58285,59769
11,58697,116093
11,59110,209550
11,59522,344802
11,59933,528826
11,60347,750344
11,60758,994066
11,61170,1215150
11,61583,1371951
11,61995,1462090
11,62407,1451514
11,62820,1351110
11,63232,1183849
11,63643,984122
11,64057,772550
11,64468,582706
11,64880,440349
11,65292,324038
11,65705,241162
11,66117,187860
11,66528,139348
11,66942,109483
11,67353,92775
11,67765,74819
11,68178,63708
11,68590,53655
11,69002,43417
11,69415,37682
11,69827,34198
11,70238,29728
11,70652,26503
11,71063,25971
11,71475,20898
11,71888,20335
11,72300,17907
11,72712,16708
11,73125,15337
11,73537,15130
11,73948,12964
11,74360,12127
11,74773,10404
11,75185,12360
11,75597,9476
11,76010,9746
11,76422,8977
11,76833,7979
11,77247,8815
11,77658,6998
11,78070,7891
11,78483,7403
11,78895,7049
11,79307,8042
11,79720,8177
11,80132,8736
11,80543,8959
11,80957,9900
11,81368,9009
11,81780,9066
11,82193,10373
11,82605,8598
11,83017,8804
11,83428,6766
11,83842,5575
11,84253,5602
11,84665,6208
11,85078,5066
11,85490,4291
11,85902,4977
11,86315,3770
11,86727,3370
11,87138,3143
11,87552,3220
11,87963,2737
11,88375,3090
11,88788,3064
11,89200,3475
11,89612,3043
11,90025,2771
11,90437,3391
11,90848,2740
11,91262,2553
11,91673,2908
11,92085,2279
11,92497,2832
11,92910,2485
11,93322,3040
11,93733,2263
11,94147,2228
11,94558,3072
11,94970,2480
11,95383,2482
11,95795,2082
11,96207,2467
11,96620,1856
11,97032,2690
11,97443,2324
11,97857,2741
11,98268,2941
11,98680,2557
11,99093,2449
11,99505,3053
11,99917,2506
12,00330,2139
12,00742,2592
12,01153,3250
12,01565,4642
12,01978,4618
12,02390,4896
12,02802,4530
12,03215,5157
12,03627,3294
12,04038,2843
12,04452,2521
12,04863,2807
12,05275,2689
12,05688,3160
12,06100,3406
12,06512,3379
12,06925,3634
12,07337,4004
12,07748,3981
12,08162,4051
12,08573,3327
12,08985,3124
12,09398,2654
12,09810,2635
12,10222,2345
12,10633,1940
12,11047,2265
12,11458,2008
12,11870,1526
12,12283,2182
12,12695,1883
12,13107,1728
12,13520,1431
12,13932,1923
12,14343,1610
12,14757,1498
12,15168,1772
12,15580,2016
12,15993,1860
12,16405,1825
12,16817,1819
12,17230,1470
12,17642,1617
12,18053,1602
12,18467,1648
12,18878,1782
12,19290,1519
12,19702,1969
12,20115,1436
12,20527,2064
12,20938,1398
12,21352,2003
12,21763,2312
12,22175,3041
12,22588,7235
12,23000,14760
12,23412,32870
12,23825,61054
12,24237,111878
12,24648,187454
12,25062,277247
12,25473,388371
12,25885,501330
12,26298,590230
12,26710,662048
12,27122,680750
12,27535,660363
12,27947,605139
12,28358,521648
12,28770,429393
12,29183,337725
12,29595,264244
12,30007,196557
12,30420,149062
12,30832,110950
12,31243,87163
12,31657,67436
12,32068,56640
12,32480,43172
12,32893,35737
12,33305,30047
12,33717,26073
12,34130,22539
12,34542,17596
12,34953,16646
12,35367,16708
12,35778,14886
12,36190,12822
12,36603,12144
12,37015,10034
12,37427,9402
12,37838,8308
12,38252,8636
12,38663,7816
12,39075,6654
12,39488,6056
12,39900,4928
12,40312,5081
12,40725,5681
12,41137,4997
12,41548,3981
12,41962,3509
12,42373,3545
12,42785,4109
12,43198,3264
12,43610,4187
12,44022,3375
12,44435,2599
12,44847,3140
12,45258,2670
12,45672,3319
12,46083,2585
12,46495,2630
12,46907,2846
12,47320,2607
12,47732,4090
12,48143,6796
12,48557,13204
12,48968,28222
12,49380,50620
12,49793,95481
12,50205,162513
12,50617,261152
12,51030,375607
12,51442,505305
12,51853,629002
12,52267,721246
12,52678,760069
12,53090,751566
12,53503,697806
12,53915,607489
12,54327,494421
12,54740,396171
12,55152,300140
12,55563,223645
12,55975,165262
12,56388,122557
12,56800,93178
12,57212,71633
12,57625,56055
12,58037,45162
12,58448,37663
12,58862,30762
12,59273,26892
12,59685,23677
12,60098,21648
12,60510,18309
12,60922,16514
12,61335,14410
12,61747,13553
12,62158,10730
12,62572,9991
12,62983,10402
12,63395,9176
12,63808,8144
12,64220,6837
12,64632,6076
12,65043,6867
12,65457,6350
12,65868,5346
12,66280,5278
12,66693,5248
12,67105,4998
12,67517,5510
12,67930,4823
12,68342,4165
12,68753,4203
12,69167,4527
12,69578,3367
12,69990,3761
12,70403,3904
12,70815,2850
12,71227,4111
12,71640,3434
12,72052,3381
12,72463,2826
12,72877,2995
12,73288,2764
12,73700,2993
12,74112,2353
12,74525,2876
12,74937,2116
12,75348,2847
12,75762,2502
12,76173,2752
12,76585,2124
12,76998,1956
12,77410,2324
12,77822,2711
12,78235,1932
12,78647,2187
12,79058,2348
12,79472,2157
12,79883,1883
12,80295,2392
12,80708,2206
12,81120,2514
12,81532,2194
12,81945,2098
12,82357,2301
12,82768,1661
12,83180,1683
12,83593,1849
12,84005,2285
12,84417,1801
12,84830,1689
12,85242,2298
12,85653,1740
12,86067,1907
12,86478,1545
12,86890,1245
12,87303,1924
12,87715,1952
12,88127,1648
12,88540,1679
12,88952,1576
12,89363,2178
12,89777,1705
12,90188,1954
12,90600,2438
12,91013,1744
12,91425,1732
12,91837,1932
12,92248,1072
12,92662,2040
12,93073,1938
12,93485,2076
12,93898,2534
12,94310,3047
12,94722,2613
12,95135,2416
12,95547,2205
12,95958,3305
12,96372,2905
12,96783,1918
12,97195,1703
12,97608,1394
12,98020,1457
12,98432,1711
12,98845,2143
12,99257,1249
12,99668,1595
13,00082,1717
13,00493,1729
13,00905,1513
13,01318,1804
13,01730,1721
13,02142,1857
13,02553,1425
13,02967,1458
13,03378,2014
13,03790,1586
13,04203,1814
13,04615,2518
13,05027,1592
13,05440,1387
13,05852,1562
13,06263,1650
13,06677,2208
13,07088,1999
13,07500,1259
13,07913,1786
13,08325,1805
13,08737,1492
13,09150,1471
13,09562,2036
13,09973,1027
13,10387,1936
13,10798,2039
13,11210,1833
13,11622,1830
13,12035,3571
13,12447,6261
13,12858,12760
13,13272,28448
13,13683,56169
13,14095,101735
13,14508,177382
13,14920,269025
13,15332,388086
13,15745,514505
13,16157,615847
13,16568,701807
13,16982,741345
13,17393,733453
13,17805,679491
13,18218,573085
13,18630,470568
13,19042,366248
13,19455,278350
13,19867,208157
13,20278,161883
13,20690,117150
13,21103,88646
13,21515,69413
13,21927,54580
13,22340,45166
13,22752,36961
13,23163,29856
13,23577,26209
13,23988,20770
13,24400,19000
13,24813,17209
13,25225,14091
13,25637,12430
13,26050,11446
13,26462,11528
13,26873,10396
13,27287,9536
13,27698,10448
13,28110,7772
13,28523,8657
13,28935,6210
13,29347,7241
13,29758,6681
13,30172,5615
13,30583,5580
13,30995,5149
13,31408,4488
13,31820,4494
13,32232,4814
13,32645,3566
13,33057,3218
13,33468,3321
13,33882,3322
13,34293,2638
13,34705,3213
13,35118,3534
13,35530,3974
13,35942,7045
13,36355,13703
13,36767,28090
13,37178,59257
13,37592,117723
13,38003,220381
13,38415,375882
13,38827,595511
13,39240,876717
13,39652,1222633
13,40063,1610428
13,40477,1998164
13,40888,2290445
13,41300,2475468
13,41713,2460820
13,42125,2278637
13,42537,1985152
13,42950,1598958
13,43362,1232485
13,43773,903669
13,44187,656052
13,44598,467546
13,45010,347352
13,45423,264379
13,45835,202139
13,46247,163224
13,46660,130351
13,47072,106882
13,47483,89641
13,47895,77158
13,48308,67388
13,48720,60083
13,49132,51153
13,49545,45650
13,49957,42489
13,50368,37891
13,50782,34102
13,51193,30127
13,51605,29408
13,52018,26413
13,52430,23637
13,52842,23247
13,53255,19763
13,53667,19259
13,54078,18382
13,54492,17184
13,54903,16160
13,55315,14838
13,55728,13272
13,56140,12330
13,56552,11371
13,56963,11820
13,57377,11059
13,57788,10167
13,58200,8895
13,58613,9853
13,59025,8325
13,59437,8237
13,59850,8189
13,60262,7078
13,60673,6407
13,61087,7066
13,61498,6039
13,61910,5306
13,62323,6029
13,62735,5571
13,63147,5454
13,63560,6443
13,63972,5750
13,64383,5212
13,64797,4802
13,65208,4430
13,65620,5030
13,66032,4233
13,66445,4202
13,66857,3893
13,67268,4786
13,67682,3477
13,68093,4127
13,68505,3722
13,68918,4661
13,69330,3932
13,69742,3611
13,70155,4015
13,70567,2739
13,70978,2568
13,71392,3062
13,71803,3264
13,72215,2987
13,72628,3084
13,73040,2775
13,73452,3289
13,73865,3299
13,74277,3191
13,74688,4147
13,75100,3716
13,75513,3603
13,75925,3353
13,76337,2391
13,76750,3027
13,77162,2304
13,77573,2368
13,77987,2834
13,78398,3128
13,78810,2311
13,79223,2538
13,79635,2437
13,80047,3041
13,80460,4931
13,80872,5800
13,81283,5745
13,81697,5996
13,82108,5811
13,82520,4367
13,82933,3503
13,83345,3747
13,83757,3420
13,84168,2920
13,84582,3750
13,84993,2874
13,85405,3282
13,85818,2548
13,86230,2517
13,86642,2291
13,87055,2637
13,87467,3141
13,87878,5983
13,88292,12822
13,88703,25080
13,89115,46901
13,89528,95558
13,89940,158655
13,90352,252688
13,90765,369332
13,91177,500578
13,91588,627059
13,92002,711063
13,92413,766366
13,92825,758183
13,93237,705807
13,93650,614168
13,94062,496942
13,94473,394368
13,94887,296873
13,95298,224716
13,95710,170093
13,96123,125074
13,96535,94632
13,96947,74703
13,97360,59008
13,97772,49074
13,98183,41732
13,98597,35591
13,99008,32842
13,99420,29950
13,99833,29082
14,00245,28322
14,00657,24434
14,01070,25067
14,01482,23183
14,01893,22263
14,02305,23639
14,02718,21166
14,03130,20601
14,03542,19049
14,03955,17626
14,04367,16359
14,04778,13158
14,05192,11635
14,05603,9609
14,06015,9050
14,06428,7430
14,06840,7574
14,07252,6844
14,07665,6465
14,08077,5316
14,08488,4193
14,08902,4842
14,09313,4329
14,09725,4209
14,10138,3218
14,10550,3339
14,10962,3254
14,11373,3641
14,11787,3459
14,12198,3487
14,12610,2909
14,13023,3254
14,13435,3442
14,13847,3913
14,14260,3019
14,14672,2410
14,15083,2840
14,15497,3020
14,15908,2984
14,16320,2672
14,16733,2867
14,17145,3059
14,17557,3162
14,17970,2396
14,18382,3212
14,18793,2090
14,19207,2854
14,19618,3141
14,20030,3154
14,20442,3085
14,20855,3873
14,21267,6729
14,21678,13187
14,22092,28027
14,22503,57467
14,22915,106204
14,23328,182282
14,23740,292456
14,24152,423004
14,24565,570439
14,24977,716522
14,25388,813829
14,25802,856089
14,26213,843599
14,26625,774033
14,27038,669103
14,27450,545468
14,27862,414018
14,28275,314391
14,28687,229776
14,29098,171785
14,29510,125282
14,29923,98698
14,30335,74972
14,30747,59544
14,31160,48038
14,31572,39892
14,31983,33845
14,32397,30978
14,32808,26317
14,33220,23426
14,33633,19449
14,34045,18117
14,34457,16296
14,34870,14323
14,35282,13561
14,35693,12466
14,36107,11089
14,36518,9840
14,36930,8865
14,37343,10389
14,37755,8014
14,38167,8005
14,38578,6679
14,38992,7627
14,39403,6200
14,39815,6093
14,40228,5411
14,40640,5476
14,41052,5276
14,41465,5020
14,41877,5686
14,42288,4458
14,42702,5645
14,43113,5958
14,43525,4467
14,43938,5549
14,44350,5240
14,44762,5631
14,45175,4611
14,45587,3776
14,45998,4196
14,46412,4465
14,46823,3887
14,47235,3910
14,47647,3882
14,48060,3409
14,48472,3601
14,48883,3644
14,49297,2342
14,49708,3641
14,50120,4008
14,50533,3818
14,50945,3166
14,51357,3741
14,51770,3442
14,52182,3247
14,52593,3938
14,53007,2951
14,53418,3497
14,53830,3686
14,54243,4183
14,54655,2620
14,55067,3212
14,55480,3139
14,55892,2699
14,56303,3759
14,56717,3878
14,57128,2160
14,57540,2419
14,57952,2430
14,58365,3378
14,58777,2812
14,59188,2731
14,59602,2620
14,60013,2723
14,60425,2978
14,60838,2016
14,61250,2591
14,61662,2568
14,62075,2193
14,62487,2210
14,62898,2752
14,63312,2922
14,63723,1691
14,64135,1987
14,64548,2485
14,64960,1743
14,65372,2396
14,65785,2283
14,66197,1908
14,66608,1854
14,67020,2414
14,67433,2408
14,67845,2597
14,68257,2915
14,68670,2192
14,69082,2414
14,69493,3383
14,69907,2046
14,70318,3049
14,70730,3720
14,71143,3859
14,71555,6442
14,71967,12639
14,72380,24558
14,72792,49272
14,73203,94303
14,73617,162306
14,74028,259731
14,74440,383644
14,74853,523160
14,75265,651289
14,75677,769828
14,76088,836215
14,76502,828635
14,76913,768743
14,77325,672353
14,77738,557080
14,78150,439172
14,78562,335835
14,78975,249939
14,79387,190090
14,79798,140129
14,80212,105744
14,80623,84789
14,81035,66623
14,81448,52937
14,81860,42319
14,82272,36821
14,82685,32209
14,83097,27083
14,83508,23910
14,83922,21214
14,84333,18270
14,84745,18207
14,85157,16157
14,85570,14253
14,85982,12324
14,86393,12816
14,86807,11353
14,87218,10353
14,87630,9636
14,88043,9125
14,88455,6166
14,88867,8333
14,89280,6520
14,89692,5842
14,90103,7323
14,90517,6229
14,90928,5676
14,91340,4901
14,91753,4579
14,92165,5092
14,92577,4528
14,92990,4533
14,93402,4093
14,93813,3967
14,94225,3899
14,94638,4227
14,95050,4096
14,95462,3133
14,95875,3973
14,96287,4474
14,96698,4822
14,97112,4747
14,97523,7021
14,97935,9413
14,98348,11709
14,98760,14031
14,99172,15828
14,99585,18503
14,99997,17244
15,00408,18971
15,00822,18863
15,01233,16387
15,01645,15607
15,02058,13468
15,02470,11776
15,02882,11700
15,03293,15106
15,03707,22579
15,04118,39016
15,04530,74374
15,04943,134160
15,05355,237235
15,05767,376237
15,06180,567740
15,06592,804547
15,07003,1077494
15,07417,1360475
15,07828,1606578
15,08240,1796803
15,08653,1850843
15,09065,1782707
15,09477,1589845
15,09890,1328018
15,10302,1039638
15,10713,789428
15,11127,590911
15,11538,427706
15,11950,311999
15,12362,235079
15,12775,181600
15,13187,141685
15,13598,114174
15,14012,93745
15,14423,79807
15,14835,66984
15,15248,60831
15,15660,53739
15,16072,46114
15,16485,41851
15,16897,37281
15,17308,35769
15,17722,31305
15,18133,29358
15,18545,25761
15,18958,23683
15,19370,21424
15,19782,20674
15,20195,19182
15,20607,18460
15,21018,16305
15,21430,14958
15,21843,12886
15,22255,13186
15,22667,12189
15,23080,11698
15,23492,11005
15,23903,11817
15,24317,9452
15,24728,10025
15,25140,9082
15,25553,9348
15,25965,7833
15,26377,7420
15,26790,8123
15,27202,7000
15,27613,7303
15,28027,7176
15,28438,6661
15,28850,6417
15,29263,5983
15,29675,5758
15,30087,5764
15,30498,5901
15,30912,7081
15,31323,10569
15,31735,16384
15,32148,30460
15,32560,59455
15,32972,107432
15,33385,172674
15,33797,278962
15,34208,393045
15,34622,532731
15,35033,673348
15,35445,785078
15,35858,855332
15,36270,876973
15,36682,826848
15,37095,733840
15,37507,616014
15,37918,491174
15,38332,377146
15,38743,288814
15,39155,214171
15,39567,157357
15,39980,120822
15,40392,94617
15,40803,77200
15,41217,61998
15,41628,51499
15,42040,44216
15,42453,37378
15,42865,33964
15,43277,29472
15,43690,24847
15,44102,21907
15,44513,20593
15,44927,20420
15,45338,19887
15,45750,25170
15,46163,35012
15,46575,59336
15,46987,101219
15,47400,180041
15,47812,299949
15,48223,471295
15,48635,692040
15,49048,957358
15,49460,1229338
15,49872,1492516
15,50285,1661473
15,50697,1738046
15,51108,1695502
15,51522,1534482
15,51933,1312833
15,52345,1068495
15,52758,819188
15,53170,603649
15,53582,446660
15,53995,332025
15,54407,251316
15,54818,194091
15,55232,150075
15,55643,122308
15,56055,103195
15,56468,87607
15,56880,76952
15,57292,65789
15,57703,58335
15,58117,51645
15,58528,46352
15,58940,41421
15,59353,38992
15,59765,36217
15,60177,31086
15,60590,29183
15,61002,28555
15,61413,25299
15,61827,25143
15,62238,22019
15,62650,20520
15,63063,18816
15,63475,18507
15,63887,16371
15,64300,16141
15,64712,16540
15,65123,14789
15,65537,14587
15,65948,11855
15,66360,13610
15,66772,12760
15,67185,10308
15,67597,11069
15,68008,10453
15,68422,9186
15,68833,8941
15,69245,9381
15,69658,7282
15,70070,7163
15,70482,7461
15,70895,8691
15,71307,5860
15,71718,7613
15,72132,5869
15,72543,6682
15,72955,7170
15,73368,6824
15,73780,5975
15,74192,5979
15,74605,4933
15,75017,5600
15,75428,5519
15,75840,6612
15,76253,5537
15,76665,5664
15,77077,6882
15,77490,9614
15,77902,16953
15,78313,30512
15,78727,60594
15,79138,109533
15,79550,187267
15,79963,291140
15,80375,426587
15,80787,570939
15,81200,696022
15,81612,792049
15,82023,825666
15,82437,807384
15,82848,737748
15,83260,621274
15,83673,504417
15,84085,396531
15,84497,303884
15,84908,222388
15,85322,174586
15,85733,129757
15,86145,101058
15,86558,82503
15,86970,67797
15,87382,54138
15,87795,46710
15,88207,40677
15,88618,35863
15,89032,30450
15,89443,26516
15,89855,25862
15,90268,21758
15,90680,20031
15,91092,19766
15,91505,18036
15,91917,17725
15,92328,16937
15,92742,15846
15,93153,13053
15,93565,13300
15,93977,11233
15,94390,11808
15,94802,12149
15,95213,10207
15,95627,10353
15,96038,9109
15,96450,9381
15,96863,8672
15,97275,9637
15,97687,9613
15,98100,8332
15,98512,9046
15,98923,9189
15,99337,7363
15,99748,8609
16,00160,7532
16,00573,7069
16,00985,7330
16,01397,6890
16,01810,6532
16,02222,6138
16,02633,7258
16,03045,6292
16,03458,6319
16,03870,6273
16,04282,6875
16,04695,6524
16,05107,5686
16,05518,5970
16,05932,5396
16,06343,5877
16,06755,6595
16,07168,5663
16,07580,5559
16,07992,5813
16,08405,4882
16,08817,5190
16,09228,4265
16,09642,5754
16,10053,6522
16,10465,10253
16,10878,16586
16,11290,35503
16,11702,64867
16,12115,112710
16,12527,191809
16,12938,298324
16,13350,427103
16,13763,571436
16,14175,678291
16,14587,761717
16,15000,795709
16,15412,759261
16,15823,680563
16,16237,582509
16,16648,464825
16,17060,364151
16,17473,274463
16,17885,204994
16,18297,156426
16,18710,121491
16,19122,92324
16,19533,73614
16,19947,60311
16,20358,49870
16,20770,42763
16,21183,37384
16,21595,32074
16,22007,29490
16,22418,24872
16,22832,22429
16,23243,21477
16,23655,19214
16,24068,17295
16,24480,17401
16,24892,16861
16,25305,14824
16,25717,14586
16,26128,15703
16,26542,14655
16,26953,13587
16,27365,14184
16,27778,13292
16,28190,12421
16,28602,11245
16,29015,11073
16,29427,10021
16,29838,9501
16,30252,9089
16,30663,7304
16,31075,8816
16,31487,7509
16,31900,7373
16,32312,6326
16,32723,7872
16,33137,7466
16,33548,6619
16,33960,6503
16,34373,5688
16,34785,6574
16,35197,5907
16,35610,6281
16,36022,5523
16,36433,5853
16,36847,5670
16,37258,4757
16,37670,6285
16,38083,5958
16,38495,4714
16,38907,6069
16,39320,5235
16,39732,6004
16,40143,6406
16,40555,7118
16,40968,6786
16,41380,5944
16,41792,5439
16,42205,4898
16,42617,4779
16,43028,5256
16,43442,5294
16,43853,5869
16,44265,4821
16,44678,4765
16,45090,5480
16,45502,4936
16,45915,5094
16,46327,4314
16,46738,5266
16,47152,4549
16,47563,3375
16,47975,4629
16,48388,4723
16,48800,3796
16,49212,3448
16,49623,4134
16,50037,4449
16,50448,3784
16,50860,3877
16,51273,4099
16,51685,3878
16,52097,4401
16,52510,4699
16,52922,4475
16,53333,4277
16,53747,4249
16,54158,4252
16,54570,3739
16,54983,4065
16,55395,4861
16,55807,8258
16,56220,12089
16,56632,25421
16,57043,44636
16,57457,86199
16,57868,145592
16,58280,243097
16,58692,378920
16,59105,549720
16,59517,734977
16,59928,954820
16,60342,1169958
16,60753,1386141
16,61165,1593886
16,61578,1811610
16,61990,2028384
16,62402,2192158
16,62815,2277390
16,63227,2282187
16,63638,2162019
16,64052,1895931
16,64463,1551629
16,64875,1199190
16,65288,894830
16,65700,655454
16,66112,485577
16,66525,369829
16,66937,285342
16,67348,228994
16,67760,189169
16,68173,155524
16,68585,131221
16,68997,112379
16,69410,97526
16,69822,88260
16,70233,77667
16,70647,70130
16,71058,63059
16,71470,57871
16,71883,53858
16,72295,46934
16,72707,44563
16,73120,40764
16,73532,36964
16,73943,37618
16,74357,35107
16,74768,30481
16,75180,29595
16,75593,29140
16,76005,27023
16,76417,27878
16,76828,27152
16,77242,27989
16,77653,28343
16,78065,29083
16,78478,31219
16,78890,32241
16,79302,32606
16,79715,31182
16,80127,30071
16,80538,28693
16,80952,25620
16,81363,24057
16,81775,22415
16,82188,20612
16,82600,18238
16,83012,16897
16,83425,16102
16,83837,15938
16,84248,17656
16,84662,21904
16,85073,30970
16,85485,51126
16,85897,85225
16,86310,141722
16,86722,222902
16,87133,329687
16,87547,437189
16,87958,556338
16,88370,631341
16,88783,683082
16,89195,695746
16,89607,640460
16,90020,559539
16,90432,463930
16,90843,370999
16,91257,290912
16,91668,219586
16,92080,168713
16,92493,124257
16,92905,96454
16,93317,77717
16,93730,65882
16,94142,52466
16,94553,46843
16,94965,38601
16,95378,36580
16,95790,31501
16,96202,29060
16,96615,28499
16,97027,27306
16,97438,29411
16,97852,34360
16,98263,49230
16,98675,73469
16,99088,124527
16,99500,205176
16,99912,308021
17,00325,447263
17,00737,594578
17,01148,744620
17,01562,870456
17,01973,955518
17,02385,942290
17,02798,887588
17,03210,782746
17,03622,647016
17,04033,524352
17,04447,401075
17,04858,304225
17,05270,229782
17,05683,179240
17,06095,141266
17,06507,116225
17,06920,93968
17,07332,80811
17,07743,67746
17,08157,58890
17,08568,53467
17,08980,49907
17,09393,45843
17,09805,41904
17,10217,38813
17,10630,36779
17,11042,31355
17,11453,28953
17,11867,26091
17,12278,24966
17,12690,22866
17,13102,21280
17,13515,21044
17,13927,18803
17,14338,18165
17,14752,18270
17,15163,16998
17,15575,16731
17,15988,17358
17,16400,15583
17,16812,16291
17,17225,16117
17,17637,15542
17,18048,13513
17,18462,14239
17,18873,13604
17,19285,11860
17,19698,10979
17,20110,11061
17,20522,10209
17,20935,10553
17,21347,10431
17,21758,10411
17,22170,9343
17,22583,9838
17,22995,9829
17,23407,10207
17,23820,9528
17,24232,8667
17,24643,9793
17,25057,8944
17,25468,8120
17,25880,7209
17,26293,8227
17,26705,8486
17,27117,8609
17,27530,6537
17,27942,8403
17,28353,8114
17,28767,8939
17,29178,8118
17,29590,8911
17,30003,9260
17,30415,12730
17,30827,20307
17,31238,34642
17,31652,69161
17,32063,122012
17,32475,200753
17,32888,312798
17,33300,461101
17,33712,636068
17,34125,812167
17,34537,971823
17,34948,1076241
17,35362,1091942
17,35773,1020047
17,36185,885043
17,36598,721769
17,37010,568504
17,37422,426603
17,37835,325312
17,38247,246212
17,38658,188298
17,39072,146792
17,39483,119980
17,39895,98226
17,40307,84649
17,40720,70101
17,41132,63399
17,41543,55433
17,41957,48631
17,42368,44223
17,42780,39666
17,43193,36841
17,43605,33970
17,44017,31235
17,44430,30088
17,44842,27003
17,45253,27406
17,45667,26984
17,46078,25844
17,46490,24465
17,46903,22328
17,47315,23790
17,47727,22368
17,48140,21325
17,48552,19783
17,48963,17960
17,49375,17324
17,49788,15396
17,50200,15958
17,50612,14847
17,51025,13726
17,51437,13775
17,51848,12695
17,52262,11803
17,52673,12853
17,53085,12538
17,53498,13144
17,53910,11824
17,54322,11543
17,54735,11663
17,55147,11624
17,55558,10159
17,55972,10627
17,56383,10147
17,56795,10261
17,57208,10183
17,57620,9140
17,58032,9443
17,58443,12102
17,58857,14446
17,59268,21444
17,59680,35677
17,60093,62032
17,60505,110057
17,60917,184379
17,61330,289619
17,61742,417313
17,62153,562365
17,62567,699033
17,62978,812804
17,63390,855790
17,63803,840121
17,64215,772540
17,64627,655427
17,65040,541614
17,65452,422566
17,65863,326185
17,66277,251017
17,66688,191783
17,67100,148182
17,67512,115987
17,67925,94146
17,68337,80917
17,68748,68341
17,69162,56972
17,69573,49372
17,69985,44094
17,70398,39021
17,70810,35679
17,71222,34185
17,71635,31765
17,72047,26839
17,72458,26415
17,72872,25709
17,73283,23669
17,73695,22681
17,74108,21246
17,74520,20840
17,74932,19184
17,75345,19083
17,75757,18545
17,76168,17689
17,76582,14353
17,76993,14263
17,77405,14516
17,77817,14139
17,78230,13949
17,78642,13240
17,79053,12857
17,79467,13804
17,79878,12550
17,80290,12734
17,80703,12456
17,81115,11664
17,81527,12125
17,81940,11663
17,82352,9948
17,82763,9761
17,83177,11926
17,83588,10348
17,84000,10515
17,84413,11238
17,84825,10055
17,85237,10034
17,85650,11325
17,86062,10831
17,86473,9580
17,86885,10244
17,87298,9720
17,87710,10826
17,88122,9287
17,88535,8763
17,88947,9672
17,89358,9380
17,89772,8593
17,90183,10726
17,90595,8975
17,91008,8057
17,91420,7497
17,91832,9165
17,92245,9759
17,92657,9400
17,93068,9014
17,93482,9181
17,93893,10286
17,94305,9355
17,94718,9991
17,95130,8922
17,95542,8524
17,95953,9552
17,96367,8310
17,96778,8715
17,97190,8401
17,97603,8696
17,98015,8769
17,98427,8757
17,98840,7186
17,99252,8948
17,99663,8403
18,00077,8654
18,00488,9905
18,00900,15677
18,01313,24966
18,01725,41714
18,02137,76201
18,02550,134629
18,02962,236982
18,03373,390265
18,03787,600300
18,04198,899281
18,04610,1237826
18,05022,1660849
18,05435,2096023
18,05847,2510381
18,06258,2853312
18,06672,3011712
18,07083,2939679
18,07495,2667202
18,07908,2252628
18,08320,1778191
18,08732,1351904
18,09145,1012045
18,09557,755023
18,09968,563358
18,10382,437923
18,10793,348593
18,11205,287025
18,11618,237558
18,12030,201146
18,12442,176977
18,12855,154654
18,13267,136395
18,13678,123995
18,14090,112383
18,14503,100985
18,14915,91602
18,15327,86381
18,15740,79674
18,16152,75830
18,16563,67638
18,16977,65637
18,17388,61270
18,17800,57629
18,18213,54650
18,18625,53254
18,19037,50489
18,19450,47588
18,19862,44058
18,20273,45037
18,20687,40266
18,21098,40364
18,21510,35627
18,21923,37499
18,22335,33438
18,22747,33456
18,23158,30717
18,23572,31206
18,23983,31236
18,24395,30310
18,24808,26668
18,25220,27217
18,25632,27010
18,26045,26396
18,26457,25881
18,26868,23317
18,27282,24360
18,27693,27306
18,28105,28373
18,28518,33173
18,28930,46139
18,29342,67839
18,29755,108201
18,30167,171208
18,30578,264138
18,30992,382371
18,31403,515337
18,31815,634191
18,32227,724172
18,32640,770262
18,33052,779857
18,33463,726816
18,33877,627641
18,34288,532449
18,34700,432602
18,35113,366970
18,35525,333802
18,35937,339860
18,36350,378394
18,36762,449243
18,37173,538444
18,37587,621821
18,37998,705361
18,38410,742222
18,38823,743971
18,39235,709190
18,39647,657605
18,40060,603701
18,40472,569954
18,40883,578965
18,41295,627811
18,41708,731746
18,42120,848079
18,42532,955268
18,42945,1046617
18,43357,1084573
18,43768,1054629
18,44182,970887
18,44593,847040
18,45005,696203
18,45418,566078
18,45830,435989
18,46242,346400
18,46655,277863
18,47067,219000
18,47478,182102
18,47892,151637
18,48303,129926
18,48715,115585
18,49128,103003
18,49540,94998
18,49952,85339
18,50363,74850
18,50777,71092
18,51188,66623
18,51600,59874
18,52013,55897
18,52425,53747
18,52837,49678
18,53250,46438
18,53662,43454
18,54073,41980
18,54487,38839
18,54898,39292
18,55310,36721
18,55723,36632
18,56135,32467
18,56547,33748
18,56960,30659
18,57372,31429
18,57783,29455
18,58197,30734
18,58608,29622
18,59020,27214
18,59432,26901
18,59845,28919
18,60257,30214
18,60668,29313
18,61082,28341
18,61493,27889
18,61905,26725
18,62318,24339
18,62730,22925
18,63142,23390
18,63555,21071
18,63967,21015
18,64378,21109
18,64792,21053
18,65203,21189
18,65615,20868
18,66028,19921
18,66440,19296
18,66852,20085
18,67265,20615
18,67677,20587
18,68088,22285
18,68500,28484
18,68913,37191
18,69325,56424
18,69737,91507
18,70150,146855
18,70562,237220
18,70973,368729
18,71387,520760
18,71798,704017
18,72210,887971
18,72623,1033814
18,73035,1128771
18,73447,1138136
18,73860,1051947
18,74272,919689
18,74683,749249
18,75097,595450
18,75508,459050
18,75920,347190
18,76333,274100
18,76745,220272
18,77157,179014
18,77568,153547
18,77982,130208
18,78393,110060
18,78805,98195
18,79218,91291
18,79630,79490
18,80042,75473
18,80455,66012
18,80867,62008
18,81278,57723
18,81692,54852
18,82103,52154
18,82515,50346
18,82928,46919
18,83340,45711
18,83752,41537
18,84165,40200
18,84577,38018
18,84988,36985
18,85402,35977
18,85813,34403
18,86225,33769
18,86637,33623
18,87050,30786
18,87462,31649
18,87873,30736
18,88287,27371
18,88698,28115
18,89110,26603
18,89523,28411
18,89935,27793
18,90347,25524
18,90760,28305
18,91172,24901
18,91583,25009
18,91997,25395
18,92408,23665
18,92820,24568
18,93233,25390
18,93645,21986
18,94057,21572
18,94470,22843
18,94882,20332
18,95293,21622
18,95705,22310
18,96118,22335
18,96530,23941
18,96942,31333
18,97355,40953
18,97767,65460
18,98178,101225
18,98592,163742
18,99003,261313
18,99415,373528
18,99828,516858
19,00240,645159
19,00652,778800
19,01065,863698
19,01477,891930
19,01888,862841
19,02302,783419
19,02713,664720
19,03125,546264
19,03538,434811
19,03950,341787
19,04362,267059
19,04773,212028
19,05187,178989
19,05598,148440
19,06010,141230
19,06423,139262
19,06835,157177
19,07247,191841
19,07660,256799
19,08072,327103
19,08483,420448
19,08897,506722
19,09308,588955
19,09720,622163
19,10133,644352
19,10545,613408
19,10957,566547
19,11370,488030
19,11782,405372
19,12193,332111
19,12607,265438
19,13018,214487
19,13430,169840
19,13842,138170
19,14255,115348
19,14667,100552
19,15078,84513
19,15492,75907
19,15903,70071
19,16315,62163
19,16728,57558
19,17140,52776
19,17552,50665
19,17965,45767
19,18377,41441
19,18788,40741
19,19202,38175
19,19613,38287
19,20025,35720
19,20438,35426
19,20850,32970
19,21262,33148
19,21675,29092
19,22087,27473
19,22498,27848
19,22910,29410
19,23323,27450
19,23735,27157
19,24147,28529
19,24560,25673
19,24972,24859
19,25383,25165
19,25797,23169
19,26208,23977
19,26620,23000
19,27033,24093
19,27445,23057
19,27857,22116
19,28270,24821
19,28682,21894
19,29093,20462
19,29507,21906
19,29918,20209
19,30330,20317
19,30743,19519
19,31155,19061
19,31567,19067
19,31978,18540
19,32392,20086
19,32803,19079
19,33215,17874
19,33628,17514
19,34040,18913
19,34452,18092
19,34865,18687
19,35277,21230
19,35688,23558
19,36102,29029
19,36513,41883
19,36925,63627
19,37338,100301
19,37750,159941
19,38162,242181
19,38575,349861
19,38987,486972
19,39398,644531
19,39812,848967
19,40223,1063887
19,40635,1299087
19,41048,1545974
19,41460,1793413
19,41872,1942631
19,42283,2033134
19,42697,1982612
19,43108,1820629
19,43520,1555911
19,43933,1252204
19,44345,965147
19,44757,756017
19,45170,582326
19,45582,461442
19,45993,377530
19,46407,312204
19,46818,263938
19,47230,228777
19,47643,197378
19,48055,178174
19,48467,159649
19,48880,146469
19,49292,132149
19,49703,123638
19,50117,108958
19,50528,104551
19,50940,96752
19,51352,89671
19,51765,86875
19,52177,81157
19,52588,75240
19,53002,72534
19,53413,69992
19,53825,65569
19,54238,63918
19,54650,58429
19,55062,56952
19,55475,55570
19,55887,51762
19,56298,52206
19,56712,49567
19,57123,45409
19,57535,46156
19,57948,45219
19,58360,44549
19,58772,40637
19,59185,41023
19,59597,38234
19,60008,37656
19,60420,39393
19,60833,37687
19,61245,37423
19,61657,35591
19,62070,34250
19,62482,34831
19,62893,34184
19,63307,34384
19,63718,32815
19,64130,32740
19,64543,31815
19,64955,30952
19,65367,31475
19,65780,30815
19,66192,29718
19,66603,30629
19,67017,27476
19,67428,29866
19,67840,28411
19,68253,27732
19,68665,27149
19,69077,26614
19,69488,25084
19,69902,26674
19,70313,26494
19,70725,25992
19,71138,24845
19,71550,23673
19,71962,23925
19,72375,26287
19,72787,24130
19,73198,26099
19,73612,25617
19,74023,26626
19,74435,31309
19,74848,40696
19,75260,57350
19,75672,85307
19,76085,122652
19,76497,184227
19,76908,270590
19,77322,376070
19,77733,495548
19,78145,634013
19,78557,759900
19,78970,877776
19,79382,945139
19,79793,961938
19,80207,935631
19,80618,843962
19,81030,733357
19,81443,615688
19,81855,508972
19,82267,411117
19,82680,336009
19,83092,274083
19,83503,227729
19,83917,191646
19,84328,168021
19,84740,147193
19,85153,126569
19,85565,115760
19,85977,107505
19,86390,94401
19,86802,88671
19,87213,82646
19,87625,77965
19,88038,70094
19,88450,67463
19,88862,63048
19,89275,59640
19,89687,57162
19,90098,52088
19,90512,51713
19,90923,48059
19,91335,48197
19,91748,44741
19,92160,41905
19,92572,40961
19,92985,40353
19,93397,38583
19,93808,38192
19,94222,38653
19,94633,35918
19,95045,32625
19,95458,34785
19,95870,31397
19,96282,32312
19,96693,31726
19,97107,31435
19,97518,30627
19,97930,29941
19,98343,29354
19,98755,27610
19,99167,27905
19,99580,27258
19,99992,27210
20,00403,26784
20,00817,26208
20,01228,24194
20,01640,24271
20,02053,23780
20,02465,24913
20,02877,24683
20,03290,22255
20,03702,21593
20,04113,22001
20,04527,23082
20,04938,23150
20,05350,22453
20,05762,23788
20,06175,21757
20,06587,22202
20,06998,23481
20,07412,23397
20,07823,25364
20,08235,22768
20,08648,23526
20,09060,23947
20,09472,22349
20,09885,24877
20,10297,26562
20,10708,24897
20,11122,26941
20,11533,29310
20,11945,30878
20,12358,28717
20,12770,29965
20,13182,27665
20,13595,26356
20,14007,24851
20,14418,22259
20,14830,23404
20,15243,20875
20,15655,19866
20,16067,18964
20,16480,20761
20,16892,19161
20,17303,19245
20,17717,19201
20,18128,19044
20,18540,18357
20,18953,20029
20,19365,18630
20,19777,17684
20,20190,19154
20,20602,18095
20,21013,19202
20,21427,19428
20,21838,18878
20,22250,19008
20,22663,18910
20,23075,20071
20,23487,19073
20,23898,19286
20,24312,18863
20,24723,18721
20,25135,17531
20,25548,17066
20,25960,18596
20,26372,16535
20,26785,18735
20,27197,17902
20,27608,17649
20,28022,18466
20,28433,18563
20,28845,17623
20,29258,17751
20,29670,17713
20,30082,17315
20,30495,18040
20,30907,17541
20,31318,18345
20,31732,17089
20,32143,18911
20,32555,18745
20,32967,18335
20,33380,19408
20,33792,17949
20,34203,18378
20,34617,19575
20,35028,19008
20,35440,18235
20,35853,18886
20,36265,20222
20,36677,19296
20,37090,20327
20,37502,18922
20,37913,18602
20,38327,18913
20,38738,19252
20,39150,16463
20,39563,16984
20,39975,17063
20,40387,15342
20,40800,16832
20,41212,16818
20,41623,16619
20,42035,18220
20,42448,17762
20,42860,17282
20,43272,18126
20,43685,18137
20,44097,16443
20,44508,16504
20,44922,16402
20,45333,17898
20,45745,16717
20,46158,17662
20,46570,18460
20,46982,17691
20,47395,17329
20,47807,17283
20,48218,17554
20,48632,17233
20,49043,16349
20,49455,15937
20,49868,16471
20,50280,17200
20,50692,16409
20,51103,18437
20,51517,16595
20,51928,16592
20,52340,17401
20,52753,17543
20,53165,15500
20,53577,17073
20,53990,18352
20,54402,15250
20,54813,16320
20,55227,15596
20,55638,15289
20,56050,14875
20,56463,15180
20,56875,17078
20,57287,15754
20,57700,14919
20,58112,16397
20,58523,16672
20,58937,15853
20,59348,17786
20,59760,15846
20,60172,16795
20,60585,15570
20,60997,17151
20,61408,14436
20,61822,16071
20,62233,15294
20,62645,18186
20,63058,16669
20,63470,16133
20,63882,17031
20,64295,15750
20,64707,16928
20,65118,18057
20,65532,15283
20,65943,16757
20,66355,15885
20,66768,17337
20,67180,16365
20,67592,18290
20,68005,15582
20,68417,16231
20,68828,15277
20,69240,16116
20,69653,15738
20,70065,15878
20,70477,16303
20,70890,14897
20,71302,14605
20,71713,14704
20,72127,14270
20,72538,14869
20,72950,13474
20,73363,14874
20,73775,15222
20,74187,15269
20,74600,15311
20,75012,15074
20,75423,15540
20,75837,14593
20,76248,15363
20,76660,14585
20,77073,14590
20,77485,15216
20,77897,15253
20,78308,14681
20,78722,16128
20,79133,14454
20,79545,14395
20,79958,15088
20,80370,16034
20,80782,15893
20,81195,14452
20,81607,16391
20,82018,18135
20,82432,17230
20,82843,15898
20,83255,15945
20,83668,14407
20,84080,16198
20,84492,17227
20,84905,14837
20,85317,15070
20,85728,14889
20,86142,15767
20,86553,16120
20,86965,15508
20,87377,17304
20,87790,17241
20,88202,18601
20,88613,22153
20,89027,28422
20,89438,38783
20,89850,56114
20,90263,74988
20,90675,110525
20,91087,156320
20,91500,206615
20,91912,274896
20,92323,332281
20,92737,392355
20,93148,434752
20,93560,459700
20,93973,472568
20,94385,466112
20,94797,437663
20,95210,395297
20,95622,351700
20,96033,305980
20,96445,264894
20,96858,223560
20,97270,188245
20,97682,161216
20,98095,135574
20,98507,118633
20,98918,103117
20,99332,91490
20,99743,82321
21,00155,72807
21,00568,66678
21,00980,60288
21,01392,57083
21,01805,51673
21,02217,49514
21,02628,47829
21,03042,43052
21,03453,41269
21,03865,39608
21,04278,38646
21,04690,34629
21,05102,35814
21,05515,33826
21,05927,32679
21,06338,32108
21,06750,31581
21,07163,31691
21,07575,29008
21,07987,28925
21,08400,28312
21,08812,26655
21,09223,26898
21,09637,25820
21,10048,25907
21,10460,24504
21,10873,24492
21,11285,24816
21,11697,22597
21,12110,23649
21,12522,21831
21,12933,21878
21,13347,22618
21,13758,22916
21,14170,22620
21,14583,22034
21,14995,20124
21,15407,21294
21,15818,22196
21,16232,21534
21,16643,21236
21,17055,20800
21,17468,21170
21,17880,20704
21,18292,18325
21,18705,19955
21,19117,18252
21,19528,19661
21,19942,19165
21,20353,18879
21,20765,20002
21,21178,18597
21,21590,18657
21,22002,18897
21,22415,19419
21,22827,19411
21,23238,19417
21,23652,19608
21,24063,19386
21,24475,18890
21,24887,17324
21,25300,19152
21,25712,17927
21,26123,16813
21,26537,16913
21,26948,18132
21,27360,18578
21,27773,16994
21,28185,16869
21,28597,18362
21,29010,17719
21,29422,16852
21,29833,17870
21,30247,17219
21,30658,17165
21,31070,16541
21,31483,15656
21,31895,16427
21,32307,19052
21,32720,14807
21,33132,15577
21,33543,17952
21,33955,17670
21,34368,16362
21,34780,16897
21,35192,16523
21,35605,17384
21,36017,18831
21,36428,18295
21,36842,16544
21,37253,18496
21,37665,17254
21,38078,18287
21,38490,16893
21,38902,16336
21,39315,17044
21,39727,17681
21,40138,17141
21,40552,15798
21,40963,17459
21,41375,16950
21,41788,17274
21,42200,16845
21,42612,16109
