D:\MassHunter\GCMS\1\data\Amal\Constant flow\90C\90C_1ml-min_7C-min_1.D Thu Aug 01 18:09:08 2024
Start of data points
6,09103,39027
6,09515,36637
6,09928,35735
6,10340,32264
6,10752,31979
6,11165,29682
6,11577,30634
6,11988,29815
6,12400,27944
6,12813,26401
6,13225,24560
6,13637,24076
6,14050,24331
6,14462,23241
6,14873,21534
6,15287,22686
6,15698,21418
6,16110,20516
6,16523,19071
6,16935,19743
6,17347,19471
6,17760,19909
6,18172,19575
6,18583,17669
6,18997,18772
6,19408,20098
6,19820,17720
6,20233,17880
6,20645,18154
6,21057,17519
6,21468,16272
6,21882,17161
6,22293,16803
6,22705,17359
6,23118,18159
6,23530,18014
6,23942,15889
6,24355,16569
6,24767,16959
6,25178,15643
6,25592,16093
6,26003,17022
6,26415,15701
6,26828,15916
6,27240,16506
6,27652,15437
6,28065,15434
6,28477,15436
6,28888,16083
6,29302,16709
6,29713,15684
6,30125,15528
6,30537,16125
6,30950,15200
6,31362,14897
6,31773,15846
6,32187,15634
6,32598,14192
6,33010,14789
6,33423,14680
6,33835,15512
6,34247,15551
6,34660,15516
6,35072,14617
6,35483,14180
6,35897,15645
6,36308,14200
6,36720,15652
6,37133,14275
6,37545,12837
6,37957,14600
6,38370,15274
6,38782,14259
6,39193,13954
6,39605,13282
6,40018,13709
6,40430,13430
6,40842,14305
6,41255,13270
6,41667,14007
6,42078,14362
6,42492,13231
6,42903,13519
6,43315,13317
6,43728,13388
6,44140,13702
6,44552,13118
6,44965,12858
6,45377,13528
6,45788,13055
6,46202,11732
6,46613,12450
6,47025,12968
6,47438,13689
6,47850,12663
6,48262,13352
6,48675,12333
6,49087,12577
6,49498,13251
6,49910,12756
6,50323,12879
6,50735,12863
6,51147,12094
6,51560,12826
6,51972,13647
6,52383,13675
6,52797,12692
6,53208,11832
6,53620,12132
6,54033,12342
6,54445,12648
6,54857,12392
6,55270,11662
6,55682,11695
6,56093,12155
6,56507,12216
6,56918,11446
6,57330,12021
6,57743,12562
6,58155,11859
6,58567,11465
6,58978,12660
6,59392,11645
6,59803,11293
6,60215,11455
6,60628,11211
6,61040,10666
6,61452,11197
6,61865,10794
6,62277,10803
6,62688,11443
6,63102,11187
6,63513,10055
6,63925,11502
6,64338,11802
6,64750,11136
6,65162,10560
6,65575,11366
6,65987,10971
6,66398,10181
6,66812,11717
6,67223,11467
6,67635,11438
6,68047,10748
6,68460,11203
6,68872,9640
6,69283,10215
6,69697,10022
6,70108,9607
6,70520,11119
6,70933,10321
6,71345,11008
6,71757,10349
6,72170,10462
6,72582,10593
6,72993,11065
6,73407,10861
6,73818,9796
6,74230,10302
6,74643,11166
6,75055,10105
6,75467,11819
6,75880,10819
6,76292,11255
6,76703,11955
6,77115,12369
6,77528,11894
6,77940,10486
6,78352,12336
6,78765,10990
6,79177,10546
6,79588,11072
6,80002,11782
6,80413,12087
6,80825,11227
6,81238,11075
6,81650,10712
6,82062,10882
6,82475,10103
6,82887,10954
6,83298,11089
6,83712,10504
6,84123,10598
6,84535,10753
6,84948,10451
6,85360,9854
6,85772,11013
6,86183,10774
6,86597,9247
6,87008,11100
6,87420,9824
6,87833,9969
6,88245,10464
6,88657,11096
6,89070,10105
6,89482,9806
6,89893,10306
6,90307,8452
6,90718,9720
6,91130,9534
6,91543,9837
6,91955,9644
6,92367,9362
6,92780,11106
6,93192,10635
6,93603,9751
6,94017,9335
6,94428,9330
6,94840,10039
6,95252,9760
6,95665,9930
6,96077,10288
6,96488,10591
6,96902,9531
6,97313,9792
6,97725,10013
6,98138,9599
6,98550,9613
6,98962,10457
6,99375,9560
6,99787,10417
7,00198,10089
7,00612,9625
7,01023,10527
7,01435,9196
7,01848,8984
7,02260,9381
7,02672,10183
7,03085,10265
7,03497,9478
7,03908,9411
7,04320,10722
7,04733,9840
7,05145,9101
7,05557,9434
7,05970,9886
7,06382,9515
7,06793,9784
7,07207,9676
7,07618,10108
7,08030,9971
7,08443,9131
7,08855,9290
7,09267,9404
7,09680,10215
7,10092,9558
7,10503,9759
7,10917,9322
7,11328,8633
7,11740,10713
7,12153,9324
7,12565,10389
7,12977,10219
7,13388,8843
7,13802,9287
7,14213,10202
7,14625,9649
7,15038,8555
7,15450,9274
7,15862,9112
7,16275,9627
7,16687,9800
7,17098,8745
7,17512,9738
7,17923,8758
7,18335,9461
7,18748,9172
7,19160,9392
7,19572,9280
7,19985,10149
7,20397,9959
7,20808,8644
7,21222,9405
7,21633,9661
7,22045,8976
7,22457,8079
7,22870,9494
7,23282,8755
7,23693,8737
7,24107,9723
7,24518,10011
7,24930,10409
7,25343,12301
7,25755,15969
7,26167,21036
7,26580,32416
7,26992,42927
7,27403,58802
7,27817,77148
7,28228,95020
7,28640,112437
7,29053,129791
7,29465,138369
7,29877,146271
7,30290,152664
7,30702,149465
7,31113,146581
7,31525,141283
7,31938,133457
7,32350,123371
7,32762,119561
7,33175,112872
7,33587,101916
7,33998,95350
7,34412,87250
7,34823,77543
7,35235,75565
7,35648,64761
7,36060,60034
7,36472,54352
7,36885,50713
7,37297,43502
7,37708,38658
7,38122,34850
7,38533,31574
7,38945,29408
7,39358,27588
7,39770,25084
7,40182,22133
7,40593,19802
7,41007,18462
7,41418,16810
7,41830,15901
7,42243,15665
7,42655,13755
7,43067,13444
7,43480,12884
7,43892,11838
7,44303,11264
7,44717,11693
7,45128,11199
7,45540,11074
7,45953,10505
7,46365,10018
7,46777,9571
7,47190,9894
7,47602,9937
7,48013,9753
7,48427,8768
7,48838,8876
7,49250,9612
7,49662,10110
7,50075,8517
7,50487,9230
7,50898,8349
7,51312,8868
7,51723,8623
7,52135,8327
7,52548,8169
7,52960,7905
7,53372,8585
7,53785,8202
7,54197,7990
7,54608,9238
7,55022,8722
7,55433,7912
7,55845,7904
7,56258,8835
7,56670,8941
7,57082,8923
7,57495,10799
7,57907,10477
7,58318,9860
7,58730,10079
7,59143,11072
7,59555,9952
7,59967,10773
7,60380,9583
7,60792,9629
7,61203,9475
7,61617,7336
7,62028,8556
7,62440,8727
7,62853,9239
7,63265,8718
7,63677,7668
7,64090,7783
7,64502,7408
7,64913,7530
7,65327,7547
7,65738,7697
7,66150,7520
7,66563,8168
7,66975,7366
7,67387,7245
7,67798,7882
7,68212,7866
7,68623,6806
7,69035,7545
7,69448,6766
7,69860,7806
7,70272,7573
7,70685,7299
7,71097,7234
7,71508,7556
7,71922,7199
7,72333,7217
7,72745,7645
7,73158,7667
7,73570,7117
7,73982,7534
7,74395,7423
7,74807,7584
7,75218,6886
7,75632,7404
7,76043,7201
7,76455,7182
7,76867,6865
7,77280,7043
7,77692,7220
7,78103,7006
7,78517,6154
7,78928,6559
7,79340,7529
7,79753,6800
7,80165,7817
7,80577,7065
7,80990,6830
7,81402,7114
7,81813,6849
7,82227,7376
7,82638,6891
7,83050,6938
7,83463,6428
7,83875,7179
7,84287,6467
7,84700,8147
7,85112,6952
7,85523,7968
7,85935,7053
7,86348,7254
7,86760,7134
7,87172,6849
7,87585,7663
7,87997,7637
7,88408,7150
7,88822,6658
7,89233,6726
7,89645,6883
7,90058,6348
7,90470,7150
7,90882,7066
7,91295,6991
7,91707,6466
7,92118,6367
7,92532,6734
7,92943,6665
7,93355,6470
7,93768,6454
7,94180,6558
7,94592,6771
7,95003,6402
7,95417,7028
7,95828,7429
7,96240,6822
7,96653,6502
7,97065,6653
7,97477,6739
7,97890,5538
7,98302,5995
7,98713,6244
7,99127,6872
7,99538,6664
7,99950,6330
8,00363,6544
8,00775,6786
8,01187,6544
8,01600,6363
8,02012,6442
8,02423,6549
8,02837,6900
8,03248,5777
8,03660,5997
8,04073,6124
8,04485,6486
8,04897,6440
8,05308,6118
8,05722,6165
8,06133,5810
8,06545,5914
8,06958,6530
8,07370,5742
8,07782,5925
8,08195,5940
8,08607,6739
8,09018,6223
8,09432,6699
8,09843,6513
8,10255,6336
8,10668,6786
8,11080,6624
8,11492,6206
8,11905,6224
8,12317,5394
8,12728,5833
8,13142,6361
8,13553,6156
8,13965,6213
8,14377,6095
8,14790,5841
8,15202,6273
8,15613,6176
8,16027,6393
8,16438,6200
8,16850,5818
8,17263,6049
8,17675,5831
8,18087,5841
8,18500,5427
8,18912,5791
8,19323,5703
8,19737,5979
8,20148,5406
8,20560,5777
8,20973,5843
8,21385,6651
8,21797,5997
8,22210,5789
8,22622,5830
8,23033,7045
8,23445,5646
8,23858,5628
8,24270,6046
8,24682,5343
8,25095,5644
8,25507,6501
8,25918,6760
8,26332,6923
8,26743,6282
8,27155,6249
8,27568,5362
8,27980,6642
8,28392,6368
8,28805,6656
8,29217,5884
8,29628,7161
8,30042,6350
8,30453,6527
8,30865,5726
8,31278,5067
8,31690,5871
8,32102,5241
8,32513,6235
8,32927,6001
8,33338,5061
8,33750,5279
8,34163,5440
8,34575,5754
8,34987,6399
8,35400,5667
8,35812,5471
8,36223,5964
8,36637,6027
8,37048,5578
8,37460,5024
8,37873,5404
8,38285,5379
8,38697,5605
8,39110,5882
8,39522,6032
8,39933,5505
8,40347,6136
8,40758,5853
8,41170,6584
8,41582,7308
8,41995,7947
8,42407,7544
8,42818,7971
8,43232,8931
8,43643,7796
8,44055,8288
8,44468,9513
8,44880,8699
8,45292,8697
8,45705,8382
8,46117,7894
8,46528,8565
8,46942,8432
8,47353,8523
8,47765,6862
8,48178,7165
8,48590,7185
8,49002,6645
8,49415,6502
8,49827,6931
8,50238,6429
8,50650,6082
8,51063,5912
8,51475,5584
8,51887,5511
8,52300,5945
8,52712,6690
8,53123,5582
8,53537,5011
8,53948,5332
8,54360,5555
8,54773,5808
8,55185,5495
8,55597,5362
8,56010,5283
8,56422,5018
8,56833,4933
8,57247,5585
8,57658,4919
8,58070,5358
8,58483,5081
8,58895,5281
8,59307,4464
8,59718,4928
8,60132,4812
8,60543,4762
8,60955,4910
8,61368,5563
8,61780,5180
8,62192,5578
8,62605,5196
8,63017,5040
8,63428,4765
8,63842,4730
8,64253,4687
8,64665,4443
8,65078,5194
8,65490,5841
8,65902,4862
8,66315,5341
8,66727,4745
8,67138,5339
8,67552,5644
8,67963,5052
8,68375,5397
8,68787,4923
8,69200,5417
8,69612,4790
8,70023,5158
8,70437,4931
8,70848,5245
8,71260,4603
8,71673,4398
8,72085,4704
8,72497,5104
8,72910,5093
8,73322,4628
8,73733,4772
8,74147,4177
8,74558,5029
8,74970,4791
8,75383,4314
8,75795,4917
8,76207,4439
8,76620,4988
8,77032,4018
8,77443,4657
8,77855,4508
8,78268,5042
8,78680,4898
8,79092,4394
8,79505,4818
8,79917,4214
8,80328,4098
8,80742,4971
8,81153,5319
8,81565,4501
8,81978,3676
8,82390,4651
8,82802,4416
8,83215,4345
8,83627,4459
8,84038,5121
8,84452,4623
8,84863,4378
8,85275,4409
8,85688,4445
8,86100,4851
8,86512,5216
8,86923,4557
8,87337,4611
8,87748,5091
8,88160,4482
8,88573,4267
8,88985,4879
8,89397,4424
8,89810,4526
8,90222,4702
8,90633,4743
8,91047,4528
8,91458,4280
8,91870,4663
8,92283,4654
8,92695,4816
8,93107,4873
8,93520,4578
8,93932,4519
8,94343,4670
8,94757,4290
8,95168,4063
8,95580,4195
8,95992,5606
8,96405,4555
8,96817,5597
8,97228,5473
8,97642,5356
8,98053,4863
8,98465,5746
8,98878,5482
8,99290,4941
8,99702,4751
9,00115,4830
9,00527,5616
9,00938,5097
9,01352,4933
9,01763,4762
9,02175,5171
9,02588,4650
9,03000,4875
9,03412,4508
9,03825,3904
9,04237,5388
9,04648,4728
9,05060,4784
9,05473,4850
9,05885,4645
9,06297,4640
9,06710,4165
9,07122,4709
9,07533,4954
9,07947,4400
9,08358,5033
9,08770,4828
9,09183,4814
9,09595,5162
9,10007,5001
9,10420,4637
9,10832,3976
9,11243,4799
9,11657,3950
9,12068,4233
9,12480,4805
9,12893,4220
9,13305,4377
9,13717,4000
9,14128,4316
9,14542,4727
9,14953,3952
9,15365,4267
9,15778,3653
9,16190,4906
9,16602,4351
9,17015,4131
9,17427,4732
9,17838,4531
9,18252,4279
9,18663,4402
9,19075,4069
9,19488,3725
9,19900,4488
9,20312,3698
9,20725,4521
9,21137,4129
9,21548,4891
9,21962,3872
9,22373,4502
9,22785,4845
9,23197,3914
9,23610,4108
9,24022,4613
9,24433,3966
9,24847,3923
9,25258,3837
9,25670,3994
9,26083,4539
9,26495,4188
9,26907,4288
9,27320,4470
9,27732,4936
9,28143,5666
9,28557,8078
9,28968,12980
9,29380,21748
9,29793,38721
9,30205,63364
9,30617,107216
9,31030,164644
9,31442,241068
9,31853,336794
9,32265,437003
9,32678,530490
9,33090,632380
9,33502,709137
9,33915,764285
9,34327,794911
9,34738,790251
9,35152,756711
9,35563,705130
9,35975,645267
9,36388,577268
9,36800,504541
9,37212,432216
9,37625,370217
9,38037,305431
9,38448,253554
9,38862,207894
9,39273,171586
9,39685,140235
9,40098,118298
9,40510,95568
9,40922,82532
9,41333,69932
9,41747,59145
9,42158,50125
9,42570,44191
9,42983,38781
9,43395,35485
9,43807,32277
9,44220,28539
9,44632,25259
9,45043,22385
9,45457,20746
9,45868,19157
9,46280,19420
9,46693,18091
9,47105,16374
9,47517,15130
9,47930,13681
9,48342,13311
9,48753,12305
9,49167,11438
9,49578,10528
9,49990,11217
9,50402,9786
9,50815,9709
9,51227,10222
9,51638,10133
9,52052,7912
9,52463,8007
9,52875,7980
9,53288,9180
9,53700,8445
9,54112,7528
9,54525,7954
9,54937,7655
9,55348,6764
9,55762,6567
9,56173,6939
9,56585,6287
9,56998,6874
9,57410,6283
9,57822,6182
9,58235,6412
9,58647,5902
9,59058,5747
9,59470,5665
9,59883,5592
9,60295,5557
9,60707,5745
9,61120,5858
9,61532,5712
9,61943,5500
9,62357,5468
9,62768,4977
9,63180,4827
9,63593,5041
9,64005,5434
9,64417,4497
9,64830,5396
9,65242,5216
9,65653,5031
9,66067,5904
9,66478,5815
9,66890,5876
9,67303,5549
9,67715,4484
9,68127,5048
9,68538,5551
9,68952,5366
9,69363,5268
9,69775,4298
9,70188,5453
9,70600,5056
9,71012,4860
9,71425,5485
9,71837,3743
9,72248,3944
9,72662,4026
9,73073,3854
9,73485,3885
9,73898,4254
9,74310,4469
9,74722,4730
9,75135,4703
9,75547,4412
9,75958,4666
9,76372,4266
9,76783,4278
9,77195,4226
9,77608,4434
9,78020,4740
9,78432,4946
9,78843,3557
9,79257,4050
9,79668,3739
9,80080,4483
9,80493,4243
9,80905,4080
9,81317,4714
9,81730,4345
9,82142,3829
9,82553,4201
9,82967,4070
9,83378,3851
9,83790,3670
9,84203,4498
9,84615,4371
9,85027,4000
9,85440,4628
9,85852,3902
9,86263,3955
9,86677,3329
9,87088,3996
9,87500,3785
9,87912,3683
9,88325,3426
9,88737,4063
9,89148,3778
9,89562,3837
9,89973,4808
9,90385,7036
9,90798,6011
9,91210,6711
9,91622,7870
9,92035,7573
9,92447,7032
9,92858,5870
9,93272,5881
9,93683,5590
9,94095,4431
9,94508,5561
9,94920,4015
9,95332,4154
9,95745,4083
9,96157,4024
9,96568,3629
9,96980,3430
9,97393,3536
9,97805,3514
9,98217,3873
9,98630,3648
9,99042,3694
9,99453,3386
9,99867,3978
10,00278,3533
10,00690,4013
10,01103,3194
10,01515,2809
10,01927,3124
10,02340,3961
10,02752,2720
10,03163,3741
10,03577,3234
10,03988,3058
10,04400,3525
10,04813,3052
10,05225,3706
10,05637,3132
10,06048,2973
10,06462,3853
10,06873,3597
10,07285,3508
10,07698,3543
10,08110,3773
10,08522,2701
10,08935,3721
10,09347,4020
10,09758,4101
10,10172,3452
10,10583,3882
10,10995,3405
10,11408,3625
10,11820,3406
10,12232,3547
10,12645,3432
10,13057,3663
10,13468,3788
10,13882,3031
10,14293,2937
10,14705,3794
10,15117,4651
10,15530,3281
10,15942,3586
10,16353,3832
10,16767,3511
10,17178,3581
10,17590,3684
10,18003,3415
10,18415,3186
10,18827,3851
10,19240,3956
10,19652,3737
10,20063,3157
10,20477,3365
10,20888,3177
10,21300,3169
10,21713,3261
10,22125,3185
10,22537,3975
10,22950,3196
10,23362,3415
10,23773,4017
10,24185,4146
10,24598,3414
10,25010,3805
10,25422,2681
10,25835,3357
10,26247,3363
10,26658,3482
10,27072,3404
10,27483,2989
10,27895,2994
10,28308,3147
10,28720,2878
10,29132,3333
10,29545,3810
10,29957,3695
10,30368,3018
10,30782,3004
10,31193,3004
10,31605,3454
10,32018,3421
10,32430,2902
10,32842,3382
10,33253,3479
10,33667,3280
10,34078,3192
10,34490,3458
10,34903,3034
10,35315,3287
10,35727,3613
10,36140,3879
10,36552,3279
10,36963,3122
10,37377,3079
10,37788,2968
10,38200,3616
10,38613,3073
10,39025,3238
10,39437,3203
10,39850,3707
10,40262,3208
10,40673,4097
10,41087,5239
10,41498,7716
10,41910,14190
10,42322,22914
10,42735,42361
10,43147,65055
10,43558,106023
10,43972,155464
10,44383,217980
10,44795,286418
10,45208,361241
10,45620,432677
10,46032,480184
10,46445,520538
10,46857,527880
10,47268,522591
10,47682,485302
10,48093,441034
10,48505,388413
10,48918,332582
10,49330,275925
10,49742,225855
10,50155,179484
10,50567,149088
10,50978,117469
10,51390,96475
10,51803,79808
10,52215,66068
10,52627,54743
10,53040,47032
10,53452,39180
10,53863,35058
10,54277,30919
10,54688,26658
10,55100,23444
10,55513,21840
10,55925,19900
10,56337,16970
10,56750,16417
10,57162,15353
10,57573,13884
10,57987,13311
10,58398,12521
10,58810,11087
10,59223,10335
10,59635,9409
10,60047,9541
10,60458,8325
10,60872,7179
10,61283,6619
10,61695,7779
10,62108,6983
10,62520,6940
10,62932,6382
10,63345,5394
10,63757,6098
10,64168,6788
10,64582,5980
10,64993,5363
10,65405,5962
10,65818,5341
10,66230,5388
10,66642,4421
10,67055,5001
10,67467,4533
10,67878,5536
10,68292,5050
10,68703,4438
10,69115,4448
10,69527,4515
10,69940,3893
10,70352,4299
10,70763,4202
10,71177,3994
10,71588,4465
10,72000,4012
10,72413,3970
10,72825,3862
10,73237,3745
10,73650,3660
10,74062,3692
10,74473,4249
10,74887,3531
10,75298,4275
10,75710,4013
10,76123,3477
10,76535,3567
10,76947,3040
10,77360,3371
10,77772,3575
10,78183,3332
10,78595,3787
10,79008,3737
10,79420,3019
10,79832,3562
10,80245,3333
10,80657,3179
10,81068,3459
10,81482,3790
10,81893,3946
10,82305,3527
10,82718,3292
10,83130,3882
10,83542,3065
10,83955,3141
10,84367,3030
10,84778,3620
10,85192,3039
10,85603,2973
10,86015,3018
10,86428,3359
10,86840,3097
10,87252,3384
10,87663,4059
10,88077,3256
10,88488,4912
10,88900,4771
10,89313,4126
10,89725,5019
10,90137,5477
10,90550,4838
10,90962,5103
10,91373,4482
10,91787,4309
10,92198,4589
10,92610,4288
10,93023,4161
10,93435,4123
10,93847,3793
10,94260,3403
10,94672,3229
10,95083,3880
10,95497,3598
10,95908,3314
10,96320,3238
10,96732,2517
10,97145,3215
10,97557,2557
10,97968,3195
10,98382,2818
10,98793,3145
10,99205,2526
10,99618,3098
11,00030,2854
11,00442,2604
11,00855,3111
11,01267,3033
11,01678,2832
11,02092,3160
11,02503,2439
11,02915,2796
11,03328,2915
11,03740,3250
11,04152,2977
11,04565,2501
11,04977,2855
11,05388,2844
11,05800,2890
11,06213,3089
11,06625,2076
11,07037,2920
11,07450,2450
11,07862,3384
11,08273,2489
11,08687,3040
11,09098,2415
11,09510,2622
11,09923,2804
11,10335,2898
11,10747,2724
11,11160,2529
11,11572,2217
11,11983,2132
11,12397,2990
11,12808,3320
11,13220,2794
11,13633,2591
11,14045,2970
11,14457,2375
11,14868,2717
11,15282,2847
11,15693,2360
11,16105,3193
11,16518,3313
11,16930,2927
11,17342,2474
11,17755,2218
11,18167,2526
11,18578,2423
11,18992,2904
11,19403,2467
11,19815,2788
11,20228,2416
11,20640,2324
11,21052,2658
11,21465,2696
11,21877,2352
11,22288,2337
11,22702,2456
11,23113,2350
11,23525,2780
11,23937,2120
11,24350,2513
11,24762,2806
11,25173,2845
11,25587,2535
11,25998,2740
11,26410,2418
11,26823,2187
11,27235,2392
11,27647,2820
11,28060,2545
11,28472,2103
11,28883,2461
11,29297,2670
11,29708,2951
11,30120,2651
11,30533,2276
11,30945,2477
11,31357,2688
11,31770,2556
11,32182,2454
11,32593,2462
11,33005,2533
11,33418,2466
11,33830,3021
11,34242,2275
11,34655,2910
11,35067,2601
11,35478,2448
11,35892,2850
11,36303,2636
11,36715,3292
11,37128,2858
11,37540,2330
11,37952,2491
11,38365,3010
11,38777,2878
11,39188,2465
11,39602,2663
11,40013,2947
11,40425,3584
11,40838,3582
11,41250,2642
11,41662,3667
11,42073,3058
11,42487,2857
11,42898,3539
11,43310,2749
11,43723,2993
11,44135,3467
11,44547,2922
11,44960,3392
11,45372,2600
11,45783,2835
11,46197,2430
11,46608,2657
11,47020,2687
11,47433,2107
11,47845,3311
11,48257,2815
11,48670,2502
11,49082,3301
11,49493,2520
11,49907,2305
11,50318,2656
11,50730,2386
11,51143,2431
11,51555,2328
11,51967,2470
11,52378,2374
11,52792,1954
11,53203,2167
11,53615,2729
11,54028,2456
11,54440,2986
11,54852,4982
11,55265,8938
11,55677,17423
11,56088,31511
11,56502,58124
11,56913,101878
11,57325,175822
11,57738,279936
11,58150,414148
11,58562,572369
11,58975,748755
11,59387,920356
11,59798,1088358
11,60212,1196613
11,60623,1262418
11,61035,1261297
11,61447,1210981
11,61860,1103761
11,62272,953295
11,62683,805660
11,63097,660795
11,63508,529114
11,63920,413183
11,64333,323100
11,64745,250320
11,65157,198893
11,65570,160592
11,65982,130124
11,66393,105915
11,66807,88208
11,67218,73275
11,67630,63625
11,68043,53724
11,68455,47907
11,68867,42922
11,69280,36724
11,69692,33778
11,70103,30078
11,70515,27545
11,70928,23960
11,71340,23695
11,71752,20549
11,72165,19180
11,72577,17320
11,72988,16982
11,73402,14471
11,73813,15697
11,74225,13690
11,74638,12827
11,75050,12307
11,75462,11342
11,75875,10982
11,76287,9983
11,76698,9712
11,77112,9387
11,77523,8247
11,77935,8919
11,78348,8944
11,78760,7573
11,79172,7804
11,79583,6943
11,79997,6857
11,80408,6687
11,80820,6089
11,81233,6009
11,81645,5969
11,82057,5566
11,82470,5369
11,82882,5353
11,83293,5486
11,83707,4948
11,84118,4562
11,84530,4980
11,84943,4660
11,85355,4450
11,85767,5234
11,86180,5110
11,86592,5569
11,87003,4976
11,87417,3985
11,87828,5259
11,88240,4006
11,88652,3932
11,89065,3800
11,89477,3111
11,89888,3639
11,90302,4152
11,90713,3542
11,91125,3708
11,91538,3771
11,91950,3521
11,92362,4217
11,92775,3330
11,93187,4041
11,93598,3250
11,94012,3503
11,94423,3392
11,94835,3093
11,95248,3104
11,95660,3705
11,96072,3091
11,96485,3145
11,96897,3042
11,97308,3217
11,97720,3124
11,98133,3216
11,98545,3639
11,98957,3190
11,99370,2695
11,99782,3702
12,00193,2991
12,00607,2733
12,01018,2993
12,01430,3435
12,01843,2500
12,02255,2852
12,02667,2682
12,03080,2614
12,03492,3294
12,03903,2586
12,04317,3311
12,04728,3037
12,05140,3248
12,05553,2933
12,05965,2854
12,06377,2787
12,06788,2658
12,07202,2224
12,07613,2538
12,08025,2742
12,08438,2745
12,08850,2719
12,09262,2531
12,09675,2646
12,10087,3099
12,10498,2590
12,10912,2561
12,11323,2559
12,11735,2647
12,12148,2697
12,12560,2606
12,12972,2806
12,13385,3793
12,13797,3699
12,14208,2916
12,14622,3505
12,15033,3790
12,15445,3928
12,15857,4343
12,16270,5346
12,16682,5853
12,17093,6870
12,17507,6333
12,17918,7342
12,18330,8823
12,18743,9177
12,19155,8854
12,19567,8498
12,19980,8713
12,20392,8365
12,20803,9130
12,21217,7316
12,21628,7082
12,22040,5710
12,22453,5320
12,22865,4819
12,23277,4910
12,23690,4244
12,24102,3414
12,24513,3355
12,24925,3938
12,25338,3698
12,25750,3717
12,26162,4855
12,26575,4976
12,26987,5811
12,27398,5197
12,27812,5687
12,28223,3822
12,28635,2762
12,29048,2958
12,29460,2651
12,29872,2266
12,30285,2548
12,30697,2001
12,31108,2064
12,31522,1368
12,31933,2297
12,32345,2036
12,32758,2522
12,33170,2920
12,33582,2065
12,33993,1754
12,34407,1681
12,34818,2352
12,35230,1853
12,35643,2259
12,36055,1981
12,36467,2356
12,36880,2129
12,37292,2115
12,37703,1755
12,38117,2407
12,38528,2376
12,38940,2090
12,39353,1831
12,39765,1949
12,40177,2288
12,40590,1683
12,41002,2174
12,41413,1725
12,41827,1720
12,42238,1691
12,42650,2203
12,43062,1977
12,43475,1690
12,43887,1965
12,44298,1881
12,44712,2114
12,45123,2051
12,45535,1968
12,45948,2109
12,46360,1847
12,46772,2121
12,47185,1685
12,47597,1762
12,48008,1912
12,48422,1918
12,48833,1727
12,49245,2043
12,49658,2030
12,50070,1351
12,50482,2041
12,50895,2264
12,51307,1865
12,51718,2296
12,52130,2217
12,52543,2531
12,52955,2084
12,53367,2325
12,53780,1809
12,54192,2002
12,54603,2001
12,55017,1720
12,55428,2397
12,55840,1925
12,56253,1812
12,56665,1711
12,57077,2009
12,57490,1498
12,57902,1848
12,58313,1968
12,58727,1640
12,59138,1988
12,59550,1903
12,59963,2425
12,60375,1565
12,60787,2008
12,61198,1569
12,61612,2138
12,62023,1945
12,62435,1669
12,62848,1786
12,63260,1385
12,63672,1905
12,64085,1586
12,64497,2334
12,64908,1888
12,65322,1842
12,65733,1940
12,66145,2093
12,66558,1879
12,66970,2136
12,67382,3197
12,67795,3333
12,68207,7406
12,68618,11717
12,69032,24083
12,69443,43715
12,69855,80954
12,70267,127938
12,70680,203224
12,71092,290446
12,71503,398249
12,71917,499891
12,72328,595249
12,72740,665119
12,73153,693562
12,73565,702586
12,73977,663052
12,74390,603940
12,74802,518735
12,75213,434877
12,75627,356071
12,76038,280417
12,76450,217944
12,76863,168177
12,77275,133605
12,77687,104407
12,78100,84127
12,78512,67237
12,78923,54058
12,79335,45381
12,79748,39059
12,80160,32484
12,80572,28263
12,80985,25402
12,81397,20894
12,81808,20122
12,82222,15933
12,82633,17198
12,83045,12563
12,83458,13595
12,83870,11258
12,84282,10775
12,84695,9616
12,85107,9813
12,85518,9459
12,85932,7537
12,86343,7211
12,86755,6924
12,87168,7342
12,87580,6754
12,87992,5816
12,88403,5791
12,88817,5554
12,89228,5835
12,89640,4883
12,90053,4284
12,90465,4134
12,90877,4327
12,91290,4595
12,91702,4490
12,92113,4504
12,92527,3982
12,92938,3460
12,93350,3318
12,93763,3144
12,94175,2958
12,94587,3238
12,95000,3139
12,95412,3290
12,95823,2879
12,96237,2835
12,96648,3057
12,97060,2603
12,97473,2493
12,97885,2683
12,98297,2367
12,98708,2339
12,99122,2431
12,99533,2034
12,99945,2503
13,00358,2524
13,00770,2545
13,01182,2415
13,01595,1727
13,02007,2805
13,02418,2682
13,02832,2253
13,03243,2470
13,03655,2321
13,04068,2650
13,04480,2260
13,04892,2019
13,05305,2472
13,05717,2488
13,06128,2538
13,06542,2341
13,06953,2222
13,07365,2228
13,07777,2096
13,08190,2504
13,08602,1858
13,09013,2233
13,09427,1966
13,09838,2002
13,10250,1963
13,10663,1632
13,11075,2273
13,11487,1676
13,11900,1505
13,12312,1447
13,12723,1824
13,13137,1885
13,13548,2144
13,13960,2118
13,14373,1586
13,14785,1764
13,15197,2079
13,15610,1919
13,16022,1803
13,16433,1650
13,16845,1213
13,17258,1760
13,17670,1714
13,18082,2211
13,18495,1794
13,18907,1334
13,19318,1832
13,19732,1914
13,20143,1943
13,20555,1755
13,20968,1474
13,21380,1644
13,21792,1504
13,22205,2075
13,22617,2309
13,23028,1748
13,23442,1518
13,23853,1564
13,24265,1662
13,24678,1606
13,25090,1724
13,25502,2036
13,25913,2063
13,26327,2110
13,26738,2638
13,27150,2740
13,27563,3412
13,27975,4855
13,28387,3953
13,28800,3826
13,29212,4034
13,29623,4545
13,30037,4666
13,30448,3396
13,30860,2948
13,31273,3308
13,31685,1794
13,32097,2343
13,32510,2329
13,32922,2267
13,33333,1984
13,33747,2646
13,34158,3200
13,34570,3162
13,34982,3505
13,35395,3368
13,35807,4793
13,36218,3939
13,36632,4165
13,37043,3660
13,37455,4599
13,37868,3602
13,38280,3767
13,38692,2157
13,39105,2651
13,39517,3267
13,39928,2080
13,40342,2135
13,40753,1907
13,41165,1779
13,41578,2402
13,41990,1557
13,42402,1660
13,42815,1100
13,43227,1157
13,43638,1472
13,44050,1797
13,44463,878
13,44875,1675
13,45287,1514
13,45700,1736
13,46112,756
13,46523,1308
13,46937,1600
13,47348,1933
13,47760,2134
13,48173,1684
13,48585,1500
13,48997,1146
13,49410,1491
13,49822,1753
13,50233,1224
13,50647,1742
13,51058,1988
13,51470,1202
13,51883,1241
13,52295,1189
13,52707,1337
13,53118,1634
13,53532,1264
13,53943,1057
13,54355,1189
13,54768,1491
13,55180,1521
13,55592,1613
13,56005,1456
13,56417,1188
13,56828,1990
13,57242,2063
13,57653,1898
13,58065,2300
13,58478,1745
13,58890,2020
13,59302,1673
13,59715,2070
13,60127,1546
13,60538,1636
13,60952,1618
13,61363,1142
13,61775,892
13,62187,1641
13,62600,1961
13,63012,1748
13,63423,1305
13,63837,1923
13,64248,1922
13,64660,1911
13,65073,1455
13,65485,1488
13,65897,1376
13,66310,1241
13,66722,1926
13,67133,1359
13,67547,1663
13,67958,1445
13,68370,1998
13,68783,1293
13,69195,1703
13,69607,1522
13,70020,1297
13,70432,1375
13,70843,751
13,71255,1428
13,71668,1297
13,72080,1432
13,72492,1623
13,72905,1888
13,73317,2006
13,73728,2802
13,74142,3253
13,74553,3934
13,74965,4948
13,75378,5790
13,75790,6279
13,76202,6694
13,76615,7428
13,77027,6755
13,77438,7170
13,77852,10112
13,78263,14332
13,78675,25507
13,79088,46808
13,79500,81542
13,79912,149890
13,80323,241961
13,80737,381920
13,81148,555234
13,81560,764534
13,81973,986762
13,82385,1213969
13,82797,1390211
13,83210,1528995
13,83622,1566566
13,84033,1513974
13,84447,1376474
13,84858,1188762
13,85270,996305
13,85683,807323
13,86095,617430
13,86507,478324
13,86920,367420
13,87332,280097
13,87743,218712
13,88157,172832
13,88568,136693
13,88980,114365
13,89392,92936
13,89805,77141
13,90217,67099
13,90628,58557
13,91042,49405
13,91453,45417
13,91865,42477
13,92278,38385
13,92690,34995
13,93102,31324
13,93515,30101
13,93927,28447
13,94338,25892
13,94752,23964
13,95163,23095
13,95575,20616
13,95988,19426
13,96400,18331
13,96812,16279
13,97225,14631
13,97637,13617
13,98048,12283
13,98460,11971
13,98873,10634
13,99285,10167
13,99697,7925
14,00110,8605
14,00522,7532
14,00933,8324
14,01347,7471
14,01758,7535
14,02170,6316
14,02583,6317
14,02995,5745
14,03407,4587
14,03820,4971
14,04232,4781
14,04643,4897
14,05057,5235
14,05468,3932
14,05880,3673
14,06293,4345
14,06705,3785
14,07117,3498
14,07528,3429
14,07942,3795
14,08353,3414
14,08765,2777
14,09178,2843
14,09590,3575
14,10002,3342
14,10415,3226
14,10827,2221
14,11238,2807
14,11652,2824
14,12063,2762
14,12475,2582
14,12888,2985
14,13300,2715
14,13712,2144
14,14125,2905
14,14537,2304
14,14948,2594
14,15362,3107
14,15773,2470
14,16185,2713
14,16597,2767
14,17010,2235
14,17422,2926
14,17833,2729
14,18247,2096
14,18658,2478
14,19070,2600
14,19483,2803
14,19895,1995
14,20307,2249
14,20720,2277
14,21132,2741
14,21543,1383
14,21957,1776
14,22368,1888
14,22780,1739
14,23193,1905
14,23605,1987
14,24017,1378
14,24430,1403
14,24842,1590
14,25253,1767
14,25665,1452
14,26078,1314
14,26490,923
14,26902,1681
14,27315,1536
14,27727,1760
14,28138,1631
14,28552,1766
14,28963,1572
14,29375,1381
14,29788,1869
14,30200,2338
14,30612,2313
14,31025,1854
14,31437,1247
14,31848,1201
14,32262,1486
14,32673,1825
14,33085,1766
14,33498,1671
14,33910,1754
14,34322,2193
14,34733,2087
14,35147,2590
14,35558,3122
14,35970,2775
14,36383,2896
14,36795,3972
14,37207,3893
14,37620,3521
14,38032,2772
14,38443,3199
14,38857,2336
14,39268,2587
14,39680,1840
14,40093,1598
14,40505,2122
14,40917,1771
14,41330,1501
14,41742,1064
14,42153,1603
14,42567,1539
14,42978,1644
14,43390,1821
14,43802,2685
14,44215,3596
14,44627,3911
14,45038,4403
14,45452,4306
14,45863,3093
14,46275,2853
14,46688,2144
14,47100,1873
14,47512,1401
14,47925,1238
14,48337,1339
14,48748,1433
14,49162,1150
14,49573,891
14,49985,1536
14,50398,1654
14,50810,1088
14,51222,1072
14,51635,1703
14,52047,1372
14,52458,1845
14,52870,3647
14,53283,5778
14,53695,13284
14,54107,27907
14,54520,50682
14,54932,90108
14,55343,148270
14,55757,226982
14,56168,325306
14,56580,433711
14,56993,539035
14,57405,626412
14,57817,687487
14,58230,729224
14,58642,704695
14,59053,663897
14,59467,586923
14,59878,494937
14,60290,413146
14,60703,330593
14,61115,257418
14,61527,200225
14,61940,156787
14,62352,121663
14,62763,95266
14,63175,76814
14,63588,65910
14,64000,51599
14,64412,44636
14,64825,38115
14,65237,32225
14,65648,28176
14,66062,24559
14,66473,21256
14,66885,18442
14,67298,15339
14,67710,13476
14,68122,14160
14,68535,13033
14,68947,11367
14,69358,10980
14,69772,9343
14,70183,9112
14,70595,7971
14,71008,6489
14,71420,5621
14,71832,6019
14,72243,5490
14,72657,5020
14,73068,4883
14,73480,3824
14,73893,3870
14,74305,3622
14,74717,3487
14,75130,2549
14,75542,4129
14,75953,3116
14,76367,3687
14,76778,2262
14,77190,3411
14,77603,3228
14,78015,2241
14,78427,2670
14,78840,2446
14,79252,2954
14,79663,2307
14,80077,2245
14,80488,2410
14,80900,1810
14,81312,1553
14,81725,1905
14,82137,1861
14,82548,2015
14,82962,2069
14,83373,1733
14,83785,3278
14,84198,4149
14,84610,7650
14,85022,15319
14,85435,30101
14,85847,56542
14,86258,98403
14,86672,163019
14,87083,245582
14,87495,345082
14,87908,464966
14,88320,581269
14,88732,685735
14,89145,759969
14,89557,791380
14,89968,764593
14,90380,727229
14,90793,632154
14,91205,540027
14,91617,430994
14,92030,341950
14,92442,263174
14,92853,198153
14,93267,152399
14,93678,117326
14,94090,92929
14,94503,74893
14,94915,61486
14,95327,51346
14,95740,41825
14,96152,35020
14,96563,30607
14,96977,26937
14,97388,24686
14,97800,20940
14,98213,17438
14,98625,17476
14,99037,13581
14,99448,14304
14,99862,12770
15,00273,11651
15,00685,9959
15,01098,9441
15,01510,9312
15,01922,8947
15,02335,7132
15,02747,6195
15,03158,5748
15,03572,5198
15,03983,6157
15,04395,5323
15,04808,5220
15,05220,4823
15,05632,4085
15,06045,4628
15,06457,4161
15,06868,3662
15,07282,4315
15,07693,3400
15,08105,3147
15,08517,2889
15,08930,3304
15,09342,2711
15,09753,2746
15,10167,2892
15,10578,2804
15,10990,3669
15,11403,2801
15,11815,2533
15,12227,2192
15,12640,2497
15,13052,2478
15,13463,2745
15,13877,2391
15,14288,2425
15,14700,1900
15,15113,1755
15,15525,2475
15,15937,2164
15,16350,2349
15,16762,2018
15,17173,1636
15,17585,2157
15,17998,1638
15,18410,1883
15,18822,1726
15,19235,1819
15,19647,1745
15,20058,1690
15,20472,1846
15,20883,1302
15,21295,1654
15,21708,2095
15,22120,1541
15,22532,1911
15,22945,1866
15,23357,2537
15,23768,1818
15,24182,1502
15,24593,2073
15,25005,1866
15,25418,2050
15,25830,1842
15,26242,1529
15,26653,2242
15,27067,2773
15,27478,2355
15,27890,2161
15,28303,2390
15,28715,1694
15,29127,2486
15,29540,2027
15,29952,1683
15,30363,1685
15,30777,1774
15,31188,1339
15,31600,1658
15,32013,1076
15,32425,1199
15,32837,1336
15,33250,1564
15,33662,1576
15,34073,1331
15,34487,1059
15,34898,1436
15,35310,503
15,35722,1375
15,36135,1133
15,36547,1422
15,36958,1514
15,37372,1749
15,37783,995
15,38195,1853
15,38608,1963
15,39020,1827
15,39432,1487
15,39845,1759
15,40257,1625
15,40668,1743
15,41082,2067
15,41493,1975
15,41905,1909
15,42318,1747
15,42730,1449
15,43142,1579
15,43555,1322
15,43967,1138
15,44378,1168
15,44790,1026
15,45203,1982
15,45615,1177
15,46027,1675
15,46440,1156
15,46852,1183
15,47263,1249
15,47677,740
15,48088,1111
15,48500,1080
15,48913,831
15,49325,1421
15,49737,1098
15,50150,1566
15,50562,1063
15,50973,1170
15,51387,880
15,51798,1318
15,52210,1235
15,52623,747
15,53035,1283
15,53447,817
15,53858,742
15,54272,1120
15,54683,1119
15,55095,1476
15,55508,1246
15,55920,763
15,56332,1297
15,56745,884
15,57157,2120
15,57568,1995
15,57982,5968
15,58393,11869
15,58805,24013
15,59218,50406
15,59630,87065
15,60042,146012
15,60455,228659
15,60867,325649
15,61278,427528
15,61692,552110
15,62103,651163
15,62515,726190
15,62927,761769
15,63340,749832
15,63752,704331
15,64163,624512
15,64577,523217
15,64988,434395
15,65400,341373
15,65813,271863
15,66225,215304
15,66637,166061
15,67050,127171
15,67462,99137
15,67873,80457
15,68287,63847
15,68698,54530
15,69110,44620
15,69523,38032
15,69935,31659
15,70347,28358
15,70760,24551
15,71172,21194
15,71583,17774
15,71995,16985
15,72408,15849
15,72820,13409
15,73232,11813
15,73645,11559
15,74057,9306
15,74468,7910
15,74882,8478
15,75293,6971
15,75705,7160
15,76118,6001
15,76530,6378
15,76942,5889
15,77355,4769
15,77767,4089
15,78178,4716
15,78592,3433
15,79003,3456
15,79415,3585
15,79828,3577
15,80240,2760
15,80652,3374
15,81063,3596
15,81477,3203
15,81888,2242
15,82300,2330
15,82713,3255
15,83125,2728
15,83537,1912
15,83950,2674
15,84362,2379
15,84773,2292
15,85187,3009
15,85598,2499
15,86010,2914
15,86423,5113
15,86835,10178
15,87247,21758
15,87660,44016
15,88072,84184
15,88483,147824
15,88897,254345
15,89308,404740
15,89720,603641
15,90132,854793
15,90545,1140046
15,90957,1454114
15,91368,1777319
15,91782,2095937
15,92193,2335582
15,92605,2456199
15,93018,2440096
15,93430,2267865
15,93842,1993429
15,94255,1662274
15,94667,1321840
15,95078,1020436
15,95492,760374
15,95903,565444
15,96315,427790
15,96728,326060
15,97140,260579
15,97552,208020
15,97965,169333
15,98377,141124
15,98788,116644
15,99200,100360
15,99613,87071
16,00025,76081
16,00437,67573
16,00850,61065
16,01262,53822
16,01673,48387
16,02087,43144
16,02498,39886
16,02910,36271
16,03323,34377
16,03735,29682
16,04147,27751
16,04560,26226
16,04972,24233
16,05383,21291
16,05797,20412
16,06208,19815
16,06620,19486
16,07033,17416
16,07445,16814
16,07857,14033
16,08268,14021
16,08682,13129
16,09093,12579
16,09505,12273
16,09918,11685
16,10330,11625
16,10742,9385
16,11155,8697
16,11567,9317
16,11978,9303
16,12392,9453
16,12803,7072
16,13215,7951
16,13628,7035
16,14040,6741
16,14452,6412
16,14865,5616
16,15277,5906
16,15688,5360
16,16102,5514
16,16513,5254
16,16925,5567
16,17337,5422
16,17750,4902
16,18162,4647
16,18573,4499
16,18987,3810
16,19398,3764
16,19810,4387
16,20223,4104
16,20635,4106
16,21047,4085
16,21460,3038
16,21872,3721
16,22283,3225
16,22697,2993
16,23108,3118
16,23520,2588
16,23933,3440
16,24345,2599
16,24757,3007
16,25170,2324
16,25582,2141
16,25993,2651
16,26407,2036
16,26818,2993
16,27230,2709
16,27642,2493
16,28055,2460
16,28467,2775
16,28878,2828
16,29292,2159
16,29703,2855
16,30115,3097
16,30528,2973
16,30940,3475
16,31352,2831
16,31765,3039
16,32177,2358
16,32588,2344
16,33002,2492
16,33413,2695
16,33825,2385
16,34238,1602
16,34650,2422
16,35062,1805
16,35475,2119
16,35887,1677
16,36298,1536
16,36710,1685
16,37123,1864
16,37535,2066
16,37947,1793
16,38360,1793
16,38772,2174
16,39183,2303
16,39597,3539
16,40008,2526
16,40420,3074
16,40833,3409
16,41245,3421
16,41657,3350
16,42070,2953
16,42482,2503
16,42893,1891
16,43307,1882
16,43718,2210
16,44130,2495
16,44543,2506
16,44955,3506
16,45367,4219
16,45778,11371
16,46192,21476
16,46603,42523
16,47015,75371
16,47428,128827
16,47840,202043
16,48252,299599
16,48665,399358
16,49077,524790
16,49488,628676
16,49902,719635
16,50313,758344
16,50725,772496
16,51138,737606
16,51550,671326
16,51962,585101
16,52375,480769
16,52787,390023
16,53198,300386
16,53612,239499
16,54023,183107
16,54435,140964
16,54847,108931
16,55260,86586
16,55672,71049
16,56083,55535
16,56497,48233
16,56908,42089
16,57320,35674
16,57733,31201
16,58145,25605
16,58557,24093
16,58970,20565
16,59382,18182
16,59793,17584
16,60207,15113
16,60618,14019
16,61030,13881
16,61443,13069
16,61855,13045
16,62267,12595
16,62680,12883
16,63092,13342
16,63503,12596
16,63915,12276
16,64328,11917
16,64740,11323
16,65152,9550
16,65565,9009
16,65977,8808
16,66388,7910
16,66802,7234
16,67213,5962
16,67625,6198
16,68038,5925
16,68450,5694
16,68862,5386
16,69275,4765
16,69687,3061
16,70098,3398
16,70512,2922
16,70923,3319
16,71335,2840
16,71748,3942
16,72160,3238
16,72572,3403
16,72983,3260
16,73397,3058
16,73808,2688
16,74220,2238
16,74633,2334
16,75045,2889
16,75457,2013
16,75870,2072
16,76282,2696
16,76693,2680
16,77107,1998
16,77518,2253
16,77930,2338
16,78343,2133
16,78755,1138
16,79167,2185
16,79580,1840
16,79992,2337
16,80403,2370
16,80817,1686
16,81228,1838
16,81640,2338
16,82052,1321
16,82465,1608
16,82877,1372
16,83288,1853
16,83702,1598
16,84113,2552
16,84525,3428
16,84938,6048
16,85350,9889
16,85762,20894
16,86175,40095
16,86587,71486
16,86998,124977
16,87412,197902
16,87823,301757
16,88235,427836
16,88648,552997
16,89060,689029
16,89472,785346
16,89885,843952
16,90297,856024
16,90708,817363
16,91120,721366
16,91533,620974
16,91945,513738
16,92357,401304
16,92770,312516
16,93182,240429
16,93593,183537
16,94007,143106
16,94418,105737
16,94830,86142
16,95243,70142
16,95655,54707
16,96067,46590
16,96480,40960
16,96892,34131
16,97303,29625
16,97717,27847
16,98128,24653
16,98540,21326
16,98953,20024
16,99365,16576
16,99777,14782
17,00188,14485
17,00602,13527
17,01013,11609
17,01425,11427
17,01838,9515
17,02250,10395
17,02662,9290
17,03075,8584
17,03487,8174
17,03898,7268
17,04312,7657
17,04723,7967
17,05135,6348
17,05548,6366
17,05960,6181
17,06372,7990
17,06785,6260
17,07197,6763
17,07608,5914
17,08022,5280
17,08433,4744
17,08845,4758
17,09257,4690
17,09670,5021
17,10082,3346
17,10493,3687
17,10907,3443
17,11318,4411
17,11730,3732
17,12143,3433
17,12555,3463
17,12967,3631
17,13380,3233
17,13792,3740
17,14203,3025
17,14617,2799
17,15028,2857
17,15440,2198
17,15853,2991
17,16265,3484
17,16677,2742
17,17090,2405
17,17502,2379
17,17913,3063
17,18325,3813
17,18738,2627
17,19150,2468
17,19562,2914
17,19975,2529
17,20387,2228
17,20798,2319
17,21212,2076
17,21623,2025
17,22035,2398
17,22448,1956
17,22860,1856
17,23272,1068
17,23685,1984
17,24097,1892
17,24508,1669
17,24922,2334
17,25333,2198
17,25745,1957
17,26158,1685
17,26570,1698
17,26982,2683
17,27393,1355
17,27807,1923
17,28218,1400
17,28630,1981
17,29043,2133
17,29455,1489
17,29867,1704
17,30280,1552
17,30692,1627
17,31103,1713
17,31517,1932
17,31928,2242
17,32340,1677
17,32753,2601
17,33165,2058
17,33577,1388
17,33990,1932
17,34402,1694
17,34813,1309
17,35227,1790
17,35638,2307
17,36050,1721
17,36462,2119
17,36875,1231
17,37287,1866
17,37698,1844
17,38112,1247
17,38523,751
17,38935,1175
17,39348,1669
17,39760,1720
17,40172,1851
17,40585,1987
17,40997,2611
17,41408,3698
17,41822,5037
17,42233,8241
17,42645,16400
17,43058,34631
17,43470,64213
17,43882,111589
17,44295,182574
17,44707,274127
17,45118,389964
17,45530,507250
17,45943,633372
17,46355,735197
17,46767,815379
17,47180,827245
17,47592,796453
17,48003,724069
17,48417,642330
17,48828,532389
17,49240,427677
17,49653,331962
17,50065,258553
17,50477,200514
17,50890,154807
17,51302,117991
17,51713,93975
17,52127,76560
17,52538,62986
17,52950,53113
17,53363,42573
17,53775,36779
17,54187,32802
17,54598,27938
17,55012,24484
17,55423,21596
17,55835,20984
17,56248,18749
17,56660,16369
17,57072,15491
17,57485,13183
17,57897,12770
17,58308,12954
17,58722,11770
17,59133,12063
17,59545,10175
17,59958,10129
17,60370,8935
17,60782,9185
17,61195,6397
17,61607,7583
17,62018,7164
17,62432,6892
17,62843,6965
17,63255,6707
17,63667,8395
17,64080,9108
17,64492,11227
17,64903,12816
17,65317,13671
17,65728,17134
17,66140,17832
17,66553,20520
17,66965,21423
17,67377,18835
17,67790,18974
17,68202,15712
17,68613,15026
17,69027,14902
17,69438,11110
17,69850,9562
17,70263,9498
17,70675,8277
17,71087,7287
17,71500,6737
17,71912,5367
17,72323,5704
17,72735,4862
17,73148,4233
17,73560,4266
17,73972,3635
17,74385,3905
17,74797,3321
17,75208,3517
17,75622,3563
17,76033,2818
17,76445,3236
17,76858,3085
17,77270,2698
17,77682,2994
17,78095,2479
17,78507,2662
17,78918,3276
17,79332,5382
17,79743,10323
17,80155,19449
17,80568,36218
17,80980,69579
17,81392,117629
17,81803,196977
17,82217,310859
17,82628,462436
17,83040,644627
17,83453,858504
17,83865,1093869
17,84277,1334538
17,84690,1569736
17,85102,1725788
17,85513,1804995
17,85927,1765022
17,86338,1636649
17,86750,1437511
17,87163,1193249
17,87575,953704
17,87987,725444
17,88400,556989
17,88812,417357
17,89223,317116
17,89637,247984
17,90048,195196
17,90460,157492
17,90873,127374
17,91285,108516
17,91697,91467
17,92108,81112
17,92522,68473
17,92933,60265
17,93345,53342
17,93758,47149
17,94170,43685
17,94582,39364
17,94995,35058
17,95407,31466
17,95818,30563
17,96232,28163
17,96643,23904
17,97055,24213
17,97468,20900
17,97880,21522
17,98292,18396
17,98705,16815
17,99117,16485
17,99528,14751
17,99942,13178
18,00353,13307
18,00765,12949
18,01177,10264
18,01590,10561
18,02002,10621
18,02413,10210
18,02827,9976
18,03238,9267
18,03650,9208
18,04063,7996
18,04475,7880
18,04887,6911
18,05300,7991
18,05712,6587
18,06123,7420
18,06537,6575
18,06948,6572
18,07360,5729
18,07773,5297
18,08185,4874
18,08597,5049
18,09010,5480
18,09422,5091
18,09833,4139
18,10245,4906
18,10658,6227
18,11070,7710
18,11482,11998
18,11895,21367
18,12307,37817
18,12718,66814
18,13132,106691
18,13543,173632
18,13955,257733
18,14368,366903
18,14780,480118
18,15192,610442
18,15605,723260
18,16017,805579
18,16428,843514
18,16842,838763
18,17253,792084
18,17665,715169
18,18078,604644
18,18490,495343
18,18902,399432
18,19313,314130
18,19727,245029
18,20138,186906
18,20550,147026
18,20963,118852
18,21375,94133
18,21787,76607
18,22200,64255
18,22612,54364
18,23023,45739
18,23437,39845
18,23848,35837
18,24260,31417
18,24673,27587
18,25085,25665
18,25497,22549
18,25910,20567
18,26322,20308
18,26733,18877
18,27147,21303
18,27558,26428
18,27970,38309
18,28382,63901
18,28795,101927
18,29207,174838
18,29618,275436
18,30032,415182
18,30443,592747
18,30855,812082
18,31268,1054009
18,31680,1301319
18,32092,1503837
18,32505,1647061
18,32917,1707155
18,33328,1660330
18,33742,1531120
18,34153,1329883
18,34565,1105382
18,34978,885811
18,35390,700272
18,35802,529356
18,36215,408949
18,36627,315606
18,37038,250833
18,37450,196420
18,37863,155170
18,38275,133575
18,38687,111044
18,39100,98549
18,39512,84508
18,39923,71240
18,40337,65560
18,40748,55114
18,41160,50286
18,41573,45664
18,41985,42139
18,42397,38622
18,42810,36166
18,43222,33707
18,43633,33645
18,44047,29856
18,44458,29721
18,44870,29426
18,45283,26738
18,45695,23927
18,46107,23401
18,46518,19378
18,46932,16636
18,47343,16249
18,47755,15550
18,48168,13358
18,48580,14542
18,48992,12400
18,49405,12326
18,49817,13125
18,50228,10917
18,50642,10659
18,51053,10332
18,51465,10656
18,51878,10195
18,52290,8253
18,52702,8268
18,53115,8963
18,53527,8444
18,53938,8513
18,54352,7339
18,54763,7019
18,55175,7436
18,55587,6137
18,56000,5903
18,56412,5438
18,56823,4987
18,57237,4873
18,57648,6381
18,58060,5739
18,58473,5958
18,58885,4749
18,59297,5083
18,59710,4800
18,60122,5061
18,60533,4950
18,60947,4277
18,61358,4342
18,61770,4603
18,62183,3672
18,62595,3128
18,63007,3250
18,63420,4000
18,63832,5987
18,64243,8759
18,64655,14933
18,65068,28793
18,65480,53514
18,65892,94165
18,66305,152824
18,66717,236575
18,67128,344304
18,67542,453351
18,67953,575110
18,68365,690145
18,68778,768122
18,69190,806755
18,69602,789155
18,70015,731317
18,70427,637680
18,70838,541478
18,71252,448154
18,71663,350855
18,72075,274553
18,72488,215567
18,72900,169593
18,73312,136017
18,73723,108843
18,74137,87685
18,74548,73989
18,74960,63294
18,75373,51606
18,75785,47225
18,76197,41686
18,76610,35652
18,77022,29869
18,77433,27973
18,77847,25439
18,78258,24039
18,78670,20338
18,79083,19932
18,79495,17998
18,79907,16487
18,80320,14794
18,80732,14266
18,81143,11573
18,81557,11565
18,81968,10918
18,82380,10233
18,82792,8635
18,83205,8802
18,83617,10073
18,84028,10113
18,84442,7949
18,84853,7674
18,85265,8884
18,85678,7738
18,86090,6957
18,86502,7525
18,86915,7542
18,87327,7922
18,87738,7401
18,88152,7186
18,88563,7969
18,88975,7696
18,89388,7231
18,89800,7173
18,90212,7279
18,90625,6030
18,91037,6563
18,91448,6457
18,91860,5030
18,92273,5410
18,92685,5414
18,93097,4839
18,93510,5771
18,93922,5521
18,94333,5162
18,94747,6111
18,95158,4059
18,95570,4660
18,95983,4706
18,96395,5786
18,96807,5355
18,97220,4346
18,97632,4192
18,98043,5656
18,98457,3808
18,98868,5265
18,99280,3563
18,99693,4252
19,00105,3133
19,00517,4832
19,00928,7419
19,01342,12386
19,01753,22949
19,02165,43307
19,02578,72210
19,02990,122009
19,03402,195467
19,03815,288265
19,04227,400869
19,04638,508719
19,05052,618913
19,05463,702065
19,05875,744901
19,06288,759944
19,06700,727056
19,07112,656409
19,07525,552818
19,07937,453464
19,08348,369721
19,08762,289942
19,09173,222972
19,09585,180300
19,09997,140224
19,10410,107801
19,10822,87793
19,11233,70469
19,11647,60984
19,12058,48122
19,12470,43932
19,12883,38674
19,13295,33023
19,13707,30803
19,14120,27557
19,14532,23469
19,14943,22204
19,15357,20457
19,15768,19330
19,16180,17934
19,16593,16063
19,17005,15378
19,17417,14089
19,17830,13566
19,18242,12607
19,18653,12285
19,19065,11711
19,19478,11751
19,19890,10012
19,20302,11012
19,20715,10923
19,21127,9624
19,21538,8380
19,21952,9233
19,22363,8218
19,22775,8466
19,23188,7950
19,23600,6863
19,24012,5939
19,24425,6878
19,24837,5951
19,25248,7258
19,25662,5276
19,26073,5154
19,26485,5206
19,26898,5296
19,27310,5529
19,27722,4802
19,28133,6325
19,28547,4664
19,28958,3537
19,29370,4193
19,29783,4387
19,30195,4302
19,30607,3574
19,31020,4421
19,31432,3713
19,31843,3918
19,32257,4124
19,32668,4113
19,33080,3381
19,33493,3755
19,33905,3229
19,34317,3531
19,34730,3471
19,35142,3570
19,35553,3740
19,35967,2925
19,36378,4334
19,36790,3602
19,37202,2797
19,37615,2817
19,38027,3044
19,38438,3695
19,38852,3198
19,39263,3555
19,39675,3583
19,40088,4270
19,40500,3492
19,40912,3319
19,41325,4126
19,41737,3162
19,42148,3627
19,42562,4199
19,42973,3308
19,43385,3797
19,43798,3848
19,44210,3040
19,44622,3450
19,45035,3887
19,45447,2969
19,45858,3248
19,46270,2842
19,46683,3396
19,47095,2419
19,47507,2749
19,47920,2903
19,48332,3427
19,48743,3074
19,49157,2797
19,49568,3286
19,49980,3240
19,50393,3173
19,50805,2615
19,51217,3518
19,51630,3997
19,52042,3693
19,52453,5224
19,52867,8858
19,53278,15684
19,53690,29453
19,54103,49519
19,54515,89323
19,54927,145543
19,55340,215022
19,55752,317472
19,56163,416041
19,56575,525874
19,56988,620421
19,57400,682706
19,57812,721928
19,58225,736789
19,58637,737439
19,59048,738847
19,59462,755904
19,59873,806535
19,60285,907890
19,60698,1058316
19,61110,1266876
19,61522,1463053
19,61935,1703081
19,62347,1882419
19,62758,2010546
19,63172,2048095
19,63583,1952969
19,63995,1743065
19,64408,1478337
19,64820,1176996
19,65232,921884
19,65643,704096
19,66057,535974
19,66468,416352
19,66880,328512
19,67293,258400
19,67705,212470
19,68117,177415
19,68530,151917
19,68942,129478
19,69353,113975
19,69767,103327
19,70178,91892
19,70590,82078
19,71003,73538
19,71415,69453
19,71827,66411
19,72240,66271
19,72652,59839
19,73063,61166
19,73477,57955
19,73888,55163
19,74300,51723
19,74712,52129
19,75125,48198
19,75537,43542
19,75948,39376
19,76362,36824
19,76773,33175
19,77185,31103
19,77598,30103
19,78010,25824
19,78422,24215
19,78835,23928
19,79247,22159
19,79658,20430
19,80072,20054
19,80483,18146
19,80895,16376
19,81308,16416
19,81720,16227
19,82132,14474
19,82545,11937
19,82957,13899
19,83368,13433
19,83780,12416
19,84193,11847
19,84605,12198
19,85017,13364
19,85430,17479
19,85842,23031
19,86253,35425
19,86667,55818
19,87078,86777
19,87490,138057
19,87903,204341
19,88315,288111
19,88727,391202
19,89140,490851
19,89552,583810
19,89963,640097
19,90377,675709
19,90788,659833
19,91200,614666
19,91613,536649
19,92025,455710
19,92437,372013
19,92848,293967
19,93262,237285
19,93673,183156
19,94085,146008
19,94498,111491
19,94910,90587
19,95322,74846
19,95735,62499
19,96147,54190
19,96558,47517
19,96972,40481
19,97383,36010
19,97795,32514
19,98208,29908
19,98620,27048
19,99032,25095
19,99445,23919
19,99857,22317
20,00268,21011
20,00682,20046
20,01093,19765
20,01505,20594
20,01917,25516
20,02330,34211
20,02742,49718
20,03153,84404
20,03567,134699
20,03978,207126
20,04390,299758
20,04803,417260
20,05215,542148
20,05627,679672
20,06040,802678
20,06452,887046
20,06863,913334
20,07277,891866
20,07688,820141
20,08100,720528
20,08513,611926
20,08925,502313
20,09337,391205
20,09750,310796
20,10162,241416
20,10573,192014
20,10985,151578
20,11398,126150
20,11810,105720
20,12222,88476
20,12635,73896
20,13047,63161
20,13458,58734
20,13872,50934
20,14283,44847
20,14695,39379
20,15108,37227
20,15520,34300
20,15932,32796
20,16345,28778
20,16757,25994
20,17168,24923
20,17582,22048
20,17993,21255
20,18405,22420
20,18818,19289
20,19230,18666
20,19642,17557
20,20053,17357
20,20467,17775
20,20878,16980
20,21290,13983
20,21703,14968
20,22115,14784
20,22527,13510
20,22940,13535
20,23352,12561
20,23763,11601
20,24177,11877
20,24588,10414
20,25000,10613
20,25413,13308
20,25825,11502
20,26237,12118
20,26650,13965
20,27062,15817
20,27473,14796
20,27887,13541
20,28298,13857
20,28710,10688
20,29122,10186
20,29535,9372
20,29947,9146
20,30358,7429
20,30772,8266
20,31183,8376
20,31595,6515
20,32008,8305
20,32420,7177
20,32832,7084
20,33245,7179
20,33657,7774
20,34068,6133
20,34482,7106
20,34893,6654
20,35305,6381
20,35718,5682
20,36130,6172
20,36542,6431
20,36955,5569
20,37367,5290
20,37778,5444
20,38190,5701
20,38603,5733
20,39015,5798
20,39427,5737
20,39840,7502
20,40252,10548
20,40663,16635
20,41077,26962
20,41488,50957
20,41900,89854
20,42313,141812
20,42725,229381
20,43137,332387
20,43550,475274
20,43962,624439
20,44373,777619
20,44787,893180
20,45198,989849
20,45610,1009969
20,46023,977085
20,46435,900197
20,46847,780510
20,47258,642157
20,47672,512985
20,48083,411495
20,48495,316726
20,48908,247184
20,49320,196311
20,49732,155010
20,50145,128576
20,50557,105451
20,50968,93629
20,51382,78012
20,51793,69380
20,52205,60463
20,52618,55869
20,53030,50495
20,53442,45686
20,53855,40906
20,54267,37057
20,54678,35645
20,55092,33360
20,55503,32878
20,55915,26641
20,56327,27593
20,56740,26954
20,57152,24859
20,57563,23694
20,57977,22934
20,58388,23021
20,58800,22064
20,59213,20501
20,59625,20072
20,60037,17762
20,60450,17264
20,60862,17008
20,61273,17538
20,61687,15233
20,62098,13662
20,62510,12085
20,62923,13179
20,63335,12847
20,63747,11571
20,64160,11027
20,64572,11377
20,64983,11024
20,65395,10632
20,65808,11391
20,66220,10991
20,66632,11123
20,67045,9514
20,67457,10219
20,67868,9261
20,68282,9155
20,68693,8769
20,69105,8984
20,69518,10156
20,69930,9809
20,70342,10002
20,70755,11266
20,71167,10784
20,71578,13919
20,71992,22230
20,72403,35785
20,72815,55835
20,73228,97297
20,73640,154123
20,74052,237986
20,74463,340524
20,74877,464589
20,75288,580471
20,75700,683944
20,76113,768650
20,76525,803056
20,76937,791319
20,77350,740987
20,77762,655681
20,78173,554054
20,78587,447737
20,78998,355989
20,79410,288718
20,79823,224618
20,80235,174891
20,80647,140378
20,81060,118922
20,81472,96703
20,81883,79384
20,82297,68089
20,82708,58344
20,83120,50924
20,83532,45715
20,83945,39729
20,84357,39732
20,84768,35827
20,85182,31978
20,85593,30917
20,86005,29343
20,86418,24953
20,86830,25354
20,87242,22672
20,87655,21367
20,88067,18900
20,88478,19867
20,88892,19774
20,89303,17948
20,89715,16913
20,90128,15443
20,90540,15590
20,90952,14313
20,91365,13039
20,91777,14249
20,92188,13089
20,92600,12746
20,93013,13077
20,93425,10989
20,93837,11768
20,94250,12409
20,94662,11398
20,95073,11679
20,95487,11023
20,95898,12136
20,96310,10162
20,96723,10368
20,97135,10117
20,97547,9238
20,97960,9100
20,98372,9701
20,98783,10811
20,99197,8305
20,99608,8016
21,00020,8300
21,00433,9372
21,00845,8345
21,01257,8907
21,01668,7910
21,02082,7865
21,02493,7882
21,02905,8465
21,03318,8450
21,03730,8207
21,04142,7019
21,04555,6934
21,04967,7702
21,05378,8516
21,05792,7651
21,06203,6898
21,06615,8064
21,07028,7122
21,07440,7202
21,07852,7264
21,08265,7944
21,08677,7964
21,09088,7892
21,09502,7922
21,09913,9350
21,10325,9065
21,10738,8905
21,11150,7777
21,11562,8272
21,11973,7742
21,12387,7720
21,12798,7425
21,13210,7927
21,13623,7636
21,14035,7678
21,14447,7686
21,14860,6145
21,15272,6127
21,15683,6559
21,16097,7089
21,16508,5443
21,16920,6388
21,17333,6296
21,17745,7764
21,18157,6594
21,18570,6219
21,18982,6736
21,19393,7747
21,19807,9202
21,20218,11470
21,20630,16590
21,21042,33333
21,21455,51683
21,21867,96248
21,22278,165485
21,22692,265706
21,23103,416276
21,23515,596806
21,23928,826826
21,24340,1072333
21,24752,1351315
21,25165,1613612
21,25577,1858307
21,25988,2078019
21,26402,2230610
21,26813,2361160
21,27225,2440138
21,27638,2406732
21,28050,2283652
21,28462,2043684
21,28875,1754731
21,29287,1430564
21,29698,1133185
21,30110,882393
21,30523,680280
21,30935,534590
21,31347,426514
21,31760,353674
21,32172,291086
21,32583,243353
21,32997,214005
21,33408,185688
21,33820,165762
21,34233,146207
21,34645,129757
21,35057,118042
21,35470,106509
21,35882,99542
21,36293,91055
21,36707,85619
21,37118,80472
21,37530,74163
21,37943,67866
21,38355,61279
21,38767,58883
21,39178,54382
21,39592,52386
21,40003,52101
21,40415,48116
21,40828,46182
21,41240,44406
21,41652,41099
21,42065,39396
21,42477,38278
21,42888,36988
21,43302,34525
21,43713,32533
21,44125,32194
21,44538,32563
21,44950,30340
21,45362,28777
21,45775,27003
21,46187,24561
21,46598,24107
21,47012,24543
21,47423,22090
21,47835,22717
21,48247,22563
21,48660,23323
21,49072,22001
21,49483,20146
21,49897,20507
21,50308,23119
21,50720,29446
21,51133,37604
21,51545,54277
21,51957,87201
21,52370,130018
21,52782,197161
21,53193,281561
21,53607,383457
21,54018,497064
21,54430,608948
21,54843,687874
21,55255,735345
21,55667,746966
21,56080,703695
21,56492,644116
21,56903,567084
21,57315,488277
21,57728,423135
21,58140,390376
21,58552,379618
21,58965,399789
21,59377,442801
21,59788,513309
21,60202,586318
21,60613,647358
21,61025,701427
21,61438,721620
21,61850,707685
21,62262,657321
21,62675,588148
21,63087,511010
21,63498,434248
21,63912,358959
21,64323,306781
21,64735,276023
21,65148,271471
21,65560,291540
21,65972,340842
21,66383,420222
21,66797,530868
21,67208,658197
21,67620,789806
21,68033,908991
21,68445,981197
21,68857,1002577
21,69270,966993
21,69682,894766
21,70093,780571
21,70507,670950
21,70918,544508
21,71330,445674
21,71743,356698
21,72155,283114
21,72567,235976
21,72980,196881
21,73392,160275
21,73803,140597
21,74217,119704
21,74628,111140
21,75040,98935
21,75452,89937
21,75865,79957
21,76277,73763
21,76688,69535
21,77102,63597
21,77513,56640
21,77925,53159
21,78338,53098
21,78750,48210
21,79162,47356
21,79575,41000
21,79987,39773
21,80398,36288
21,80812,36572
21,81223,34938
21,81635,30092
21,82048,32512
21,82460,30097
21,82872,29295
21,83285,26817
21,83697,27473
21,84108,25658
21,84520,23123
21,84933,24201
21,85345,24987
21,85757,22386
21,86170,23225
21,86582,23901
21,86993,21698
21,87407,22233
21,87818,20655
21,88230,20452
21,88643,19171
21,89055,20702
21,89467,18901
21,89880,19578
21,90292,20382
21,90703,19684
21,91117,18841
21,91528,18283
21,91940,18146
21,92353,16539
21,92765,17264
21,93177,17954
21,93588,15334
21,94002,16413
21,94413,15039
21,94825,15296
21,95238,15710
21,95650,13785
21,96062,13892
21,96475,15464
21,96887,12960
21,97298,14962
21,97712,15885
21,98123,18958
21,98535,22767
21,98948,34207
21,99360,51625
21,99772,79167
22,00185,120965
22,00597,183831
22,01008,275748
22,01422,381716
22,01833,518057
22,02245,666642
22,02657,819542
22,03070,940977
22,03482,1016871
22,03893,1057141
22,04307,1012263
22,04718,912850
22,05130,787293
22,05543,656207
22,05955,520457
22,06367,420100
22,06780,331839
22,07192,265580
22,07603,222890
22,08017,183883
22,08428,157222
22,08840,132470
22,09253,118367
22,09665,103185
22,10077,90351
22,10490,85692
22,10902,78147
22,11313,72252
22,11725,66077
22,12138,58459
22,12550,58468
22,12962,53350
22,13375,49686
22,13787,46141
22,14198,45181
22,14612,43053
22,15023,40258
22,15435,38536
22,15848,37374
22,16260,36802
22,16672,36336
22,17085,33715
22,17497,33409
22,17908,34533
22,18322,32358
22,18733,31307
22,19145,31856
22,19558,29929
22,19970,27839
22,20382,28693
22,20793,27059
22,21207,25316
22,21618,25338
22,22030,23808
22,22443,24901
22,22855,23800
22,23267,23072
22,23680,24550
22,24092,21371
22,24503,24585
22,24917,25456
22,25328,24033
22,25740,22742
22,26153,22305
22,26565,22654
22,26977,21600
22,27390,20342
22,27802,19145
22,28213,21608
22,28627,21006
22,29038,22340
22,29450,25335
22,29862,33994
22,30275,49474
22,30687,77215
22,31098,120295
22,31512,190888
22,31923,280162
22,32335,391264
22,32748,520706
22,33160,635388
22,33572,758710
22,33985,834685
22,34397,858065
22,34808,827069
22,35222,757801
22,35633,667840
22,36045,565273
22,36458,463251
22,36870,383673
22,37282,314830
22,37695,261753
22,38107,228740
22,38518,218056
22,38930,222552
22,39343,252509
22,39755,307067
22,40167,378086
22,40580,457031
22,40992,532922
22,41403,592540
22,41817,639492
22,42228,638452
22,42640,612829
22,43053,570654
22,43465,511232
22,43877,444658
22,44290,367841
22,44702,303898
22,45113,247510
22,45527,199121
22,45938,166610
22,46350,139096
22,46763,116794
22,47175,102697
22,47587,90074
22,47998,76952
22,48412,69220
22,48823,62848
22,49235,59329
22,49648,54200
22,50060,49312
22,50472,46329
22,50885,45805
22,51297,39912
22,51708,38483
22,52122,37504
22,52533,34556
22,52945,31948
22,53358,33290
22,53770,28517
22,54182,30046
22,54595,29361
22,55007,28401
22,55418,25733
22,55832,25785
22,56243,24828
22,56655,24557
22,57067,25388
22,57480,23284
22,57892,21381
22,58303,21772
22,58717,22918
22,59128,22142
22,59540,21832
22,59953,19425
22,60365,20952
22,60777,20358
22,61190,19527
22,61602,21044
22,62013,19424
22,62427,18239
22,62838,20250
22,63250,18163
22,63663,19769
22,64075,18877
22,64487,15548
22,64900,16787
22,65312,18274
22,65723,16339
22,66135,16303
22,66548,17038
22,66960,18440
22,67372,14609
22,67785,16651
22,68197,14866
22,68608,16058
22,69022,16384
22,69433,15076
22,69845,15420
22,70258,15256
22,70670,15376
22,71082,14328
22,71495,16366
22,71907,15342
22,72318,17568
22,72732,15580
22,73143,19108
22,73555,19862
22,73968,26015
22,74380,35690
22,74792,49991
22,75205,78897
22,75617,121222
22,76028,181694
22,76440,271372
22,76853,377110
22,77265,520215
22,77677,682983
22,78090,881004
22,78502,1111305
22,78913,1330134
22,79327,1555737
22,79738,1768714
22,80150,1928552
22,80563,2012044
22,80975,1944609
22,81387,1801124
22,81800,1572129
22,82212,1287326
22,82623,1023716
22,83037,789392
22,83448,630072
22,83860,496689
22,84273,408196
22,84685,338536
22,85097,288443
22,85508,248125
22,85922,215918
22,86333,191359
22,86745,168986
22,87158,156193
22,87570,142958
22,87982,132912
22,88395,122118
22,88807,112668
22,89218,106128
22,89632,99169
22,90043,92675
22,90455,84605
22,90868,81449
22,91280,78648
22,91692,72718
22,92105,69051
22,92517,67505
22,92928,62568
22,93342,59873
22,93753,56115
22,94165,54815
22,94577,54893
22,94990,52469
22,95402,49048
22,95813,47311
22,96227,47602
22,96638,46067
22,97050,42849
22,97463,44059
22,97875,42957
22,98287,41386
22,98700,37837
22,99112,37111
22,99523,37862
22,99937,37135
23,00348,35507
23,00760,36032
23,01173,33714
23,01585,33230
23,01997,33707
23,02410,31985
23,02822,31571
23,03233,31137
23,03645,30481
23,04058,32293
23,04470,28351
23,04882,27888
23,05295,27940
23,05707,29354
23,06118,26671
23,06532,27698
23,06943,28136
23,07355,27085
23,07768,25790
23,08180,24767
23,08592,24415
23,09005,26551
23,09417,24106
23,09828,25440
23,10242,24807
23,10653,24011
23,11065,23017
23,11478,26538
23,11890,23831
23,12302,23370
23,12713,22173
23,13127,24846
23,13538,24321
23,13950,25399
23,14363,27558
23,14775,31101
23,15187,41740
23,15600,53836
23,16012,81352
23,16423,117835
23,16837,171733
23,17248,246562
23,17660,341749
23,18073,457990
23,18485,589501
23,18897,714093
23,19310,832927
23,19722,913017
23,20133,948691
23,20547,932853
23,20958,871799
23,21370,782237
23,21782,672388
23,22195,561335
23,22607,465251
23,23018,378324
23,23432,312488
23,23843,257470
23,24255,217959
23,24668,188543
23,25080,166544
23,25492,145340
23,25905,127218
23,26317,116109
23,26728,108518
23,27142,95017
23,27553,86779
23,27965,80409
23,28378,76641
23,28790,72444
23,29202,67096
23,29615,63889
23,30027,59689
23,30438,57614
23,30850,53664
23,31263,51815
23,31675,47533
23,32087,47765
23,32500,46345
23,32912,43665
23,33323,41706
23,33737,41474
23,34148,39836
23,34560,35612
23,34973,35817
23,35385,34203
23,35797,33817
23,36210,33265
23,36622,32404
23,37033,31778
23,37447,31108
23,37858,29552
23,38270,31688
23,38683,28168
23,39095,27005
23,39507,25462
23,39918,26937
23,40332,30101
23,40743,27495
23,41155,27098
23,41568,25973
23,41980,26197
23,42392,27356
23,42805,24672
23,43217,24530
23,43628,22739
23,44042,24865
23,44453,21821
23,44865,24196
23,45278,21376
23,45690,22766
23,46102,22029
23,46515,20383
23,46927,21443
23,47338,22068
23,47752,21885
23,48163,24418
23,48575,23017
23,48987,22432
23,49400,24972
23,49812,23515
23,50223,26698
23,50637,25332
23,51048,26462
23,51460,26036
23,51873,26407
23,52285,25215
23,52697,25136
23,53110,22866
23,53522,22566
23,53933,22058
23,54347,19779
23,54758,20376
23,55170,21808
23,55583,19018
23,55995,18934
23,56407,18118
23,56820,20117
23,57232,17895
23,57643,19225
23,58055,20959
23,58468,19504
23,58880,17790
23,59292,17146
23,59705,19806
23,60117,19957
23,60528,17788
23,60942,19500
23,61353,17036
23,61765,17516
23,62178,16808
23,62590,17760
23,63002,16529
23,63415,16778
23,63827,14992
23,64238,16933
23,64652,16888
23,65063,17275
23,65475,19264
23,65888,18846
23,66300,20317
23,66712,20797
23,67123,22558
23,67537,21384
23,67948,20786
23,68360,19889
23,68773,19800
23,69185,18974
23,69597,19437
23,70010,19096
23,70422,17890
23,70833,18007
23,71247,18982
23,71658,18519
23,72070,19572
23,72483,17654
23,72895,18615
23,73307,18732
23,73720,18341
23,74132,18454
23,74543,19702
23,74957,17326
23,75368,19283
23,75780,18793
23,76192,20150
23,76605,20180
23,77017,19178
23,77428,17849
23,77842,18246
23,78253,18875
23,78665,17406
23,79078,17174
23,79490,17498
23,79902,16873
23,80315,17896
23,80727,16703
23,81138,15832
23,81552,16096
23,81963,15064
23,82375,15104
23,82788,16156
23,83200,15475
23,83612,14715
23,84025,15846
23,84437,16150
23,84848,16115
23,85260,16303
23,85673,15679
23,86085,15532
23,86497,14630
23,86910,15435
23,87322,16352
23,87733,16811
23,88147,17153
23,88558,16575
23,88970,16067
23,89383,15337
23,89795,14687
23,90207,15563
23,90620,16920
23,91032,16367
23,91443,15582
23,91857,14675
23,92268,14870
23,92680,15891
23,93093,15021
23,93505,13766
23,93917,14342
23,94328,14619
23,94742,14754
23,95153,14167
23,95565,16453
23,95978,15487
23,96390,15487
23,96802,14089
23,97215,14824
23,97627,15237
23,98038,13605
23,98452,15769
23,98863,15110
23,99275,14749
23,99688,15978
24,00100,13485
24,00512,17133
24,00925,14993
24,01337,16126
24,01748,16741
24,02162,16607
24,02573,15452
24,02985,16321
24,03397,16307
24,03810,16238
24,04222,17162
24,04633,17651
24,05047,16732
24,05458,14565
24,05870,16297
24,06283,16977
24,06695,16714
24,07107,15199
24,07520,16071
24,07932,16730
24,08343,14124
24,08757,14419
24,09168,16186
24,09580,16068
24,09993,15781
24,10405,15216
24,10817,15119
24,11230,13711
24,11642,14605
24,12053,13514
24,12465,15034
24,12878,14775
24,13290,14067
24,13702,14419
24,14115,14318
24,14527,13102
24,14938,13440
24,15352,14181
24,15763,12895
24,16175,15193
24,16588,14228
24,17000,14257
24,17412,13851
24,17825,14261
24,18237,15119
24,18648,14100
24,19062,14812
24,19473,13670
24,19885,12760
24,20298,14783
24,20710,14124
24,21122,13395
24,21533,14907
24,21947,13924
24,22358,13978
24,22770,14721
24,23183,14679
24,23595,15470
24,24007,14238
24,24420,14765
24,24832,15701
24,25243,14931
24,25657,14001
24,26068,15841
24,26480,14133
24,26893,14023
24,27305,14450
24,27717,13847
24,28130,15313
24,28542,14446
24,28953,14951
24,29367,14137
24,29778,14579
24,30190,15775
24,30603,14974
24,31015,15666
24,31427,14565
24,31838,14913
24,32252,16083
24,32663,15708
24,33075,18269
24,33488,19551
24,33900,24467
24,34312,30734
24,34725,40576
24,35137,57492
24,35548,81563
24,35962,114610
24,36373,159531
24,36785,218017
24,37198,277085
24,37610,337717
24,38022,398836
24,38435,444567
24,38847,471686
24,39258,481301
24,39672,473861
24,40083,444151
24,40495,407203
24,40907,364637
24,41320,316341
24,41732,274542
24,42143,240923
24,42557,202968
24,42968,171301
24,43380,145153
24,43793,126856
24,44205,111666
24,44617,95219
24,45030,86728
24,45442,76759
24,45853,67036
24,46267,63219
24,46678,59375
24,47090,53429
24,47503,49472
24,47915,47671
24,48327,46799
24,48740,42160
24,49152,40543
24,49563,37023
24,49975,36679
24,50388,35956
24,50800,34628
24,51212,36111
24,51625,30974
24,52037,31658
24,52448,31506
24,52862,28880
24,53273,27681
24,53685,28598
24,54098,26766
24,54510,26323
24,54922,25814
24,55335,25037
24,55747,22702
24,56158,24081
24,56572,24346
24,56983,25559
24,57395,24713
24,57808,21843
24,58220,22786
24,58632,23674
24,59043,20814
24,59457,22294
24,59868,22698
24,60280,21545
24,60693,20366
24,61105,21873
24,61517,19002
24,61930,20029
24,62342,21717
24,62753,20452
24,63167,20975
24,63578,19797
24,63990,20781
24,64403,18933
24,64815,18258
24,65227,19954
24,65640,17597
24,66052,17938
24,66463,17841
24,66877,19198
24,67288,17363
24,67700,18654
24,68112,17737
24,68525,17266
24,68937,17723
24,69348,15719
24,69762,17092
24,70173,16422
24,70585,18248
24,70998,15973
24,71410,18570
24,71822,15151
24,72235,16115
24,72647,16822
24,73058,16616
24,73472,16466
24,73883,16439
24,74295,15859
24,74708,16776
24,75120,16957
24,75532,15312
24,75945,17564
24,76357,16444
24,76768,16222
24,77180,15837
24,77593,18512
24,78005,15720
24,78417,16245
24,78830,16209
24,79242,17603
24,79653,17417
24,80067,15250
24,80478,16569
24,80890,16970
24,81303,16721
24,81715,17397
24,82127,17888
24,82540,17482
24,82952,16615
24,83363,17327
24,83777,18318
24,84188,17516
24,84600,17684
24,85013,18684
24,85425,17894
24,85837,16782
24,86248,15127
24,86662,16065
24,87073,16115
24,87485,17104
24,87898,16244
24,88310,16774
24,88722,16369
24,89135,15358
24,89547,17773
24,89958,16147
24,90372,16989
24,90783,16454
24,91195,17173
24,91608,15498
24,92020,15797
24,92432,16163
24,92845,16690
24,93257,15518
24,93668,16010
24,94082,15579
24,94493,16889
24,94905,15512
24,95317,15845
24,95730,17059
24,96142,18155
24,96553,16708
24,96967,16991
24,97378,17347
24,97790,16230
24,98203,16867
24,98615,15697
24,99027,16764
24,99440,16527
24,99852,17135
25,00263,17225
25,00677,16155
25,01088,17062
25,01500,14842
25,01913,16098
25,02325,15489
25,02737,15659
25,03150,14725
25,03562,15448
25,03973,13790
25,04385,16053
25,04798,14155
25,05210,15776
25,05622,15106
25,06035,15453
25,06447,15548
25,06858,15296
25,07272,15000
25,07683,13460
25,08095,17030
25,08508,15824
25,08920,15021
25,09332,17251
25,09745,15957
25,10157,16108
25,10568,15864
25,10982,15830
25,11393,16288
25,11805,14141
25,12218,15417
25,12630,15968
25,13042,13390
25,13453,15286
25,13867,15086
25,14278,15989
25,14690,14586
25,15103,15207
25,15515,15381
25,15927,14951
25,16340,15458
25,16752,15993
25,17163,13830
25,17577,17373
25,17988,16491
25,18400,15298
25,18813,14982
25,19225,16538
25,19637,15799
25,20050,16601
25,20462,15432
25,20873,15835
25,21287,13752
25,21698,15695
25,22110,16824
25,22522,15451
25,22935,15598
25,23347,16172
25,23758,16148
25,24172,16256
25,24583,15414
25,24995,14091
25,25408,14188
25,25820,13860
25,26232,16254
25,26645,14579
25,27057,14994
25,27468,13383
25,27882,14479
25,28293,14411
25,28705,13017
25,29118,16029
25,29530,15861
25,29942,15327
25,30355,14433
25,30767,14452
25,31178,16463
25,31590,15370
25,32003,15635
25,32415,14609
25,32827,16818
25,33240,15616
25,33652,15622
25,34063,15414
25,34477,14438
25,34888,14864
25,35300,15714
25,35713,14909
25,36125,16788
25,36537,15191
25,36950,16366
25,37362,14618
25,37773,15212
25,38187,14468
25,38598,15014
25,39010,15250
25,39423,15627
25,39835,15118
25,40247,15012
25,40658,15362
25,41072,14992
25,41483,14885
25,41895,16267
25,42308,15731
25,42720,15946
25,43132,15687
25,43545,14977
25,43957,15656
25,44368,15214
25,44782,15876
25,45193,16331
25,45605,14365
25,46018,17054
25,46430,15905
25,46842,16876
25,47255,15126
25,47667,16448
25,48078,17339
25,48492,15807
25,48903,15224
25,49315,17018
25,49727,14977
25,50140,15854
25,50552,15453
25,50963,16600
25,51377,15322
25,51788,16612
25,52200,16288
25,52613,15990
25,53025,17377
25,53437,17715
25,53850,18177
25,54262,19997
25,54673,16954
25,55087,18500
25,55498,19522
25,55910,18842
25,56323,18149
25,56735,18783
25,57147,18231
25,57560,18335
25,57972,18403
25,58383,18107
25,58795,16476
25,59208,17379
25,59620,16637
25,60032,18641
25,60445,16241
25,60857,17467
25,61268,16422
25,61682,14689
25,62093,14398
25,62505,15560
25,62918,17557
25,63330,16585
25,63742,17011
25,64155,14093
25,64567,14737
25,64978,15355
25,65392,14044
25,65803,14540
25,66215,14170
25,66628,16277
25,67040,15106
25,67452,16059
25,67863,14130
25,68277,13408
25,68688,13928
25,69100,14423
25,69513,14191
25,69925,12986
25,70337,14577
25,70750,13747
25,71162,15368
25,71573,14478
25,71987,14902
25,72398,13799
25,72810,14905
25,73223,14204
25,73635,14423
25,74047,16082
25,74460,15014
25,74872,15717
25,75283,15044
25,75697,16538
25,76108,16850
25,76520,17082
25,76932,14333
25,77345,14988
25,77757,14889
25,78168,15512
25,78582,14072
25,78993,15828
25,79405,14300
25,79818,15276
25,80230,15913
25,80642,15848
25,81055,16213
25,81467,15886
25,81878,17237
25,82292,16327
25,82703,15821
25,83115,14458
25,83528,14279
25,83940,16567
25,84352,16265
25,84765,17013
25,85177,16255
25,85588,18012
25,86002,15354
25,86413,16612
25,86825,14891
25,87237,15167
25,87650,16719
25,88062,14586
25,88473,14745
25,88887,15103
25,89298,15613
25,89710,14717
25,90123,14803
25,90535,14583
25,90947,13886
25,91360,16813
25,91772,14851
25,92183,15587
25,92597,14846
25,93008,14690
25,93420,13655
25,93833,14943
25,94245,15110
25,94657,14851
25,95070,15449
25,95482,13947
25,95893,15529
25,96305,14038
25,96718,16974
25,97130,15013
25,97542,16542
25,97955,15876
25,98367,15434
25,98778,14250
25,99192,15784
25,99603,14253
26,00015,13755
26,00428,15954
26,00840,13908
26,01252,14946
26,01665,12954
26,02077,15369
26,02488,15991
26,02902,16171
26,03313,16131
26,03725,14818
26,04138,17952
26,04550,15291
26,04962,15763
26,05373,14851
26,05787,17016
26,06198,14172
26,06610,13709
26,07023,13800
26,07435,14241
26,07847,14803
26,08260,14363
26,08672,14977
26,09083,13835
26,09497,13873
26,09908,15580
26,10320,15617
26,10733,16364
26,11145,13623
26,11557,15431
26,11970,15660
26,12382,16693
26,12793,13769
26,13207,14480
26,13618,16214
26,14030,13887
26,14442,15978
26,14855,16002
26,15267,16576
26,15678,15205
26,16092,15076
26,16503,15820
26,16915,16330
26,17328,15928
26,17740,17061
26,18152,17421
26,18565,15920
26,18977,14632
26,19388,15763
26,19802,16942
26,20213,16672
26,20625,16937
26,21038,15232
26,21450,17149
26,21862,15948
26,22275,15222
26,22687,15313
26,23098,16332
26,23510,14983
26,23923,14956
26,24335,15811
26,24747,15877
26,25160,16448
26,25572,15480
26,25983,15753
26,26397,16921
26,26808,14350
26,27220,14100
26,27633,15589
26,28045,14421
26,28457,14915
26,28870,14331
26,29282,14182
26,29693,14224
26,30107,14152
26,30518,14911
26,30930,15004
26,31343,13756
26,31755,14912
26,32167,12913
26,32578,15802
26,32992,14673
26,33403,12618
26,33815,14714
26,34228,13281
26,34640,14325
26,35052,15204
26,35465,16331
26,35877,15413
26,36288,15416
26,36702,14494
26,37113,15730
26,37525,16220
26,37938,15145
26,38350,13428
26,38762,16076
26,39175,16041
26,39587,15424
26,39998,14379
26,40412,14909
26,40823,14390
26,41235,14746
26,41647,14222
26,42060,15286
26,42472,16551
26,42883,15547
26,43297,13785
26,43708,14770
26,44120,15766
26,44533,15020
26,44945,16541
26,45357,16055
26,45770,14405
26,46182,17267
26,46593,15924
26,47007,16959
26,47418,16941
26,47830,16714
26,48243,16708
26,48655,17267
26,49067,15117
26,49480,16524
26,49892,17840
26,50303,17045
26,50715,17023
26,51128,18311
26,51540,16256
26,51952,17803
26,52365,18156
26,52777,17315
26,53188,17725
26,53602,18072
26,54013,16123
26,54425,18305
26,54838,16801
26,55250,16769
26,55662,17102
26,56075,16248
26,56487,15791
26,56898,15221
26,57312,15139
26,57723,15651
26,58135,14819
26,58548,13926
26,58960,14751
26,59372,15268
26,59783,15386
26,60197,14011
26,60608,14670
26,61020,13145
26,61433,14170
26,61845,14917
26,62257,14176
26,62670,13668
26,63082,16331
26,63493,14846
26,63907,11754
26,64318,13582
26,64730,12942
26,65143,14090
26,65555,14713
26,65967,13175
26,66380,14165
26,66792,14351
26,67203,14081
26,67617,14136
26,68028,15484
26,68440,14547
26,68852,15316
26,69265,14378
26,69677,15519
26,70088,14896
26,70502,14824
26,70913,13218
26,71325,15599
26,71738,15305
26,72150,15890
26,72562,15847
26,72975,15294
26,73387,16114
26,73798,14871
26,74212,15021
26,74623,16337
26,75035,15478
26,75448,16279
26,75860,14993
26,76272,13384
26,76685,15167
26,77097,13523
26,77508,14344
26,77920,15511
26,78333,13945
26,78745,14159
26,79157,16279
26,79570,16069
26,79982,14797
26,80393,13475
26,80807,14027
26,81218,15545
26,81630,15345
26,82043,13146
26,82455,14049
26,82867,14804
26,83280,15611
26,83692,13563
26,84103,14880
26,84517,13956
26,84928,14078
26,85340,15761
26,85753,15466
26,86165,15873
26,86577,15933
26,86988,16599
26,87402,15912
26,87813,14503
26,88225,14635
26,88638,15820
26,89050,15435
26,89462,14419
26,89875,15221
26,90287,14399
26,90698,13723
26,91112,13978
26,91523,13479
26,91935,14016
26,92348,14731
26,92760,13448
26,93172,14178
26,93585,12454
26,93997,13384
26,94408,14150
26,94822,13912
26,95233,13557
26,95645,15368
26,96057,14685
26,96470,13886
26,96882,14495
26,97293,14075
26,97707,13747
26,98118,12495
26,98530,13628
26,98943,13807
26,99355,13213
26,99767,14488
27,00180,14010
27,00592,14683
27,01003,14256
27,01417,15580
27,01828,14126
27,02240,16021
27,02653,16097
27,03065,15241
27,03477,15540
27,03890,15752
27,04302,14001
27,04713,16746
27,05125,14752
27,05538,15431
27,05950,16074
27,06362,15624
27,06775,15948
27,07187,17191
27,07598,17027
27,08012,17299
27,08423,16369
27,08835,16320
27,09248,15783
27,09660,17432
27,10072,16597
27,10485,14901
27,10897,15887
27,11308,15240
27,11722,14094
27,12133,15187
27,12545,15832
27,12958,15106
27,13370,13942
27,13782,13791
27,14193,15607
27,14607,14200
27,15018,13309
27,15430,13454
27,15843,14980
27,16255,14602
27,16667,14209
27,17080,14332
27,17492,14030
27,17903,15942
27,18317,15474
27,18728,15107
27,19140,14271
27,19553,13797
27,19965,13552
27,20377,13862
27,20790,14384
27,21202,14079
27,21613,14519
27,22027,14487
27,22438,15548
27,22850,14676
27,23262,15443
27,23675,15718
27,24087,14701
27,24498,14894
27,24912,16193
27,25323,15474
27,25735,12778
27,26148,13997
27,26560,14357
27,26972,14674
27,27385,13605
27,27797,13740
27,28208,16248
27,28622,13688
27,29033,14058
27,29445,13956
27,29858,13309
27,30270,14611
27,30682,14360
27,31095,14630
27,31507,14659
27,31918,15863
27,32330,15265
27,32743,15459
27,33155,13930
27,33567,15307
27,33980,15343
27,34392,14677
27,34803,14474
27,35217,14189
27,35628,14034
27,36040,15445
27,36453,13775
27,36865,15736
27,37277,15095
27,37690,14680
27,38102,13503
27,38513,14571
27,38927,15617
27,39338,14332
27,39750,13644
27,40163,14497
27,40575,12693
27,40987,15500
27,41398,14819
27,41812,15094
27,42223,15142
27,42635,13401
27,43048,13813
27,43460,15258
27,43872,14488
27,44285,15699
27,44697,16698
27,45108,14699
27,45522,13681
27,45933,14485
27,46345,13935
27,46758,15609
27,47170,14036
27,47582,14391
27,47995,16290
27,48407,14947
27,48818,14770
27,49232,13616
27,49643,15342
27,50055,15351
27,50468,13784
27,50880,15047
27,51292,13271
27,51703,13872
27,52117,15403
27,52528,15274
27,52940,14986
27,53353,15366
27,53765,13280
27,54177,14149
27,54590,15430
27,55002,14857
27,55413,14204
27,55827,14041
27,56238,14471
27,56650,13443
27,57063,13429
27,57475,14929
27,57887,13776
27,58300,15581
27,58712,14058
27,59123,14214
27,59537,14220
27,59948,13920
27,60360,12418
27,60772,13581
27,61185,13926
27,61597,13235
27,62008,12972
27,62422,15827
27,62833,14045
27,63245,13713
27,63658,15300
27,64070,13467
27,64482,13979
27,64895,13768
27,65307,14475
27,65718,14161
27,66132,15638
27,66543,12303
27,66955,12816
27,67368,14947
27,67780,13311
27,68192,14844
27,68605,12952
27,69017,13979
27,69428,13862
27,69840,13472
27,70253,14018
27,70665,15035
27,71077,13413
27,71490,13489
27,71902,15101
27,72313,11731
27,72727,15505
27,73138,13305
27,73550,13635
27,73963,13392
27,74375,14177
27,74787,15609
27,75200,14809
27,75612,14962
27,76023,13431
27,76437,14579
27,76848,16200
27,77260,14971
27,77673,14408
27,78085,13798
27,78497,14112
27,78908,14108
27,79322,14417
27,79733,14488
27,80145,15284
27,80558,15684
27,80970,15726
27,81382,15798
27,81795,13766
27,82207,14742
27,82618,13571
27,83032,13645
27,83443,14866
27,83855,14596
27,84268,13045
27,84680,16451
27,85092,14588
