D:\MassHunter\GCMS\1\data\Amal\Constant flow\60C\60C_1ml-min_9C-min_1.D Wed Aug 07 15:19:42 2024
Start of data points
6,59088,14240
6,59502,12248
6,59913,13814
6,60325,13315
6,60738,13735
6,61150,12839
6,61562,12818
6,61975,12953
6,62387,12854
6,62798,13198
6,63212,13234
6,63623,12985
6,64035,13347
6,64448,12005
6,64860,12503
6,65272,13026
6,65683,12445
6,66097,13143
6,66508,14068
6,66920,11596
6,67333,12363
6,67745,12586
6,68157,12861
6,68570,12677
6,68982,12428
6,69393,12414
6,69807,12047
6,70218,12335
6,70630,12057
6,71043,12002
6,71455,11991
6,71867,11525
6,72280,12040
6,72692,11542
6,73103,11746
6,73517,11683
6,73928,12567
6,74340,12812
6,74752,11182
6,75165,11784
6,75577,12536
6,75988,12213
6,76402,12247
6,76813,13310
6,77225,12586
6,77638,13230
6,78050,12871
6,78462,14312
6,78875,14381
6,79287,13943
6,79698,14757
6,80112,16562
6,80523,18089
6,80935,18675
6,81348,18792
6,81760,18801
6,82172,20006
6,82585,19726
6,82997,22340
6,83408,21459
6,83820,22052
6,84233,21657
6,84645,21286
6,85057,19800
6,85470,19467
6,85882,17397
6,86293,17710
6,86707,17330
6,87118,16531
6,87530,16304
6,87943,16923
6,88355,14019
6,88767,14637
6,89180,14505
6,89592,14069
6,90003,13469
6,90417,14802
6,90828,13239
6,91240,13274
6,91653,12683
6,92065,12311
6,92477,13146
6,92888,13394
6,93302,11109
6,93713,12026
6,94125,11572
6,94538,11229
6,94950,10894
6,95362,10855
6,95775,10302
6,96187,10175
6,96598,10500
6,97012,10205
6,97423,10728
6,97835,9985
6,98248,10272
6,98660,10006
6,99072,9376
6,99485,9715
6,99897,9810
7,00308,9270
7,00722,9309
7,01133,9299
7,01545,9259
7,01957,9333
7,02370,9286
7,02782,8653
7,03193,8924
7,03607,8614
7,04018,9739
7,04430,8732
7,04843,9378
7,05255,8949
7,05667,9802
7,06080,8584
7,06492,8748
7,06903,10665
7,07317,8871
7,07728,9746
7,08140,9475
7,08553,9438
7,08965,10620
7,09377,9462
7,09790,10455
7,10202,10826
7,10613,9368
7,11025,10789
7,11438,10249
7,11850,10169
7,12262,9697
7,12675,9751
7,13087,10042
7,13498,10191
7,13912,9139
7,14323,9116
7,14735,8729
7,15148,9577
7,15560,9423
7,15972,9438
7,16385,8917
7,16797,9264
7,17208,9377
7,17622,8205
7,18033,8506
7,18445,9016
7,18858,8980
7,19270,8631
7,19682,9072
7,20093,8389
7,20507,9586
7,20918,9113
7,21330,9361
7,21743,9156
7,22155,10292
7,22567,8395
7,22980,9086
7,23392,9427
7,23803,9581
7,24217,9594
7,24628,9269
7,25040,9820
7,25453,8207
7,25865,9494
7,26277,8257
7,26690,9227
7,27102,9833
7,27513,9680
7,27927,9764
7,28338,12387
7,28750,15915
7,29162,22379
7,29575,36522
7,29987,57064
7,30398,86563
7,30812,132430
7,31223,185756
7,31635,257291
7,32048,340859
7,32460,426353
7,32872,511397
7,33285,583347
7,33697,647623
7,34108,684771
7,34522,703472
7,34933,687789
7,35345,673204
7,35758,639143
7,36170,610415
7,36582,558198
7,36995,502212
7,37407,458938
7,37818,411869
7,38230,365324
7,38643,329249
7,39055,284922
7,39467,257044
7,39880,226913
7,40292,192289
7,40703,169831
7,41117,150896
7,41528,130446
7,41940,113328
7,42353,97378
7,42765,85330
7,43177,77696
7,43590,65603
7,44002,60196
7,44413,50467
7,44827,46212
7,45238,41012
7,45650,37298
7,46063,33632
7,46475,30012
7,46887,26638
7,47300,24488
7,47712,24272
7,48123,22082
7,48535,19211
7,48948,19799
7,49360,17675
7,49772,16495
7,50185,15986
7,50597,14956
7,51008,14373
7,51422,14121
7,51833,13968
7,52245,13649
7,52658,12726
7,53070,12211
7,53482,12691
7,53895,12661
7,54307,10629
7,54718,9996
7,55132,10037
7,55543,10530
7,55955,10174
7,56368,11177
7,56780,10961
7,57192,9456
7,57603,9638
7,58017,8961
7,58428,9861
7,58840,9980
7,59253,9474
7,59665,9022
7,60077,9258
7,60490,8859
7,60902,9433
7,61313,8323
7,61727,9255
7,62138,8692
7,62550,8324
7,62963,8223
7,63375,8277
7,63787,8761
7,64200,8862
7,64612,7997
7,65023,7853
7,65437,7572
7,65848,7737
7,66260,8319
7,66672,8644
7,67085,7058
7,67497,7908
7,67908,7570
7,68322,6968
7,68733,7445
7,69145,7459
7,69558,7114
7,69970,6492
7,70382,7604
7,70795,7743
7,71207,7317
7,71618,7667
7,72032,6800
7,72443,7298
7,72855,6959
7,73268,5971
7,73680,7330
7,74092,6999
7,74505,7625
7,74917,7758
7,75328,8834
7,75740,9167
7,76153,9823
7,76565,11596
7,76977,12245
7,77390,12885
7,77802,12287
7,78213,12600
7,78627,12270
7,79038,11297
7,79450,10382
7,79863,10379
7,80275,9411
7,80687,7954
7,81100,9032
7,81512,7439
7,81923,7712
7,82337,7537
7,82748,6220
7,83160,6471
7,83573,7122
7,83985,6957
7,84397,6782
7,84808,6950
7,85222,6543
7,85633,6627
7,86045,6439
7,86458,6028
7,86870,5983
7,87282,6155
7,87695,6463
7,88107,7041
7,88518,6169
7,88932,6324
7,89343,6061
7,89755,5650
7,90168,6110
7,90580,6824
7,90992,5601
7,91405,6816
7,91817,5240
7,92228,6095
7,92642,6184
7,93053,5800
7,93465,6095
7,93877,5693
7,94290,5415
7,94702,5824
7,95113,6211
7,95527,6012
7,95938,6050
7,96350,6256
7,96763,6678
7,97175,6433
7,97587,5347
7,98000,6324
7,98412,5952
7,98823,5639
7,99237,6043
7,99648,5953
8,00060,5642
8,00473,5753
8,00885,5688
8,01297,6255
8,01710,6252
8,02122,5793
8,02533,5935
8,02945,4939
8,03358,5917
8,03770,6068
8,04182,5604
8,04595,5971
8,05007,4764
8,05418,6016
8,05832,6440
8,06243,5963
8,06655,6053
8,07068,5423
8,07480,5376
8,07892,5979
8,08305,5099
8,08717,5443
8,09128,5435
8,09542,5551
8,09953,5710
8,10365,5190
8,10778,5348
8,11190,5718
8,11602,5096
8,12013,6006
8,12427,5347
8,12838,4874
8,13250,5160
8,13663,5099
8,14075,5877
8,14487,5164
8,14900,5505
8,15312,5202
8,15723,4730
8,16137,5169
8,16548,5006
8,16960,5351
8,17373,5306
8,17785,5136
8,18197,5245
8,18610,5615
8,19022,5505
8,19433,5465
8,19847,5421
8,20258,5904
8,20670,5384
8,21082,5341
8,21495,4669
8,21907,5232
8,22318,5497
8,22732,5620
8,23143,5429
8,23555,5327
8,23968,4413
8,24380,5400
8,24792,5829
8,25205,5558
8,25617,6114
8,26028,5610
8,26442,5886
8,26853,5917
8,27265,5655
8,27678,5949
8,28090,5736
8,28502,6148
8,28915,6399
8,29327,5816
8,29738,5905
8,30150,5201
8,30563,4874
8,30975,5248
8,31387,5256
8,31800,6391
8,32212,4523
8,32623,5088
8,33037,5612
8,33448,4310
8,33860,4772
8,34273,5147
8,34685,5226
8,35097,4800
8,35510,4534
8,35922,4995
8,36333,4774
8,36747,4848
8,37158,4975
8,37570,5182
8,37983,5345
8,38395,4774
8,38807,5286
8,39218,5345
8,39632,4861
8,40043,5360
8,40455,4898
8,40868,4825
8,41280,5537
8,41692,5051
8,42105,4699
8,42517,4506
8,42928,4513
8,43342,4737
8,43753,5278
8,44165,5013
8,44578,5567
8,44990,4905
8,45402,4566
8,45815,5161
8,46227,4721
8,46638,4522
8,47052,4818
8,47463,4642
8,47875,4503
8,48287,5497
8,48700,4544
8,49112,4664
8,49523,5281
8,49937,5197
8,50348,4920
8,50760,4951
8,51173,4681
8,51585,4438
8,51997,5198
8,52410,4498
8,52822,4824
8,53233,4762
8,53647,4819
8,54058,4807
8,54470,5167
8,54883,5550
8,55295,4740
8,55707,4518
8,56120,4814
8,56532,4452
8,56943,4623
8,57355,4632
8,57768,4360
8,58180,4989
8,58592,5011
8,59005,3917
8,59417,5102
8,59828,4769
8,60242,4616
8,60653,4664
8,61065,4466
8,61478,4991
8,61890,4612
8,62302,4791
8,62715,4699
8,63127,5331
8,63538,5670
8,63952,4726
8,64363,5111
8,64775,4583
8,65188,4021
8,65600,4389
8,66012,4187
8,66423,4494
8,66837,4875
8,67248,4574
8,67660,4986
8,68073,3888
8,68485,3898
8,68897,4008
8,69310,4387
8,69722,3727
8,70133,5136
8,70547,4482
8,70958,4496
8,71370,4405
8,71783,4575
8,72195,4352
8,72607,4238
8,73020,4271
8,73432,4419
8,73843,4286
8,74257,3885
8,74668,4147
8,75080,4772
8,75492,4314
8,75905,4219
8,76317,4029
8,76728,4419
8,77142,4633
8,77553,4424
8,77965,4089
8,78378,4838
8,78790,3952
8,79202,4079
8,79615,3735
8,80027,4265
8,80438,4154
8,80852,4053
8,81263,4725
8,81675,3877
8,82088,5601
8,82500,5504
8,82912,5592
8,83325,6164
8,83737,6353
8,84148,7166
8,84560,6859
8,84973,5920
8,85385,6768
8,85797,6485
8,86210,6290
8,86622,5540
8,87033,5831
8,87447,5427
8,87858,5054
8,88270,5157
8,88683,5066
8,89095,4593
8,89507,5397
8,89920,4761
8,90332,4627
8,90743,3857
8,91157,3811
8,91568,4026
8,91980,4377
8,92393,4279
8,92805,3878
8,93217,4163
8,93628,3972
8,94042,4547
8,94453,4829
8,94865,4327
8,95278,4045
8,95690,4793
8,96102,4216
8,96515,4476
8,96927,4337
8,97338,4528
8,97752,3712
8,98163,3994
8,98575,3975
8,98988,4004
8,99400,3615
8,99812,4175
9,00225,4403
9,00637,4071
9,01048,4146
9,01462,3839
9,01873,4527
9,02285,3698
9,02697,3577
9,03110,4748
9,03522,3966
9,03933,3975
9,04347,4976
9,04758,4561
9,05170,4471
9,05583,3595
9,05995,3849
9,06407,3870
9,06820,4243
9,07232,4205
9,07643,3585
9,08057,3865
9,08468,4329
9,08880,4130
9,09293,3820
9,09705,3863
9,10117,4037
9,10530,3891
9,10942,3936
9,11353,3782
9,11767,3802
9,12178,4266
9,12590,3632
9,13002,4076
9,13415,3148
9,13827,3876
9,14238,4292
9,14652,4741
9,15063,3969
9,15475,4022
9,15888,2947
9,16300,4027
9,16712,4019
9,17125,3816
9,17537,4025
9,17948,3479
9,18362,3860
9,18773,3355
9,19185,3947
9,19598,3884
9,20010,4264
9,20422,3757
9,20835,4210
9,21247,4283
9,21658,3557
9,22070,4304
9,22483,4297
9,22895,3233
9,23307,3481
9,23720,3014
9,24132,4009
9,24543,3711
9,24957,3744
9,25368,3393
9,25780,3962
9,26193,3495
9,26605,3320
9,27017,3638
9,27430,3894
9,27842,4817
9,28253,5432
9,28667,6668
9,29078,10676
9,29490,17474
9,29903,27196
9,30315,44631
9,30727,65964
9,31138,94840
9,31552,128498
9,31963,164492
9,32375,198295
9,32788,223206
9,33200,239670
9,33612,247172
9,34025,240420
9,34437,228194
9,34848,208582
9,35262,177903
9,35673,150331
9,36085,126093
9,36498,103615
9,36910,83926
9,37322,69958
9,37735,55400
9,38147,44445
9,38558,37188
9,38972,30667
9,39383,26138
9,39795,22380
9,40207,17917
9,40620,15572
9,41032,14967
9,41443,14036
9,41857,11243
9,42268,10418
9,42680,10228
9,43093,10356
9,43505,8735
9,43917,8585
9,44330,8049
9,44742,6726
9,45153,7278
9,45567,7358
9,45978,6083
9,46390,6200
9,46803,6108
9,47215,5742
9,47627,6560
9,48040,5827
9,48452,5510
9,48863,5467
9,49275,5372
9,49688,5429
9,50100,5006
9,50512,4807
9,50925,4805
9,51337,4259
9,51748,3928
9,52162,4031
9,52573,4320
9,52985,4649
9,53398,4532
9,53810,4137
9,54222,4628
9,54635,4346
9,55047,4383
9,55458,4505
9,55872,4183
9,56283,4631
9,56695,4003
9,57108,3862
9,57520,3849
9,57932,4504
9,58343,3782
9,58757,3661
9,59168,3886
9,59580,4481
9,59993,3693
9,60405,3933
9,60817,3908
9,61230,3691
9,61642,3412
9,62053,4328
9,62467,4076
9,62878,3731
9,63290,3904
9,63703,4393
9,64115,2951
9,64527,3871
9,64940,3511
9,65352,3458
9,65763,4759
9,66177,3472
9,66588,3838
9,67000,3672
9,67412,3796
9,67825,3290
9,68237,3700
9,68648,3122
9,69062,3084
9,69473,3793
9,69885,3312
9,70298,3126
9,70710,3851
9,71122,4154
9,71535,3229
9,71947,3583
9,72358,3363
9,72772,3083
9,73183,3049
9,73595,3693
9,74008,3801
9,74420,3325
9,74832,3323
9,75245,3151
9,75657,3471
9,76068,3345
9,76480,3305
9,76893,3307
9,77305,3003
9,77717,3013
9,78130,3646
9,78542,3680
9,78953,3283
9,79367,2990
9,79778,3329
9,80190,3344
9,80603,3128
9,81015,3317
9,81427,3352
9,81840,3902
9,82252,4462
9,82663,3643
9,83077,3751
9,83488,3737
9,83900,4228
9,84313,4752
9,84725,4212
9,85137,4407
9,85548,4635
9,85962,4353
9,86373,4386
9,86785,4938
9,87198,4063
9,87610,3515
9,88022,3775
9,88435,3509
9,88847,3422
9,89258,3385
9,89672,3643
9,90083,3646
9,90495,3296
9,90908,3876
9,91320,4070
9,91732,4229
9,92145,5745
9,92557,6897
9,92968,8117
9,93382,8967
9,93793,8376
9,94205,8310
9,94617,6887
9,95030,6901
9,95442,5295
9,95853,4820
9,96267,4086
9,96678,3292
9,97090,3516
9,97503,3365
9,97915,3000
9,98327,3359
9,98740,3535
9,99152,3007
9,99563,3156
9,99977,2821
10,00388,3183
10,00800,2687
10,01213,3631
10,01625,3024
10,02037,3469
10,02450,3276
10,02862,3376
10,03273,3169
10,03685,3217
10,04098,4007
10,04510,3521
10,04922,3443
10,05335,3447
10,05747,3887
10,06158,3290
10,06572,2904
10,06983,3579
10,07395,3377
10,07808,3359
10,08220,3225
10,08632,2947
10,09045,3114
10,09457,3372
10,09868,3564
10,10282,3207
10,10693,3034
10,11105,3222
10,11518,3488
10,11930,3280
10,12342,2879
10,12753,3490
10,13167,3277
10,13578,3760
10,13990,3246
10,14403,3342
10,14815,2929
10,15227,3233
10,15640,3581
10,16052,3232
10,16463,2559
10,16877,3072
10,17288,2852
10,17700,3048
10,18113,3019
10,18525,3160
10,18937,3101
10,19350,3428
10,19762,3500
10,20173,2962
10,20587,3064
10,20998,3103
10,21410,3378
10,21822,3171
10,22235,3179
10,22647,3387
10,23058,3809
10,23472,3415
10,23883,3616
10,24295,3424
10,24708,3400
10,25120,3377
10,25532,2562
10,25945,3419
10,26357,2431
10,26768,3186
10,27182,2960
10,27593,3065
10,28005,3249
10,28418,2957
10,28830,2410
10,29242,2693
10,29655,3654
10,30067,3076
10,30478,2824
10,30890,3754
10,31303,3080
10,31715,3007
10,32127,3283
10,32540,3519
10,32952,2724
10,33363,3579
10,33777,4110
10,34188,3093
10,34600,3111
10,35013,3258
10,35425,3319
10,35837,3393
10,36250,3568
10,36662,3146
10,37073,3505
10,37487,2938
10,37898,3375
10,38310,3336
10,38723,2979
10,39135,4073
10,39547,4642
10,39958,3632
10,40372,4257
10,40783,3921
10,41195,4872
10,41608,4365
10,42020,4339
10,42432,4444
10,42845,4018
10,43257,3329
10,43668,3809
10,44082,4413
10,44493,3729
10,44905,3240
10,45318,4579
10,45730,4841
10,46142,4539
10,46555,4873
10,46967,5586
10,47378,6342
10,47792,6713
10,48203,8177
10,48615,8566
10,49027,7622
10,49440,8983
10,49852,9029
10,50263,7379
10,50677,6807
10,51088,6771
10,51500,5009
10,51913,5537
10,52325,4652
10,52737,4553
10,53150,3989
10,53562,4279
10,53973,3189
10,54387,4208
10,54798,3282
10,55210,3682
10,55623,3213
10,56035,3024
10,56447,3220
10,56860,3720
10,57272,2994
10,57683,2709
10,58095,3002
10,58508,2779
10,58920,3333
10,59332,3311
10,59745,2796
10,60157,3274
10,60568,2887
10,60982,3477
10,61393,3112
10,61805,2901
10,62218,2418
10,62630,2776
10,63042,3393
10,63455,3329
10,63867,3608
10,64278,2860
10,64692,2696
10,65103,2962
10,65515,2724
10,65928,3285
10,66340,3225
10,66752,2820
10,67163,3762
10,67577,3466
10,67988,3475
10,68400,3708
10,68813,3983
10,69225,3879
10,69637,3961
10,70050,3744
10,70462,4055
10,70873,3862
10,71287,3652
10,71698,3228
10,72110,3296
10,72523,3607
10,72935,3335
10,73347,3194
10,73760,2900
10,74172,3327
10,74583,3199
10,74997,3484
10,75408,3128
10,75820,3230
10,76233,2946
10,76645,3108
10,77057,3392
10,77468,2763
10,77882,3246
10,78293,3153
10,78705,3259
10,79118,3144
10,79530,3577
10,79942,3177
10,80355,3074
10,80767,3233
10,81178,3108
10,81592,2330
10,82003,2400
10,82415,2855
10,82828,2699
10,83240,3504
10,83652,2950
10,84065,2588
10,84477,3381
10,84888,2656
10,85302,3156
10,85713,2754
10,86125,2838
10,86537,2853
10,86950,2999
10,87362,2907
10,87773,3135
10,88187,2795
10,88598,2939
10,89010,3370
10,89423,3070
10,89835,3484
10,90247,3359
10,90660,3051
10,91072,3295
10,91483,2935
10,91897,2757
10,92308,2604
10,92720,3588
10,93133,3084
10,93545,2922
10,93957,2716
10,94370,3685
10,94782,3309
10,95193,2761
10,95605,2631
10,96018,2859
10,96430,2715
10,96842,2872
10,97255,2802
10,97667,2814
10,98078,2789
10,98492,2678
10,98903,2535
10,99315,2834
10,99728,3276
11,00140,3074
11,00552,2681
11,00965,2855
11,01377,2885
11,01788,3454
11,02202,2898
11,02613,4030
11,03025,3486
11,03438,4213
11,03850,3850
11,04262,4704
11,04673,4135
11,05087,4199
11,05498,3998
11,05910,4731
11,06323,4121
11,06735,3497
11,07147,3197
11,07560,3133
11,07972,3177
11,08383,3244
11,08797,2843
11,09208,3131
11,09620,3138
11,10033,2969
11,10445,3163
11,10857,2980
11,11270,2731
11,11682,2180
11,12093,2602
11,12507,3004
11,12918,3035
11,13330,2852
11,13742,3347
11,14155,3034
11,14567,2729
11,14978,2815
11,15392,2631
11,15803,2829
11,16215,2909
11,16628,3223
11,17040,2863
11,17452,2713
11,17865,2949
11,18277,3834
11,18688,3370
11,19102,2630
11,19513,2610
11,19925,3419
11,20338,2646
11,20750,2962
11,21162,3165
11,21575,3207
11,21987,2755
11,22398,2888
11,22810,2864
11,23223,3214
11,23635,2930
11,24047,3001
11,24460,2472
11,24872,2964
11,25283,2729
11,25697,2636
11,26108,3030
11,26520,2879
11,26933,2912
11,27345,2772
11,27757,3320
11,28170,3440
11,28582,2710
11,28993,3237
11,29407,3056
11,29818,3551
11,30230,3339
11,30643,3943
11,31055,3515
11,31467,3442
11,31878,4374
11,32292,3618
11,32703,4708
11,33115,3957
11,33528,3995
11,33940,3121
11,34352,3931
11,34765,3396
11,35177,3844
11,35588,3273
11,36002,3894
11,36413,3802
11,36825,2873
11,37238,3448
11,37650,2517
11,38062,3721
11,38475,3391
11,38887,3165
11,39298,3694
11,39712,3344
11,40123,4205
11,40535,3124
11,40947,3868
11,41360,4460
11,41772,5202
11,42183,10546
11,42597,19596
11,43008,39314
11,43420,74353
11,43833,137725
11,44245,230392
11,44657,361252
11,45070,531570
11,45482,721707
11,45893,906001
11,46307,1077023
11,46718,1182123
11,47130,1220393
11,47543,1183358
11,47955,1087466
11,48367,947442
11,48780,788637
11,49192,638546
11,49603,504102
11,50015,390619
11,50428,294833
11,50840,234940
11,51252,182904
11,51665,144116
11,52077,114305
11,52488,96249
11,52902,78005
11,53313,66762
11,53725,56261
11,54138,51346
11,54550,43852
11,54962,39325
11,55375,34300
11,55787,31196
11,56198,26401
11,56612,26228
11,57023,22055
11,57435,21473
11,57848,18511
11,58260,17385
11,58672,15305
11,59083,15450
11,59497,14729
11,59908,13794
11,60320,12598
11,60733,12902
11,61145,10906
11,61557,11545
11,61970,10194
11,62382,9668
11,62793,9107
11,63207,7825
11,63618,8924
11,64030,8449
11,64443,7766
11,64855,8218
11,65267,7344
11,65680,7274
11,66092,6746
11,66503,6186
11,66917,6464
11,67328,6326
11,67740,5716
11,68152,5961
11,68565,6233
11,68977,5963
11,69388,5797
11,69802,5537
11,70213,6546
11,70625,5989
11,71038,5439
11,71450,6258
11,71862,5304
11,72275,5693
11,72687,4822
11,73098,5138
11,73512,5950
11,73923,5328
11,74335,5069
11,74748,4600
11,75160,4550
11,75572,4597
11,75985,4513
11,76397,4005
11,76808,5197
11,77220,3772
11,77633,3857
11,78045,4742
11,78457,3541
11,78870,3540
11,79282,3379
11,79693,3468
11,80107,4224
11,80518,3632
11,80930,4267
11,81343,3208
11,81755,4253
11,82167,4079
11,82580,3383
11,82992,3521
11,83403,4452
11,83817,3539
11,84228,3699
11,84640,3908
11,85053,3509
11,85465,3481
11,85877,4022
11,86288,3141
11,86702,2898
11,87113,3943
11,87525,3276
11,87938,2951
11,88350,3268
11,88762,3708
11,89175,3992
11,89587,3912
11,89998,3934
11,90412,3396
11,90823,3595
11,91235,4137
11,91648,3884
11,92060,3668
11,92472,3457
11,92885,3296
11,93297,3298
11,93708,3098
11,94122,3402
11,94533,3451
11,94945,3659
11,95357,3138
11,95770,4058
11,96182,2836
11,96593,4385
11,97007,4151
11,97418,4022
11,97830,3428
11,98243,4169
11,98655,4042
11,99067,3698
11,99480,4115
11,99892,3140
12,00303,3225
12,00717,3441
12,01128,3507
12,01540,4250
12,01953,4864
12,02365,6649
12,02777,9370
12,03190,9633
12,03602,8359
12,04013,6800
12,04425,5902
12,04838,4523
12,05250,3761
12,05662,2927
12,06075,3047
12,06487,3656
12,06898,3045
12,07312,2995
12,07723,2744
12,08135,3207
12,08548,2624
12,08960,3160
12,09372,3751
12,09785,3104
12,10197,2998
12,10608,2928
12,11022,3495
12,11433,3366
12,11845,2973
12,12258,3288
12,12670,2893
12,13082,3274
12,13493,2717
12,13907,3066
12,14318,2768
12,14730,2795
12,15143,2341
12,15555,2979
12,15967,2907
12,16380,2260
12,16792,3446
12,17203,2700
12,17617,2693
12,18028,3388
12,18440,2910
12,18853,3511
12,19265,3166
12,19677,3244
12,20090,3405
12,20502,2413
12,20913,2498
12,21327,3177
12,21738,2291
12,22150,2878
12,22562,2523
12,22975,3268
12,23387,2900
12,23798,3149
12,24212,3155
12,24623,2349
12,25035,3083
12,25448,3291
12,25860,3303
12,26272,3033
12,26685,3478
12,27097,2726
12,27508,3562
12,27922,3349
12,28333,2615
12,28745,3493
12,29158,2894
12,29570,3345
12,29982,2154
12,30395,2870
12,30807,2168
12,31218,2464
12,31630,1859
12,32043,2899
12,32455,2164
12,32867,2898
12,33280,2526
12,33692,2394
12,34103,2421
12,34517,2806
12,34928,2561
12,35340,2238
12,35753,2443
12,36165,3383
12,36577,2416
12,36990,3244
12,37402,2830
12,37813,2917
12,38227,3596
12,38638,3328
12,39050,1925
12,39463,2792
12,39875,3205
12,40287,3038
12,40700,2536
12,41112,2614
12,41523,2265
12,41935,2184
12,42348,2880
12,42760,2417
12,43172,2491
12,43585,2621
12,43997,4623
12,44408,5735
12,44822,10469
12,45233,21173
12,45645,41653
12,46058,73989
12,46470,133285
12,46882,219798
12,47295,332169
12,47707,461970
12,48118,592289
12,48532,707857
12,48943,777699
12,49355,803111
12,49768,763879
12,50180,697209
12,50592,600874
12,51003,494236
12,51417,396441
12,51828,301851
12,52240,228018
12,52653,174715
12,53065,134787
12,53477,101900
12,53890,84579
12,54302,71177
12,54713,55702
12,55127,46641
12,55538,39707
12,55950,36417
12,56363,30247
12,56775,25684
12,57187,23427
12,57600,21140
12,58012,18876
12,58423,15621
12,58837,15799
12,59248,14104
12,59660,12383
12,60072,11553
12,60485,11107
12,60897,10494
12,61308,9882
12,61722,9981
12,62133,8162
12,62545,7736
12,62958,8074
12,63370,7665
12,63782,8431
12,64195,6610
12,64607,6180
12,65018,6858
12,65432,6031
12,65843,5162
12,66255,6551
12,66668,5268
12,67080,5338
12,67492,4197
12,67905,5255
12,68317,5173
12,68728,4196
12,69140,3543
12,69553,4563
12,69965,4532
12,70377,3963
12,70790,3932
12,71202,2985
12,71613,4767
12,72027,3980
12,72438,3339
12,72850,3767
12,73263,3684
12,73675,3585
12,74087,3460
12,74500,3674
12,74912,3701
12,75323,3916
12,75737,3050
12,76148,4175
12,76560,3697
12,76973,3640
12,77385,2852
12,77797,3487
12,78208,2868
12,78622,2769
12,79033,3997
12,79445,2923
12,79858,2871
12,80270,2937
12,80682,2572
12,81095,2465
12,81507,2698
12,81918,2956
12,82332,2802
12,82743,2703
12,83155,2895
12,83568,2788
12,83980,2922
12,84392,3084
12,84805,2879
12,85217,3635
12,85628,4124
12,86042,4743
12,86453,5008
12,86865,6756
12,87277,4997
12,87690,6342
12,88102,6154
12,88513,5129
12,88927,4994
12,89338,5461
12,89750,4234
12,90163,4040
12,90575,3434
12,90987,3250
12,91400,3285
12,91812,3317
12,92223,2671
12,92637,2589
12,93048,2429
12,93460,2596
12,93873,2475
12,94285,2613
12,94697,2953
12,95110,2159
12,95522,2976
12,95933,2754
12,96345,2570
12,96758,3061
12,97170,2525
12,97582,2453
12,97995,2378
12,98407,2627
12,98818,2501
12,99232,3098
12,99643,2562
13,00055,2713
13,00468,2204
13,00880,2466
13,01292,2415
13,01705,2609
13,02117,3338
13,02528,2267
13,02942,2628
13,03353,2831
13,03765,2518
13,04178,2122
13,04590,2173
13,05002,2359
13,05413,2714
13,05827,2494
13,06238,2595
13,06650,2212
13,07063,2514
13,07475,2432
13,07887,2070
13,08300,3012
13,08712,3063
13,09123,2781
13,09537,1906
13,09948,2658
13,10360,1699
13,10773,2169
13,11185,2745
13,11597,2272
13,12010,2786
13,12422,2666
13,12833,2735
13,13247,2474
13,13658,1806
13,14070,2054
13,14482,2181
13,14895,2042
13,15307,1290
13,15718,2380
13,16132,2557
13,16543,2892
13,16955,1797
13,17368,1865
13,17780,2361
13,18192,2291
13,18605,2235
13,19017,1915
13,19428,2003
13,19842,2332
13,20253,2203
13,20665,2417
13,21078,2433
13,21490,1990
13,21902,2186
13,22315,1882
13,22727,2025
13,23138,2509
13,23550,2600
13,23963,2502
13,24375,1548
13,24787,2153
13,25200,2356
13,25612,2730
13,26023,1762
13,26437,2775
13,26848,2455
13,27260,2677
13,27673,2850
13,28085,2245
13,28497,2576
13,28910,2949
13,29322,3382
13,29733,3244
13,30147,3889
13,30558,4124
13,30970,4507
13,31383,3643
13,31795,3577
13,32207,3933
13,32618,2763
13,33032,3562
13,33443,3284
13,33855,2694
13,34268,3329
13,34680,3002
13,35092,1619
13,35505,2320
13,35917,2099
13,36328,2543
13,36742,2318
13,37153,2076
13,37565,1963
13,37978,2630
13,38390,1685
13,38802,2140
13,39215,1487
13,39627,1652
13,40038,2031
13,40452,2116
13,40863,2136
13,41275,2855
13,41687,3164
13,42100,5892
13,42512,13313
13,42923,29140
13,43337,63693
13,43748,122409
13,44160,233448
13,44573,399882
13,44985,621566
13,45397,912254
13,45810,1215453
13,46222,1521899
13,46633,1757365
13,47047,1868225
13,47458,1887211
13,47870,1762314
13,48283,1522100
13,48695,1249709
13,49107,973892
13,49520,748767
13,49932,562954
13,50343,416334
13,50755,318936
13,51168,237667
13,51580,182171
13,51992,148830
13,52405,120330
13,52817,98265
13,53228,79470
13,53642,68555
13,54053,58538
13,54465,50092
13,54878,44110
13,55290,38278
13,55702,33194
13,56115,31292
13,56527,28218
13,56938,25703
13,57352,24487
13,57763,20991
13,58175,20047
13,58588,19384
13,59000,17010
13,59412,15092
13,59823,13843
13,60237,14735
13,60648,13878
13,61060,12298
13,61473,11525
13,61885,11232
13,62297,8788
13,62710,10101
13,63122,9390
13,63533,9689
13,63947,8474
13,64358,7876
13,64770,6945
13,65183,6807
13,65595,7181
13,66007,7688
13,66420,6376
13,66832,6463
13,67243,5984
13,67657,5482
13,68068,6344
13,68480,5150
13,68892,4518
13,69305,4472
13,69717,5713
13,70128,4018
13,70542,4461
13,70953,3881
13,71365,4517
13,71778,3349
13,72190,3978
13,72602,4046
13,73015,4018
13,73427,3740
13,73838,3419
13,74252,4027
13,74663,4009
13,75075,3297
13,75488,3658
13,75900,3772
13,76312,3406
13,76725,2585
13,77137,3574
13,77548,2633
13,77960,3170
13,78373,3610
13,78785,3674
13,79197,3376
13,79610,3783
13,80022,3478
13,80433,3139
13,80847,2518
13,81258,3468
13,81670,2920
13,82083,2930
13,82495,2511
13,82907,3940
13,83320,2968
13,83732,2897
13,84143,3117
13,84557,2682
13,84968,3203
13,85380,2721
13,85793,3079
13,86205,3034
13,86617,3064
13,87028,2786
13,87442,2827
13,87853,2223
13,88265,2329
13,88678,2655
13,89090,2263
13,89502,2944
13,89915,2494
13,90327,2955
13,90738,4095
13,91152,3914
13,91563,5162
13,91975,5677
13,92388,6224
13,92800,8939
13,93212,10715
13,93625,11655
13,94037,12502
13,94448,13540
13,94862,13836
13,95273,14871
13,95685,15500
13,96097,16811
13,96510,17562
13,96922,17909
13,97333,16449
13,97747,13430
13,98158,12318
13,98570,11709
13,98983,10322
13,99395,8314
13,99807,6843
14,00220,5541
14,00632,5899
14,01043,4185
14,01457,3928
14,01868,3867
14,02280,3602
14,02693,2895
14,03105,1919
14,03517,2872
14,03930,2526
14,04342,2581
14,04753,2311
14,05167,2686
14,05578,1928
14,05990,2265
14,06402,2228
14,06815,1801
14,07227,2190
14,07638,2444
14,08052,2544
14,08463,2044
14,08875,1838
14,09288,2394
14,09700,1999
14,10112,1915
14,10525,2420
14,10937,2123
14,11348,2273
14,11762,2439
14,12173,2023
14,12585,2283
14,12998,2219
14,13410,2013
14,13822,1703
14,14235,1413
14,14647,1700
14,15058,1964
14,15470,1846
14,15883,1956
14,16295,1733
14,16707,1963
14,17120,1716
14,17532,1758
14,17943,1820
14,18357,1809
14,18768,1577
14,19180,1710
14,19593,1894
14,20005,1622
14,20417,2189
14,20830,1901
14,21242,1865
14,21653,2245
14,22067,1751
14,22478,2120
14,22890,2770
14,23303,2456
14,23715,2591
14,24127,2224
14,24538,2370
14,24952,1569
14,25363,2691
14,25775,2582
14,26188,1606
14,26600,992
14,27012,1323
14,27425,1844
14,27837,2037
14,28248,1273
14,28662,1718
14,29073,1853
14,29485,1598
14,29898,1492
14,30310,1745
14,30722,1385
14,31135,1715
14,31547,1520
14,31958,2144
14,32372,1627
14,32783,1971
14,33195,1610
14,33607,1770
14,34020,2341
14,34432,3380
14,34843,3019
14,35257,6127
14,35668,9096
14,36080,20050
14,36493,41124
14,36905,84356
14,37317,158826
14,37730,268171
14,38142,420680
14,38553,601595
14,38967,788173
14,39378,948213
14,39790,1033684
14,40203,1069353
14,40615,1006152
14,41027,904587
14,41440,761743
14,41852,600576
14,42263,457949
14,42675,346676
14,43088,248864
14,43500,188828
14,43912,136515
14,44325,107343
14,44737,84246
14,45148,67724
14,45562,55981
14,45973,47368
14,46385,38479
14,46798,33294
14,47210,28845
14,47622,24289
14,48035,21184
14,48447,19761
14,48858,18023
14,49272,14387
14,49683,13862
14,50095,13390
14,50508,11801
14,50920,11415
14,51332,11242
14,51743,8187
14,52157,8516
14,52568,7432
14,52980,7948
14,53393,7556
14,53805,6633
14,54217,6278
14,54630,5727
14,55042,5014
14,55453,5287
14,55867,4653
14,56278,4749
14,56690,4372
14,57103,5071
14,57515,4013
14,57927,4343
14,58340,4290
14,58752,4420
14,59163,4302
14,59577,2940
14,59988,3607
14,60400,3114
14,60812,3324
14,61225,3685
14,61637,2788
14,62048,2612
14,62462,2813
14,62873,2893
14,63285,3467
14,63698,3043
14,64110,2405
14,64522,2826
14,64935,3177
14,65347,3147
14,65758,2633
14,66172,2425
14,66583,2884
14,66995,2675
14,67408,2515
14,67820,2097
14,68232,2035
14,68645,3303
14,69057,1970
14,69468,2199
14,69880,1965
14,70293,2082
14,70705,1994
14,71117,2315
14,71530,1916
14,71942,2397
14,72353,1507
14,72767,1441
14,73178,1327
14,73590,2175
14,74003,1724
14,74415,1679
14,74827,1556
14,75240,2293
14,75652,1563
14,76063,2543
14,76477,1712
14,76888,2104
14,77300,2186
14,77713,2365
14,78125,2078
14,78537,1975
14,78948,2023
14,79362,2270
14,79773,1569
14,80185,1928
14,80598,1917
14,81010,1874
14,81422,2323
14,81835,2018
14,82247,2684
14,82658,3046
14,83072,3959
14,83483,3641
14,83895,4247
14,84308,5707
14,84720,6486
14,85132,6499
14,85545,6259
14,85957,5313
14,86368,4946
14,86782,4062
14,87193,3507
14,87605,2701
14,88017,2894
14,88430,1690
14,88842,2584
14,89253,2628
14,89667,2501
14,90078,1859
14,90490,2404
14,90903,2572
14,91315,3002
14,91727,3417
14,92140,3744
14,92552,3828
14,92963,4521
14,93377,5131
14,93788,5338
14,94200,5885
14,94613,5544
14,95025,5036
14,95437,4990
14,95850,4145
14,96262,4343
14,96673,3019
14,97085,3025
14,97498,2530
14,97910,2374
14,98322,2124
14,98735,879
14,99147,1564
14,99558,1923
14,99972,2026
15,00383,1567
15,00795,1855
15,01208,1851
15,01620,2129
15,02032,1595
15,02445,1482
15,02857,1243
15,03268,1296
15,03682,1812
15,04093,1570
15,04505,2165
15,04918,1210
15,05330,1465
15,05742,1654
15,06153,1941
15,06567,1261
15,06978,1958
15,07390,2152
15,07803,2231
15,08215,2649
15,08627,1979
15,09040,2857
15,09452,3163
15,09863,1982
15,10277,2487
15,10688,2493
15,11100,1521
15,11513,1943
15,11925,1323
15,12337,1652
15,12750,1538
15,13162,1921
15,13573,1958
15,13987,1278
15,14398,1067
15,14810,1200
15,15222,1500
15,15635,2256
15,16047,999
15,16458,1768
15,16872,1408
15,17283,1982
15,17695,1817
15,18108,2292
15,18520,1988
15,18932,2248
15,19345,1411
15,19757,1832
15,20168,1751
15,20582,2024
15,20993,1759
15,21405,1371
15,21818,2366
15,22230,2067
15,22642,1864
15,23055,2295
15,23467,3744
15,23878,5597
15,24290,14972
15,24703,32811
15,25115,70372
15,25527,144702
15,25940,270088
15,26352,466913
15,26763,729871
15,27177,1075401
15,27588,1456383
15,28000,1838494
15,28413,2158054
15,28825,2360224
15,29237,2373497
15,29650,2201863
15,30062,1919327
15,30473,1528946
15,30887,1172587
15,31298,859149
15,31710,632548
15,32123,458506
15,32535,337972
15,32947,254843
15,33358,198065
15,33772,150522
15,34183,120883
15,34595,100983
15,35008,83501
15,35420,67916
15,35832,62143
15,36245,54223
15,36657,47210
15,37068,39829
15,37482,35469
15,37893,34372
15,38305,28512
15,38718,27091
15,39130,25027
15,39542,24451
15,39955,23251
15,40367,22901
15,40778,25063
15,41192,23345
15,41603,23149
15,42015,23439
15,42427,23648
15,42840,22837
15,43252,19105
15,43663,18771
15,44077,17289
15,44488,16107
15,44900,13297
15,45313,12067
15,45725,11770
15,46137,10802
15,46550,7925
15,46962,7885
15,47373,8381
15,47787,6313
15,48198,6322
15,48610,6066
15,49023,5597
15,49435,5090
15,49847,5554
15,50260,5189
15,50672,5362
15,51083,5280
15,51495,4660
15,51908,4539
15,52320,4100
15,52732,3791
15,53145,4552
15,53557,4513
15,53968,3954
15,54382,4081
15,54793,4326
15,55205,3905
15,55618,3136
15,56030,2641
15,56442,3004
15,56855,3275
15,57267,3471
15,57678,2889
15,58092,3799
15,58503,2924
15,58915,2424
15,59328,3337
15,59740,3457
15,60152,4132
15,60563,3594
15,60977,3693
15,61388,3622
15,61800,3515
15,62213,2962
15,62625,3115
15,63037,3383
15,63450,4140
15,63862,5769
15,64273,7546
15,64687,8123
15,65098,5969
15,65510,5581
15,65923,3493
15,66335,2152
15,66747,2581
15,67160,2637
15,67572,2440
15,67983,2911
15,68397,2441
15,68808,2787
15,69220,3933
15,69633,3896
15,70045,5044
15,70457,5534
15,70868,5073
15,71282,5405
15,71693,5000
15,72105,5547
15,72518,4162
15,72930,3252
15,73342,2920
15,73755,2821
15,74167,2861
15,74578,2707
15,74992,2450
15,75403,1404
15,75815,2057
15,76228,1868
15,76640,2265
15,77052,1962
15,77465,1443
15,77877,2298
15,78288,1744
15,78702,1382
15,79113,1246
15,79525,1927
15,79937,2128
15,80350,1616
15,80762,1145
15,81173,1599
15,81587,2191
15,81998,1507
15,82410,1729
15,82823,1789
15,83235,2044
15,83647,2247
15,84060,2691
15,84472,8230
15,84883,17847
15,85297,40565
15,85708,82310
15,86120,158491
15,86533,273344
15,86945,422029
15,87357,614534
15,87770,793764
15,88182,955374
15,88593,1053895
15,89005,1089622
15,89418,1037972
15,89830,915834
15,90242,777040
15,90655,613978
15,91067,476335
15,91478,353603
15,91892,258844
15,92303,200507
15,92715,147425
15,93128,111227
15,93540,89095
15,93952,70223
15,94365,60717
15,94777,48592
15,95188,41462
15,95602,35681
15,96013,31555
15,96425,27502
15,96838,23120
15,97250,21892
15,97662,19221
15,98073,17876
15,98487,13745
15,98898,13910
15,99310,13141
15,99723,11032
16,00135,11529
16,00547,9137
16,00960,8358
16,01372,8168
16,01783,7509
16,02197,7036
16,02608,8080
16,03020,5969
16,03433,5360
16,03845,6024
16,04257,5271
16,04670,6817
16,05082,5605
16,05493,5185
16,05907,4918
16,06318,5015
16,06730,5054
16,07142,4737
16,07555,4073
16,07967,4865
16,08378,6865
16,08792,15146
16,09203,29678
16,09615,64447
16,10028,127080
16,10440,230124
16,10852,379582
16,11265,576434
16,11677,791998
16,12088,993568
16,12502,1169457
16,12913,1250398
16,13325,1233525
16,13738,1105123
16,14150,945345
16,14562,763147
16,14975,582379
16,15387,429366
16,15798,319116
16,16210,227620
16,16623,169490
16,17035,128811
16,17447,97190
16,17860,77409
16,18272,64427
16,18683,53466
16,19097,42858
16,19508,37074
16,19920,31555
16,20333,29361
16,20745,24085
16,21157,22436
16,21570,17869
16,21982,17353
16,22393,15674
16,22807,15793
16,23218,13575
16,23630,13165
16,24043,11542
16,24455,10003
16,24867,9455
16,25278,9577
16,25692,8543
16,26103,8648
16,26515,8861
16,26928,8970
16,27340,8244
16,27752,7643
16,28165,6670
16,28577,6343
16,28988,6802
16,29402,5256
16,29813,5643
16,30225,4905
16,30638,5103
16,31050,5603
16,31462,4133
16,31875,4645
16,32287,4234
16,32698,4089
16,33112,3955
16,33523,4058
16,33935,3474
16,34347,4316
16,34760,3204
16,35172,3369
16,35583,3032
16,35997,3235
16,36408,2713
16,36820,2423
16,37233,3692
16,37645,2267
16,38057,2844
16,38470,2679
16,38882,2836
16,39293,2597
16,39707,2636
16,40118,2432
16,40530,3291
16,40943,2637
16,41355,2376
16,41767,2668
16,42180,2598
16,42592,2229
16,43003,2331
16,43415,1736
16,43828,1750
16,44240,1840
16,44652,1950
16,45065,2306
16,45477,1783
16,45888,2213
16,46302,2820
16,46713,2226
16,47125,2612
16,47538,2577
16,47950,1895
16,48362,4138
16,48775,3276
16,49187,3597
16,49598,3660
16,50012,4048
16,50423,3267
16,50835,4436
16,51248,3719
16,51660,2723
16,52072,2509
16,52483,2822
16,52897,2833
16,53308,2802
16,53720,2497
16,54133,1885
16,54545,3740
16,54957,2776
16,55370,2977
16,55782,3069
16,56193,2668
16,56607,3179
16,57018,2543
16,57430,1851
16,57843,1314
16,58255,2069
16,58667,1857
16,59080,1975
16,59492,2065
16,59903,1852
16,60317,1669
16,60728,1350
16,61140,1414
16,61552,2046
16,61965,1870
16,62377,1355
16,62788,2277
16,63202,2431
16,63613,2394
16,64025,2994
16,64438,2921
16,64850,2736
16,65262,2582
16,65675,2937
16,66087,2987
16,66498,3062
16,66912,6345
16,67323,13117
16,67735,27153
16,68148,60460
16,68560,118246
16,68972,214029
16,69385,351585
16,69797,523588
16,70208,727322
16,70620,921547
16,71033,1081499
16,71445,1170440
16,71857,1169818
16,72270,1070941
16,72682,912856
16,73093,727477
16,73507,584703
16,73918,432265
16,74330,328470
16,74743,237940
16,75155,175994
16,75567,131927
16,75980,104903
16,76392,82757
16,76803,63950
16,77217,53234
16,77628,46003
16,78040,38214
16,78453,34207
16,78865,28429
16,79277,25458
16,79688,22582
16,80102,21618
16,80513,18975
16,80925,18459
16,81338,16845
16,81750,14848
16,82162,15109
16,82575,13669
16,82987,12840
16,83398,11080
16,83812,9373
16,84223,10938
16,84635,8650
16,85048,8369
16,85460,7543
16,85872,6217
16,86285,6161
16,86697,5833
16,87108,5722
16,87522,6203
16,87933,5524
16,88345,5686
16,88757,9398
16,89170,18503
16,89582,38448
16,89993,81287
16,90407,163296
16,90818,296603
16,91230,509659
16,91643,801977
16,92055,1208709
16,92467,1701574
16,92880,2278786
16,93292,2868750
16,93703,3417958
16,94117,3797813
16,94528,3915895
16,94940,3693153
16,95353,3235005
16,95765,2602274
16,96177,1971677
16,96590,1403568
16,97002,996586
16,97413,721265
16,97825,508572
16,98238,382464
16,98650,294384
16,99062,234603
16,99475,186110
16,99887,153876
17,00298,131890
17,00712,109318
17,01123,97050
17,01535,83066
17,01948,73438
17,02360,68769
17,02772,60055
17,03185,53874
17,03597,50256
17,04008,46392
17,04422,40008
17,04833,39099
17,05245,34304
17,05658,30459
17,06070,30132
17,06482,27363
17,06893,25475
17,07307,24356
17,07718,21981
17,08130,20182
17,08543,19830
17,08955,18806
17,09367,16523
17,09780,17475
17,10192,15557
17,10603,14553
17,11017,13871
17,11428,13534
17,11840,10542
17,12253,10722
17,12665,11273
17,13077,10268
17,13490,10050
17,13902,10307
17,14313,8929
17,14727,9706
17,15138,9304
17,15550,8986
17,15962,8185
17,16375,8983
17,16787,7138
17,17198,7366
17,17612,7099
17,18023,6987
17,18435,7215
17,18848,5491
17,19260,6711
17,19672,6364
17,20085,5257
17,20497,6207
17,20908,5503
17,21322,6288
17,21733,5752
17,22145,5378
17,22558,6452
17,22970,6701
17,23382,7988
17,23795,10911
17,24207,10779
17,24618,12326
17,25030,11499
17,25443,11039
17,25855,8040
17,26267,6229
17,26680,4873
17,27092,4662
17,27503,3960
17,27917,5189
17,28328,3971
17,28740,4059
17,29153,3945
17,29565,3692
17,29977,3938
17,30390,3564
17,30802,4545
17,31213,5220
17,31627,6584
17,32038,5883
17,32450,6191
17,32863,7081
17,33275,6266
17,33687,5334
17,34100,4841
17,34512,6642
17,34923,6313
17,35335,6794
17,35748,9575
17,36160,18312
17,36572,37631
17,36985,75387
17,37397,139097
17,37808,247269
17,38222,403196
17,38633,593685
17,39045,820727
17,39458,997319
17,39870,1144745
17,40282,1206558
17,40695,1190608
17,41107,1069927
17,41518,892335
17,41932,717214
17,42343,549907
17,42755,409608
17,43168,295090
17,43580,219155
17,43992,166662
17,44403,124101
17,44817,100064
17,45228,83277
17,45640,68242
17,46053,60207
17,46465,51104
17,46877,49730
17,47290,49218
17,47702,47588
17,48113,43447
17,48527,44853
17,48938,44630
17,49350,44717
17,49763,42688
17,50175,39018
17,50587,34259
17,51000,30126
17,51412,26573
17,51823,22407
17,52237,19475
17,52648,16548
17,53060,17599
17,53472,13428
17,53885,12799
17,54297,11720
17,54708,10642
17,55122,11731
17,55533,9587
17,55945,8295
17,56358,7843
17,56770,7715
17,57182,7617
17,57595,5979
17,58007,6138
17,58418,5985
17,58832,5786
17,59243,6197
17,59655,6068
17,60068,5446
17,60480,5190
17,60892,6141
17,61305,5222
17,61717,5544
17,62128,5143
17,62540,5625
17,62953,5008
17,63365,4909
17,63777,3908
17,64190,4238
17,64602,4141
17,65013,6014
17,65427,5483
17,65838,12221
17,66250,25600
17,66663,51311
17,67075,108755
17,67487,198556
17,67900,338327
17,68312,525267
17,68723,738656
17,69137,980181
17,69548,1185081
17,69960,1330809
17,70373,1375675
17,70785,1307242
17,71197,1150747
17,71608,930905
17,72022,716731
17,72433,533475
17,72845,395793
17,73258,283846
17,73670,203029
17,74082,158219
17,74495,121277
17,74907,95768
17,75318,78053
17,75732,65767
17,76143,54131
17,76555,44773
17,76968,38135
17,77380,34427
17,77792,31059
17,78205,26246
17,78617,24904
17,79028,23411
17,79442,18870
17,79853,17970
17,80265,16720
17,80677,15287
17,81090,13527
17,81502,13636
17,81913,12815
17,82327,12108
17,82738,11727
17,83150,11793
17,83563,10931
17,83975,10424
17,84387,8643
17,84800,9697
17,85212,9566
17,85623,10162
17,86037,9399
17,86448,9674
17,86860,10022
17,87273,10496
17,87685,9982
17,88097,9387
17,88510,9028
17,88922,8696
17,89333,8175
17,89745,6795
17,90158,6751
17,90570,7088
17,90982,6482
17,91395,5859
17,91807,6077
17,92218,5745
17,92632,6490
17,93043,5444
17,93455,6938
17,93868,6052
17,94280,6288
17,94692,5319
17,95105,6320
17,95517,5189
17,95928,4398
17,96342,4371
17,96753,4603
17,97165,5871
17,97578,6780
17,97990,5804
17,98402,5111
17,98813,7314
17,99227,5722
17,99638,4646
18,00050,5646
18,00463,4652
18,00875,5460
18,01287,4426
18,01700,4308
18,02112,4772
18,02523,4483
18,02937,4053
18,03348,3966
18,03760,3396
18,04173,4824
18,04585,4074
18,04997,3011
18,05410,4009
18,05822,3452
18,06233,2446
18,06647,3436
18,07058,3761
18,07470,3656
18,07882,3024
18,08295,3390
18,08707,2749
18,09118,3831
18,09532,4677
18,09943,4025
18,10355,4869
18,10768,8241
18,11180,12782
18,11592,26259
18,12005,55642
18,12417,102649
18,12828,190934
18,13242,323917
18,13653,507116
18,14065,734276
18,14478,942039
18,14890,1151773
18,15302,1274922
18,15715,1323985
18,16127,1248068
18,16538,1104303
18,16950,906456
18,17363,703389
18,17775,529037
18,18187,394216
18,18600,287587
18,19012,209081
18,19423,156343
18,19837,123867
18,20248,96013
18,20660,80340
18,21073,67863
18,21485,56229
18,21897,44728
18,22310,42894
18,22722,36587
18,23133,32883
18,23547,29215
18,23958,24852
18,24370,25521
18,24783,20986
18,25195,21257
18,25607,18220
18,26018,17874
18,26432,16108
18,26843,14931
18,27255,14404
18,27668,12544
18,28080,12887
18,28492,11530
18,28905,10761
18,29317,10491
18,29728,10297
18,30142,9116
18,30553,8119
18,30965,8021
18,31378,7318
18,31790,8890
18,32202,8469
18,32615,7171
18,33027,7934
18,33438,6965
18,33852,7271
18,34263,6484
18,34675,7585
18,35087,6914
18,35500,8692
18,35912,10443
18,36323,11303
18,36737,15068
18,37148,20787
18,37560,25487
18,37973,32922
18,38385,35787
18,38797,38583
18,39210,43449
18,39622,46390
18,40033,57066
18,40447,78734
18,40858,126317
18,41270,212140
18,41683,346817
18,42095,549793
18,42507,824968
18,42920,1164693
18,43332,1598371
18,43743,2023374
18,44155,2431345
18,44568,2756690
18,44980,2885524
18,45392,2768671
18,45805,2447879
18,46217,1968892
18,46628,1511652
18,47042,1105885
18,47453,799265
18,47865,574754
18,48278,419265
18,48690,313383
18,49102,243052
18,49515,194673
18,49927,155600
18,50338,132014
18,50752,109206
18,51163,93659
18,51575,82506
18,51988,71771
18,52400,65259
18,52812,57643
18,53223,52111
18,53637,46489
18,54048,44459
18,54460,42208
18,54873,37907
18,55285,33868
18,55697,31983
18,56110,29806
18,56522,27773
18,56933,24535
18,57347,23309
18,57758,24124
18,58170,20600
18,58583,19771
18,58995,18846
18,59407,17679
18,59820,16063
18,60232,15515
18,60643,14639
18,61057,13100
18,61468,14433
18,61880,12729
18,62292,13921
18,62705,11619
18,63117,12827
18,63528,12545
18,63942,13551
18,64353,15594
18,64765,21886
18,65178,36107
18,65590,62560
18,66002,117533
18,66415,202600
18,66827,331588
18,67238,502210
18,67652,705232
18,68063,927096
18,68475,1128863
18,68888,1275245
18,69300,1325355
18,69712,1298167
18,70125,1171246
18,70537,987445
18,70948,795934
18,71360,605636
18,71773,467472
18,72185,342992
18,72597,254292
18,73010,193316
18,73422,149910
18,73833,119589
18,74247,97491
18,74658,85771
18,75070,73847
18,75483,64859
18,75895,54795
18,76307,48955
18,76720,43405
18,77132,40638
18,77543,42417
18,77957,58609
18,78368,90110
18,78780,153459
18,79193,260720
18,79605,441750
18,80017,684566
18,80428,1014179
18,80842,1392849
18,81253,1825124
18,81665,2230961
18,82078,2527865
18,82490,2673118
18,82902,2606447
18,83315,2347933
18,83727,1975425
18,84138,1538413
18,84552,1150774
18,84963,842297
18,85375,596513
18,85788,445726
18,86200,338919
18,86612,261959
18,87025,208412
18,87437,169410
18,87848,139951
18,88262,119831
18,88673,104013
18,89085,91944
18,89497,83004
18,89910,73365
18,90322,65552
18,90733,55599
18,91147,53931
18,91558,48439
18,91970,46001
18,92383,43307
18,92795,39313
18,93207,37920
18,93620,33130
18,94032,33804
18,94443,29707
18,94857,28512
18,95268,28317
18,95680,25612
18,96093,24970
18,96505,22367
18,96917,20362
18,97330,20640
18,97742,20273
18,98153,18859
18,98567,16733
18,98978,17313
18,99390,15514
18,99802,14625
19,00215,15255
19,00627,14060
19,01038,13272
19,01452,13486
19,01863,12401
19,02275,13190
19,02688,12340
19,03100,11382
19,03512,11291
19,03925,11191
19,04337,10130
19,04748,9635
19,05162,12439
19,05573,14105
19,05985,19612
19,06398,30720
19,06810,61189
19,07222,112254
19,07635,205283
19,08047,345309
19,08458,537874
19,08870,761203
19,09283,973246
19,09695,1138045
19,10107,1244324
19,10520,1233294
19,10932,1127744
19,11343,978206
19,11757,786521
19,12168,607370
19,12580,463561
19,12993,337699
19,13405,256178
19,13817,196190
19,14230,151887
19,14642,121337
19,15053,96594
19,15467,79816
19,15878,65786
19,16290,59002
19,16703,50507
19,17115,44975
19,17527,40101
19,17938,35371
19,18352,33688
19,18763,29452
19,19175,28306
19,19588,26039
19,20000,24589
19,20412,25341
19,20825,24576
19,21237,22182
19,21648,23390
19,22062,20516
19,22473,19874
19,22885,17930
19,23298,19264
19,23710,17766
19,24122,16982
19,24535,16060
19,24947,17277
19,25358,16387
19,25772,17653
19,26183,16699
19,26595,14936
19,27007,15271
19,27420,14330
19,27832,14316
19,28243,13157
19,28657,13256
19,29068,13209
19,29480,11991
19,29893,12582
19,30305,12875
19,30717,12982
19,31130,13671
19,31542,13975
19,31953,11283
19,32367,11431
19,32778,10649
19,33190,8189
19,33603,8964
19,34015,9683
19,34427,8719
19,34840,9655
19,35252,11648
19,35663,16314
19,36075,27249
19,36488,54249
19,36900,104580
19,37312,186542
19,37725,311849
19,38137,492323
19,38548,685172
19,38962,905609
19,39373,1069785
19,39785,1162125
19,40198,1168249
19,40610,1090630
19,41022,958663
19,41435,773259
19,41847,603783
19,42258,460309
19,42672,342682
19,43083,252262
19,43495,192861
19,43908,146811
19,44320,114652
19,44732,91490
19,45143,79427
19,45557,64596
19,45968,56682
19,46380,49579
19,46793,43160
19,47205,37935
19,47617,35649
19,48030,32434
19,48442,29733
19,48853,29694
19,49267,28728
19,49678,27017
19,50090,24385
19,50503,23565
19,50915,23472
19,51327,20513
19,51740,19856
19,52152,18788
19,52563,17163
19,52977,16921
19,53388,16836
19,53800,15622
19,54212,17890
19,54625,17153
19,55037,15288
19,55448,16616
19,55862,16105
19,56273,15664
19,56685,13736
19,57098,12914
19,57510,15526
19,57922,13483
19,58335,13851
19,58747,11222
19,59158,12859
19,59572,12472
19,59983,11502
19,60395,13318
19,60808,13386
19,61220,11021
19,61632,10731
19,62045,9780
19,62457,10232
19,62868,9622
19,63280,8912
19,63693,8236
19,64105,7318
19,64517,8454
19,64930,9500
19,65342,8856
19,65753,8657
19,66167,8079
19,66578,7240
19,66990,7774
19,67403,7559
19,67815,6861
19,68227,7616
19,68640,6944
19,69052,7025
19,69463,7602
19,69877,7707
19,70288,6518
19,70700,6864
19,71113,6270
19,71525,6401
19,71937,7794
19,72348,6840
19,72762,7000
19,73173,6979
19,73585,7685
19,73998,7365
19,74410,7425
19,74822,6938
19,75235,6569
19,75647,7782
19,76058,12093
19,76472,17429
19,76883,36047
19,77295,71324
19,77708,138564
19,78120,259168
19,78532,462887
19,78945,732787
19,79357,1092845
19,79768,1513569
19,80182,1959922
19,80593,2416555
19,81005,2804434
19,81417,3129882
19,81830,3392561
19,82242,3464669
19,82653,3316448
19,83067,2999199
19,83478,2542263
19,83890,1995534
19,84303,1494097
19,84715,1081757
19,85127,796155
19,85540,586897
19,85952,443628
19,86363,349819
19,86777,282135
19,87188,231386
19,87600,193114
19,88013,165762
19,88425,147593
19,88837,129682
19,89250,116040
19,89662,101986
19,90073,91071
19,90485,82435
19,90898,77514
19,91310,69078
19,91722,64850
19,92135,59665
19,92547,55928
19,92958,51442
19,93372,50367
19,93783,45056
19,94195,44172
19,94608,41988
19,95020,40895
19,95432,35054
19,95845,36388
19,96257,35099
19,96668,34605
19,97082,34104
19,97493,34294
19,97905,35941
19,98318,39989
19,98730,47285
19,99142,50674
19,99553,54216
19,99967,55712
20,00378,57803
20,00790,58266
20,01203,50987
20,01615,52436
20,02027,57490
20,02440,71342
20,02852,99804
20,03263,164773
20,03677,258014
20,04088,393026
20,04500,574711
20,04913,744426
20,05325,895848
20,05737,998446
20,06150,1016254
20,06562,968028
20,06973,845876
20,07387,707671
20,07798,562454
20,08210,429105
20,08622,323373
20,09035,245285
20,09447,186037
20,09858,143414
20,10272,112395
20,10683,95695
20,11095,78517
20,11508,66743
20,11920,59709
20,12332,57786
20,12745,55522
20,13157,64077
20,13568,81923
20,13982,124435
20,14393,200775
20,14805,327346
20,15218,484485
20,15630,704567
20,16042,934202
20,16455,1136472
20,16867,1292980
20,17278,1342752
20,17690,1301027
20,18103,1177173
20,18515,975383
20,18927,775693
20,19340,594046
20,19752,442392
20,20163,340987
20,20577,259005
20,20988,200089
20,21400,162086
20,21813,131728
20,22225,116186
20,22637,96460
20,23050,84681
20,23462,71702
20,23873,66280
20,24287,62308
20,24698,54621
20,25110,51356
20,25523,47329
20,25935,42713
20,26347,38171
20,26758,38367
20,27172,36270
20,27583,31738
20,27995,30963
20,28408,28793
20,28820,27825
20,29232,27333
20,29645,26763
20,30057,23869
20,30468,24657
20,30882,25176
20,31293,23700
20,31705,25331
20,32118,22782
20,32530,23476
20,32942,23282
20,33355,22425
20,33767,22772
20,34178,22347
20,34592,20320
20,35003,20251
20,35415,18864
20,35827,19167
20,36240,17053
20,36652,17085
20,37063,17193
20,37477,16315
20,37888,16699
20,38300,15062
20,38713,15160
20,39125,16424
20,39537,14468
20,39950,13745
20,40362,15588
20,40773,15310
20,41187,17582
20,41598,20307
20,42010,31789
20,42423,54646
20,42835,97575
20,43247,172817
20,43660,293745
20,44072,457982
20,44483,667049
20,44895,911739
20,45308,1142368
20,45720,1317304
20,46132,1401318
20,46545,1362518
20,46957,1221354
20,47368,1014539
20,47782,801920
20,48193,616088
20,48605,451284
20,49018,338295
20,49430,257556
20,49842,202701
20,50255,167235
20,50667,133549
20,51078,117531
20,51492,101061
20,51903,85537
20,52315,73887
20,52728,67968
20,53140,62358
20,53552,57004
20,53965,53862
20,54377,47570
20,54788,46142
20,55200,41178
20,55613,41476
20,56025,39455
20,56437,38250
20,56850,36745
20,57262,38479
20,57673,35521
20,58087,34593
20,58498,34188
20,58910,34325
20,59323,31258
20,59735,30131
20,60147,29748
20,60560,28128
20,60972,25883
20,61383,25211
20,61797,23118
20,62208,24129
20,62620,21913
20,63033,20051
20,63445,19272
20,63857,20865
20,64268,20456
20,64682,20938
20,65093,19600
20,65505,19164
20,65918,18681
20,66330,17859
20,66742,17849
20,67155,18785
20,67567,21617
20,67978,31748
20,68392,52867
20,68803,93671
20,69215,160034
20,69628,271755
20,70040,420355
20,70452,607481
20,70865,797357
20,71277,967603
20,71688,1085865
20,72102,1137193
20,72513,1101026
20,72925,982849
20,73337,829728
20,73750,659751
20,74162,516127
20,74573,390685
20,74987,296220
20,75398,225708
20,75810,174070
20,76223,141540
20,76635,116466
20,77047,97748
20,77460,83381
20,77872,71255
20,78283,63027
20,78697,58757
20,79108,52092
20,79520,46982
20,79933,45366
20,80345,42723
20,80757,40222
20,81170,35029
20,81582,35638
20,81993,33551
20,82405,29961
20,82818,30519
20,83230,28461
20,83642,26840
20,84055,27516
20,84467,25581
20,84878,25044
20,85292,24585
20,85703,21916
20,86115,22043
20,86528,23448
20,86940,21488
20,87352,19974
20,87765,19747
20,88177,19756
20,88588,19645
20,89002,17449
20,89413,17153
20,89825,17202
20,90238,17810
20,90650,17487
20,91062,17512
20,91473,17739
20,91887,17118
20,92298,17200
20,92710,16481
20,93123,17628
20,93535,16197
20,93947,15239
20,94360,16153
20,94772,13921
20,95183,15748
20,95597,15252
20,96008,15992
20,96420,14809
20,96833,16149
20,97245,15554
20,97657,14669
20,98070,14811
20,98482,15747
20,98893,14546
20,99307,15769
20,99718,14819
21,00130,16879
21,00542,17397
21,00955,17164
21,01367,18313
21,01778,18166
21,02192,20777
21,02603,18260
21,03015,20011
21,03428,20354
21,03840,22457
21,04252,24952
21,04665,35046
21,05077,59729
21,05488,108019
21,05902,187419
21,06313,321662
21,06725,509699
21,07138,768078
21,07550,1113008
21,07962,1522923
21,08375,2020248
21,08787,2522364
21,09198,3046216
21,09610,3468400
21,10023,3616756
21,10435,3518723
21,10847,3148151
21,11260,2604965
21,11672,2038581
21,12083,1581557
21,12497,1206048
21,12908,896685
21,13320,693977
21,13733,532768
21,14145,422104
21,14557,346212
21,14970,288252
21,15382,247805
21,15793,213890
21,16207,184833
21,16618,162038
21,17030,146751
21,17443,135738
21,17855,124616
21,18267,115701
21,18678,104460
21,19092,96950
21,19503,88907
21,19915,81998
21,20328,78825
21,20740,76082
21,21152,69852
21,21565,66229
21,21977,65779
21,22388,58945
21,22802,59530
21,23213,56649
21,23625,56710
21,24038,53796
21,24450,53638
21,24862,53408
21,25275,51196
21,25687,49616
21,26098,51224
21,26512,48406
21,26923,47828
21,27335,45825
21,27747,44081
21,28160,45074
21,28572,43786
21,28983,42640
21,29397,44034
21,29808,49972
21,30220,61148
21,30633,86184
21,31045,136788
21,31457,212374
21,31870,329562
21,32282,479434
21,32693,650232
21,33107,833265
21,33518,953344
21,33930,1011105
21,34343,1004741
21,34755,928615
21,35167,804166
21,35580,667814
21,35992,549481
21,36403,468883
21,36815,436546
21,37228,453124
21,37640,518224
21,38052,622603
21,38465,746883
21,38877,882022
21,39288,991049
21,39702,1070846
21,40113,1122484
21,40525,1139810
21,40938,1171774
21,41350,1210840
21,41762,1285998
21,42175,1370625
21,42587,1420654
21,42998,1412055
21,43412,1340127
21,43823,1223506
21,44235,1052351
21,44648,858270
21,45060,695924
21,45472,558172
21,45883,441489
21,46297,349112
21,46708,285532
21,47120,244507
21,47533,203887
21,47945,179406
21,48357,156307
21,48770,139662
21,49182,127758
21,49593,113942
21,50007,109278
21,50418,102191
21,50830,98351
21,51243,93399
21,51655,85139
21,52067,81711
21,52480,75488
21,52892,70424
21,53303,64932
21,53717,59475
21,54128,57500
21,54540,54928
21,54952,52105
21,55365,50342
21,55777,47761
21,56188,45143
21,56602,44482
21,57013,42836
21,57425,42808
21,57838,37920
21,58250,38878
21,58662,35308
21,59075,35030
21,59487,34655
21,59898,35624
21,60312,34467
21,60723,30844
21,61135,31662
21,61548,32543
21,61960,31386
21,62372,28251
21,62785,29689
21,63197,30241
21,63608,29013
21,64020,29610
21,64433,30681
21,64845,33129
21,65257,38508
21,65670,53988
21,66082,72322
21,66493,108459
21,66907,170973
21,67318,261364
21,67730,388716
21,68143,550804
21,68555,742798
21,68967,937364
21,69380,1097221
21,69792,1211845
21,70203,1235563
21,70617,1183345
21,71028,1049779
21,71440,876982
21,71853,700807
21,72265,549222
21,72677,430393
21,73088,341890
21,73502,277059
21,73913,233353
21,74325,194243
21,74738,165140
21,75150,147008
21,75562,129051
21,75975,115079
21,76387,103907
21,76798,96336
21,77212,87561
21,77623,81912
21,78035,74189
21,78448,73106
21,78860,69173
21,79272,63794
21,79685,61280
21,80097,60930
21,80508,56262
21,80922,54843
21,81333,51895
21,81745,52886
21,82157,51157
21,82570,47072
21,82982,47151
21,83393,44059
21,83807,43762
21,84218,39815
21,84630,40485
21,85043,39369
21,85455,36356
21,85867,36608
21,86280,36426
21,86692,33985
21,87103,36670
21,87517,35200
21,87928,36066
21,88340,35168
21,88753,35812
21,89165,37735
21,89577,36439
21,89990,34552
21,90402,35496
21,90813,32876
21,91225,32851
21,91638,32825
21,92050,32239
21,92462,34879
21,92875,44278
21,93287,60630
21,93698,90956
21,94112,143627
21,94523,228791
21,94935,341832
21,95348,483826
21,95760,643972
21,96172,789082
21,96585,910879
21,96997,978501
21,97408,977574
21,97822,919560
21,98233,832206
21,98645,712173
21,99058,586966
21,99470,466156
21,99882,378884
22,00293,304740
22,00707,247523
22,01118,205901
22,01530,177452
22,01943,158421
22,02355,146757
22,02767,153949
22,03180,170302
22,03592,214294
22,04003,273809
22,04417,368201
22,04828,475844
22,05240,573529
22,05653,681548
22,06065,752247
22,06477,779868
22,06890,765526
22,07302,705930
22,07713,621386
22,08127,537647
22,08538,432709
22,08950,356213
22,09363,288578
22,09775,233382
22,10187,192875
22,10598,162578
22,11012,135939
22,11423,117960
22,11835,103031
22,12248,93237
22,12660,85092
22,13072,75750
22,13485,69036
22,13897,64914
22,14308,62970
22,14722,58070
22,15133,53529
22,15545,50864
22,15958,48085
22,16370,45667
22,16782,44944
22,17195,45148
22,17607,41253
22,18018,38940
22,18432,37944
22,18843,36995
22,19255,36142
22,19667,33053
22,20080,33925
22,20492,33611
22,20903,32849
22,21317,31282
22,21728,29676
22,22140,30793
22,22553,30525
22,22965,31348
22,23377,29346
22,23790,30374
22,24202,28375
22,24613,27757
22,25027,25820
22,25438,28444
22,25850,27772
22,26263,24676
22,26675,26253
22,27087,26731
22,27500,27853
22,27912,30358
22,28323,36744
22,28735,50718
22,29148,72298
22,29560,110671
22,29972,164534
22,30385,247158
22,30797,361101
22,31208,506129
22,31622,693145
22,32033,901441
22,32445,1160687
22,32858,1411542
22,33270,1678742
22,33682,1923395
22,34095,2124826
22,34507,2209184
22,34918,2123928
22,35332,1924091
22,35743,1621849
22,36155,1322262
22,36568,1042973
22,36980,820405
22,37392,650159
22,37803,527393
22,38217,433424
22,38628,365800
22,39040,313261
22,39453,272732
22,39865,243892
22,40277,216359
22,40690,193988
22,41102,173383
22,41513,159136
22,41927,151179
22,42338,136233
22,42750,126454
22,43163,118862
22,43575,113125
22,43987,104189
22,44400,96714
22,44812,92280
22,45223,87526
22,45637,85410
22,46048,80544
22,46460,74774
22,46872,74228
22,47285,68278
22,47697,67663
22,48108,66746
22,48522,64563
22,48933,60496
22,49345,58712
22,49758,57122
22,50170,54005
22,50582,53902
22,50995,52524
22,51407,49400
22,51818,47695
22,52232,46616
22,52643,46001
22,53055,45892
22,53468,44861
22,53880,44150
22,54292,43129
22,54705,41213
22,55117,42168
22,55528,40192
22,55940,40883
22,56353,40261
22,56765,40559
22,57177,37929
22,57590,41586
22,58002,41389
22,58413,41234
22,58827,37722
22,59238,38481
22,59650,37718
22,60063,37443
22,60475,37562
22,60887,35786
22,61300,34512
22,61712,34756
22,62123,31461
22,62537,32788
22,62948,32968
22,63360,31394
22,63773,31506
22,64185,34214
22,64597,35790
22,65008,43271
22,65422,55506
22,65833,75874
22,66245,110669
22,66658,159030
22,67070,238713
22,67482,333383
22,67895,455402
22,68307,600179
22,68718,756300
22,69132,891126
22,69543,987915
22,69955,1022286
22,70368,1004012
22,70780,941245
22,71192,833894
22,71605,716460
22,72017,602939
22,72428,498101
22,72842,414590
22,73253,336679
22,73665,290985
22,74077,247192
22,74490,213977
22,74902,185477
22,75313,165694
22,75727,146718
22,76138,137147
22,76550,118255
22,76963,113405
22,77375,103693
22,77787,99438
22,78200,91057
22,78612,86074
22,79023,82192
22,79437,77422
22,79848,73161
22,80260,71537
22,80673,66351
22,81085,64553
22,81497,61399
22,81910,57966
22,82322,58205
22,82733,53134
22,83145,52154
22,83558,49602
22,83970,48197
22,84382,47107
22,84795,44929
22,85207,44630
22,85618,42044
22,86032,41015
22,86443,40529
22,86855,40911
22,87268,40011
22,87680,38167
22,88092,38118
22,88505,37126
22,88917,35531
22,89328,35315
22,89742,35819
22,90153,35644
22,90565,34631
22,90978,32552
22,91390,35055
22,91802,34706
22,92213,35568
22,92627,35187
22,93038,38063
22,93450,36021
22,93863,33017
22,94275,34235
22,94687,32072
22,95100,30727
22,95512,31820
22,95923,31505
22,96337,28790
22,96748,30123
22,97160,30848
22,97573,27649
22,97985,29793
22,98397,29217
22,98810,28419
22,99222,30692
22,99633,30132
23,00047,33102
23,00458,31203
23,00870,34249
23,01282,34559
23,01695,38946
23,02107,37052
23,02518,37350
23,02932,38920
23,03343,36727
23,03755,35718
23,04168,35518
23,04580,33583
23,04992,34491
23,05405,30304
23,05817,30646
23,06228,28401
23,06642,26904
23,07053,26853
23,07465,26759
23,07878,24595
23,08290,24499
23,08702,24646
23,09115,24923
23,09527,22606
23,09938,21261
23,10350,21921
23,10763,23593
23,11175,21341
23,11587,22958
23,12000,21246
23,12412,22911
23,12823,22724
23,13237,23715
23,13648,25263
23,14060,25280
23,14473,25256
23,14885,24607
23,15297,25986
23,15710,24612
23,16122,26043
23,16533,24883
23,16947,26457
23,17358,24910
23,17770,26328
23,18183,25855
23,18595,26434
23,19007,25762
23,19418,26664
23,19832,25914
23,20243,26004
23,20655,25377
23,21068,26624
23,21480,25561
23,21892,24599
23,22305,24778
23,22717,26164
23,23128,26438
23,23542,25975
23,23953,27304
23,24365,26581
23,24778,28198
23,25190,28886
23,25602,30212
23,26015,30757
23,26427,27238
23,26838,29869
23,27252,28914
23,27663,28341
23,28075,26309
23,28487,23865
23,28900,25226
23,29312,26464
23,29723,25175
23,30137,22871
23,30548,24952
23,30960,21829
23,31373,22688
23,31785,20645
23,32197,24033
23,32610,22546
23,33022,23153
23,33433,22711
23,33847,21533
23,34258,21211
23,34670,23539
23,35083,20915
23,35495,22458
23,35907,23350
23,36320,22062
23,36732,22046
23,37143,23640
23,37555,23112
23,37968,22785
23,38380,22099
23,38792,22904
23,39205,20895
23,39617,21983
23,40028,21991
23,40442,21340
23,40853,22128
23,41265,22663
23,41678,21765
23,42090,22243
23,42502,21369
23,42915,20573
23,43327,19770
23,43738,20609
23,44152,19344
23,44563,20192
23,44975,19807
23,45388,20910
23,45800,20944
23,46212,21515
23,46623,21921
23,47037,21773
23,47448,21931
23,47860,21890
23,48273,21935
23,48685,22756
23,49097,21701
23,49510,21784
23,49922,23964
23,50333,20766
23,50747,20541
23,51158,20505
23,51570,22376
23,51983,19330
23,52395,20725
23,52807,18824
23,53220,20814
23,53632,21730
23,54043,20106
23,54457,19503
23,54868,21062
23,55280,19187
23,55692,21038
23,56105,18552
23,56517,19901
23,56928,20003
23,57342,21973
23,57753,20601
23,58165,21976
23,58578,21187
23,58990,22684
23,59402,23524
23,59815,20956
23,60227,21279
23,60638,20507
23,61052,21266
23,61463,20568
23,61875,18203
23,62288,19748
23,62700,19533
23,63112,17993
23,63525,19898
23,63937,19544
23,64348,18621
23,64762,20499
23,65173,18573
23,65585,18417
23,65997,19704
23,66410,18679
23,66822,19760
23,67233,18679
23,67647,19149
23,68058,19990
23,68470,20110
23,68883,21289
23,69295,20588
23,69707,19816
23,70120,18322
23,70532,20953
23,70943,23055
23,71357,21051
23,71768,21762
23,72180,19918
23,72593,19724
23,73005,20251
23,73417,19144
23,73830,19538
23,74242,21447
23,74653,22106
23,75065,22679
23,75478,30008
23,75890,37462
23,76302,50099
23,76715,68828
23,77127,96578
23,77538,137302
23,77952,191310
23,78363,250359
23,78775,314584
23,79188,376229
23,79600,434004
23,80012,477071
23,80425,497801
23,80837,494701
23,81248,482803
23,81662,443834
23,82073,402087
23,82485,356983
23,82898,309433
23,83310,265556
23,83722,230468
23,84133,195989
23,84547,170080
23,84958,144249
23,85370,124498
23,85783,112879
23,86195,99244
23,86607,91081
23,87020,84215
23,87432,73073
23,87843,69224
23,88257,65806
23,88668,60471
23,89080,56583
23,89493,51681
23,89905,49454
23,90317,47432
23,90730,45534
23,91142,44489
23,91553,41932
23,91967,43590
23,92378,42171
23,92790,39302
23,93202,38033
23,93615,39451
23,94027,37141
23,94438,34788
23,94852,35800
23,95263,34922
23,95675,33529
23,96088,32624
23,96500,32626
23,96912,30990
23,97325,30765
23,97737,30855
23,98148,29975
23,98562,29283
23,98973,30110
23,99385,29320
23,99798,29041
24,00210,30080
24,00622,28411
24,01035,27669
24,01447,26203
24,01858,25568
24,02270,26048
24,02683,26185
24,03095,25148
24,03507,26901
24,03920,24987
24,04332,26461
24,04743,26757
24,05157,26341
24,05568,24884
24,05980,25638
24,06393,24383
24,06805,24779
24,07217,25216
24,07630,25283
24,08042,22428
24,08453,22991
24,08867,23218
24,09278,22291
24,09690,22294
24,10103,23476
24,10515,22780
24,10927,22177
24,11338,23172
24,11752,21209
24,12163,21135
24,12575,22896
24,12988,19799
24,13400,20159
24,13812,20564
24,14225,22061
24,14637,21156
24,15048,18725
24,15462,19726
24,15873,21610
24,16285,20284
24,16698,19939
24,17110,19339
24,17522,20474
24,17935,18850
24,18347,20318
24,18758,20453
24,19172,20669
24,19583,18960
24,19995,20198
24,20407,19657
24,20820,19129
24,21232,22079
24,21643,22923
24,22057,20592
24,22468,22339
24,22880,21891
24,23293,24197
24,23705,21537
24,24117,25341
24,24530,23931
24,24942,23171
24,25353,23223
24,25767,22784
24,26178,22636
24,26590,23100
24,27003,21982
24,27415,22641
24,27827,21646
24,28240,21833
24,28652,21341
24,29063,21901
24,29475,21635
24,29888,19949
24,30300,19376
24,30712,21327
24,31125,19195
24,31537,21113
24,31948,22597
24,32362,22381
24,32773,21689
24,33185,19742
24,33598,20427
24,34010,20880
24,34422,21250
24,34835,21242
24,35247,20611
24,35658,21126
24,36072,20573
24,36483,19076
24,36895,19439
24,37308,21148
24,37720,19874
24,38132,21913
24,38543,20084
24,38957,22050
24,39368,21375
24,39780,22860
24,40193,21792
24,40605,20958
24,41017,21639
24,41430,20803
24,41842,20520
24,42253,20948
