D:\MassHunter\GCMS\1\data\Amal\Constant flow\140C\140C_1ml-min_5C-min_2.D Fri Aug 30 19:34:28 2024
Start of data points
4,87432	2917349
4,87845	2759656
4,88257	2612327
4,88668	2457645
4,89082	2334276
4,89493	2224248
4,89905	2117142
4,90318	2003918
4,90730	1902788
4,91142	1813429
4,91555	1715795
4,91967	1634329
4,92378	1553965
4,92792	1471443
4,93203	1403151
4,93615	1335778
4,94028	1276308
4,94440	1224258
4,94852	1202514
4,95265	1188847
4,95677	1218612
4,96088	1305656
4,96500	1398351
4,96913	1481859
4,97325	1528725
4,97737	1545891
4,98150	1544382
4,98562	1493318
4,98973	1455125
4,99387	1410792
4,99798	1364558
5,00210	1304128
5,00623	1251793
5,01035	1198239
5,01447	1153274
5,01860	1107243
5,02272	1056227
5,02683	1030499
5,03097	977652
5,03508	944622
5,03920	900693
5,04333	868991
5,04745	847864
5,05157	813574
5,05568	775663
5,05982	747600
5,06393	729286
5,06805	698606
5,07218	669146
5,07630	646281
5,08042	630745
5,08455	605144
5,08867	581100
5,09278	559178
5,09692	539049
5,10103	513681
5,10515	497135
5,10928	483007
5,11340	464384
5,11752	452474
5,12165	433311
5,12577	416559
5,12988	399546
5,13402	392541
5,13813	370299
5,14225	352073
5,14637	339549
5,15050	324054
5,15462	311158
5,15873	293273
5,16287	282495
5,16698	269537
5,17110	262295
5,17523	250528
5,17935	243206
5,18347	229268
5,18760	220861
5,19172	214666
5,19583	209148
5,19997	200621
5,20408	194176
5,20820	187366
5,21233	182220
5,21645	177846
5,22057	174917
5,22470	167799
5,22882	166556
5,23293	162146
5,23705	156153
5,24118	153481
5,24530	151760
5,24942	146892
5,25355	142333
5,25767	141617
5,26178	138414
5,26592	137662
5,27003	134965
5,27415	133622
5,27828	133291
5,28240	129169
5,28652	128134
5,29065	126578
5,29477	124315
5,29888	122232
5,30302	119893
5,30713	117407
5,31125	116557
5,31538	115453
5,31950	117191
5,32362	111718
5,32773	113239
5,33187	110041
5,33598	109483
5,34010	106679
5,34423	109256
5,34835	106822
5,35247	106711
5,35660	104850
5,36072	106564
5,36483	105184
5,36897	105204
5,37308	103032
5,37720	100882
5,38133	103042
5,38545	100548
5,38957	100092
5,39370	100481
5,39782	96915
5,40193	96327
5,40607	95796
5,41018	96578
5,41430	94748
5,41842	93400
5,42255	95598
5,42667	94345
5,43078	92651
5,43492	94568
5,43903	90674
5,44315	90545
5,44728	91400
5,45140	90468
5,45552	91240
5,45965	88904
5,46377	90054
5,46788	88438
5,47202	88546
5,47613	87663
5,48025	86624
5,48438	84825
5,48850	88327
5,49262	86198
5,49675	86817
5,50087	86677
5,50498	86331
5,50910	86362
5,51323	88182
5,51735	85433
5,52147	89238
5,52560	85107
5,52972	83965
5,53383	84625
5,53797	87496
5,54208	85179
5,54620	86356
5,55033	82990
5,55445	84083
5,55857	85971
5,56270	82460
5,56682	82488
5,57093	82872
5,57507	84049
5,57918	81227
5,58330	81207
5,58743	79189
5,59155	79847
5,59567	80236
5,59978	79066
5,60392	79576
5,60803	77686
5,61215	79351
5,61628	77762
5,62040	78786
5,62452	76306
5,62865	76438
5,63277	77772
5,63688	77066
5,64102	76292
5,64513	76335
5,64925	74705
5,65338	75518
5,65750	76307
5,66162	73642
5,66575	74244
5,66987	77319
5,67398	84146
5,67812	98263
5,68223	128327
5,68635	182657
5,69047	270060
5,69460	388942
5,69872	536504
5,70283	689886
5,70697	830087
5,71108	945124
5,71520	1009515
5,71933	1053090
5,72345	1062069
5,72757	1054550
5,73170	1032069
5,73582	999479
5,73993	976476
5,74407	937299
5,74818	893595
5,75230	867634
5,75643	834808
5,76055	810137
5,76467	780387
5,76880	745870
5,77292	717561
5,77703	687581
5,78115	658338
5,78528	635644
5,78940	608012
5,79352	589493
5,79765	564159
5,80177	542520
5,80588	514990
5,81002	497024
5,81413	474411
5,81825	455585
5,82238	435359
5,82650	416316
5,83062	402387
5,83475	385966
5,83887	363543
5,84298	349734
5,84712	329069
5,85123	302580
5,85535	292016
5,85948	270874
5,86360	254299
5,86772	239281
5,87183	226686
5,87597	206910
5,88008	195844
5,88420	187046
5,88833	171980
5,89245	163543
5,89657	153696
5,90070	146742
5,90482	136524
5,90893	135898
5,91307	127142
5,91718	120749
5,92130	114515
5,92543	109037
5,92955	103516
5,93367	101489
5,93780	94816
5,94192	94651
5,94603	90065
5,95017	89098
5,95428	87266
5,95840	85725
5,96252	81416
5,96665	79982
5,97077	76687
5,97488	77557
5,97902	76245
5,98313	74644
5,98725	71683
5,99138	71083
5,99550	69408
5,99962	68987
6,00375	68820
6,00787	66325
6,01198	67353
6,01612	66238
6,02023	67418
6,02435	63675
6,02848	64057
6,03260	64605
6,03672	61815
6,04085	62105
6,04497	62750
6,04908	62818
6,05320	60685
6,05733	62040
6,06145	59637
6,06557	60003
6,06970	58320
6,07382	58366
6,07793	58077
6,08207	58884
6,08618	60995
6,09030	60802
6,09443	61421
6,09855	59560
6,10267	61620
6,10680	59466
6,11092	57808
6,11503	59200
6,11917	59626
6,12328	59197
6,12740	58627
6,13153	58816
6,13565	57556
6,13977	56659
6,14388	56047
6,14802	55260
6,15213	56056
6,15625	57726
6,16038	54450
6,16450	55700
6,16862	53257
6,17275	54927
6,17687	54254
6,18098	54646
6,18512	54279
6,18923	54216
6,19335	54552
6,19748	55654
6,20160	58088
6,20572	65661
6,20985	81928
6,21397	107882
6,21808	151742
6,22222	202830
6,22633	272190
6,23045	344889
6,23457	425188
6,23870	494205
6,24282	541214
6,24693	576962
6,25107	592377
6,25518	596659
6,25930	591253
6,26343	585690
6,26755	565956
6,27167	549336
6,27580	527248
6,27992	511559
6,28403	489426
6,28817	467652
6,29228	446573
6,29640	426290
6,30053	412965
6,30465	396969
6,30877	379515
6,31290	364229
6,31702	346482
6,32113	330213
6,32525	317861
6,32938	297708
6,33350	289654
6,33762	277605
6,34175	260979
6,34587	247516
6,34998	237273
6,35412	224488
6,35823	211800
6,36235	201276
6,36648	190476
6,37060	177293
6,37472	166721
6,37885	154518
6,38297	147686
6,38708	137421
6,39122	127844
6,39533	116892
6,39945	112934
6,40358	104803
6,40770	99650
6,41182	94735
6,41595	89203
6,42007	83340
6,42418	82668
6,42830	77234
6,43243	72125
6,43655	71450
6,44067	71816
6,44480	67691
6,44892	64469
6,45303	63449
6,45717	63223
6,46128	60003
6,46540	60240
6,46953	58688
6,47365	57941
6,47777	54820
6,48190	55897
6,48602	53466
6,49013	54439
6,49427	50820
6,49838	50191
6,50250	49103
6,50663	50234
6,51075	47439
6,51487	46930
6,51898	46475
6,52312	46052
6,52723	46497
6,53135	45772
6,53548	44865
6,53960	45992
6,54372	45693
6,54785	44954
6,55197	44791
6,55608	43766
6,56022	43844
6,56433	44780
6,56845	43185
6,57258	43572
6,57670	45065
6,58082	41241
6,58495	42490
6,58907	42351
6,59318	42168
6,59732	42065
6,60143	41640
6,60555	42607
6,60967	41767
6,61380	41789
6,61792	41338
6,62203	41942
6,62617	40205
6,63028	41731
6,63440	41565
6,63853	41921
6,64265	39393
6,64677	41215
6,65090	39794
6,65502	42122
6,65913	39550
6,66327	38756
6,66738	39162
6,67150	38539
6,67563	38940
6,67975	37055
6,68387	39321
6,68800	38090
6,69212	36630
6,69623	37525
6,70035	39643
6,70448	38280
6,70860	37109
6,71272	38577
6,71685	37888
6,72097	39723
6,72508	37864
6,72922	37085
6,73333	37108
6,73745	38743
6,74158	36943
6,74570	35834
6,74982	37030
6,75395	37436
6,75807	38238
6,76218	35551
6,76632	36411
6,77043	39000
6,77455	37335
6,77868	35735
6,78280	36561
6,78692	35496
6,79103	36861
6,79517	37079
6,79928	36905
6,80340	36568
6,80753	37509
6,81165	37638
6,81577	36609
6,81990	36224
6,82402	37900
6,82813	36487
6,83227	38677
6,83638	36576
6,84050	36957
6,84463	38024
6,84875	42695
6,85287	51273
6,85700	71586
6,86112	103494
6,86523	161621
6,86937	245630
6,87348	360256
6,87760	504314
6,88172	673255
6,88585	843492
6,88997	985885
6,89408	1110762
6,89822	1196536
6,90233	1246784
6,90645	1281474
6,91058	1280997
6,91470	1257658
6,91882	1223040
6,92295	1191427
6,92707	1130954
6,93118	1087866
6,93532	1045993
6,93943	982528
6,94355	935339
6,94768	891391
6,95180	841259
6,95592	796730
6,96005	747563
6,96417	712869
6,96828	677724
6,97240	637908
6,97653	598375
6,98065	566950
6,98477	525473
6,98890	491053
6,99302	459717
6,99713	420400
7,00127	395314
7,00538	359891
7,00950	331615
7,01363	301736
7,01775	277286
7,02187	251294
7,02600	229682
7,03012	212688
7,03423	190920
7,03837	175903
7,04248	159934
7,04660	146722
7,05073	134037
7,05485	123311
7,05897	114304
7,06308	103048
7,06722	96099
7,07133	94363
7,07545	86366
7,07958	80288
7,08370	75280
7,08782	70302
7,09195	67928
7,09607	64912
7,10018	60553
7,10432	58306
7,10843	55990
7,11255	54399
7,11668	53565
7,12080	51558
7,12492	49413
7,12905	47654
7,13317	46254
7,13728	43871
7,14142	46496
7,14553	43303
7,14965	42028
7,15377	42673
7,15790	42619
7,16202	39929
7,16613	41422
7,17027	39085
7,17438	38627
7,17850	38291
7,18263	40188
7,18675	39724
7,19087	38191
7,19500	36603
7,19912	36393
7,20323	36377
7,20737	36236
7,21148	36143
7,21560	35322
7,21973	35272
7,22385	35015
7,22797	35397
7,23210	35168
7,23622	33744
7,24033	36308
7,24445	33965
7,24858	33233
7,25270	33957
7,25682	34167
7,26095	32857
7,26507	34095
7,26918	33219
7,27332	32492
7,27743	32485
7,28155	32635
7,28568	31721
7,28980	31294
7,29392	33476
7,29805	33026
7,30217	33247
7,30628	31407
7,31042	31648
7,31453	31689
7,31865	31613
7,32278	30890
7,32690	32152
7,33102	29940
7,33513	31171
7,33927	31049
7,34338	30686
7,34750	31021
7,35163	30834
7,35575	30728
7,35987	30334
7,36400	30783
7,36812	27824
7,37223	32114
7,37637	31619
7,38048	30218
7,38460	31572
7,38873	29639
7,39285	29024
7,39697	30223
7,40110	28870
7,40522	28361
7,40933	28615
7,41347	28795
7,41758	27874
7,42170	28689
7,42582	27760
7,42995	28250
7,43407	28403
7,43818	30305
7,44232	28134
7,44643	29035
7,45055	27695
7,45468	28341
7,45880	27398
7,46292	27690
7,46705	28510
7,47117	28765
7,47528	26581
7,47942	26420
7,48353	27675
7,48765	27576
7,49178	27785
7,49590	27855
7,50002	26404
7,50415	27846
7,50827	28049
7,51238	27188
7,51650	26620
7,52063	25302
7,52475	28085
7,52887	28261
7,53300	26596
7,53712	27177
7,54123	25880
7,54537	26266
7,54948	28278
7,55360	28305
7,55773	27743
7,56185	28613
7,56597	27242
7,57010	28533
7,57422	26293
7,57833	29644
7,58247	27751
7,58658	26990
7,59070	26630
7,59483	28059
7,59895	26626
7,60307	26969
7,60718	26220
7,61132	27336
7,61543	29744
7,61955	30797
7,62368	32085
7,62780	39235
7,63192	50397
7,63605	70185
7,64017	98303
7,64428	143845
7,64842	207888
7,65253	279069
7,65665	364047
7,66078	452931
7,66490	532796
7,66902	599402
7,67315	659319
7,67727	700234
7,68138	726032
7,68552	726957
7,68963	719917
7,69375	706666
7,69787	674821
7,70200	649968
7,70612	625843
7,71023	587366
7,71437	556569
7,71848	523568
7,72260	493087
7,72673	462274
7,73085	436702
7,73497	403011
7,73910	378878
7,74322	348812
7,74733	323892
7,75147	296387
7,75558	272357
7,75970	250919
7,76383	230875
7,76795	208971
7,77207	188745
7,77620	171774
7,78032	158705
7,78443	139523
7,78855	125046
7,79268	112314
7,79680	107083
7,80092	98609
7,80505	89188
7,80917	79956
7,81328	75257
7,81742	68285
7,82153	66182
7,82565	59242
7,82978	56559
7,83390	50192
7,83802	50665
7,84215	47521
7,84627	45030
7,85038	43098
7,85452	40971
7,85863	41170
7,86275	36836
7,86688	36329
7,87100	37282
7,87512	34238
7,87923	34740
7,88337	33592
7,88748	32617
7,89160	31442
7,89573	32481
7,89985	30657
7,90397	30175
7,90810	29402
7,91222	30230
7,91633	30451
7,92047	30036
7,92458	29342
7,92870	27691
7,93283	28243
7,93695	27053
7,94107	25637
7,94520	26627
7,94932	27115
7,95343	24180
7,95757	27154
7,96168	26391
7,96580	25499
7,96993	27633
7,97405	26614
7,97817	25872
7,98228	25158
7,98642	24581
7,99053	25943
7,99465	26554
7,99878	26092
8,00290	25780
8,00702	24034
8,01115	25274
8,01527	25137
8,01938	26084
8,02352	24074
8,02763	26194
8,03175	24220
8,03588	23489
8,04000	23795
8,04412	25222
8,04825	25244
8,05237	24547
8,05648	23505
8,06062	22414
8,06473	22173
8,06885	24893
8,07297	26048
8,07710	24650
8,08122	24767
8,08533	26560
8,08947	27035
8,09358	26468
8,09770	25865
8,10183	27035
8,10595	26284
8,11007	26088
8,11420	26946
8,11832	26019
8,12243	25420
8,12657	24957
8,13068	25837
8,13480	25017
8,13893	25190
8,14305	25930
8,14717	24599
8,15130	23429
8,15542	23343
8,15953	24768
8,16365	24009
8,16778	23448
8,17190	23897
8,17602	22010
8,18015	22430
8,18427	23524
8,18838	22985
8,19252	22600
8,19663	22883
8,20075	21090
8,20488	22026
8,20900	22395
8,21312	22861
8,21725	22620
8,22137	22113
8,22548	22255
8,22962	22937
8,23373	22780
8,23785	21433
8,24198	21624
8,24610	20750
8,25022	21367
8,25433	20898
8,25847	20503
8,26258	21910
8,26670	23386
8,27083	21204
8,27495	21439
8,27907	22602
8,28320	20369
8,28732	20140
8,29143	19126
8,29557	21032
8,29968	21032
8,30380	19224
8,30793	21310
8,31205	20138
8,31617	21201
8,32030	19309
8,32442	19615
8,32853	20929
8,33267	20296
8,33678	20116
8,34090	20213
8,34502	20611
8,34915	22355
8,35327	20272
8,35738	20104
8,36152	20923
8,36563	21440
8,36975	20541
8,37388	21638
8,37800	20903
8,38212	22267
8,38625	21849
8,39037	21822
8,39448	22901
8,39862	23990
8,40273	24522
8,40685	23627
8,41098	25181
8,41510	23421
8,41922	26663
8,42335	24573
8,42747	24075
8,43158	26646
8,43570	25097
8,43983	25514
8,44395	23942
8,44807	25392
8,45220	23709
8,45632	23622
8,46043	23003
8,46457	24809
8,46868	22688
8,47280	23126
8,47693	22687
8,48105	22704
8,48517	21654
8,48930	21028
8,49342	21099
8,49753	21924
8,50167	22814
8,50578	24172
8,50990	28279
8,51403	35825
8,51815	53004
8,52227	84433
8,52638	130288
8,53052	202060
8,53463	302341
8,53875	437296
8,54288	606116
8,54700	783323
8,55112	985962
8,55525	1174394
8,55937	1331968
8,56348	1467005
8,56762	1560263
8,57173	1603213
8,57585	1640128
8,57998	1617463
8,58410	1581080
8,58822	1514599
8,59235	1434855
8,59647	1356480
8,60058	1276949
8,60472	1182322
8,60883	1091795
8,61295	1003438
8,61707	919669
8,62120	831154
8,62532	761602
8,62943	677229
8,63357	615295
8,63768	550260
8,64180	486468
8,64593	434301
8,65005	380796
8,65417	339818
8,65830	299538
8,66242	265102
8,66653	227837
8,67067	206023
8,67478	180571
8,67890	164627
8,68303	142563
8,68715	127507
8,69127	116501
8,69540	106644
8,69952	95066
8,70363	90501
8,70775	79417
8,71188	73886
8,71600	65750
8,72012	63091
8,72425	58624
8,72837	54511
8,73248	52426
8,73662	50368
8,74073	49530
8,74485	48212
8,74898	49323
8,75310	47818
8,75722	46084
8,76135	44454
8,76547	44380
8,76958	42516
8,77372	42944
8,77783	38354
8,78195	38903
8,78608	39112
8,79020	38479
8,79432	36402
8,79843	36734
8,80257	36127
8,80668	33655
8,81080	32617
8,81493	32600
8,81905	31780
8,82317	30680
8,82730	31543
8,83142	28191
8,83553	29090
8,83967	28509
8,84378	28052
8,84790	27811
8,85203	25799
8,85615	25466
8,86027	26053
8,86440	24033
8,86852	26477
8,87263	24274
8,87677	22634
8,88088	24281
8,88500	23732
8,88912	23217
8,89325	21999
8,89737	21001
8,90148	22294
8,90562	22627
8,90973	22009
8,91385	21468
8,91798	21065
8,92210	20711
8,92622	20561
8,93035	22071
8,93447	19853
8,93858	21527
8,94272	20945
8,94683	20034
8,95095	20256
8,95508	21243
8,95920	20430
8,96332	23052
8,96745	22593
8,97157	22062
8,97568	22788
8,97980	23024
8,98393	22635
8,98805	21741
8,99217	21270
8,99630	22749
9,00042	21667
9,00453	23541
9,00867	21790
9,01278	21714
9,01690	23484
9,02103	22290
9,02515	22096
9,02927	22781
9,03340	23319
9,03752	21262
9,04163	23917
9,04577	23164
9,04988	21649
9,05400	21717
9,05813	23473
9,06225	21387
9,06637	20648
9,07048	21376
9,07462	22876
9,07873	21702
9,08285	21321
9,08698	20225
9,09110	20882
9,09522	21926
9,09935	20803
9,10347	20241
9,10758	19047
9,11172	19148
9,11583	19117
9,11995	19950
9,12408	20114
9,12820	18453
9,13232	19463
9,13645	18823
9,14057	19340
9,14468	18330
9,14882	18054
9,15293	17629
9,15705	18258
9,16117	18639
9,16530	18618
9,16942	18064
9,17353	17653
9,17767	17971
9,18178	18715
9,18590	18324
9,19003	18294
9,19415	16683
9,19827	17943
9,20240	18011
9,20652	16338
9,21063	17839
9,21477	16788
9,21888	16767
9,22300	16507
9,22713	18752
9,23125	18711
9,23537	24879
9,23950	31419
9,24362	46532
9,24773	64269
9,25185	92271
9,25598	137705
9,26010	194158
9,26422	265779
9,26835	355561
9,27247	442239
9,27658	533487
9,28072	605704
9,28483	690856
9,28895	746841
9,29308	790569
9,29720	808858
9,30132	803710
9,30545	802795
9,30957	767660
9,31368	726146
9,31782	684189
9,32193	645543
9,32605	596465
9,33018	543909
9,33430	502682
9,33842	456734
9,34253	408253
9,34667	370051
9,35078	328996
9,35490	296412
9,35903	261203
9,36315	232387
9,36727	206081
9,37140	181951
9,37552	160136
9,37963	143704
9,38377	125331
9,38788	114245
9,39200	99636
9,39613	89220
9,40025	82369
9,40437	74060
9,40850	66916
9,41262	61853
9,41673	57116
9,42087	51884
9,42498	48425
9,42910	45262
9,43322	44413
9,43735	39583
9,44147	37564
9,44558	39739
9,44972	34296
9,45383	32558
9,45795	30818
9,46208	30859
9,46620	28424
9,47032	27024
9,47445	27917
9,47857	27054
9,48268	25797
9,48682	27795
9,49093	26272
9,49505	29041
9,49918	33088
9,50330	45130
9,50742	61460
9,51155	87212
9,51567	130678
9,51978	184272
9,52392	262460
9,52803	348143
9,53215	445190
9,53627	557198
9,54040	646551
9,54452	742627
9,54863	805584
9,55277	866080
9,55688	893225
9,56100	894158
9,56513	903929
9,56925	873894
9,57337	829970
9,57750	780073
9,58162	724879
9,58573	654214
9,58987	609510
9,59398	553098
9,59810	492793
9,60223	444960
9,60635	386360
9,61047	346662
9,61460	301827
9,61872	263601
9,62283	229530
9,62695	200230
9,63108	173773
9,63520	154052
9,63932	134120
9,64345	120107
9,64757	106559
9,65168	93754
9,65582	84744
9,65993	77716
9,66405	68675
9,66818	63034
9,67230	58868
9,67642	53574
9,68055	47775
9,68467	45786
9,68878	43501
9,69292	41260
9,69703	39467
9,70115	36560
9,70528	37366
9,70940	34728
9,71352	33428
9,71763	29008
9,72177	29697
9,72588	28643
9,73000	28713
9,73413	28312
9,73825	25380
9,74237	26105
9,74650	25333
9,75062	27633
9,75473	24567
9,75887	23916
9,76298	22451
9,76710	23218
9,77123	23563
9,77535	21237
9,77947	20748
9,78360	21248
9,78772	21507
9,79183	19580
9,79597	19998
9,80008	20619
9,80420	19791
9,80832	19019
9,81245	18578
9,81657	18032
9,82068	18399
9,82482	19169
9,82893	19234
9,83305	17802
9,83718	17659
9,84130	19088
9,84542	17968
9,84955	19563
9,85367	17044
9,85778	16374
9,86192	17360
9,86603	17170
9,87015	17476
9,87428	16396
9,87840	16084
9,88252	16944
9,88665	17005
9,89077	16107
9,89488	16472
9,89900	16683
9,90313	15042
9,90725	15434
9,91137	16871
9,91550	14937
9,91962	16434
9,92373	16428
9,92787	17867
9,93198	16385
9,93610	16023
9,94023	16296
9,94435	15954
9,94847	13862
9,95260	15632
9,95672	14902
9,96083	16178
9,96497	16238
9,96908	15514
9,97320	13893
9,97733	14959
9,98145	16803
9,98557	14108
9,98968	14436
9,99382	15258
9,99793	14882
10,00205	15244
10,00618	14560
10,01030	15549
10,01442	14962
10,01855	15858
10,02267	15227
10,02678	14933
10,03092	15164
10,03503	15646
10,03915	14531
10,04328	13460
10,04740	13646
10,05152	15508
10,05565	14515
10,05977	14454
10,06388	16868
10,06802	14973
10,07213	13974
10,07625	15923
10,08037	14021
10,08450	15071
10,08862	15399
10,09273	14395
10,09687	15304
10,10098	14464
10,10510	14952
10,10923	14252
10,11335	15234
10,11747	15038
10,12160	14422
10,12572	13847
10,12983	13529
10,13397	14922
10,13808	13513
10,14220	13602
10,14633	14410
10,15045	15284
10,15457	13257
10,15870	14207
10,16282	14085
10,16693	14503
10,17105	13398
10,17518	14622
10,17930	15005
10,18342	15283
10,18755	14498
10,19167	14206
10,19578	12707
10,19992	13216
10,20403	14111
10,20815	14487
10,21228	13712
10,21640	13590
10,22052	13542
10,22465	13821
10,22877	13221
10,23288	14174
10,23702	13237
10,24113	15106
10,24525	12101
10,24938	13761
10,25350	14057
10,25762	14460
10,26173	14056
10,26587	13667
10,26998	16485
10,27410	16045
10,27823	21066
10,28235	27431
10,28647	40821
10,29060	61962
10,29472	93426
10,29883	130053
10,30297	186747
10,30708	256602
10,31120	350520
10,31533	450245
10,31945	559229
10,32357	650236
10,32770	749581
10,33182	820759
10,33593	860617
10,34007	881898
10,34418	896521
10,34830	875400
10,35242	842163
10,35655	798131
10,36067	743327
10,36478	680487
10,36892	615075
10,37303	556826
10,37715	490362
10,38128	438187
10,38540	385316
10,38952	337068
10,39365	293195
10,39777	257816
10,40188	221485
10,40602	193210
10,41013	168584
10,41425	144431
10,41838	127492
10,42250	114554
10,42662	99059
10,43075	88559
10,43487	77567
10,43898	74317
10,44310	66520
10,44723	62070
10,45135	56285
10,45547	51090
10,45960	47479
10,46372	44229
10,46783	42606
10,47197	39864
10,47608	36489
10,48020	34366
10,48433	34799
10,48845	32370
10,49257	30357
10,49670	28854
10,50082	27593
10,50493	27212
10,50907	26749
10,51318	25991
10,51730	26730
10,52143	24994
10,52555	25137
10,52967	22956
10,53378	22897
10,53792	23286
10,54203	24838
10,54615	29351
10,55028	36088
10,55440	50795
10,55852	78842
10,56265	119105
10,56677	192534
10,57088	296490
10,57502	451575
10,57913	653264
10,58325	890388
10,58738	1190051
10,59150	1498163
10,59562	1844321
10,59975	2161585
10,60387	2476703
10,60798	2751383
10,61212	2951898
10,61623	3069459
10,62035	3073644
10,62447	2975799
10,62860	2858467
10,63272	2650073
10,63683	2454103
10,64097	2197818
10,64508	1947413
10,64920	1706196
10,65333	1477286
10,65745	1288679
10,66157	1095328
10,66570	936862
10,66982	808011
10,67393	680708
10,67807	578297
10,68218	499218
10,68630	431718
10,69043	373439
10,69455	325183
10,69867	280521
10,70280	250034
10,70692	220992
10,71103	195946
10,71515	176778
10,71928	159790
10,72340	146682
10,72752	132922
10,73165	118942
10,73577	110377
10,73988	100983
10,74402	97706
10,74813	89797
10,75225	83578
10,75638	78885
10,76050	73483
10,76462	71324
10,76875	64354
10,77287	61149
10,77698	58350
10,78112	55141
10,78523	53749
10,78935	49860
10,79348	49882
10,79760	46385
10,80172	44328
10,80583	43292
10,80997	42163
10,81408	39476
10,81820	41012
10,82233	38754
10,82645	36775
10,83057	34523
10,83470	34062
10,83882	32755
10,84293	30907
10,84707	30996
10,85118	30976
10,85530	30311
10,85943	28852
10,86355	29083
10,86767	27195
10,87180	27095
10,87592	24721
10,88003	25667
10,88417	24924
10,88828	26165
10,89240	24795
10,89652	22475
10,90065	24153
10,90477	23769
10,90888	23379
10,91302	21856
10,91713	22267
10,92125	21704
10,92538	21894
10,92950	20115
10,93362	21475
10,93775	19697
10,94187	19829
10,94598	19291
10,95012	19414
10,95423	20258
10,95835	20086
10,96248	20418
10,96660	18304
10,97072	18031
10,97485	17351
10,97897	17890
10,98308	17924
10,98720	17069
10,99133	18237
10,99545	17463
10,99957	16495
11,00370	17417
11,00782	17279
11,01193	16942
11,01607	16746
11,02018	17687
11,02430	16364
11,02843	16976
11,03255	17288
11,03667	17532
11,04080	15929
11,04492	16531
11,04903	17965
11,05317	16482
11,05728	16765
11,06140	17750
11,06553	15840
11,06965	16700
11,07377	16603
11,07790	16551
11,08202	16057
11,08613	15562
11,09025	16232
11,09438	15770
11,09850	14713
11,10262	15421
11,10675	15237
11,11087	13562
11,11498	14087
11,11912	14230
11,12323	14785
11,12735	13776
11,13148	13838
11,13560	14287
11,13972	13857
11,14385	13909
11,14797	14422
11,15208	12967
11,15622	13849
11,16033	14624
11,16445	15957
11,16858	14882
11,17270	15996
11,17682	14833
11,18093	15144
11,18507	14847
11,18918	13403
11,19330	14766
11,19743	15652
11,20155	14610
11,20567	14937
11,20980	15150
11,21392	14060
11,21803	15939
11,22217	18059
11,22628	20603
11,23040	26782
11,23453	38575
11,23865	55346
11,24277	79513
11,24690	123134
11,25102	174554
11,25513	247215
11,25927	334058
11,26338	435364
11,26750	543072
11,27162	653168
11,27575	764250
11,27987	851840
11,28398	912976
11,28812	949380
11,29223	952274
11,29635	933383
11,30048	904031
11,30460	847931
11,30872	777263
11,31285	716378
11,31697	640586
11,32108	560997
11,32522	489964
11,32933	426617
11,33345	363682
11,33758	315146
11,34170	273696
11,34582	236929
11,34995	201300
11,35407	173889
11,35818	151507
11,36230	131397
11,36643	117203
11,37055	104112
11,37467	92772
11,37880	82074
11,38292	76391
11,38703	69910
11,39117	66678
11,39528	62376
11,39940	55441
11,40353	52737
11,40765	52179
11,41177	50445
11,41590	47461
11,42002	46352
11,42413	43741
11,42827	44970
11,43238	43735
11,43650	42766
11,44063	41187
11,44475	41316
11,44887	40017
11,45298	38853
11,45712	35821
11,46123	36453
11,46535	33559
11,46948	33310
11,47360	30906
11,47772	30135
11,48185	28619
11,48597	26415
11,49008	25431
11,49422	25566
11,49833	23641
11,50245	22968
11,50658	22287
11,51070	20494
11,51482	19636
11,51895	20917
11,52307	19877
11,52718	18640
11,53132	18540
11,53543	18353
11,53955	18238
11,54367	18170
11,54780	17505
11,55192	17314
11,55603	18920
11,56017	17682
11,56428	17308
11,56840	17167
11,57253	17360
11,57665	15669
11,58077	18142
11,58490	18122
11,58902	16628
11,59313	17388
11,59727	16031
11,60138	16995
11,60550	16304
11,60963	15621
11,61375	15096
11,61787	14422
11,62200	15270
11,62612	14508
11,63023	15073
11,63435	15033
11,63848	14686
11,64260	16444
11,64672	16897
11,65085	16652
11,65497	21028
11,65908	28915
11,66322	41301
11,66733	64418
11,67145	94657
11,67558	143543
11,67970	210540
11,68382	303018
11,68795	408739
11,69207	528649
11,69618	642939
11,70032	760507
11,70443	887416
11,70855	974459
11,71268	1046546
11,71680	1070409
11,72092	1080988
11,72503	1048148
11,72917	989863
11,73328	918624
11,73740	821678
11,74153	745946
11,74565	653248
11,74977	547296
11,75390	482306
11,75802	417789
11,76213	354299
11,76627	301828
11,77038	254604
11,77450	221611
11,77863	191535
11,78275	163883
11,78687	141937
11,79100	125544
11,79512	109606
11,79923	98904
11,80337	86900
11,80748	80514
11,81160	73153
11,81572	65050
11,81985	59342
11,82397	56989
11,82808	51933
11,83222	46921
11,83633	46291
11,84045	42530
11,84458	40493
11,84870	38159
11,85282	35774
11,85695	32486
11,86107	31893
11,86518	31171
11,86932	30192
11,87343	29346
11,87755	27392
11,88168	26756
11,88580	26073
11,88992	24897
11,89405	23775
11,89817	21991
11,90228	23275
11,90640	22855
11,91053	21267
11,91465	20134
11,91877	21893
11,92290	19396
11,92702	21893
11,93113	18160
11,93527	19786
11,93938	18342
11,94350	19038
11,94763	18632
11,95175	18578
11,95587	18430
11,96000	17616
11,96412	17437
11,96823	16686
11,97237	17246
11,97648	14837
11,98060	16244
11,98473	16108
11,98885	15514
11,99297	15615
11,99708	15763
12,00122	14439
12,00533	15516
12,00945	14333
12,01358	14664
12,01770	13861
12,02182	14551
12,02595	13956
12,03007	14313
12,03418	14980
12,03832	13616
12,04243	14616
12,04655	14686
12,05068	13039
12,05480	11367
12,05892	12896
12,06305	13192
12,06717	12961
12,07128	13697
12,07542	13687
12,07953	12865
12,08365	14570
12,08777	11630
12,09190	13180
12,09602	11977
12,10013	12435
12,10427	12241
12,10838	13035
12,11250	11869
12,11663	13866
12,12075	12567
12,12487	12826
12,12900	13411
12,13312	13848
12,13723	12655
12,14137	12005
12,14548	14200
12,14960	12376
12,15373	12309
12,15785	13298
12,16197	12581
12,16610	12647
12,17022	12749
12,17433	12643
12,17845	11721
12,18258	11977
12,18670	11749
12,19082	12458
12,19495	11394
12,19907	12344
12,20318	11631
12,20732	11353
12,21143	10138
12,21555	11234
12,21968	11312
12,22380	12680
12,22792	11547
12,23205	11018
12,23617	11803
12,24028	12158
12,24442	10360
12,24853	11398
12,25265	10951
12,25678	10504
12,26090	11270
12,26502	10337
12,26913	9774
12,27327	11559
12,27738	10981
12,28150	10589
12,28563	11283
12,28975	11817
12,29387	11165
12,29800	12857
12,30212	11767
12,30623	12073
12,31037	12807
12,31448	11820
12,31860	12395
12,32273	12348
12,32685	13722
12,33097	12656
12,33510	12751
12,33922	15108
12,34333	17245
12,34747	18427
12,35158	27211
12,35570	38464
12,35982	59440
12,36395	86744
12,36807	129233
12,37218	187877
12,37632	260813
12,38043	360097
12,38455	471076
12,38868	587158
12,39280	707535
12,39692	817409
12,40105	920957
12,40517	993636
12,40928	1036689
12,41342	1053492
12,41753	1022686
12,42165	977453
12,42578	909340
12,42990	828806
12,43402	740525
12,43815	655183
12,44227	563429
12,44638	491758
12,45050	424254
12,45463	363558
12,45875	310694
12,46287	259093
12,46700	222890
12,47112	194163
12,47523	168889
12,47937	144284
12,48348	129967
12,48760	111674
12,49173	101454
12,49585	90482
12,49997	80326
12,50410	72772
12,50822	68210
12,51233	63206
12,51647	55763
12,52058	51997
12,52470	49824
12,52883	45126
12,53295	43477
12,53707	40517
12,54118	38248
12,54532	38784
12,54943	34927
12,55355	33306
12,55768	31921
12,56180	31275
12,56592	29185
12,57005	28430
12,57417	26064
12,57828	27447
12,58242	25467
12,58653	23969
12,59065	23599
12,59478	22556
12,59890	21737
12,60302	21886
12,60715	22977
12,61127	21204
12,61538	21375
12,61952	19693
12,62363	20566
12,62775	18775
12,63187	17909
12,63600	17820
12,64012	16943
12,64423	17276
12,64837	16997
12,65248	15826
12,65660	16360
12,66073	16333
12,66485	15601
12,66897	16422
12,67310	16547
12,67722	15197
12,68133	16000
12,68547	17407
12,68958	18232
12,69370	18267
12,69783	19901
12,70195	20548
12,70607	20234
12,71020	23210
12,71432	22445
12,71843	22795
12,72257	25148
12,72668	23514
12,73080	22905
12,73492	24434
12,73905	23255
12,74317	22089
12,74728	21907
12,75142	20783
12,75553	20463
12,75965	20392
12,76378	19784
12,76790	17932
12,77202	20031
12,77615	20984
12,78027	27271
12,78438	36011
12,78852	52436
12,79263	87344
12,79675	132215
12,80088	203469
12,80500	308902
12,80912	449001
12,81325	631113
12,81737	850693
12,82148	1099815
12,82560	1360797
12,82973	1648672
12,83385	1935926
12,83797	2169000
12,84210	2315199
12,84622	2401265
12,85033	2407903
12,85447	2347897
12,85858	2207910
12,86270	2034465
12,86683	1830836
12,87095	1602379
12,87507	1378504
12,87920	1180940
12,88332	996293
12,88743	835726
12,89157	715432
12,89568	602380
12,89980	507628
12,90393	436710
12,90805	372304
12,91217	324564
12,91628	277530
12,92042	246799
12,92453	218780
12,92865	194087
12,93278	174993
12,93690	159512
12,94102	143706
12,94515	129919
12,94927	120393
12,95338	113884
12,95752	104311
12,96163	96724
12,96575	89420
12,96988	82372
12,97400	76324
12,97812	72577
12,98225	67777
12,98637	65243
12,99048	61431
12,99462	57303
12,99873	55870
13,00285	53769
13,00697	49593
13,01110	47362
13,01522	45315
13,01933	46031
13,02347	44042
13,02758	40557
13,03170	39068
13,03583	37399
13,03995	36324
13,04407	36744
13,04820	31966
13,05232	30832
13,05643	32037
13,06057	30489
13,06468	29721
13,06880	28992
13,07293	29798
13,07705	28915
13,08117	27575
13,08530	25881
13,08942	24417
13,09353	25493
13,09765	25110
13,10178	25370
13,10590	22961
13,11002	24528
13,11415	23577
13,11827	24628
13,12238	22603
13,12652	22702
13,13063	21387
13,13475	21550
13,13888	20483
13,14300	21190
13,14712	19217
13,15125	18634
13,15537	18456
13,15948	19863
13,16362	19117
13,16773	19365
13,17185	19937
13,17598	20413
13,18010	23431
13,18422	25978
13,18833	34011
13,19247	47148
13,19658	68425
13,20070	101359
13,20483	150146
13,20895	221453
13,21307	308717
13,21720	421737
13,22132	538034
13,22543	672007
13,22957	800584
13,23368	924641
13,23780	1023453
13,24193	1092078
13,24605	1136854
13,25017	1133808
13,25430	1092767
13,25842	1031616
13,26253	949867
13,26667	859113
13,27078	752084
13,27490	659819
13,27902	572069
13,28315	490207
13,28727	417173
13,29138	357341
13,29552	304763
13,29963	266067
13,30375	230289
13,30788	197781
13,31200	171332
13,31612	150974
13,32025	132044
13,32437	121439
13,32848	108936
13,33262	96312
13,33673	90609
13,34085	81089
13,34498	76115
13,34910	68839
13,35322	64279
13,35735	58070
13,36147	56831
13,36558	50963
13,36970	48790
13,37383	46932
13,37795	46746
13,38207	48538
13,38620	53329
13,39032	63609
13,39443	79526
13,39857	112283
13,40268	163734
13,40680	240835
13,41093	351948
13,41505	487994
13,41917	673275
13,42330	887522
13,42742	1155415
13,43153	1431429
13,43567	1681829
13,43978	1930184
13,44390	2125435
13,44803	2245138
13,45215	2305406
13,45627	2292773
13,46038	2198643
13,46452	2036562
13,46863	1868533
13,47275	1673231
13,47688	1470277
13,48100	1260650
13,48512	1083340
13,48925	911470
13,49337	779426
13,49748	662341
13,50162	569805
13,50573	486868
13,50985	416345
13,51398	366392
13,51810	317949
13,52222	276948
13,52635	246789
13,53047	217552
13,53458	196835
13,53872	178710
13,54283	163554
13,54695	147611
13,55107	132910
13,55520	124037
13,55932	115017
13,56343	106519
13,56757	97349
13,57168	94057
13,57580	84772
13,57993	81353
13,58405	73499
13,58817	70180
13,59230	69464
13,59642	64993
13,60053	60605
13,60467	56948
13,60878	55290
13,61290	52154
13,61703	51130
13,62115	48300
13,62527	47340
13,62940	43691
13,63352	44324
13,63763	43091
13,64175	41850
13,64588	40113
13,65000	38816
13,65412	37259
13,65825	36356
13,66237	33733
13,66648	34534
13,67062	32813
13,67473	33015
13,67885	28548
13,68298	29090
13,68710	28582
13,69122	28270
13,69535	27944
13,69947	28076
13,70358	25724
13,70772	26685
13,71183	25178
13,71595	25809
13,72008	25322
13,72420	24530
13,72832	24547
13,73243	22819
13,73657	23570
13,74068	22467
13,74480	21644
13,74893	21031
13,75305	20807
13,75717	21237
13,76130	19172
13,76542	18413
13,76953	18147
13,77367	20278
13,77778	18883
13,78190	19145
13,78603	19836
13,79015	19988
13,79427	18460
13,79840	18491
13,80252	18305
13,80663	17861
13,81077	16964
13,81488	17780
13,81900	15911
13,82312	16738
13,82725	15717
13,83137	17727
13,83548	16389
13,83962	15485
13,84373	16930
13,84785	17891
13,85198	20305
13,85610	25279
13,86022	31637
13,86435	45180
13,86847	66848
13,87258	95310
13,87672	139456
13,88083	206391
13,88495	293171
13,88908	392426
13,89320	508897
13,89732	636656
13,90145	760544
13,90557	874215
13,90968	957451
13,91380	1019513
13,91793	1065156
13,92205	1079356
13,92617	1078091
13,93030	1061177
13,93442	1063388
13,93853	1081735
13,94267	1126984
13,94678	1215903
13,95090	1348412
13,95503	1504624
13,95915	1715385
13,96327	1926223
13,96740	2145312
13,97152	2365728
13,97563	2492297
13,97977	2587939
13,98388	2558804
13,98800	2479651
13,99213	2338153
13,99625	2136268
14,00037	1899685
14,00448	1655940
14,00862	1412125
14,01273	1213436
14,01685	1029716
14,02098	868637
14,02510	734082
14,02922	634029
14,03335	538136
14,03747	468787
14,04158	404534
14,04572	361432
14,04983	317360
14,05395	278679
14,05808	248329
14,06220	225815
14,06632	208400
14,07045	182279
14,07457	172420
14,07868	158310
14,08282	143623
14,08693	134582
14,09105	123154
14,09517	113873
14,09930	108000
14,10342	101345
14,10753	97977
14,11167	89514
14,11578	87733
14,11990	81214
14,12403	77575
14,12815	73636
14,13227	71391
14,13640	64862
14,14052	62329
14,14463	62468
14,14877	59985
14,15288	58126
14,15700	53028
14,16113	54660
14,16525	53452
14,16937	50009
14,17350	47502
14,17762	46639
14,18173	43767
14,18585	45107
14,18998	39787
14,19410	41650
14,19822	39889
14,20235	38607
14,20647	35659
14,21058	36743
14,21472	36084
14,21883	34632
14,22295	34306
14,22708	34379
14,23120	32685
14,23532	31567
14,23945	30713
14,24357	32372
14,24768	30255
14,25182	30761
14,25593	30579
14,26005	29192
14,26418	28224
14,26830	27430
14,27242	26808
14,27653	26276
14,28067	24957
14,28478	26115
14,28890	24967
14,29303	23327
14,29715	23359
14,30127	22309
14,30540	23920
14,30952	23134
14,31363	23330
14,31777	23637
14,32188	26399
14,32600	30601
14,33013	40876
14,33425	52432
14,33837	77369
14,34250	111869
14,34662	159492
14,35073	222204
14,35487	308669
14,35898	414164
14,36310	523594
14,36722	654052
14,37135	759050
14,37547	863991
14,37958	928724
14,38372	984477
14,38783	1014306
14,39195	1004850
14,39608	944721
14,40020	881931
14,40432	804622
14,40845	718001
14,41257	636693
14,41668	551946
14,42082	472944
14,42493	411517
14,42905	356306
14,43318	304941
14,43730	264600
14,44142	223603
14,44555	201825
14,44967	172919
14,45378	152604
14,45792	134777
14,46203	121931
14,46615	110408
14,47027	101576
14,47440	89963
14,47852	82291
14,48263	72785
14,48677	68142
14,49088	64739
14,49500	60805
14,49913	53239
14,50325	52924
14,50737	50248
14,51150	47127
14,51562	43812
14,51973	42181
14,52387	41108
14,52798	39288
14,53210	39077
14,53623	36292
14,54035	35450
14,54447	35111
14,54860	33239
14,55272	31397
14,55683	31244
14,56095	31030
14,56508	30019
14,56920	29935
14,57332	28586
14,57745	28664
14,58157	27521
14,58568	27658
14,58982	27252
14,59393	26069
14,59805	25380
14,60218	24210
14,60630	23370
14,61042	22435
14,61455	22447
14,61867	22720
14,62278	23215
14,62692	20020
14,63103	19845
14,63515	21075
14,63928	19344
14,64340	20086
14,64752	19223
14,65163	18626
14,65577	17519
14,65988	18976
14,66400	18397
14,66813	19455
14,67225	17796
14,67637	18218
14,68050	18512
14,68462	17175
14,68873	17914
14,69287	16512
14,69698	16373
14,70110	15625
14,70523	15505
14,70935	16823
14,71347	16226
14,71760	14869
14,72172	16160
14,72583	14805
14,72997	15997
14,73408	14013
14,73820	15750
14,74232	15335
14,74645	16090
14,75057	14333
14,75468	15947
14,75882	14412
14,76293	13752
14,76705	14409
14,77118	14248
14,77530	13156
14,77942	13573
14,78355	14599
14,78767	13736
14,79178	13665
14,79592	12619
14,80003	14782
14,80415	13430
14,80828	13504
14,81240	14160
14,81652	13396
14,82065	13432
14,82477	14173
14,82888	13825
14,83300	14148
14,83713	13172
14,84125	12829
14,84537	11819
14,84950	12814
14,85362	12959
14,85773	12886
14,86187	13822
14,86598	11990
14,87010	13245
14,87423	13415
14,87835	12761
14,88247	13545
14,88660	13004
14,89072	13897
14,89483	11586
14,89897	12665
14,90308	13380
14,90720	11575
14,91133	10977
14,91545	14595
14,91957	13094
14,92368	11413
14,92782	13211
14,93193	12035
14,93605	12126
14,94018	12037
14,94430	12439
14,94842	11510
14,95255	12200
14,95667	13965
14,96078	11537
14,96492	10815
14,96903	12876
14,97315	12128
14,97728	12899
14,98140	13385
14,98552	15142
14,98965	17952
14,99377	22221
14,99788	31355
15,00202	44887
15,00613	66620
15,01025	99344
15,01437	143011
15,01850	203303
15,02262	275537
15,02673	372130
15,03087	474215
15,03498	581480
15,03910	691320
15,04323	789532
15,04735	876488
15,05147	950888
15,05560	1006589
15,05972	1059771
15,06383	1116132
15,06797	1166294
15,07208	1277954
15,07620	1394742
15,08033	1561570
15,08445	1765432
15,08857	2006044
15,09270	2231635
15,09682	2476394
15,10093	2696184
15,10505	2849101
15,10918	2925743
15,11330	2866179
15,11742	2742156
15,12155	2536938
15,12567	2283485
15,12978	2031251
15,13392	1742425
15,13803	1485127
15,14215	1274975
15,14628	1076343
15,15040	931552
15,15452	790092
15,15865	677508
15,16277	580790
15,16688	510380
15,17102	450794
15,17513	397416
15,17925	351547
15,18338	315528
15,18750	284975
15,19162	259584
15,19573	235833
15,19987	214960
15,20398	201550
15,20810	183459
15,21223	170777
15,21635	161770
15,22047	151119
15,22460	144694
15,22872	136164
15,23283	127132
15,23697	121698
15,24108	114668
15,24520	111213
15,24933	108450
15,25345	99422
15,25757	93448
15,26170	88569
15,26582	84322
15,26993	78656
15,27407	75205
15,27818	75163
15,28230	68841
15,28642	63769
15,29055	63653
15,29467	62975
15,29878	58728
15,30292	55111
15,30703	54456
15,31115	53739
15,31528	50700
15,31940	48695
15,32352	47149
15,32765	47979
15,33177	44740
15,33588	41800
15,34002	40105
15,34413	40800
15,34825	39101
15,35238	37781
15,35650	36411
15,36062	36659
15,36475	33045
15,36887	34287
15,37298	32063
15,37710	32153
15,38123	32414
15,38535	29923
15,38947	31174
15,39360	30270
15,39772	27292
15,40183	29004
15,40597	27900
15,41008	29930
15,41420	32058
15,41833	36560
15,42245	42857
15,42657	52374
15,43070	71020
15,43482	99857
15,43893	144422
15,44307	206825
15,44718	280627
15,45130	361657
15,45543	471274
15,45955	571805
15,46367	669670
15,46778	743630
15,47192	832051
15,47603	878254
15,48015	887304
15,48428	876256
15,48840	837885
15,49252	793649
15,49665	721647
15,50077	648785
15,50488	575721
15,50902	504357
15,51313	437886
15,51725	375340
15,52138	321926
15,52550	282168
15,52962	241074
15,53375	207321
15,53787	184903
15,54198	158296
15,54612	139139
15,55023	127559
15,55435	111724
15,55847	101404
15,56260	92673
15,56672	84546
15,57083	78987
15,57497	73754
15,57908	68021
15,58320	60716
15,58733	57190
15,59145	55087
15,59557	53645
15,59970	50355
15,60382	46177
15,60793	46139
15,61207	43780
15,61618	42960
15,62030	41013
15,62443	40655
15,62855	38401
15,63267	41682
15,63680	48399
15,64092	54953
15,64503	71350
15,64915	99638
15,65328	137446
15,65740	198992
15,66152	277663
15,66565	377600
15,66977	501366
15,67388	642726
15,67802	792781
15,68213	939526
15,68625	1062801
15,69038	1166636
15,69450	1211173
15,69862	1238637
15,70275	1218032
15,70687	1158955
15,71098	1074835
15,71512	969865
15,71923	856504
15,72335	757655
15,72748	664575
15,73160	567403
15,73572	487296
15,73983	428182
15,74397	364514
15,74808	322488
15,75220	275354
15,75633	245392
15,76045	216740
15,76457	194694
15,76870	173648
15,77282	157216
15,77693	142115
15,78107	129314
15,78518	121121
15,78930	108317
15,79343	101477
15,79755	96424
15,80167	87709
15,80580	82406
15,80992	77354
15,81403	73209
15,81817	69993
15,82228	64945
15,82640	59249
15,83052	59323
15,83465	56281
15,83877	53166
15,84288	50829
15,84702	50412
15,85113	47095
15,85525	45330
15,85938	42889
15,86350	41465
15,86762	40534
15,87175	39015
15,87587	37092
15,87998	37471
15,88412	35881
15,88823	35615
15,89235	33412
15,89648	33261
15,90060	33184
15,90472	31613
15,90885	29980
15,91297	30046
15,91708	30152
15,92120	29360
15,92533	27517
15,92945	27937
15,93357	28121
15,93770	26309
15,94182	27516
15,94593	25560
15,95007	24779
15,95418	25878
15,95830	24792
15,96243	23534
15,96655	23382
15,97067	23942
15,97480	23864
15,97892	21994
15,98303	21397
15,98717	22981
15,99128	21923
15,99540	22095
15,99953	21551
16,00365	21813
16,00777	19851
16,01188	20962
16,01602	21732
16,02013	19575
16,02425	19704
16,02838	19858
16,03250	20040
16,03662	19312
16,04075	18418
16,04487	18780
16,04898	19717
16,05312	19126
16,05723	20906
16,06135	18934
16,06548	18816
16,06960	19127
16,07372	18789
16,07785	18684
16,08197	19605
16,08608	20478
16,09022	18416
16,09433	19158
16,09845	19484
16,10257	19144
16,10670	17819
16,11082	18484
16,11493	17493
16,11907	15852
16,12318	16738
16,12730	17817
16,13143	18995
16,13555	17899
16,13967	20012
16,14380	17444
16,14792	22159
16,15203	24069
16,15617	30660
16,16028	40608
16,16440	59171
16,16853	87929
16,17265	132967
16,17677	196855
16,18090	285696
16,18502	410155
16,18913	543797
16,19327	691101
16,19738	860318
16,20150	1031359
16,20562	1172742
16,20975	1294136
16,21387	1350264
16,21798	1346155
16,22212	1324465
16,22623	1248411
16,23035	1162404
16,23448	1028803
16,23860	915558
16,24272	793130
16,24685	692363
16,25097	594235
16,25508	510042
16,25922	445332
16,26333	387621
16,26745	335436
16,27158	290336
16,27570	263506
16,27982	235300
16,28395	210260
16,28807	185985
16,29218	169499
16,29630	153825
16,30043	143378
16,30455	131394
16,30867	122228
16,31280	111425
16,31692	105395
16,32103	97617
16,32517	93341
16,32928	84357
16,33340	79781
16,33753	76490
16,34165	73189
16,34577	70795
16,34990	66386
16,35402	59193
16,35813	56990
16,36227	58135
16,36638	57069
16,37050	51833
16,37463	51347
16,37875	48956
16,38287	49752
16,38698	47323
16,39112	45265
16,39523	44616
16,39935	43601
16,40348	41358
16,40760	40752
16,41172	38967
16,41585	36302
16,41997	36052
16,42408	35535
16,42822	36176
16,43233	32499
16,43645	31569
16,44058	31751
16,44470	29499
16,44882	30604
16,45295	33016
16,45707	30356
16,46118	29614
16,46532	29841
16,46943	28158
16,47355	27393
16,47767	28480
16,48180	28305
16,48592	26236
16,49003	26784
16,49417	25362
16,49828	24774
16,50240	25867
16,50653	25201
16,51065	23323
16,51477	25046
16,51890	24811
16,52302	22900
16,52713	21836
16,53127	20748
16,53538	23309
16,53950	23324
16,54363	21073
16,54775	23275
16,55187	22673
16,55600	24342
16,56012	30540
16,56423	36891
16,56835	47548
16,57248	70878
16,57660	101559
16,58072	147424
16,58485	211798
16,58897	294953
16,59308	399172
16,59722	517215
16,60133	637157
16,60545	765198
16,60958	873905
16,61370	983440
16,61782	1047482
16,62195	1076526
16,62607	1074340
16,63018	1040119
16,63432	977013
16,63843	890038
16,64255	797779
16,64668	701040
16,65080	616649
16,65492	531516
16,65903	464341
16,66317	400018
16,66728	347173
16,67140	299199
16,67553	260025
16,67965	228283
16,68377	208766
16,68790	183751
16,69202	166772
16,69613	149491
16,70027	133914
16,70438	120551
16,70850	109087
16,71263	101663
16,71675	96647
16,72087	90539
16,72500	81226
16,72912	77377
16,73323	70803
16,73737	67312
16,74148	62739
16,74560	60841
16,74972	58488
16,75385	56504
16,75797	51722
16,76208	47436
16,76622	47580
16,77033	46124
16,77445	44030
16,77858	42588
16,78270	40493
16,78682	40129
16,79095	38838
16,79507	38489
16,79918	36452
16,80332	34632
16,80743	35059
16,81155	33635
16,81568	32546
16,81980	32986
16,82392	31603
16,82805	30740
16,83217	29560
16,83628	30894
16,84040	28884
16,84453	28222
16,84865	28487
16,85277	24912
16,85690	28217
16,86102	27583
16,86513	26807
16,86927	25180
16,87338	24950
16,87750	23942
16,88163	26116
16,88575	23878
16,88987	23637
16,89400	21082
16,89812	22614
16,90223	23861
16,90637	20615
16,91048	22388
16,91460	22571
16,91873	21534
16,92285	21646
16,92697	22082
16,93108	20554
16,93522	20736
16,93933	20091
16,94345	21656
16,94758	19428
16,95170	21772
16,95582	19862
16,95995	19323
16,96407	21311
16,96818	18961
16,97232	20617
16,97643	18659
16,98055	19051
16,98468	20700
16,98880	18946
16,99292	16918
16,99705	18960
17,00117	19570
17,00528	17530
17,00942	19463
17,01353	18757
17,01765	17816
17,02177	16943
17,02590	18462
17,03002	18932
17,03413	18510
17,03827	18436
17,04238	18755
17,04650	19033
17,05063	18784
17,05475	18886
17,05887	18055
17,06300	18812
17,06712	17517
17,07123	18203
17,07537	18765
17,07948	17826
17,08360	18456
17,08773	18775
17,09185	17488
17,09597	17764
17,10010	17536
17,10422	18561
17,10833	17284
17,11245	17982
17,11658	16885
17,12070	17134
17,12482	17450
17,12895	17115
17,13307	17998
17,13718	17506
17,14132	17123
17,14543	16124
17,14955	16084
17,15368	15843
17,15780	16596
17,16192	16677
17,16605	16529
17,17017	16621
17,17428	15086
17,17842	17554
17,18253	16005
17,18665	15361
17,19078	17790
17,19490	16978
17,19902	17687
17,20313	18916
17,20727	22635
17,21138	25999
17,21550	35539
17,21963	47633
17,22375	74000
17,22787	106596
17,23200	156062
17,23612	219355
17,24023	309317
17,24437	417004
17,24848	545507
17,25260	686733
17,25673	836693
17,26085	981314
17,26497	1145312
17,26910	1310176
17,27322	1465607
17,27733	1633315
17,28147	1777453
17,28558	1967858
17,28970	2167006
17,29382	2398863
17,29795	2583401
17,30207	2807529
17,30618	2978576
17,31032	3092295
17,31443	3154760
17,31855	3076058
17,32268	2936916
17,32680	2719809
17,33092	2449263
17,33505	2161130
17,33917	1908016
17,34328	1647055
17,34742	1409053
17,35153	1221407
17,35565	1047274
17,35978	902398
17,36390	788118
17,36802	698416
17,37215	617482
17,37627	547410
17,38038	489019
17,38450	443566
17,38863	398324
17,39275	365017
17,39687	336813
17,40100	306755
17,40512	285084
17,40923	262132
17,41337	242832
17,41748	225520
17,42160	216206
17,42573	198351
17,42985	189356
17,43397	174856
17,43810	164369
17,44222	156348
17,44633	152124
17,45047	139455
17,45458	132933
17,45870	127659
17,46283	122895
17,46695	116238
17,47107	114253
17,47518	105864
17,47932	104121
17,48343	95856
17,48755	94073
17,49168	90983
17,49580	88044
17,49992	86370
17,50405	82381
17,50817	80743
17,51228	77028
17,51642	76097
17,52053	74665
17,52465	73217
17,52878	69376
17,53290	64803
17,53702	64396
17,54115	61412
17,54527	61463
17,54938	60340
17,55352	57057
17,55763	56974
17,56175	55854
17,56587	51062
17,57000	54185
17,57412	52496
17,57823	50702
17,58237	51358
17,58648	51337
17,59060	47109
17,59473	48061
17,59885	46328
17,60297	45962
17,60710	44561
17,61122	46091
17,61533	49463
17,61947	53291
17,62358	57017
17,62770	65565
17,63183	83097
17,63595	110331
17,64007	147124
17,64420	200994
17,64832	272446
17,65243	361650
17,65655	464438
17,66068	591535
17,66480	713064
17,66892	820422
17,67305	914462
17,67717	976385
17,68128	1014416
17,68542	1020932
17,68953	1006743
17,69365	960684
17,69778	898913
17,70190	835423
17,70602	780493
17,71015	744826
17,71427	719226
17,71838	725333
17,72252	739204
17,72663	778983
17,73075	837131
17,73488	895487
17,73900	970845
17,74312	1014809
17,74725	1042849
17,75137	1065249
17,75548	1039520
17,75960	1015449
17,76373	956000
17,76785	882295
17,77197	802945
17,77610	724855
17,78022	643153
17,78433	567226
17,78847	505803
17,79258	427866
17,79670	383446
17,80083	336864
17,80495	303624
17,80907	268467
17,81320	248820
17,81732	232756
17,82143	224373
17,82557	226933
17,82968	240945
17,83380	268553
17,83793	315483
17,84205	376780
17,84617	473768
17,85028	590637
17,85442	713066
17,85853	857271
17,86265	1009647
17,86678	1137277
17,87090	1252764
17,87502	1314924
17,87915	1350993
17,88327	1338335
17,88738	1275683
17,89152	1184689
17,89563	1098071
17,89975	989889
17,90388	868054
17,90800	768718
17,91212	679111
17,91625	593071
17,92037	517535
17,92448	465929
17,92862	412197
17,93273	368518
17,93685	330386
17,94097	305323
17,94510	275902
17,94922	246648
17,95333	228092
17,95747	207983
17,96158	192570
17,96570	179597
17,96983	168796
17,97395	158379
17,97807	149152
17,98220	142816
17,98632	134228
17,99043	126401
17,99457	120139
17,99868	114047
18,00280	107126
18,00693	102492
18,01105	100353
18,01517	94949
18,01930	90612
18,02342	83332
18,02753	83040
18,03165	82710
18,03578	75781
18,03990	74771
18,04402	74103
18,04815	70284
18,05227	69565
18,05638	65600
18,06052	63341
18,06463	59958
18,06875	59793
18,07288	58679
18,07700	56307
18,08112	54312
18,08525	54346
18,08937	50715
18,09348	50272
18,09762	49000
18,10173	50138
18,10585	48322
18,10998	51303
18,11410	48957
18,11822	46041
18,12233	47057
18,12647	46366
18,13058	43842
18,13470	42693
18,13883	42971
18,14295	41219
18,14707	42831
18,15120	40657
18,15532	39088
18,15943	38308
18,16357	41000
18,16768	36452
18,17180	36683
18,17593	37131
18,18005	36148
18,18417	35063
18,18830	33505
18,19242	37026
18,19653	34497
18,20067	35069
18,20478	34892
18,20890	38632
18,21302	37414
18,21715	36029
18,22127	35277
18,22538	34409
18,22952	37569
18,23363	36175
18,23775	36509
18,24188	35710
18,24600	34738
18,25012	33883
18,25425	33848
18,25837	33802
18,26248	33456
18,26662	32283
18,27073	32990
18,27485	29811
18,27898	30033
18,28310	29677
18,28722	31809
18,29135	30334
18,29547	31870
18,29958	34095
18,30370	38093
18,30783	47450
18,31195	62152
18,31607	83117
18,32020	119921
18,32432	168768
18,32843	237147
18,33257	332953
18,33668	454942
18,34080	588516
18,34493	734208
18,34905	894011
18,35317	1048963
18,35730	1181670
18,36142	1294022
18,36553	1356730
18,36967	1362503
18,37378	1320183
18,37790	1260982
18,38203	1147197
18,38615	1041957
18,39027	923202
18,39438	825527
18,39852	719641
18,40263	634466
18,40675	555130
18,41088	492835
18,41500	435256
18,41912	386768
18,42325	345303
18,42737	316268
18,43148	281351
18,43562	259405
18,43973	235817
18,44385	223581
18,44798	204119
18,45210	190825
18,45622	175596
18,46035	168020
18,46447	154021
18,46858	145886
18,47272	138338
18,47683	131327
18,48095	124842
18,48507	118833
18,48920	113830
18,49332	107515
18,49743	106997
18,50157	101573
18,50568	99145
18,50980	95662
18,51393	88506
18,51805	86715
18,52217	84876
18,52630	81956
18,53042	79606
18,53453	75080
18,53867	75249
18,54278	69423
18,54690	68907
18,55103	67656
18,55515	66877
18,55927	64802
18,56340	62403
18,56752	59575
18,57163	58980
18,57575	57450
18,57988	55208
18,58400	52919
18,58812	51367
18,59225	49973
18,59637	54006
18,60048	50083
18,60462	49321
18,60873	48219
18,61285	49141
18,61698	46187
18,62110	45330
18,62522	45838
18,62935	44948
18,63347	45635
18,63758	42623
18,64172	41643
18,64583	42394
18,64995	42660
18,65408	42751
18,65820	41399
18,66232	37764
18,66643	39339
18,67057	40233
18,67468	37671
18,67880	37526
18,68293	36849
18,68705	37524
18,69117	37513
18,69530	39876
18,69942	41136
18,70353	43074
18,70767	49636
18,71178	61865
18,71590	79380
18,72003	108817
18,72415	155465
18,72827	206498
18,73240	289532
18,73652	392347
18,74063	508865
18,74477	643543
18,74888	792333
18,75300	923171
18,75712	1023866
18,76125	1083433
18,76537	1134144
18,76948	1135481
18,77362	1100441
18,77773	1045096
18,78185	980203
18,78598	902646
18,79010	829503
18,79422	764165
18,79835	717109
18,80247	710815
18,80658	711614
18,81072	729100
18,81483	760925
18,81895	825897
18,82308	881412
18,82720	929274
18,83132	984175
18,83545	1011999
18,83957	1023684
18,84368	1010977
18,84780	962780
18,85193	908872
18,85605	841416
18,86017	757073
18,86430	688116
18,86842	612745
18,87253	542149
18,87667	482688
18,88078	426756
18,88490	379865
18,88903	339684
18,89315	305868
18,89727	267436
18,90140	241428
18,90552	216818
18,90963	200969
18,91377	187897
18,91788	169036
18,92200	158520
18,92613	145683
18,93025	140207
18,93437	128229
18,93848	119141
18,94262	115259
18,94673	108067
18,95085	101399
18,95498	97186
18,95910	94776
18,96322	87492
18,96735	88770
18,97147	85193
18,97558	80703
18,97972	75401
18,98383	73082
18,98795	72002
18,99208	69735
18,99620	67167
19,00032	63292
19,00445	64541
19,00857	60941
19,01268	59802
19,01682	58155
19,02093	56908
19,02505	54959
19,02917	54096
19,03330	53396
19,03742	50295
19,04153	50757
19,04567	47740
19,04978	48211
19,05390	49189
19,05803	47547
19,06215	45574
19,06627	46858
19,07040	44362
19,07452	44328
19,07863	43446
19,08277	43019
19,08688	42801
19,09100	42735
19,09513	40821
19,09925	41500
19,10337	40147
19,10750	38613
19,11162	39010
19,11573	38490
19,11985	39613
19,12398	38307
19,12810	38581
19,13222	38144
19,13635	35850
19,14047	37519
19,14458	36444
19,14872	37309
19,15283	36369
19,15695	36265
19,16108	34387
19,16520	36470
19,16932	36280
19,17345	35350
19,17757	34843
19,18168	33842
19,18582	34187
19,18993	32583
19,19405	33305
19,19818	30852
19,20230	32574
19,20642	33449
19,21053	31877
19,21467	32112
19,21878	32630
19,22290	32944
19,22703	31511
19,23115	30617
19,23527	31228
19,23940	32105
19,24352	30582
19,24763	33833
19,25177	30905
19,25588	32381
19,26000	32577
19,26413	31575
19,26825	32258
19,27237	28994
19,27650	31001
19,28062	32160
19,28473	31680
19,28887	33187
19,29298	30262
19,29710	30414
19,30122	30579
19,30535	29494
19,30947	29479
19,31358	30845
19,31772	29725
19,32183	30820
19,32595	33334
19,33008	33106
19,33420	33678
19,33832	38422
19,34245	45297
19,34657	56418
19,35068	70678
19,35482	93336
19,35893	127140
19,36305	173569
19,36718	245035
19,37130	342344
19,37542	462964
19,37955	621399
19,38367	819671
19,38778	1046705
19,39192	1312056
19,39603	1594804
19,40015	1891237
19,40427	2145320
19,40840	2388611
19,41252	2580685
19,41663	2691542
19,42077	2692561
19,42488	2607781
19,42900	2446563
19,43313	2213878
19,43725	1991180
19,44137	1756858
19,44550	1530005
19,44962	1323501
19,45373	1156094
19,45787	1013145
19,46198	889247
19,46610	799401
19,47023	713573
19,47435	633776
19,47847	573055
19,48260	514276
19,48672	467962
19,49083	434556
19,49495	397075
19,49908	374154
19,50320	342914
19,50732	314467
19,51145	299790
19,51557	280023
19,51968	260396
19,52382	248036
19,52793	234238
19,53205	219079
19,53618	205971
19,54030	195785
19,54442	187272
19,54855	186469
19,55267	172448
19,55678	167313
19,56092	159435
19,56503	156174
19,56915	146135
19,57328	142432
19,57740	142078
19,58152	132199
19,58563	131035
19,58977	123817
19,59388	119885
19,59800	117017
19,60213	114846
19,60625	110768
19,61037	105052
19,61450	102246
19,61862	98705
19,62273	99523
19,62687	95822
19,63098	94373
19,63510	90980
19,63923	91636
19,64335	86761
19,64747	85100
19,65160	85475
19,65572	83029
19,65983	82586
19,66397	81148
19,66808	78093
19,67220	77949
19,67632	74979
19,68045	73107
19,68457	71934
19,68868	71777
19,69282	69054
19,69693	69952
19,70105	68207
19,70518	65386
19,70930	66091
19,71342	65557
19,71755	62823
19,72167	63128
19,72578	63644
19,72992	59679
19,73403	59494
19,73815	58765
19,74228	56938
19,74640	57655
19,75052	55518
19,75465	54567
19,75877	54537
19,76288	55177
19,76700	53561
19,77113	52794
19,77525	53113
19,77937	53727
19,78350	52506
19,78762	51620
19,79173	48812
19,79587	49422
19,79998	48308
19,80410	51363
19,80823	49306
19,81235	48600
19,81647	48807
19,82060	49210
19,82472	46751
19,82883	48059
19,83297	48476
19,83708	43406
19,84120	45451
19,84533	45509
19,84945	42144
19,85357	44950
19,85768	42951
19,86182	41194
19,86593	42596
19,87005	44988
19,87418	42787
19,87830	44631
19,88242	45465
19,88655	47919
19,89067	56352
19,89478	65091
19,89892	78457
19,90303	102837
19,90715	140186
19,91128	185409
19,91540	255481
19,91952	341567
19,92365	443387
19,92777	564369
19,93188	706065
19,93602	852769
19,94013	980190
19,94425	1096027
19,94837	1174973
19,95250	1241984
19,95662	1242557
19,96073	1223099
19,96487	1167863
19,96898	1082345
19,97310	996037
19,97723	893869
19,98135	809191
19,98547	717870
19,98960	636873
19,99372	567735
19,99783	514934
20,00197	457117
20,00608	415496
20,01020	372317
20,01433	341567
20,01845	313798
20,02257	287036
20,02670	267433
20,03082	249176
20,03493	228078
20,03905	216815
20,04318	203973
20,04730	189938
20,05142	178417
20,05555	172745
20,05967	164356
20,06378	151750
20,06792	146108
20,07203	138416
20,07615	135584
20,08028	128997
20,08440	124127
20,08852	118788
20,09265	113734
20,09677	110559
20,10088	109018
20,10502	103507
20,10913	98753
20,11325	95465
20,11738	94829
20,12150	91120
20,12562	88420
20,12973	85639
20,13387	83115
20,13798	84521
20,14210	78056
20,14623	76151
20,15035	77375
20,15447	72324
20,15860	70474
20,16272	69231
20,16683	70805
20,17097	68786
20,17508	70524
20,17920	66568
20,18333	65133
20,18745	64706
20,19157	62000
20,19570	61811
20,19982	59219
20,20393	58757
20,20807	58307
20,21218	56235
20,21630	56275
20,22042	57878
20,22455	55253
20,22867	54205
20,23278	56470
20,23692	51798
20,24103	52280
20,24515	54071
20,24928	54015
20,25340	53468
20,25752	53820
20,26165	55035
20,26577	56066
20,26988	60902
20,27402	62658
20,27813	66404
20,28225	73598
20,28638	76145
20,29050	81506
20,29462	90008
20,29875	93096
20,30287	98281
20,30698	101261
20,31110	103254
20,31523	101773
20,31935	100509
20,32347	97873
20,32760	95569
20,33172	90468
20,33583	87004
20,33997	81597
20,34408	75675
20,34820	72155
20,35233	69067
20,35645	64676
20,36057	61952
20,36470	57685
20,36882	57231
20,37293	54768
20,37707	51904
20,38118	51679
20,38530	52700
20,38943	49055
20,39355	48203
20,39767	46787
20,40178	44804
20,40592	47607
20,41003	45488
20,41415	46592
20,41828	44002
20,42240	44979
20,42652	44382
20,43065	40684
20,43477	43140
20,43888	42829
20,44302	40227
20,44713	42404
20,45125	39037
20,45538	40106
20,45950	40928
20,46362	39103
20,46775	40014
20,47187	41907
20,47598	37375
20,48012	37899
20,48423	36869
20,48835	37736
20,49247	38569
20,49660	38723
20,50072	35889
20,50483	35463
20,50897	38171
20,51308	35609
20,51720	36924
20,52133	35705
20,52545	36556
20,52957	36588
20,53370	38296
20,53782	36159
20,54193	36413
20,54607	34179
20,55018	35740
20,55430	35744
20,55843	35103
20,56255	36120
20,56667	38182
20,57080	34279
20,57492	36416
20,57903	35176
20,58315	35840
20,58728	35781
20,59140	34683
20,59552	34386
20,59965	36174
20,60377	34045
20,60788	35384
20,61202	37681
20,61613	35507
20,62025	35063
20,62438	34476
20,62850	33980
20,63262	34643
20,63675	35261
20,64087	34890
20,64498	31750
20,64912	34737
20,65323	35083
20,65735	32682
20,66148	31679
20,66560	35622
20,66972	35427
20,67383	34684
20,67797	34003
20,68208	34794
20,68620	32033
20,69033	33571
20,69445	33414
20,69857	33640
20,70270	34473
20,70682	34226
20,71093	32301
20,71507	31950
20,71918	32933
20,72330	32629
20,72743	34372
20,73155	35295
20,73567	34420
20,73980	32389
20,74392	34780
20,74803	34432
20,75217	33248
20,75628	33686
20,76040	33096
20,76452	34287
20,76865	34024
20,77277	35646
20,77688	32323
20,78102	35090
20,78513	33310
20,78925	34311
20,79338	33174
20,79750	32783
20,80162	31446
20,80575	34931
20,80987	33034
20,81398	33216
20,81812	34417
20,82223	35364
20,82635	34950
20,83048	35252
20,83460	32632
20,83872	35412
20,84285	35210
20,84697	32453
20,85108	33962
20,85520	35465
20,85933	35872
20,86345	34728
20,86757	32180
20,87170	36652
20,87582	34358
20,87993	36063
20,88407	35295
20,88818	35542
20,89230	33049
20,89643	33960
20,90055	33484
20,90467	35353
20,90880	36635
20,91292	34703
20,91703	33836
20,92117	32456
20,92528	33181
20,92940	32434
20,93353	33132
20,93765	33418
20,94177	33806
20,94590	33553
20,95002	33745
20,95413	33665
20,95825	34161
20,96238	34525
20,96650	32614
20,97062	35512
20,97475	33877
20,97887	34621
20,98298	33472
20,98712	32523
20,99123	35581
20,99535	33411
20,99948	33581
21,00360	35346
21,00772	33143
21,01185	35554
21,01597	31149
21,02008	34874
21,02422	32980
21,02833	31808
21,03245	34603
21,03658	34299
21,04070	34502
21,04482	32870
21,04893	33833
21,05307	35163
21,05718	34882
21,06130	32746
21,06543	33106
21,06955	31870
21,07367	34585
21,07780	33596
21,08192	33148
21,08603	31566
21,09017	33145
21,09428	32070
21,09840	33177
21,10253	31015
21,10665	31738
21,11077	34945
21,11490	36276
21,11902	33548
21,12313	32193
21,12727	35008
21,13138	34074
21,13550	36189
21,13962	35087
21,14375	33586
21,14787	36771
21,15198	35443
21,15612	34224
21,16023	34320
21,16435	35200
21,16848	34854
21,17260	35653
21,17672	34523
21,18085	35196
21,18497	32992
21,18908	33945
21,19322	35402
21,19733	36849
21,20145	35954
21,20558	34655
21,20970	34649
21,21382	33028
21,21795	35551
21,22207	33267
21,22618	34967
21,23030	34480
21,23443	34679
21,23855	34475
21,24267	38693
21,24680	33825
21,25092	35560
21,25503	32973
21,25917	32953
21,26328	34714
21,26740	34326
21,27153	36514
21,27565	34641
21,27977	37664
21,28390	33710
21,28802	35826
21,29213	34644
21,29627	36664
21,30038	33441
21,30450	33571
21,30863	33440
21,31275	35487
21,31687	33944
21,32098	37481
21,32512	38020
21,32923	35638
21,33335	35861
21,33748	38399
21,34160	41491
21,34572	40801
21,34985	45053
21,35397	52136
21,35808	64003
21,36222	80519
21,36633	104244
21,37045	135552
21,37458	179612
21,37870	242074
21,38282	312448
21,38695	389082
21,39107	478056
21,39518	560423
21,39932	631927
21,40343	690733
21,40755	725814
21,41167	738431
21,41580	748722
21,41992	725031
21,42403	675545
21,42817	633781
21,43228	577644
21,43640	526282
21,44053	467510
21,44465	422744
21,44877	375120
21,45290	331841
21,45702	291714
21,46113	265691
21,46527	242619
21,46938	214816
21,47350	199712
21,47763	181862
21,48175	163577
21,48587	152960
21,49000	139876
21,49412	133726
21,49823	124465
21,50235	114868
21,50648	113295
21,51060	103693
21,51472	98725
21,51885	93343
21,52297	91167
21,52708	89889
21,53122	82036
21,53533	81319
21,53945	81035
21,54358	75165
21,54770	75676
21,55182	72218
21,55595	72191
21,56007	68632
21,56418	66929
21,56832	65196
21,57243	65399
21,57655	66207
21,58068	61305
21,58480	62360
21,58892	57336
21,59303	59885
21,59717	60266
21,60128	57664
21,60540	54700
21,60953	55442
21,61365	57238
21,61777	56847
21,62190	54060
21,62602	55743
21,63013	53530
21,63427	53523
21,63838	51649
21,64250	51409
21,64663	49807
21,65075	51033
21,65487	51207
21,65900	50159
21,66312	50014
21,66723	48655
21,67137	50320
21,67548	50184
21,67960	48894
21,68372	48236
21,68785	49461
21,69197	49011
21,69608	47195
21,70022	47120
21,70433	48865
21,70845	46115
21,71258	47186
21,71670	46410
21,72082	46703
21,72495	47216
21,72907	44891
21,73318	45845
21,73732	46920
21,74143	47973
21,74555	45595
21,74968	46931
21,75380	47702
21,75792	44671
21,76205	46429
21,76617	47135
21,77028	47660
21,77440	44168
21,77853	45703
21,78265	45646
21,78677	47138
21,79090	43292
21,79502	45871
21,79913	44599
21,80327	44755
21,80738	45809
21,81150	44022
21,81563	46168
21,81975	45981
21,82387	45412
21,82800	44763
21,83212	44081
21,83623	43471
21,84037	44697
21,84448	45140
21,84860	44495
21,85273	45117
21,85685	44704
21,86097	42757
21,86508	43602
21,86922	41837
21,87333	43085
21,87745	42500
21,88158	42660
21,88570	42418
21,88982	43565
21,89395	41262
21,89807	44412
21,90218	42515
21,90632	43910
21,91043	44195
21,91455	42835
21,91868	42930
21,92280	43048
21,92692	43553
21,93105	44775
21,93517	44428
21,93928	45581
21,94342	44747
21,94753	45699
21,95165	41925
21,95577	42433
21,95990	44850
21,96402	47328
21,96813	43184
21,97227	44857
21,97638	44619
21,98050	46413
21,98463	42400
21,98875	45372
21,99287	44425
21,99700	43638
22,00112	41494
22,00523	43356
22,00937	42847
22,01348	42475
22,01760	44167
22,02173	43045
22,02585	42299
22,02997	45735
22,03410	41134
