D:\MassHunter\GCMS\1\data\Amal\Constant flow\130C\130C_1ml-min_5C-min_3.D Mon Sep 16 14:30:42 2024
Start of data points
4,94107	2600303
4,94518	2455106
4,94930	2339253
4,95343	2260213
4,95755	2097582
4,96167	1998195
4,96578	1902488
4,96992	1804832
4,97403	1702920
4,97815	1617950
4,98228	1537175
4,98640	1469508
4,99052	1387595
4,99465	1314219
4,99877	1259357
5,00288	1203980
5,00702	1142592
5,01113	1091022
5,01525	1026976
5,01938	997744
5,02350	939610
5,02762	908134
5,03175	866016
5,03587	805897
5,03998	778155
5,04412	737309
5,04823	724323
5,05235	678271
5,05647	652870
5,06060	624922
5,06472	597782
5,06883	569627
5,07297	551288
5,07708	519749
5,08120	497749
5,08533	478059
5,08945	466982
5,09357	444947
5,09770	436460
5,10182	420293
5,10593	398066
5,11007	384880
5,11418	371193
5,11830	359099
5,12243	348647
5,12655	335235
5,13067	324300
5,13480	316778
5,13892	301825
5,14303	301720
5,14715	290470
5,15128	279400
5,15540	277851
5,15952	273115
5,16365	259699
5,16777	255776
5,17188	251138
5,17602	251582
5,18013	235884
5,18425	236190
5,18838	233103
5,19250	224523
5,19662	227056
5,20075	218787
5,20487	218845
5,20898	212739
5,21312	211521
5,21723	210620
5,22135	206709
5,22548	201815
5,22960	197911
5,23372	197393
5,23783	191644
5,24197	189575
5,24608	185754
5,25020	192919
5,25433	197042
5,25845	223305
5,26257	276028
5,26670	371490
5,27082	484426
5,27493	643681
5,27907	808355
5,28318	943196
5,28730	1039719
5,29143	1092630
5,29555	1111332
5,29967	1100844
5,30380	1077041
5,30792	1042927
5,31203	1004516
5,31617	971732
5,32028	940206
5,32440	899758
5,32852	868647
5,33265	833287
5,33677	809838
5,34088	777125
5,34502	742755
5,34913	711829
5,35325	688419
5,35738	668057
5,36150	641598
5,36562	614955
5,36975	601551
5,37387	576911
5,37798	551379
5,38212	536437
5,38623	513306
5,39035	497400
5,39448	476834
5,39860	462725
5,40272	442701
5,40685	429782
5,41097	410290
5,41508	401887
5,41920	384598
5,42333	372359
5,42745	353136
5,43157	343108
5,43570	328171
5,43982	314284
5,44393	301316
5,44807	284915
5,45218	274295
5,45630	263660
5,46043	254391
5,46455	237532
5,46867	227754
5,47280	214389
5,47692	209765
5,48103	196571
5,48517	189930
5,48928	181781
5,49340	178028
5,49753	166690
5,50165	163766
5,50577	156421
5,50988	154638
5,51402	144388
5,51813	141898
5,52225	142227
5,52638	135694
5,53050	132509
5,53462	126023
5,53875	122385
5,54287	125536
5,54698	118538
5,55112	114884
5,55523	113138
5,55935	113733
5,56348	109545
5,56760	107372
5,57172	103954
5,57585	102890
5,57997	104727
5,58408	103404
5,58822	100035
5,59233	98906
5,59645	98868
5,60057	99600
5,60470	98575
5,60882	94330
5,61293	96814
5,61707	93214
5,62118	93179
5,62530	94661
5,62943	93744
5,63355	92790
5,63767	92573
5,64180	89621
5,64592	90734
5,65003	86864
5,65417	88642
5,65828	89583
5,66240	90816
5,66653	90230
5,67065	87226
5,67477	89724
5,67890	88131
5,68302	88307
5,68713	88506
5,69127	86306
5,69538	86185
5,69950	86785
5,70362	86674
5,70775	87155
5,71187	86531
5,71598	86452
5,72012	86620
5,72423	88770
5,72835	84905
5,73248	85518
5,73660	85027
5,74072	84813
5,74485	83307
5,74897	84412
5,75308	82064
5,75722	84499
5,76133	81319
5,76545	79522
5,76958	84114
5,77370	81991
5,77782	79314
5,78195	81952
5,78607	79714
5,79018	80807
5,79430	81358
5,79843	77640
5,80255	82027
5,80667	78879
5,81080	78241
5,81492	80884
5,81903	76938
5,82317	76024
5,82728	77866
5,83140	77929
5,83553	75232
5,83965	76456
5,84377	77458
5,84790	75312
5,85202	75838
5,85613	71959
5,86027	75413
5,86438	74192
5,86850	76365
5,87263	73075
5,87675	72592
5,88087	71661
5,88498	73903
5,88912	71877
5,89323	72200
5,89735	75369
5,90148	70603
5,90560	71482
5,90972	71445
5,91385	73054
5,91797	71996
5,92208	73505
5,92622	72610
5,93033	72752
5,93445	73088
5,93858	71587
5,94270	71419
5,94682	72587
5,95095	72107
5,95507	70762
5,95918	70623
5,96332	72396
5,96743	74066
5,97155	71878
5,97567	73571
5,97980	73453
5,98392	71824
5,98803	72758
5,99217	73147
5,99628	72007
6,00040	70976
6,00453	68769
6,00865	71462
6,01277	71487
6,01690	68278
6,02102	69817
6,02513	68683
6,02927	68101
6,03338	68429
6,03750	68030
6,04163	67212
6,04575	65793
6,04987	68024
6,05400	66837
6,05812	68465
6,06223	65255
6,06635	66473
6,07048	64924
6,07460	64506
6,07872	64657
6,08285	65659
6,08697	65221
6,09108	66689
6,09522	65164
6,09933	63737
6,10345	64114
6,10758	63342
6,11170	64274
6,11582	64278
6,11995	63437
6,12407	62471
6,12818	65088
6,13232	64171
6,13643	62543
6,14055	62463
6,14468	62148
6,14880	62791
6,15292	62317
6,15703	60686
6,16117	59695
6,16528	62764
6,16940	61224
6,17353	63000
6,17765	61828
6,18177	61040
6,18590	61454
6,19002	62477
6,19413	60671
6,19827	61863
6,20238	59166
6,20650	58930
6,21063	59233
6,21475	57365
6,21887	58589
6,22300	59203
6,22712	58687
6,23123	58054
6,23537	58184
6,23948	61243
6,24360	66628
6,24772	79712
6,25185	109596
6,25597	164322
6,26008	239801
6,26422	355180
6,26833	499154
6,27245	662952
6,27658	834710
6,28070	990722
6,28482	1116681
6,28895	1218087
6,29307	1276899
6,29718	1290918
6,30132	1300755
6,30543	1269018
6,30955	1246459
6,31368	1211872
6,31780	1154916
6,32192	1118194
6,32605	1067897
6,33017	1039770
6,33428	997174
6,33840	955062
6,34253	901582
6,34665	864680
6,35077	819030
6,35490	777028
6,35902	745359
6,36313	715143
6,36727	679254
6,37138	644533
6,37550	620842
6,37963	585379
6,38375	554142
6,38787	522358
6,39200	498165
6,39612	473726
6,40023	442797
6,40437	417521
6,40848	392783
6,41260	363065
6,41673	340487
6,42085	316011
6,42497	293813
6,42908	270306
6,43322	248723
6,43733	233740
6,44145	222607
6,44558	200806
6,44970	188546
6,45382	176534
6,45795	162087
6,46207	151784
6,46618	145656
6,47032	134446
6,47443	126613
6,47855	117800
6,48268	112091
6,48680	105743
6,49092	101369
6,49505	96031
6,49917	91482
6,50328	87867
6,50742	85567
6,51153	82409
6,51565	78640
6,51977	77787
6,52390	73295
6,52802	73468
6,53213	68355
6,53627	69289
6,54038	66080
6,54450	64485
6,54863	63299
6,55275	61889
6,55687	59346
6,56100	60856
6,56512	57452
6,56923	58219
6,57337	56144
6,57748	57844
6,58160	57071
6,58573	55962
6,58985	55413
6,59397	57448
6,59810	55312
6,60222	54698
6,60633	53883
6,61045	50836
6,61458	53354
6,61870	52421
6,62282	52658
6,62695	52167
6,63107	53209
6,63518	51812
6,63932	51858
6,64343	49406
6,64755	50732
6,65168	48893
6,65580	51098
6,65992	50087
6,66405	52234
6,66817	46935
6,67228	47738
6,67642	48932
6,68053	47637
6,68465	48936
6,68878	49132
6,69290	46941
6,69702	48631
6,70113	47933
6,70527	46764
6,70938	46564
6,71350	46464
6,71763	47399
6,72175	45656
6,72587	47136
6,73000	46125
6,73412	45892
6,73823	45492
6,74237	45050
6,74648	45282
6,75060	46525
6,75473	47311
6,75885	46831
6,76297	44829
6,76710	46316
6,77122	45522
6,77533	44126
6,77947	44351
6,78358	43082
6,78770	44845
6,79182	44131
6,79595	42216
6,80007	43752
6,80418	43487
6,80832	43501
6,81243	42761
6,81655	41375
6,82068	42928
6,82480	43080
6,82892	43306
6,83305	44300
6,83717	42200
6,84128	43142
6,84542	41596
6,84953	40832
6,85365	41548
6,85778	40480
6,86190	39346
6,86602	42333
6,87015	41344
6,87427	42553
6,87838	41560
6,88250	41093
6,88663	41966
6,89075	41129
6,89487	40148
6,89900	40154
6,90312	40005
6,90723	39665
6,91137	42365
6,91548	40318
6,91960	40388
6,92373	39051
6,92785	39638
6,93197	39231
6,93610	40018
6,94022	42323
6,94433	44729
6,94847	53148
6,95258	65924
6,95670	90809
6,96083	127314
6,96495	179905
6,96907	242142
6,97318	320706
6,97732	408084
6,98143	490522
6,98555	571456
6,98968	632686
6,99380	672908
6,99792	705100
7,00205	721253
7,00617	731736
7,01028	721107
7,01442	700461
7,01853	685189
7,02265	664044
7,02678	638243
7,03090	613372
7,03502	583562
7,03915	555714
7,04327	530465
7,04738	512328
7,05152	482383
7,05563	457496
7,05975	441452
7,06387	418022
7,06800	396141
7,07212	373223
7,07623	350065
7,08037	332352
7,08448	311579
7,08860	294473
7,09273	269947
7,09685	253498
7,10097	237917
7,10510	218625
7,10922	199991
7,11333	185125
7,11747	166865
7,12158	154173
7,12570	146272
7,12983	134883
7,13395	125515
7,13807	112763
7,14220	108330
7,14632	101682
7,15043	96890
7,15455	89328
7,15868	83341
7,16280	77654
7,16692	73384
7,17105	70867
7,17517	70361
7,17928	65115
7,18342	61677
7,18753	56876
7,19165	57388
7,19578	55814
7,19990	52624
7,20402	53628
7,20815	52469
7,21227	49750
7,21638	50877
7,22052	47487
7,22463	46422
7,22875	46956
7,23288	44995
7,23700	44092
7,24112	44720
7,24523	43654
7,24937	43888
7,25348	44327
7,25760	43432
7,26173	45231
7,26585	42620
7,26997	44008
7,27410	43947
7,27822	43186
7,28233	43128
7,28647	41797
7,29058	42284
7,29470	42275
7,29883	42947
7,30295	43518
7,30707	41871
7,31120	42961
7,31532	43172
7,31943	42443
7,32357	42575
7,32768	43316
7,33180	43084
7,33592	42651
7,34005	40977
7,34417	40137
7,34828	40025
7,35242	40248
7,35653	39443
7,36065	39261
7,36478	37668
7,36890	40476
7,37302	39195
7,37715	40348
7,38127	38669
7,38538	38309
7,38952	36758
7,39363	38374
7,39775	37750
7,40188	36119
7,40600	37384
7,41012	37196
7,41425	36079
7,41837	34381
7,42248	33638
7,42662	34144
7,43073	33568
7,43485	32661
7,43897	33071
7,44310	34787
7,44722	34186
7,45133	33188
7,45547	33528
7,45958	34588
7,46370	32355
7,46783	32795
7,47195	32776
7,47607	30551
7,48020	31702
7,48432	32271
7,48843	32698
7,49257	33090
7,49668	32755
7,50080	30820
7,50493	31906
7,50905	30942
7,51317	31026
7,51730	30811
7,52142	29770
7,52553	28850
7,52965	31362
7,53378	30398
7,53790	29248
7,54202	30473
7,54615	29403
7,55027	29279
7,55438	29021
7,55852	29551
7,56263	31176
7,56675	29821
7,57088	29123
7,57500	29797
7,57912	27751
7,58325	29179
7,58737	29453
7,59148	29693
7,59562	29030
7,59973	27585
7,60385	29037
7,60798	29299
7,61210	28666
7,61622	27502
7,62033	29516
7,62447	29126
7,62858	28130
7,63270	29030
7,63683	30139
7,64095	27237
7,64507	29387
7,64920	27045
7,65332	27938
7,65743	29498
7,66157	29753
7,66568	28346
7,66980	28998
7,67393	30458
7,67805	30267
7,68217	28591
7,68630	30357
7,69042	28330
7,69453	28673
7,69867	27774
7,70278	28987
7,70690	28978
7,71102	28336
7,71515	29432
7,71927	27709
7,72338	29380
7,72752	28430
7,73163	28336
7,73575	28709
7,73988	28457
7,74400	28520
7,74812	28277
7,75225	28727
7,75637	29219
7,76048	29322
7,76462	29341
7,76873	28538
7,77285	28453
7,77698	29366
7,78110	34094
7,78522	41728
7,78935	57039
7,79347	83895
7,79758	125759
7,80170	193804
7,80583	289602
7,80995	421749
7,81407	574324
7,81820	753660
7,82232	951974
7,82643	1122798
7,83057	1275685
7,83468	1417141
7,83880	1502817
7,84293	1580653
7,84705	1610355
7,85117	1635516
7,85530	1609959
7,85942	1588511
7,86353	1541070
7,86767	1484156
7,87178	1418803
7,87590	1356343
7,88003	1282250
7,88415	1201363
7,88827	1129675
7,89238	1070974
7,89652	1002505
7,90063	945259
7,90475	880452
7,90888	815502
7,91300	745766
7,91712	686315
7,92125	628034
7,92537	573887
7,92948	517554
7,93362	472276
7,93773	429320
7,94185	378324
7,94598	343620
7,95010	308293
7,95422	280325
7,95835	250948
7,96247	225148
7,96658	206193
7,97072	185695
7,97483	166807
7,97895	154104
7,98307	141994
7,98720	131534
7,99132	118784
7,99543	111486
7,99957	102037
8,00368	95859
8,00780	90014
8,01193	83319
8,01605	78844
8,02017	75103
8,02430	69742
8,02842	65644
8,03253	65268
8,03667	63946
8,04078	58840
8,04490	57518
8,04903	55654
8,05315	52942
8,05727	53855
8,06140	50315
8,06552	49177
8,06963	48935
8,07375	46316
8,07788	44782
8,08200	44213
8,08612	43912
8,09025	43655
8,09437	42225
8,09848	39839
8,10262	41198
8,10673	39237
8,11085	42101
8,11498	37816
8,11910	38495
8,12322	39568
8,12735	35539
8,13147	35026
8,13558	35134
8,13972	34794
8,14383	33332
8,14795	33238
8,15208	34157
8,15620	34742
8,16032	32955
8,16443	32852
8,16857	31686
8,17268	30711
8,17680	32354
8,18093	31977
8,18505	32122
8,18917	28676
8,19330	32278
8,19742	29384
8,20153	28847
8,20567	29072
8,20978	29407
8,21390	28559
8,21803	29319
8,22215	28769
8,22627	30255
8,23040	27838
8,23452	29265
8,23863	28851
8,24277	28538
8,24688	28352
8,25100	28925
8,25512	26711
8,25925	28176
8,26337	26866
8,26748	26643
8,27162	26911
8,27573	25990
8,27985	27789
8,28398	26434
8,28810	26972
8,29222	25837
8,29635	24714
8,30047	26206
8,30458	26339
8,30872	26787
8,31283	25894
8,31695	26475
8,32108	26909
8,32520	27478
8,32932	24862
8,33345	25703
8,33757	25389
8,34168	25128
8,34580	25152
8,34993	23994
8,35405	24703
8,35817	25116
8,36230	24586
8,36642	25073
8,37053	27464
8,37467	24789
8,37878	24319
8,38290	24185
8,38703	23634
8,39115	25446
8,39527	23112
8,39940	25108
8,40352	24263
8,40763	22345
8,41177	23569
8,41588	24524
8,42000	23950
8,42413	23797
8,42825	24878
8,43237	25081
8,43648	23498
8,44062	25377
8,44473	23858
8,44885	23430
8,45298	22919
8,45710	24277
8,46122	22956
8,46535	24509
8,46947	24600
8,47358	25011
8,47772	24047
8,48183	25328
8,48595	23949
8,49008	23647
8,49420	25037
8,49832	23583
8,50245	25203
8,50657	23347
8,51068	23200
8,51482	23485
8,51893	25503
8,52305	22659
8,52717	24301
8,53130	23227
8,53542	23689
8,53953	23048
8,54367	22896
8,54778	23108
8,55190	22557
8,55603	21838
8,56015	23046
8,56427	21766
8,56840	24685
8,57252	21969
8,57663	22079
8,58077	24964
8,58488	24231
8,58900	25017
8,59313	26047
8,59725	27822
8,60137	27630
8,60550	27731
8,60962	30705
8,61373	27019
8,61785	28750
8,62198	28266
8,62610	28655
8,63022	29814
8,63435	29656
8,63847	29645
8,64258	29296
8,64672	28872
8,65083	27409
8,65495	27797
8,65908	27462
8,66320	27678
8,66732	27826
8,67145	27654
8,67557	27565
8,67968	27086
8,68382	23698
8,68793	25967
8,69205	26521
8,69618	24894
8,70030	25807
8,70442	25239
8,70853	25606
8,71267	23992
8,71678	23346
8,72090	24458
8,72503	23630
8,72915	23004
8,73327	22248
8,73740	22614
8,74152	23690
8,74563	23712
8,74977	26186
8,75388	31454
8,75800	38485
8,76213	52059
8,76625	71177
8,77037	106374
8,77450	153017
8,77862	219380
8,78273	300880
8,78687	389994
8,79098	488739
8,79510	600941
8,79922	702036
8,80335	779092
8,80747	848825
8,81158	894811
8,81572	922885
8,81983	930521
8,82395	929332
8,82808	904330
8,83220	884837
8,83632	852080
8,84045	822084
8,84457	778118
8,84868	733040
8,85282	682585
8,85693	635445
8,86105	587006
8,86518	536047
8,86930	487338
8,87342	440646
8,87755	397641
8,88167	363264
8,88578	320982
8,88990	285528
8,89403	260709
8,89815	225771
8,90227	207479
8,90640	187336
8,91052	163422
8,91463	145916
8,91877	131301
8,92288	119010
8,92700	112226
8,93113	99151
8,93525	92226
8,93937	83425
8,94350	77237
8,94762	73864
8,95173	67171
8,95587	64012
8,95998	58646
8,96410	55602
8,96823	51529
8,97235	49776
8,97647	47002
8,98060	45602
8,98472	42587
8,98883	41292
8,99295	38679
8,99708	37862
9,00120	39908
9,00532	37378
9,00945	35330
9,01357	34962
9,01768	33702
9,02182	35033
9,02593	33031
9,03005	31811
9,03418	31253
9,03830	30091
9,04242	31400
9,04655	28227
9,05067	29036
9,05478	27456
9,05892	28213
9,06303	28113
9,06715	28197
9,07128	27221
9,07540	27127
9,07952	27632
9,08363	25756
9,08777	25161
9,09188	24541
9,09600	25499
9,10013	25884
9,10425	25688
9,10837	22729
9,11250	24421
9,11662	23666
9,12073	22733
9,12487	23918
9,12898	23006
9,13310	23044
9,13723	21347
9,14135	23923
9,14547	21921
9,14960	21923
9,15372	22394
9,15783	21585
9,16197	22275
9,16608	22390
9,17020	21503
9,17432	20939
9,17845	22098
9,18257	21339
9,18668	20968
9,19082	21469
9,19493	21542
9,19905	20193
9,20318	20066
9,20730	21765
9,21142	21160
9,21555	20721
9,21967	20244
9,22378	19478
9,22792	20167
9,23203	19818
9,23615	18757
9,24028	22037
9,24440	19878
9,24852	20986
9,25265	20448
9,25677	20228
9,26088	20402
9,26500	20203
9,26913	19982
9,27325	18781
9,27737	20204
9,28150	19072
9,28562	19764
9,28973	20538
9,29387	19663
9,29798	19501
9,30210	20023
9,30623	19744
9,31035	21779
9,31447	21723
9,31860	21859
9,32272	21678
9,32683	22977
9,33097	24182
9,33508	22861
9,33920	23134
9,34333	23646
9,34745	22599
9,35157	23697
9,35568	21659
9,35982	21862
9,36393	22566
9,36805	20560
9,37218	22156
9,37630	18936
9,38042	19875
9,38455	20978
9,38867	20152
9,39278	19433
9,39692	18306
9,40103	20356
9,40515	19322
9,40928	20121
9,41340	18838
9,41752	19292
9,42165	18992
9,42577	19015
9,42988	18815
9,43402	17856
9,43813	19058
9,44225	18124
9,44637	19354
9,45050	17213
9,45462	18814
9,45873	17375
9,46287	16202
9,46698	18087
9,47110	17345
9,47523	18466
9,47935	18156
9,48347	16455
9,48760	17939
9,49172	18010
9,49583	15687
9,49997	17149
9,50408	16454
9,50820	16578
9,51233	16736
9,51645	17710
9,52057	17257
9,52470	16178
9,52882	16666
9,53293	17544
9,53705	16957
9,54118	17552
9,54530	15553
9,54942	17428
9,55355	17128
9,55767	18417
9,56178	17431
9,56592	19699
9,57003	18925
9,57415	19616
9,57828	20740
9,58240	20648
9,58652	20559
9,59065	22378
9,59477	22096
9,59888	20977
9,60302	20899
9,60713	22607
9,61125	23094
9,61538	20410
9,61950	21854
9,62362	21220
9,62773	20761
9,63187	20570
9,63598	19262
9,64010	21260
9,64423	19753
9,64835	20286
9,65247	18939
9,65660	20794
9,66072	18927
9,66483	19562
9,66897	19224
9,67308	16868
9,67720	17893
9,68133	18058
9,68545	18171
9,68957	17503
9,69370	17697
9,69782	17896
9,70193	17082
9,70607	16508
9,71018	17981
9,71430	17560
9,71842	18073
9,72255	16926
9,72667	16597
9,73078	16741
9,73492	17022
9,73903	17178
9,74315	16719
9,74728	16972
9,75140	16729
9,75552	16634
9,75965	16797
9,76377	17318
9,76788	16445
9,77202	17619
9,77613	16691
9,78025	17381
9,78438	16510
9,78850	16409
9,79262	16442
9,79675	15759
9,80087	16277
9,80498	15675
9,80910	17251
9,81323	17805
9,81735	20474
9,82147	24096
9,82560	33476
9,82972	47600
9,83383	69391
9,83797	111495
9,84208	180987
9,84620	268421
9,85033	398178
9,85445	559111
9,85857	748183
9,86270	962368
9,86682	1191560
9,87093	1432637
9,87507	1647556
9,87918	1828932
9,88330	1986170
9,88743	2074175
9,89155	2138087
9,89567	2170271
9,89978	2152238
9,90392	2086707
9,90803	2011161
9,91215	1899726
9,91628	1769535
9,92040	1638312
9,92452	1489981
9,92865	1363670
9,93277	1223035
9,93688	1082600
9,94102	951221
9,94513	839800
9,94925	735412
9,95338	645680
9,95750	564525
9,96162	491829
9,96575	432939
9,96987	376840
9,97398	337594
9,97812	296363
9,98223	260671
9,98635	237002
9,99047	217125
9,99460	194907
9,99872	175341
10,00283	162080
10,00697	144556
10,01108	133993
10,01520	125568
10,01933	117195
10,02345	108118
10,02757	103464
10,03170	94965
10,03582	91959
10,03993	83456
10,04407	79861
10,04818	75733
10,05230	72026
10,05643	69268
10,06055	64604
10,06467	61121
10,06880	58306
10,07292	57895
10,07703	53792
10,08115	52748
10,08528	48077
10,08940	49165
10,09352	46773
10,09765	46641
10,10177	42727
10,10588	41892
10,11002	41306
10,11413	39376
10,11825	37537
10,12238	35596
10,12650	35928
10,13062	34995
10,13475	34159
10,13887	33085
10,14298	32735
10,14712	31623
10,15123	31810
10,15535	30503
10,15948	29930
10,16360	28272
10,16772	30672
10,17183	29206
10,17597	29113
10,18008	30168
10,18420	28705
10,18833	28544
10,19245	29408
10,19657	28618
10,20070	30217
10,20482	30300
10,20893	29780
10,21307	29843
10,21718	29670
10,22130	30028
10,22543	29809
10,22955	29095
10,23367	27446
10,23780	29204
10,24192	28622
10,24603	25150
10,25017	26366
10,25428	25973
10,25840	26354
10,26252	24729
10,26665	23796
10,27077	23814
10,27488	24384
10,27902	24008
10,28313	22486
10,28725	22893
10,29138	22470
10,29550	21941
10,29962	20067
10,30375	20750
10,30787	19398
10,31198	20437
10,31612	20421
10,32023	19885
10,32435	19912
10,32848	19024
10,33260	17626
10,33672	18523
10,34085	17914
10,34497	19437
10,34908	17405
10,35320	17654
10,35733	18293
10,36145	16932
10,36557	16895
10,36970	17721
10,37382	17776
10,37793	17407
10,38207	18242
10,38618	17724
10,39030	18113
10,39443	18351
10,39855	16753
10,40267	16773
10,40680	19207
10,41092	19091
10,41503	16906
10,41917	19594
10,42328	19378
10,42740	19509
10,43153	19298
10,43565	19635
10,43977	20285
10,44388	19806
10,44802	20172
10,45213	20648
10,45625	20741
10,46038	19167
10,46450	20608
10,46862	20772
10,47275	19551
10,47687	20121
10,48098	18897
10,48512	19354
10,48923	15810
10,49335	17442
10,49748	17905
10,50160	18037
10,50572	15969
10,50985	15261
10,51397	15198
10,51808	16190
10,52222	17952
10,52633	15719
10,53045	15740
10,53457	15747
10,53870	15576
10,54282	15043
10,54693	15383
10,55107	14971
10,55518	15611
10,55930	16453
10,56343	16374
10,56755	15332
10,57167	14923
10,57580	14800
10,57992	14942
10,58403	14534
10,58817	15814
10,59228	15221
10,59640	14923
10,60053	14338
10,60465	14588
10,60877	14679
10,61290	14765
10,61702	14501
10,62113	14424
10,62527	14858
10,62938	15080
10,63350	14730
10,63762	15877
10,64175	17364
10,64587	19337
10,64998	24161
10,65412	32893
10,65823	47812
10,66235	66207
10,66648	103437
10,67060	146848
10,67472	206323
10,67885	284517
10,68297	374274
10,68708	484745
10,69122	599131
10,69533	702847
10,69945	807854
10,70358	901704
10,70770	983976
10,71182	1021066
10,71595	1044550
10,72007	1048131
10,72418	1030059
10,72830	993362
10,73243	933724
10,73655	885095
10,74067	813687
10,74480	745035
10,74892	664793
10,75303	601167
10,75717	535668
10,76128	474022
10,76540	422623
10,76953	368652
10,77365	323699
10,77777	290253
10,78190	252986
10,78602	227973
10,79013	200580
10,79427	174912
10,79838	159577
10,80250	141666
10,80663	129000
10,81075	117537
10,81487	104268
10,81898	98112
10,82312	88247
10,82723	82886
10,83135	74332
10,83548	69062
10,83960	67055
10,84372	59821
10,84785	58628
10,85197	54991
10,85608	52655
10,86022	48742
10,86433	48541
10,86845	43570
10,87258	41813
10,87670	41786
10,88082	39380
10,88495	36477
10,88907	36638
10,89318	35245
10,89732	32983
10,90143	34925
10,90555	31304
10,90967	30895
10,91380	29639
10,91792	28000
10,92203	27795
10,92617	26687
10,93028	25906
10,93440	25499
10,93853	25923
10,94265	25387
10,94677	23751
10,95090	26423
10,95502	24350
10,95913	24352
10,96327	24877
10,96738	26825
10,97150	32270
10,97563	38771
10,97975	55579
10,98387	76007
10,98800	109877
10,99212	165074
10,99623	229075
11,00035	319982
11,00448	422427
11,00860	543278
11,01272	670057
11,01685	806844
11,02097	937159
11,02508	1035744
11,02922	1123833
11,03333	1170913
11,03745	1193572
11,04158	1208166
11,04570	1188628
11,04982	1140516
11,05395	1080779
11,05807	1002562
11,06218	918914
11,06632	820785
11,07043	738373
11,07455	642442
11,07868	569708
11,08280	500323
11,08692	426745
11,09103	370641
11,09517	325396
11,09928	283511
11,10340	246237
11,10753	214970
11,11165	187841
11,11577	167768
11,11990	145831
11,12402	132099
11,12813	119977
11,13227	110625
11,13638	101135
11,14050	89960
11,14463	85615
11,14875	77608
11,15287	75139
11,15700	65218
11,16112	63080
11,16523	58831
11,16937	57112
11,17348	54411
11,17760	50745
11,18172	47096
11,18585	45430
11,18997	45737
11,19408	43753
11,19822	39954
11,20233	38842
11,20645	38915
11,21058	37259
11,21470	36555
11,21882	33789
11,22295	32961
11,22707	32603
11,23118	31466
11,23532	32016
11,23943	28881
11,24355	28322
11,24768	29127
11,25180	29592
11,25592	25609
11,26005	26918
11,26417	26748
11,26828	26038
11,27240	22785
11,27653	24926
11,28065	24626
11,28477	24205
11,28890	23888
11,29302	22204
11,29713	21812
11,30127	20453
11,30538	21368
11,30950	21003
11,31363	20745
11,31775	21093
11,32187	20455
11,32600	20161
11,33012	18646
11,33423	18532
11,33837	18318
11,34248	17962
11,34660	17698
11,35073	16973
11,35485	17245
11,35897	17488
11,36308	17027
11,36722	17891
11,37133	16955
11,37545	17547
11,37958	15808
11,38370	17149
11,38782	16470
11,39195	16521
11,39607	16524
11,40018	17130
11,40432	15805
11,40843	16759
11,41255	15208
11,41668	15851
11,42080	16755
11,42492	14670
11,42905	16409
11,43317	15238
11,43728	16619
11,44142	16776
11,44553	16759
11,44965	15193
11,45377	15644
11,45790	14728
11,46202	14675
11,46613	12874
11,47027	14183
11,47438	15530
11,47850	16263
11,48263	14375
11,48675	14375
11,49087	13701
11,49500	14194
11,49912	13617
11,50323	13360
11,50737	14312
11,51148	14011
11,51560	15158
11,51973	14121
11,52385	13565
11,52797	14295
11,53210	14323
11,53622	14797
11,54033	13377
11,54445	13066
11,54858	12208
11,55270	14124
11,55682	13797
11,56095	12972
11,56507	14317
11,56918	13657
11,57332	14017
11,57743	14646
11,58155	14491
11,58568	12707
11,58980	14328
11,59392	13723
11,59805	14213
11,60217	15186
11,60628	14183
11,61042	13762
11,61453	14834
11,61865	13607
11,62278	14646
11,62690	13476
11,63102	15498
11,63513	13298
11,63927	14869
11,64338	14196
11,64750	13503
11,65163	13525
11,65575	14761
11,65987	13746
11,66400	12494
11,66812	14342
11,67223	11885
11,67637	12522
11,68048	13420
11,68460	11694
11,68873	14143
11,69285	13789
11,69697	13246
11,70110	12182
11,70522	13183
11,70933	12232
11,71347	12864
11,71758	12711
11,72170	13211
11,72582	13526
11,72995	12418
11,73407	12795
11,73818	12669
11,74232	12720
11,74643	13278
11,75055	13365
11,75468	12341
11,75880	10844
11,76292	11778
11,76705	13095
11,77117	12224
11,77528	12822
11,77942	11721
11,78353	11578
11,78765	12567
11,79178	13127
11,79590	12332
11,80002	11507
11,80415	13070
11,80827	14283
11,81238	12810
11,81650	13158
11,82063	12796
11,82475	14024
11,82887	16056
11,83300	19836
11,83712	23120
11,84123	33034
11,84537	51000
11,84948	72436
11,85360	110181
11,85773	160578
11,86185	231538
11,86597	316328
11,87010	420420
11,87422	545708
11,87833	669059
11,88247	808592
11,88658	929136
11,89070	1033500
11,89483	1094687
11,89895	1143106
11,90307	1171952
11,90718	1158377
11,91132	1131997
11,91543	1075544
11,91955	1001907
11,92368	913907
11,92780	823565
11,93192	739955
11,93605	648851
11,94017	564816
11,94428	495812
11,94842	428691
11,95253	371101
11,95665	320801
11,96078	281614
11,96490	247260
11,96902	217200
11,97315	187954
11,97727	171234
11,98138	153850
11,98552	136417
11,98963	122192
11,99375	108692
11,99787	101189
12,00200	91114
12,00612	86601
12,01023	77251
12,01437	74012
12,01848	69691
12,02260	64092
12,02673	61126
12,03085	57948
12,03497	54399
12,03910	49154
12,04322	49526
12,04733	46053
12,05147	44520
12,05558	43146
12,05970	41630
12,06383	38869
12,06795	37872
12,07207	36217
12,07620	34145
12,08032	34918
12,08443	30789
12,08855	31133
12,09268	31219
12,09680	29266
12,10092	28351
12,10505	26474
12,10917	27617
12,11328	25078
12,11742	26142
12,12153	24549
12,12565	23532
12,12978	24967
12,13390	23899
12,13802	22919
12,14215	24970
12,14627	25571
12,15038	26901
12,15452	30103
12,15863	40327
12,16275	53527
12,16688	82591
12,17100	126752
12,17512	199100
12,17923	303037
12,18337	451502
12,18748	650456
12,19160	908295
12,19573	1213167
12,19985	1561509
12,20397	1973364
12,20810	2386605
12,21222	2827485
12,21633	3243620
12,22047	3613931
12,22458	3855673
12,22870	4020610
12,23283	4082389
12,23695	4046519
12,24107	3879767
12,24520	3603494
12,24932	3293013
12,25343	2980572
12,25757	2597215
12,26168	2256567
12,26580	1950973
12,26993	1661835
12,27405	1399113
12,27817	1191056
12,28228	1030073
12,28642	892581
12,29053	762916
12,29465	656974
12,29878	578228
12,30290	514943
12,30702	451914
12,31115	401834
12,31527	357074
12,31938	325068
12,32352	294316
12,32763	270161
12,33175	246472
12,33588	225501
12,34000	208980
12,34412	195227
12,34825	179747
12,35237	168967
12,35648	155034
12,36062	148135
12,36473	136432
12,36885	128109
12,37297	119884
12,37710	116282
12,38122	109470
12,38533	103986
12,38947	96112
12,39358	95205
12,39770	88546
12,40183	83783
12,40595	80667
12,41007	77675
12,41420	73367
12,41832	72939
12,42243	69101
12,42657	66930
12,43068	63106
12,43480	60368
12,43893	58312
12,44305	54993
12,44717	53686
12,45130	50799
12,45542	49149
12,45953	49571
12,46365	47136
12,46778	46146
12,47190	45571
12,47602	41989
12,48015	41794
12,48427	41748
12,48838	40257
12,49252	37851
12,49663	38609
12,50075	35922
12,50488	35648
12,50900	32987
12,51312	34521
12,51725	33129
12,52137	33422
12,52548	31711
12,52962	30761
12,53373	30548
12,53785	29037
12,54198	28054
12,54610	28850
12,55022	28339
12,55433	28594
12,55847	29371
12,56258	26255
12,56670	25274
12,57083	26338
12,57495	25287
12,57907	24315
12,58320	24963
12,58732	24101
12,59143	23401
12,59557	23122
12,59968	23354
12,60380	21648
12,60793	20877
12,61205	23256
12,61617	20384
12,62030	23004
12,62442	20621
12,62853	19313
12,63267	21053
12,63678	21162
12,64090	19940
12,64502	20057
12,64915	19298
12,65327	19054
12,65738	19488
12,66152	18755
12,66563	19323
12,66975	19275
12,67388	18351
12,67800	19097
12,68212	18100
12,68625	18935
12,69037	18594
12,69448	19312
12,69862	18207
12,70273	20259
12,70685	19758
12,71098	18942
12,71510	19391
12,71922	18792
12,72335	18528
12,72747	18106
12,73158	17699
12,73570	16926
12,73983	16798
12,74395	16977
12,74807	15371
12,75220	16345
12,75632	14526
12,76043	14449
12,76457	15570
12,76868	14841
12,77280	16796
12,77693	14758
12,78105	14926
12,78517	13748
12,78930	15141
12,79342	14258
12,79753	16214
12,80167	15227
12,80578	15191
12,80990	16316
12,81403	15655
12,81815	16106
12,82227	16467
12,82638	16305
12,83052	15509
12,83463	16002
12,83875	16705
12,84288	15756
12,84700	15581
12,85112	16121
12,85525	15154
12,85937	15480
12,86348	16083
12,86762	14560
12,87173	16113
12,87585	15655
12,87998	19710
12,88410	21061
12,88822	28083
12,89235	40848
12,89647	58298
12,90058	87475
12,90472	126406
12,90883	189281
12,91295	266526
12,91707	365519
12,92120	488321
12,92532	615206
12,92943	752568
12,93357	892321
12,93768	1014622
12,94180	1118196
12,94593	1193653
12,95005	1235032
12,95417	1233264
12,95830	1218585
12,96242	1163898
12,96653	1092764
12,97067	1003821
12,97478	896993
12,97890	800876
12,98303	701411
12,98715	617373
12,99127	531066
12,99540	463837
12,99952	397995
13,00363	352421
13,00775	309529
13,01188	275095
13,01600	244550
13,02012	212010
13,02425	190959
13,02837	166457
13,03248	154678
13,03662	137148
13,04073	128526
13,04485	114269
13,04898	107870
13,05310	97687
13,05722	88268
13,06135	83780
13,06547	78797
13,06958	71917
13,07372	69635
13,07783	65296
13,08195	63132
13,08608	58318
13,09020	56078
13,09432	56623
13,09843	54422
13,10257	53688
13,10668	51807
13,11080	48403
13,11493	47947
13,11905	47269
13,12317	43636
13,12730	42711
13,13142	42742
13,13553	39307
13,13967	37254
13,14378	36471
13,14790	36902
13,15203	34538
13,15615	33193
13,16027	32363
13,16440	32452
13,16852	30619
13,17263	29204
13,17677	28965
13,18088	28398
13,18500	28969
13,18912	26818
13,19325	27400
13,19737	25027
13,20148	24796
13,20562	25286
13,20973	24000
13,21385	23552
13,21798	22709
13,22210	22406
13,22622	22024
13,23035	19858
13,23447	20010
13,23858	19943
13,24272	19259
13,24683	18806
13,25095	17540
13,25508	18646
13,25920	16529
13,26332	19230
13,26745	17216
13,27157	16577
13,27568	17099
13,27980	16710
13,28393	17841
13,28805	15360
13,29217	15099
13,29630	17609
13,30042	15111
13,30453	14618
13,30867	14651
13,31278	15587
13,31690	14369
13,32103	14750
13,32515	16062
13,32927	14845
13,33340	16185
13,33752	14937
13,34163	15156
13,34577	15289
13,34988	14966
13,35400	16036
13,35813	16277
13,36225	17761
13,36637	20157
13,37048	27948
13,37462	37476
13,37873	57395
13,38285	88401
13,38698	132927
13,39110	193076
13,39522	282543
13,39935	397774
13,40347	520256
13,40758	682984
13,41172	844362
13,41583	1009380
13,41995	1166278
13,42408	1289073
13,42820	1385367
13,43232	1424339
13,43645	1429990
13,44057	1400781
13,44468	1320330
13,44882	1235035
13,45293	1110288
13,45705	994106
13,46117	859660
13,46530	754278
13,46942	652443
13,47353	569647
13,47767	480964
13,48178	412787
13,48590	356081
13,49003	314109
13,49415	263588
13,49827	236080
13,50240	209460
13,50652	188366
13,51063	165383
13,51477	151652
13,51888	131321
13,52300	121971
13,52713	112224
13,53125	100886
13,53537	95896
13,53950	89027
13,54362	80339
13,54773	75389
13,55185	70126
13,55598	67079
13,56010	63772
13,56422	59889
13,56835	52600
13,57247	54611
13,57658	49746
13,58072	49477
13,58483	46582
13,58895	44592
13,59308	41788
13,59720	38812
13,60132	40999
13,60545	37022
13,60957	36489
13,61368	33962
13,61782	33383
13,62193	32127
13,62605	31774
13,63018	33856
13,63430	30909
13,63842	30061
13,64253	28400
13,64667	28914
13,65078	27938
13,65490	26245
13,65903	26545
13,66315	25615
13,66727	25416
13,67140	25258
13,67552	24621
13,67963	25123
13,68377	23657
13,68788	22837
13,69200	21249
13,69613	21941
13,70025	22119
13,70437	21181
13,70850	20321
13,71262	20768
13,71673	20391
13,72087	21086
13,72498	19987
13,72910	19806
13,73322	19840
13,73735	18369
13,74147	19133
13,74558	19843
13,74972	19450
13,75383	17913
13,75795	17605
13,76208	17394
13,76620	17401
13,77032	15933
13,77445	15668
13,77857	16962
13,78268	14442
13,78682	15811
13,79093	15146
13,79505	16032
13,79918	15415
13,80330	16743
13,80742	14594
13,81155	15103
13,81567	15165
13,81978	15445
13,82392	14464
13,82803	14402
13,83215	13271
13,83627	13110
13,84040	14622
13,84452	14637
13,84863	15106
13,85277	14040
13,85688	13062
13,86100	12949
13,86513	13479
13,86925	15008
13,87337	13790
13,87750	14814
13,88162	13925
13,88573	12930
13,88987	12664
13,89398	12195
13,89810	12886
13,90223	13102
13,90635	13638
13,91047	13635
13,91460	12019
13,91872	12072
13,92283	13871
13,92695	11947
13,93108	13741
13,93520	10709
13,93932	12572
13,94345	12283
13,94757	11655
13,95168	11450
13,95582	12913
13,95993	12101
13,96405	12922
13,96818	12438
13,97230	12713
13,97642	13073
13,98055	12553
13,98467	14466
13,98878	12508
13,99292	13090
13,99703	12801
14,00115	13599
14,00528	11587
14,00940	12081
14,01352	12635
14,01763	12118
14,02177	12481
14,02588	11844
14,03000	12631
14,03413	12084
14,03825	12601
14,04237	12686
14,04650	11705
14,05062	12036
14,05473	11019
14,05887	11426
14,06298	11951
14,06710	11446
14,07123	11073
14,07535	12396
14,07947	12533
14,08360	11658
14,08772	14863
14,09183	15284
14,09597	18752
14,10008	25705
14,10420	36561
14,10832	52828
14,11245	82475
14,11657	118505
14,12068	182993
14,12482	260082
14,12893	362639
14,13305	484321
14,13718	635156
14,14130	789429
14,14542	952083
14,14955	1092180
14,15367	1219747
14,15778	1306256
14,16192	1362508
14,16603	1361322
14,17015	1328362
14,17428	1263331
14,17840	1174198
14,18252	1070645
14,18665	958151
14,19077	837430
14,19488	730191
14,19900	636424
14,20313	550360
14,20725	472054
14,21137	412089
14,21550	352609
14,21962	308772
14,22373	270414
14,22787	233997
14,23198	204981
14,23610	184127
14,24023	167999
14,24435	147416
14,24847	133558
14,25260	122732
14,25672	112718
14,26083	104502
14,26497	96178
14,26908	90698
14,27320	84997
14,27733	75479
14,28145	74259
14,28557	68158
14,28968	63791
14,29382	59511
14,29793	56992
14,30205	52699
14,30618	53425
14,31030	47334
14,31442	47236
14,31855	45864
14,32267	44224
14,32678	42532
14,33092	37942
14,33503	39055
14,33915	36629
14,34328	37810
14,34740	34400
14,35152	34930
14,35565	34809
14,35977	34568
14,36388	35165
14,36802	36210
14,37213	37583
14,37625	38686
14,38037	43270
14,38450	42999
14,38862	42740
14,39273	43200
14,39687	42770
14,40098	45320
14,40510	44758
14,40923	43225
14,41335	43230
14,41747	43314
14,42160	39272
14,42572	40238
14,42983	37548
14,43397	36162
14,43808	32518
14,44220	32811
14,44633	30939
14,45045	30027
14,45457	28063
14,45870	25391
14,46282	25808
14,46693	24806
14,47105	22695
14,47518	21573
14,47930	21920
14,48342	19700
14,48755	20769
14,49167	20803
14,49578	20009
14,49992	20169
14,50403	19341
14,50815	18270
14,51228	18232
14,51640	17142
14,52052	18027
14,52465	17464
14,52877	18477
14,53288	17517
14,53702	15976
14,54113	16993
14,54525	16435
14,54938	15994
14,55350	15302
14,55762	15825
14,56173	16569
14,56587	18007
14,56998	19844
14,57410	26505
14,57823	38712
14,58235	57603
14,58647	86643
14,59060	137211
14,59472	210473
14,59883	316634
14,60297	459188
14,60708	648080
14,61120	871566
14,61533	1140006
14,61945	1453842
14,62357	1781895
14,62770	2111066
14,63182	2437516
14,63593	2695909
14,64007	2942540
14,64418	3108373
14,64830	3142094
14,65242	3103601
14,65655	2968257
14,66067	2744147
14,66478	2494482
14,66892	2194137
14,67303	1896559
14,67715	1628461
14,68128	1401026
14,68540	1190161
14,68952	1001628
14,69365	867681
14,69777	738678
14,70188	631824
14,70602	553665
14,71013	493621
14,71425	429697
14,71838	383903
14,72250	345264
14,72662	309561
14,73075	276022
14,73487	253525
14,73898	236468
14,74310	215264
14,74723	200083
14,75135	178751
14,75547	166420
14,75960	158377
14,76372	144689
14,76783	138088
14,77197	129428
14,77608	122936
14,78020	112940
14,78433	109549
14,78845	100452
14,79257	96519
14,79670	90917
14,80082	87377
14,80493	80816
14,80907	77902
14,81318	75342
14,81730	68415
14,82143	69431
14,82555	64378
14,82967	60370
14,83378	60623
14,83792	56616
14,84203	57376
14,84615	53400
14,85028	53887
14,85440	51358
14,85852	48309
14,86265	46149
14,86677	44161
14,87088	42977
14,87502	43203
14,87913	39246
14,88325	40229
14,88738	41273
14,89150	38163
14,89562	37334
14,89975	35185
14,90387	36289
14,90798	33915
14,91212	33467
14,91623	32276
14,92035	31770
14,92447	31989
14,92860	31204
14,93272	29337
14,93683	29856
14,94097	29393
14,94508	28780
14,94920	27331
14,95333	26942
14,95745	26422
14,96157	25591
14,96570	24944
14,96982	24786
14,97393	25869
14,97807	24334
14,98218	26083
14,98630	25962
14,99043	27600
14,99455	35669
14,99867	44359
15,00280	62437
15,00692	88918
15,01103	131852
15,01515	194085
15,01928	272718
15,02340	375499
15,02752	506012
15,03165	652037
15,03577	809006
15,03988	977864
15,04402	1131997
15,04813	1275408
15,05225	1394425
15,05638	1440584
15,06050	1468119
15,06462	1436335
15,06875	1375765
15,07287	1285771
15,07698	1179026
15,08112	1058537
15,08523	923289
15,08935	805076
15,09348	703608
15,09760	607675
15,10172	519157
15,10583	454799
15,10997	394721
15,11408	347360
15,11820	297806
15,12233	265828
15,12645	237443
15,13057	211623
15,13470	189690
15,13882	168169
15,14293	156332
15,14707	144362
15,15118	133358
15,15530	120082
15,15943	113006
15,16355	105726
15,16767	98229
15,17180	93990
15,17592	84682
15,18003	81148
15,18417	76559
15,18828	73912
15,19240	70480
15,19652	72295
15,20065	77899
15,20477	89268
15,20888	108519
15,21302	144078
15,21713	196200
15,22125	274388
15,22538	384938
15,22950	538646
15,23362	730767
15,23775	963636
15,24187	1228252
15,24598	1539036
15,25012	1872311
15,25423	2204146
15,25835	2488896
15,26248	2753469
15,26660	2934269
15,27072	3002183
15,27485	2968383
15,27897	2882593
15,28308	2690656
15,28720	2441913
15,29133	2185650
15,29545	1922519
15,29957	1668867
15,30370	1450445
15,30782	1251257
15,31193	1062674
15,31607	919759
15,32018	791561
15,32430	689358
15,32843	597081
15,33255	524008
15,33667	463695
15,34080	411833
15,34492	371223
15,34903	335793
15,35317	307305
15,35728	276686
15,36140	252594
15,36553	234190
15,36965	216618
15,37377	199910
15,37788	185363
15,38202	173145
15,38613	161405
15,39025	154942
15,39438	142796
15,39850	131986
15,40262	125221
15,40675	117886
15,41087	112359
15,41498	105880
15,41912	102560
15,42323	96087
15,42735	93313
15,43148	88368
15,43560	82782
15,43972	80990
15,44385	78463
15,44797	71839
15,45208	70167
15,45622	66539
15,46033	66505
15,46445	61590
15,46858	59224
15,47270	58372
15,47682	58639
15,48093	56224
15,48507	53282
15,48918	51614
15,49330	50311
15,49743	49111
15,50155	45226
15,50567	45706
15,50980	43410
15,51392	44396
15,51803	40998
15,52217	40150
15,52628	39793
15,53040	39235
15,53453	37689
15,53865	34548
15,54277	34706
15,54690	35604
15,55102	34595
15,55513	33933
15,55927	32953
15,56338	31228
15,56750	33355
15,57162	30423
15,57575	29611
15,57987	27260
15,58398	27766
15,58812	29069
15,59223	26565
15,59635	25753
15,60048	26641
15,60460	23977
15,60872	24702
15,61285	25764
15,61697	24123
15,62108	24841
15,62522	25421
15,62933	24914
15,63345	21388
15,63758	21882
15,64170	24049
15,64582	23468
15,64995	22842
15,65407	20926
15,65818	22568
15,66230	22822
15,66643	22288
15,67055	21412
15,67467	21358
15,67880	22898
15,68292	22338
15,68703	23734
15,69117	26036
15,69528	30571
15,69940	37958
15,70353	50001
15,70765	73461
15,71177	102195
15,71590	156004
15,72002	225534
15,72413	307584
15,72827	419005
15,73238	548434
15,73650	706157
15,74063	854191
15,74475	992825
15,74887	1131655
15,75298	1235700
15,75712	1297810
15,76123	1343488
15,76535	1332572
15,76948	1282551
15,77360	1210501
15,77772	1142405
15,78185	1084846
15,78597	1030125
15,79008	1011039
15,79422	1061237
15,79833	1141975
15,80245	1283490
15,80658	1462821
15,81070	1715007
15,81482	1993183
15,81895	2287198
15,82307	2577252
15,82718	2870058
15,83132	3101547
15,83543	3253775
15,83955	3299155
15,84367	3244167
15,84780	3104349
15,85192	2876403
15,85603	2606496
15,86017	2313424
15,86428	1993833
15,86840	1721660
15,87253	1479778
15,87665	1265740
15,88077	1084383
15,88490	935098
15,88902	806750
15,89313	707580
15,89727	614151
15,90138	546433
15,90550	482940
15,90963	441034
15,91375	399675
15,91787	361503
15,92200	327599
15,92612	299912
15,93023	274455
15,93435	255832
15,93848	235194
15,94260	220787
15,94672	204357
15,95085	189520
15,95497	177438
15,95908	170298
15,96322	156736
15,96733	150491
15,97145	142124
15,97558	137340
15,97970	129565
15,98382	120365
15,98795	117497
15,99207	111810
15,99618	106496
16,00032	102195
16,00443	99866
16,00855	93346
16,01268	94602
16,01680	87849
16,02092	85373
16,02503	83004
16,02917	76811
16,03328	74353
16,03740	71920
16,04153	70242
16,04565	68935
16,04977	63657
16,05390	63496
16,05802	59486
16,06213	58916
16,06627	57848
16,07038	54972
16,07450	55332
16,07863	55011
16,08275	53044
16,08687	50568
16,09100	48610
16,09512	47664
16,09923	48937
16,10337	47239
16,10748	45400
16,11160	43670
16,11572	44420
16,11985	43960
16,12397	43276
16,12808	42326
16,13222	42582
16,13633	40119
16,14045	38198
16,14458	41233
16,14870	35419
16,15282	36440
16,15695	35824
16,16107	37108
16,16518	37647
16,16932	39652
16,17343	40924
16,17755	48018
16,18168	60367
16,18580	77979
16,18992	104020
16,19405	143692
16,19817	209298
16,20228	284548
16,20640	404989
16,21053	519543
16,21465	658103
16,21877	794273
16,22290	952223
16,22702	1081588
16,23113	1178111
16,23527	1250290
16,23938	1286384
16,24350	1266684
16,24763	1232850
16,25175	1167748
16,25587	1076192
16,26000	957236
16,26412	853465
16,26823	751852
16,27237	666343
16,27648	574458
16,28060	497707
16,28473	432045
16,28885	373628
16,29297	330479
16,29708	295065
16,30122	258892
16,30533	232257
16,30945	202709
16,31358	181254
16,31770	165084
16,32182	150557
16,32595	139929
16,33007	127927
16,33418	118576
16,33832	111226
16,34243	100679
16,34655	96914
16,35068	90313
16,35480	85336
16,35892	82122
16,36305	75247
16,36717	70690
16,37128	67729
16,37542	63438
16,37953	61146
16,38365	59459
16,38777	57344
16,39190	54232
16,39602	51240
16,40013	49511
16,40427	49809
16,40838	46889
16,41250	45407
16,41663	46674
16,42075	45175
16,42487	42481
16,42900	41840
16,43312	42476
16,43723	38033
16,44137	38579
16,44548	38856
16,44960	37382
16,45373	34289
16,45785	35270
16,46197	35038
16,46610	35220
16,47022	33442
16,47433	30414
16,47845	31004
16,48258	29515
16,48670	29856
16,49082	28834
16,49495	30565
16,49907	27459
16,50318	27177
16,50732	28093
16,51143	25223
16,51555	23776
16,51968	25066
16,52380	23433
16,52792	24070
16,53205	23061
16,53617	23337
16,54028	21955
16,54442	23539
16,54853	21433
16,55265	21138
16,55678	22089
16,56090	21748
16,56502	22627
16,56913	22048
16,57327	19870
16,57738	18988
16,58150	22074
16,58563	20570
16,58975	19338
16,59387	20144
16,59800	18162
16,60212	20873
16,60623	18672
16,61037	19121
16,61448	17749
16,61860	18161
16,62273	19235
16,62685	17079
16,63097	16777
16,63510	19436
16,63922	16225
16,64333	16712
16,64747	17053
16,65158	18171
16,65570	18269
16,65982	18107
16,66395	16500
16,66807	17732
16,67218	18598
16,67632	17189
16,68043	17721
16,68455	16005
16,68868	16645
16,69280	15184
16,69692	15817
16,70105	17568
16,70517	16786
16,70928	16598
16,71342	16648
16,71753	15524
16,72165	16254
16,72578	15031
16,72990	16737
16,73402	16621
16,73815	16006
16,74227	15055
16,74638	13568
16,75050	15262
16,75463	15982
16,75875	14953
16,76287	15322
16,76700	14229
16,77112	16284
16,77523	14594
16,77937	14233
16,78348	14205
16,78760	14094
16,79173	14812
16,79585	13491
16,79997	14597
16,80410	13890
16,80822	14675
16,81233	14496
16,81647	14641
16,82058	13972
16,82470	14135
16,82883	14299
16,83295	14091
16,83707	13736
16,84118	14344
16,84532	13997
16,84943	15793
16,85355	16105
16,85768	18241
16,86180	22623
16,86592	28844
16,87005	40443
16,87417	57387
16,87828	92724
16,88242	134393
16,88653	197968
16,89065	274120
16,89478	374844
16,89890	486515
16,90302	612315
16,90715	739690
16,91127	859814
16,91538	975258
16,91952	1036819
16,92363	1096714
16,92775	1105125
16,93187	1082304
16,93600	1039904
16,94012	985668
16,94423	926105
16,94837	882912
16,95248	854204
16,95660	839121
16,96073	869977
16,96485	926167
16,96897	1051183
16,97310	1227141
16,97722	1429184
16,98133	1681278
16,98547	1976269
16,98958	2314351
16,99370	2651609
16,99783	2979485
17,00195	3222429
17,00607	3475848
17,01020	3561883
17,01432	3551535
17,01843	3453549
17,02255	3221534
17,02668	2904070
17,03080	2574089
17,03492	2251471
17,03905	1949240
17,04317	1667493
17,04728	1439551
17,05142	1235163
17,05553	1060972
17,05965	923695
17,06378	818649
17,06790	724290
17,07202	641130
17,07615	575736
17,08027	522134
17,08438	473140
17,08852	427402
17,09263	382639
17,09675	358642
17,10088	327595
17,10500	294636
17,10912	276685
17,11325	259731
17,11737	239810
17,12148	224528
17,12560	208977
17,12973	197230
17,13385	185178
17,13797	175644
17,14210	163382
17,14622	155306
17,15033	146817
17,15447	142672
17,15858	131614
17,16270	125348
17,16683	121664
17,17095	113833
17,17507	110641
17,17920	105068
17,18332	97711
17,18743	95917
17,19157	93011
17,19568	89237
17,19980	86290
17,20393	82855
17,20805	80864
17,21217	78997
17,21628	73686
17,22042	72218
17,22453	69384
17,22865	68203
17,23278	67832
17,23690	64574
17,24102	62510
17,24515	59193
17,24927	59302
17,25338	57582
17,25752	54733
17,26163	53593
17,26575	53837
17,26988	52147
17,27400	48469
17,27812	48148
17,28225	48076
17,28637	50849
17,29048	46320
17,29462	46955
17,29873	50528
17,30285	52618
17,30697	60806
17,31110	75199
17,31522	93591
17,31933	124848
17,32347	171059
17,32758	232110
17,33170	316187
17,33583	418180
17,33995	536343
17,34407	653857
17,34820	784669
17,35232	905986
17,35643	1009307
17,36057	1073616
17,36468	1101932
17,36880	1116528
17,37293	1084792
17,37705	1026657
17,38117	960957
17,38530	867012
17,38942	775783
17,39353	696211
17,39765	614464
17,40178	532904
17,40590	463764
17,41002	411079
17,41415	355030
17,41827	317107
17,42238	280398
17,42652	245499
17,43063	221014
17,43475	198798
17,43888	175522
17,44300	161643
17,44712	146682
17,45125	139057
17,45537	128973
17,45948	119015
17,46362	106680
17,46773	101079
17,47185	94490
17,47598	92263
17,48010	81091
17,48422	80116
17,48833	77585
17,49247	69940
17,49658	69848
17,50070	63417
17,50483	62658
17,50895	58739
17,51307	58278
17,51720	57151
17,52132	55418
17,52543	53216
17,52957	52643
17,53368	54251
17,53780	56471
17,54193	66326
17,54605	79512
17,55017	101436
17,55430	136166
17,55842	185439
17,56253	265485
17,56667	370525
17,57078	495639
17,57490	652399
17,57902	811186
17,58315	991510
17,58727	1173338
17,59138	1325736
17,59552	1465099
17,59963	1547596
17,60375	1587653
17,60788	1568402
17,61200	1495340
17,61612	1407195
17,62025	1300467
17,62437	1163792
17,62848	1035560
17,63262	903548
17,63673	782189
17,64085	683983
17,64498	591543
17,64910	519002
17,65322	454496
17,65735	404505
17,66147	354286
17,66558	320156
17,66970	285252
17,67383	254486
17,67795	237327
17,68207	212589
17,68620	193642
17,69032	178691
17,69443	168764
17,69857	155719
17,70268	143023
17,70680	135272
17,71093	130567
17,71505	123462
17,71917	113709
17,72330	110937
17,72742	102567
17,73153	98984
17,73567	93664
17,73978	86921
17,74390	83921
17,74803	79038
17,75215	75803
17,75627	73885
17,76038	69189
17,76452	65236
17,76863	64930
17,77275	61801
17,77688	60273
17,78100	57638
17,78512	55699
17,78925	54167
17,79337	52286
17,79748	50162
17,80162	48729
17,80573	47669
17,80985	48369
17,81398	44229
17,81810	44066
17,82222	42091
17,82635	41468
17,83047	37866
17,83458	37766
17,83872	38732
17,84283	38902
17,84695	37046
17,85107	37849
17,85520	35061
17,85932	35660
17,86343	32853
17,86757	33399
17,87168	31920
17,87580	32180
17,87993	32942
17,88405	31405
17,88817	30766
17,89230	31163
17,89642	30468
17,90053	30085
17,90467	28344
17,90878	26362
17,91290	26919
17,91703	28614
17,92115	27570
17,92527	27722
17,92940	26796
17,93352	26469
17,93763	24815
17,94175	24183
17,94588	24874
17,95000	25974
17,95412	24462
17,95825	24225
17,96237	24715
17,96648	22739
17,97062	23703
17,97473	22768
17,97885	21810
17,98298	23874
17,98710	23155
17,99122	20870
17,99535	20705
17,99947	20887
18,00358	20929
18,00772	21591
18,01183	20755
18,01595	21889
18,02008	21569
18,02420	21951
18,02832	22559
18,03243	21260
18,03657	20721
18,04068	20760
18,04480	21423
18,04893	21097
18,05305	21915
18,05717	23125
18,06130	21432
18,06542	22331
18,06953	23615
18,07367	27434
18,07778	32773
18,08190	39728
18,08603	56084
18,09015	81033
18,09427	118995
18,09840	173459
18,10252	253482
18,10663	363130
18,11077	501209
18,11488	668569
18,11900	852854
18,12312	1061782
18,12725	1263677
18,13137	1446185
18,13548	1596219
18,13962	1696971
18,14373	1750137
18,14785	1728558
18,15198	1658114
18,15610	1529632
18,16022	1399338
18,16435	1245777
18,16847	1098022
18,17258	963335
18,17672	829981
18,18083	722517
18,18495	619472
18,18908	532936
18,19320	476611
18,19732	414514
18,20145	372645
18,20557	331266
18,20968	298183
18,21380	271193
18,21793	245683
18,22205	222545
18,22617	207803
18,23030	192310
18,23442	176711
18,23853	166454
18,24267	151539
18,24678	138072
18,25090	134515
18,25503	126701
18,25915	118128
18,26327	108964
18,26740	105903
18,27152	99932
18,27563	96560
18,27977	91930
18,28388	84604
18,28800	83302
18,29213	82606
18,29625	74095
18,30037	76620
18,30448	73450
18,30862	71042
18,31273	68494
18,31685	64877
18,32098	65031
18,32510	63514
18,32922	59217
18,33335	57653
18,33747	56884
18,34158	54490
18,34572	52229
18,34983	49829
18,35395	48754
18,35808	45337
18,36220	46788
18,36632	45508
18,37045	42134
18,37457	42393
18,37868	41007
18,38282	42148
18,38693	38148
18,39105	38785
18,39517	37626
18,39930	38169
18,40342	37400
18,40753	37435
18,41167	36272
18,41578	33597
18,41990	34069
18,42403	31758
18,42815	33168
18,43227	34644
18,43640	30500
18,44052	31571
18,44463	30777
18,44877	29300
18,45288	29054
18,45700	28543
18,46113	27822
18,46525	29600
18,46937	29996
18,47350	31153
18,47762	35077
18,48173	39218
18,48585	49866
18,48998	60747
18,49410	85960
18,49822	122843
18,50235	178911
18,50647	253218
18,51058	349801
18,51472	466800
18,51883	605508
18,52295	757394
18,52708	909635
18,53120	1060446
18,53532	1177589
18,53945	1275252
18,54357	1340707
18,54768	1361604
18,55182	1331714
18,55593	1255615
18,56005	1160297
18,56418	1062371
18,56830	940310
18,57242	838216
18,57653	728247
18,58067	642823
18,58478	565881
18,58890	488997
18,59303	435874
18,59715	377962
18,60127	334737
18,60540	298398
18,60952	270852
18,61363	238634
18,61777	216100
18,62188	196512
18,62600	180317
18,63013	166203
18,63425	154371
18,63837	139274
18,64250	129594
18,64662	124345
18,65073	118088
18,65487	110395
18,65898	103279
18,66310	93899
18,66723	92177
18,67135	85852
18,67547	81994
18,67958	80361
18,68372	73830
18,68783	71095
18,69195	67879
18,69608	67101
18,70020	63555
18,70432	61432
18,70845	57842
18,71257	57728
18,71668	55778
18,72082	52239
18,72493	51600
18,72905	50786
18,73318	47443
18,73730	46321
18,74142	45138
18,74555	44548
18,74967	42191
18,75378	43287
18,75792	41070
18,76203	40172
18,76615	39711
18,77027	39600
18,77440	38349
18,77852	36084
18,78263	36119
18,78677	36023
18,79088	34508
18,79500	35125
18,79913	33153
18,80325	34041
18,80737	31704
18,81150	31025
18,81562	31876
18,81973	32075
18,82387	31507
18,82798	29536
18,83210	29159
18,83623	30023
18,84035	29458
18,84447	28177
18,84860	26191
18,85272	28189
18,85683	26050
18,86095	27274
18,86508	27204
18,86920	28261
18,87332	25063
18,87745	26144
18,88157	24599
18,88568	27560
18,88982	25005
18,89393	26030
18,89805	24232
18,90218	25141
18,90630	21977
18,91042	24336
18,91455	26185
18,91867	25586
18,92278	24898
18,92692	23369
18,93103	25229
18,93515	23634
18,93928	25340
18,94340	25250
18,94752	25321
18,95163	23249
18,95577	23118
18,95988	21296
18,96400	21966
18,96813	22443
18,97225	22714
18,97637	23002
18,98050	24162
18,98462	23953
18,98873	21966
18,99287	24047
18,99698	23309
19,00110	21874
19,00523	22532
19,00935	21566
19,01347	20887
19,01760	22074
19,02172	20792
19,02583	21764
19,02997	21691
19,03408	22305
19,03820	21476
19,04232	22252
19,04645	19084
19,05057	21887
19,05468	19440
19,05882	19256
19,06293	21398
19,06705	19141
19,07118	19474
19,07530	20037
19,07942	19164
19,08355	20470
19,08767	20238
19,09178	21913
19,09592	21229
19,10003	21750
19,10415	22754
19,10828	21990
19,11240	21902
19,11652	20505
19,12065	22573
19,12477	22855
19,12888	23305
19,13300	26194
19,13713	26051
19,14125	32893
19,14537	45014
19,14950	58615
19,15362	81929
19,15773	121116
19,16187	169999
19,16598	242659
19,17010	333952
19,17423	445782
19,17835	572237
19,18247	717586
19,18660	861774
19,19072	984236
19,19483	1098961
19,19897	1206113
19,20308	1296823
19,20720	1354138
19,21133	1407255
19,21545	1462530
19,21957	1526323
19,22368	1614540
19,22782	1729093
19,23193	1904503
19,23605	2093320
19,24018	2325695
19,24430	2589735
19,24842	2878438
19,25255	3168000
19,25667	3395532
19,26078	3570797
19,26492	3708592
19,26903	3714234
19,27315	3599705
19,27728	3411341
19,28140	3090504
19,28552	2735181
19,28965	2402358
19,29377	2083264
19,29788	1809968
19,30202	1563160
19,30613	1351847
19,31025	1176589
19,31437	1032692
19,31850	916460
19,32262	814942
19,32673	724547
19,33087	663340
19,33498	593681
19,33910	542229
19,34323	494144
19,34735	451896
19,35147	415398
19,35560	391878
19,35972	363004
19,36383	335746
19,36797	312997
19,37208	293210
19,37620	271808
19,38033	259037
19,38445	244619
19,38857	231528
19,39270	220994
19,39682	210927
19,40093	200429
19,40505	191882
19,40918	182506
19,41330	168504
19,41742	165480
19,42155	156170
19,42567	152123
19,42978	145505
19,43392	137272
19,43803	134661
19,44215	128374
19,44628	125106
19,45040	119219
19,45452	113913
19,45865	115751
19,46277	108942
19,46688	104376
19,47102	102986
19,47513	97856
19,47925	97072
19,48338	93566
19,48750	89588
19,49162	90076
19,49573	87311
19,49987	85296
19,50398	80941
19,50810	78990
19,51223	79239
19,51635	78777
19,52047	74075
19,52460	71703
19,52872	71278
19,53283	69943
19,53697	66770
19,54108	65369
19,54520	69171
19,54933	65001
19,55345	68043
19,55757	73895
19,56170	79050
19,56582	91683
19,56993	114119
19,57407	137028
19,57818	181121
19,58230	244532
19,58642	331264
19,59055	430105
19,59467	550697
19,59878	684621
19,60292	822957
19,60703	952280
19,61115	1073085
19,61528	1169828
19,61940	1229829
19,62352	1268105
19,62765	1250369
19,63177	1209440
19,63588	1160054
19,64002	1093747
19,64413	1044758
19,64825	995467
19,65238	971776
19,65650	983840
19,66062	997355
19,66475	1057929
19,66887	1105772
19,67298	1177118
19,67710	1230392
19,68123	1284141
19,68535	1318481
19,68947	1312044
19,69360	1305871
19,69772	1244807
19,70183	1175290
19,70597	1101054
19,71008	1002999
19,71420	906968
19,71833	811394
19,72245	719578
19,72657	634210
19,73070	570216
19,73482	510574
19,73893	445209
19,74307	403329
19,74718	363447
19,75130	329411
19,75543	304947
19,75955	281296
19,76367	260612
19,76778	259680
19,77192	262862
19,77603	271106
19,78015	298546
19,78428	341963
19,78840	411873
19,79252	501106
19,79665	622772
19,80077	764989
19,80488	928102
19,80902	1090241
19,81313	1274699
19,81725	1430368
19,82138	1549464
19,82550	1647506
19,82962	1678151
19,83375	1671100
19,83787	1607520
19,84198	1522763
19,84612	1381316
19,85023	1267519
19,85435	1129807
19,85847	1000534
19,86260	887549
19,86672	777220
19,87083	688396
19,87497	615887
19,87908	546200
19,88320	490372
19,88733	444470
19,89145	399870
19,89557	361155
19,89970	336444
19,90382	311074
19,90793	279751
19,91207	261807
19,91618	245968
19,92030	232035
19,92443	218369
19,92855	202142
19,93267	191950
19,93680	182075
19,94092	174030
19,94503	165994
19,94915	156562
19,95328	149395
19,95740	138451
19,96152	139372
19,96565	127996
19,96977	127835
19,97388	119766
19,97802	114572
19,98213	109805
19,98625	104698
19,99038	101819
19,99450	92712
19,99862	96994
20,00275	91892
20,00687	86656
20,01098	87035
20,01512	82998
20,01923	79993
20,02335	81428
20,02748	78593
20,03160	76065
20,03572	73925
20,03983	70787
20,04397	70326
20,04808	69596
20,05220	69989
20,05633	65560
20,06045	62492
20,06457	59682
20,06870	62169
20,07282	59951
20,07693	59144
20,08107	60228
20,08518	58435
20,08930	53192
20,09343	53593
20,09755	53081
20,10167	54678
20,10580	51923
20,10992	52230
20,11403	50312
20,11817	49962
20,12228	52128
20,12640	49224
20,13052	50745
20,13465	48734
20,13877	49521
20,14288	50131
20,14702	50356
20,15113	47630
20,15525	47828
20,15938	47478
20,16350	46294
20,16762	44191
20,17175	45925
20,17587	45515
20,17998	42533
20,18412	41924
20,18823	41393
20,19235	42459
20,19648	41316
20,20060	40348
20,20472	39732
20,20885	39437
20,21297	38239
20,21708	36891
20,22120	38421
20,22533	36611
20,22945	35400
20,23357	35557
20,23770	35438
20,24182	38265
20,24593	37300
20,25007	36565
20,25418	38203
20,25830	44270
20,26243	49827
20,26655	55434
20,27067	73391
20,27480	93938
20,27892	132389
20,28303	177716
20,28717	254311
20,29128	345759
20,29540	476378
20,29953	620387
20,30365	800001
20,30777	986118
20,31190	1173725
20,31602	1371033
20,32013	1540536
20,32425	1658681
20,32838	1726164
20,33250	1734744
20,33662	1687678
20,34075	1577561
20,34487	1453604
20,34898	1296116
20,35312	1147025
20,35723	1010830
20,36135	890748
20,36548	775903
20,36960	684954
20,37372	606637
20,37785	543689
20,38197	476159
20,38608	423046
20,39022	393627
20,39433	358253
20,39845	324805
20,40258	302227
20,40670	276532
20,41082	258697
20,41493	243842
20,41907	223524
20,42318	206436
20,42730	200458
20,43143	182940
20,43555	178896
20,43967	169909
20,44380	159939
20,44792	149272
20,45203	146755
20,45617	137490
20,46028	131914
20,46440	127519
20,46853	121135
20,47265	118557
20,47677	114815
20,48090	107010
20,48502	102838
20,48913	98991
20,49327	98333
20,49738	94275
20,50150	91879
20,50562	87888
20,50975	86570
20,51387	80843
20,51798	80655
20,52212	78385
20,52623	76890
20,53035	72231
20,53448	71278
20,53860	70969
20,54272	70575
20,54685	65491
20,55097	64266
20,55508	65214
20,55922	62535
20,56333	61644
20,56745	60205
20,57158	60782
20,57570	55764
20,57982	57072
20,58395	57311
20,58807	54055
20,59218	53193
20,59630	54813
20,60043	53212
20,60455	51042
20,60867	50841
20,61280	50331
20,61692	47854
20,62103	48045
20,62517	49722
20,62928	46323
20,63340	46742
20,63753	45109
20,64165	45641
20,64577	44697
20,64990	44485
20,65402	47567
20,65813	50384
20,66227	56822
20,66638	60305
20,67050	78274
20,67463	98922
20,67875	134668
20,68287	181275
20,68698	253728
20,69112	342654
20,69523	457098
20,69935	599724
20,70348	741786
20,70760	901150
20,71172	1055433
20,71585	1196321
20,71997	1322225
20,72408	1379069
20,72822	1404386
20,73233	1395352
20,73645	1332615
20,74058	1287545
20,74470	1219463
20,74882	1153863
20,75295	1103615
20,75707	1066011
20,76118	1067962
20,76532	1091427
20,76943	1121106
20,77355	1164854
20,77767	1202831
20,78180	1236337
20,78592	1258269
20,79003	1276022
20,79417	1254216
20,79828	1215387
20,80240	1148550
20,80653	1081852
20,81065	991292
20,81477	909666
20,81890	813447
20,82302	728489
20,82713	660166
20,83127	583542
20,83538	526705
20,83950	467288
20,84363	417050
20,84775	380421
20,85187	342430
20,85600	316697
20,86012	291469
20,86423	271341
20,86835	246016
20,87248	227810
20,87660	214168
20,88072	202381
20,88485	187386
20,88897	178931
20,89308	165634
20,89722	159847
20,90133	150865
20,90545	139899
20,90958	129551
20,91370	126501
20,91782	121829
20,92195	119317
20,92607	112556
20,93018	108876
20,93432	104961
20,93843	101237
20,94255	95708
20,94668	93704
20,95080	90787
20,95492	85816
20,95903	87915
20,96317	83349
20,96728	77801
20,97140	77296
20,97553	76052
20,97965	74778
20,98377	72909
20,98790	71324
20,99202	67932
20,99613	68304
21,00027	64867
21,00438	64186
21,00850	62808
21,01263	63729
21,01675	62926
21,02087	62536
21,02500	59180
21,02912	57351
21,03323	56514
21,03737	55146
21,04148	57411
21,04560	52548
21,04972	53818
21,05385	51231
21,05797	50658
21,06208	49124
21,06622	50703
21,07033	48085
21,07445	50142
21,07858	48078
21,08270	48407
21,08682	48811
21,09095	48293
21,09507	46441
21,09918	47599
21,10332	45936
21,10743	47637
21,11155	43942
21,11568	46171
21,11980	43864
21,12392	42052
21,12805	44757
21,13217	41908
21,13628	40811
21,14040	41121
21,14453	40718
21,14865	41232
21,15277	36983
21,15690	37610
21,16102	38279
21,16513	38970
21,16927	38250
21,17338	40857
21,17750	39688
21,18163	37160
21,18575	37572
21,18987	37739
21,19400	39279
21,19812	38705
21,20223	36099
21,20637	36953
21,21048	38428
21,21460	36246
21,21873	35711
21,22285	36594
21,22697	36172
21,23108	36570
21,23522	33789
21,23933	35533
21,24345	35508
21,24758	33363
21,25170	35975
21,25582	35568
21,25995	35584
21,26407	34648
21,26818	36061
21,27232	35942
21,27643	34704
21,28055	37047
21,28468	37993
21,28880	39423
21,29292	39713
21,29705	40186
21,30117	42139
21,30528	42077
21,30942	47466
21,31353	55497
21,31765	70872
21,32177	89308
21,32590	118627
21,33002	164258
21,33413	224413
21,33827	311012
21,34238	431994
21,34650	568997
21,35063	748788
21,35475	959753
21,35887	1204879
21,36300	1460851
21,36712	1778941
21,37123	2098174
21,37537	2435522
21,37948	2737252
21,38360	2998823
21,38773	3188431
21,39185	3299166
21,39597	3269969
21,40010	3176101
21,40422	2951771
21,40833	2678720
21,41245	2375169
21,41658	2101587
21,42070	1825693
21,42482	1582703
21,42895	1374213
21,43307	1192971
21,43718	1056811
21,44132	939250
21,44543	833751
21,44955	742954
21,45368	668579
21,45780	619614
21,46192	561923
21,46605	523103
21,47017	478510
21,47428	441379
21,47842	406889
21,48253	390067
21,48665	357793
21,49078	335563
21,49490	313093
21,49902	293781
21,50313	285452
21,50727	263070
21,51138	257011
21,51550	242767
21,51963	228849
21,52375	217700
21,52787	211710
21,53200	199363
21,53612	191872
21,54023	181447
21,54437	181433
21,54848	174495
21,55260	165245
21,55673	160235
21,56085	158330
21,56497	150249
21,56910	143958
21,57322	137054
21,57733	136171
21,58147	132523
21,58558	130745
21,58970	124617
21,59382	118598
21,59795	119086
21,60207	116423
21,60618	113057
21,61032	107631
21,61443	104976
21,61855	104819
21,62268	102374
21,62680	101445
21,63092	96946
21,63505	95336
21,63917	93687
21,64328	93020
21,64742	85811
21,65153	88665
21,65565	87635
21,65978	83689
21,66390	82336
21,66802	82419
21,67215	82326
21,67627	80137
21,68038	77137
21,68450	74825
21,68863	76320
21,69275	74254
21,69687	73838
21,70100	70998
21,70512	69052
21,70923	69459
21,71337	69008
21,71748	66287
21,72160	67641
21,72573	65067
21,72985	64339
21,73397	63053
21,73810	63766
21,74222	65104
21,74633	63834
21,75047	60946
21,75458	58092
21,75870	59076
21,76283	60547
21,76695	58102
21,77107	56440
21,77518	56272
21,77932	54651
21,78343	58186
21,78755	56938
21,79168	54111
21,79580	53239
21,79992	52018
21,80405	53949
21,80817	51932
21,81228	49555
21,81642	50775
21,82053	51649
21,82465	49415
21,82878	51123
21,83290	46251
21,83702	49266
21,84115	49177
21,84527	49301
21,84938	50150
21,85352	52872
21,85763	60509
21,86175	65355
21,86587	79447
21,87000	100073
21,87412	131989
21,87823	171880
21,88237	240198
21,88648	326672
21,89060	430504
21,89473	564955
21,89885	715593
21,90297	874905
21,90710	1037146
21,91122	1190659
21,91533	1345627
21,91947	1455264
21,92358	1532213
21,92770	1542929
21,93183	1516276
21,93595	1444934
21,94007	1359920
21,94420	1235008
21,94832	1126374
21,95243	999809
21,95657	899885
21,96068	793026
21,96480	706563
21,96892	640712
21,97305	574055
21,97717	511434
21,98128	464725
21,98542	422892
21,98953	383651
21,99365	349312
21,99778	325401
22,00190	301309
22,00602	280321
22,01015	262894
22,01427	244035
22,01838	231983
22,02252	218461
22,02663	205960
22,03075	199824
22,03488	188566
22,03900	178031
22,04312	171219
22,04725	161098
22,05137	150845
22,05548	150906
22,05960	145078
22,06373	136576
22,06785	134320
22,07197	126582
22,07610	123811
22,08022	118409
22,08433	114777
22,08847	112573
22,09258	106466
22,09670	106630
22,10083	104601
22,10495	98632
22,10907	97826
22,11320	94793
22,11732	92399
22,12143	90703
22,12557	89978
22,12968	85539
22,13380	82414
22,13793	85267
22,14205	79627
22,14617	82011
22,15028	76988
22,15442	74744
22,15853	72242
22,16265	72147
22,16678	72261
22,17090	71095
22,17502	72351
22,17915	69176
22,18327	67063
22,18738	65279
22,19152	65693
22,19563	66344
22,19975	64097
22,20388	64515
22,20800	66607
22,21212	66191
22,21625	67822
22,22037	71580
22,22448	73429
22,22862	79880
22,23273	87679
22,23685	94395
22,24097	98918
22,24510	106489
22,24922	115991
22,25333	117471
22,25747	123101
22,26158	127301
22,26570	127269
22,26983	126996
22,27395	130068
22,27807	119631
22,28220	114822
22,28632	111485
22,29043	107030
22,29457	100355
22,29868	94136
22,30280	90896
22,30693	82206
22,31105	80292
22,31517	75001
22,31930	72909
22,32342	71085
22,32753	65389
22,33165	63379
22,33578	64214
22,33990	63434
22,34402	62928
22,34815	58724
22,35227	58550
22,35638	55194
22,36052	56638
22,36463	53746
22,36875	52080
22,37288	52890
22,37700	52279
22,38112	50462
22,38525	48549
22,38937	48372
22,39348	48212
22,39762	47427
22,40173	43835
22,40585	47987
22,40998	46266
22,41410	45657
22,41822	46018
22,42233	43061
22,42647	44440
22,43058	45558
22,43470	42702
22,43883	43527
22,44295	42642
22,44707	42118
22,45120	42034
22,45532	43183
22,45943	42431
22,46357	44506
22,46768	43355
22,47180	41963
22,47593	41487
22,48005	39377
22,48417	40665
22,48830	40074
22,49242	40524
22,49653	41424
22,50067	42294
22,50478	40219
22,50890	41273
22,51302	40419
22,51715	39642
22,52127	39076
22,52538	39660
22,52952	39266
22,53363	39071
22,53775	38490
22,54188	38286
22,54600	40243
22,55012	41220
22,55425	42746
22,55837	39798
22,56248	38452
22,56662	40604
22,57073	37907
22,57485	43357
22,57898	40085
22,58310	40718
22,58722	39455
22,59135	39294
22,59547	41854
22,59958	39430
22,60370	38989
22,60783	37070
22,61195	38647
22,61607	38169
22,62020	38953
22,62432	38468
22,62843	38063
22,63257	36689
22,63668	39460
22,64080	36459
22,64493	36951
22,64905	37106
22,65317	38122
22,65730	37855
22,66142	36389
22,66553	35844
22,66967	35427
22,67378	35446
22,67790	36677
22,68203	38757
22,68615	35688
22,69027	34111
22,69438	36180
22,69852	38606
22,70263	37931
22,70675	38180
22,71088	38019
22,71500	36707
22,71912	36402
22,72325	35405
22,72737	38419
22,73148	36001
22,73562	36613
22,73973	37079
22,74385	34212
22,74798	35597
22,75210	36964
22,75622	34381
22,76035	36481
22,76447	35621
22,76858	32841
22,77272	34816
22,77683	34011
22,78095	33915
22,78507	35418
22,78920	37845
22,79332	38448
22,79743	37890
22,80157	38053
22,80568	38861
22,80980	36995
22,81393	37011
22,81805	35388
22,82217	36577
22,82630	39110
22,83042	35118
22,83453	37373
22,83867	38603
22,84278	37607
22,84690	35861
22,85103	36887
22,85515	36718
22,85927	37886
22,86340	38337
22,86752	37225
22,87163	39396
22,87575	37338
22,87988	38077
22,88400	37453
22,88812	37907
22,89225	39059
22,89637	38512
22,90048	38949
22,90462	37496
22,90873	38829
22,91285	38528
22,91698	39758
22,92110	41419
22,92522	39398
22,92935	43075
22,93347	41324
22,93758	43033
22,94172	43100
22,94583	42438
22,94995	43663
22,95408	46027
22,95820	45327
22,96232	43839
22,96643	43910
22,97057	47921
22,97468	45717
22,97880	46565
22,98293	48468
22,98705	45016
22,99117	44348
22,99530	47251
22,99942	45378
23,00353	47528
23,00767	46875
23,01178	47538
23,01590	46976
23,02003	45124
23,02415	46240
23,02827	48722
23,03240	47299
23,03652	44740
23,04063	47557
23,04477	47911
23,04888	46626
23,05300	46090
23,05712	46724
23,06125	47485
23,06537	49534
23,06948	47960
23,07362	48676
23,07773	50640
23,08185	47020
23,08598	49839
23,09010	49869
23,09422	49515
23,09835	49926
23,10247	49968
23,10658	49575
23,11072	48312
23,11483	50184
23,11895	49488
23,12308	48588
23,12720	48871
23,13132	49611
23,13545	48879
23,13957	50191
23,14368	49750
23,14780	46762
23,15193	48549
23,15605	48376
23,16017	49442
23,16430	50083
23,16842	49552
23,17253	50714
23,17667	49112
23,18078	47601
23,18490	49007
23,18903	48848
23,19315	48377
23,19727	48593
23,20140	47978
23,20552	46304
23,20963	45142
23,21377	45480
23,21788	47294
23,22200	46267
23,22613	46500
23,23025	46026
23,23437	44407
23,23848	46074
23,24262	47270
23,24673	44745
23,25085	47247
23,25498	48019
23,25910	46143
23,26322	45059
23,26735	46376
23,27147	48916
23,27558	45852
23,27972	45038
23,28383	47141
23,28795	45494
23,29208	47527
23,29620	44846
23,30032	44995
23,30445	44698
23,30857	48532
23,31268	49023
23,31682	49644
23,32093	54206
23,32505	57550
23,32917	67658
23,33330	81394
23,33742	98808
23,34153	129997
23,34567	169551
23,34978	222432
23,35390	289083
23,35803	375209
23,36215	456300
23,36627	548713
23,37040	636801
23,37452	722632
23,37863	777867
23,38277	825983
23,38688	844083
23,39100	829351
23,39513	807843
23,39925	757958
23,40337	710589
23,40750	659486
23,41162	591835
23,41573	539244
23,41985	480010
23,42398	435349
23,42810	387515
23,43222	350453
23,43635	312107
23,44047	290434
23,44458	262181
23,44872	239050
23,45283	218977
23,45695	201595
23,46108	191182
23,46520	173235
23,46932	167670
23,47345	156249
23,47757	144593
23,48168	139574
23,48582	132596
23,48993	126286
23,49405	118576
23,49818	111317
23,50230	108247
23,50642	102941
23,51053	101144
23,51467	99043
23,51878	93798
23,52290	92126
23,52703	88980
23,53115	86455
23,53527	85168
23,53940	81048
23,54352	78340
23,54763	80646
23,55177	75954
23,55588	76706
23,56000	73375
23,56413	74705
23,56825	71682
23,57237	69769
23,57650	67634
23,58062	68868
23,58473	65069
23,58887	65232
23,59298	64334
23,59710	64528
23,60123	67608
23,60535	62595
23,60947	61718
23,61358	61329
23,61772	64288
23,62183	60826
23,62595	60212
23,63008	58863
23,63420	57707
23,63832	57813
23,64245	54796
23,64657	56903
23,65068	55225
23,65482	54826
23,65893	55911
23,66305	54697
23,66718	54061
23,67130	50158
23,67542	52819
23,67955	51523
23,68367	53315
23,68778	51699
23,69192	52904
23,69603	49208
23,70015	51755
23,70427	52143
23,70840	52364
23,71252	52356
23,71663	52527
23,72077	49494
23,72488	53346
23,72900	51128
23,73313	53911
23,73725	50368
23,74137	46438
23,74550	50602
23,74962	50435
23,75373	48508
23,75787	48925
23,76198	49925
23,76610	48089
23,77023	49600
23,77435	48620
23,77847	49581
23,78260	47156
23,78672	48630
23,79083	48827
23,79495	49647
23,79908	47583
23,80320	46174
23,80732	47843
23,81145	47765
23,81557	47918
23,81968	45029
23,82382	45747
23,82793	44643
23,83205	46105
23,83618	47512
23,84030	47374
23,84442	48356
23,84855	47608
23,85267	47460
23,85678	45676
23,86092	46170
23,86503	47175
23,86915	45530
23,87328	45405
23,87740	46367
23,88152	44987
23,88563	46927
23,88977	47517
23,89388	45012
23,89800	46850
23,90213	47034
23,90625	48424
23,91037	47551
23,91450	47400
23,91862	48021
23,92273	48528
23,92687	50237
23,93098	44966
23,93510	46083
23,93923	48158
23,94335	49024
23,94747	46299
23,95160	47477
23,95572	45298
23,95983	47571
23,96397	45765
23,96808	45015
23,97220	46840
23,97632	44038
23,98045	43915
23,98457	44650
23,98868	49058
23,99282	44687
23,99693	45630
24,00105	46696
24,00518	44002
24,00930	44202
24,01342	44564
24,01755	42578
24,02167	43013
24,02578	45828
24,02992	44032
24,03403	44915
24,03815	43854
24,04228	45582
24,04640	44585
24,05052	43557
24,05465	42513
24,05877	40713
24,06288	43422
24,06700	43284
24,07113	43328
24,07525	44952
24,07937	44846
24,08350	43788
24,08762	43070
24,09173	44032
24,09587	45561
24,09998	46961
24,10410	44784
24,10823	45717
24,11235	46343
24,11647	45739
24,12060	44515
24,12472	45040
24,12883	43927
24,13297	45410
24,13708	45577
24,14120	47925
24,14533	44020
24,14945	47478
24,15357	47085
24,15768	46557
24,16182	46102
24,16593	48338
24,17005	47969
24,17418	43711
24,17830	46813
24,18242	44984
24,18655	45794
24,19067	45781
24,19478	46569
24,19892	45045
24,20303	45825
24,20715	44969
24,21128	46423
24,21540	43219
24,21952	45909
24,22365	46285
24,22777	43933
24,23188	46272
24,23602	45845
24,24013	45086
24,24425	47279
24,24837	45153
24,25250	46454
24,25662	46135
24,26073	48235
24,26487	47749
24,26898	47082
24,27310	46801
24,27723	46209
24,28135	47008
24,28547	46349
24,28960	49223
24,29372	46835
24,29783	47207
24,30197	48856
24,30608	46998
24,31020	50170
24,31433	50633
24,31845	47641
24,32257	47489
24,32670	45518
24,33082	45102
24,33493	48077
24,33905	44536
24,34318	47388
24,34730	47281
24,35142	47240
24,35555	46594
24,35967	47497
24,36378	47683
24,36792	48055
24,37203	45198
24,37615	48529
24,38028	47721
24,38440	47084
24,38852	48345
24,39265	50322
24,39677	50738
24,40088	49015
24,40502	49394
24,40913	48085
24,41325	47927
24,41738	47902
24,42150	48416
24,42562	50122
24,42973	48391
24,43387	47489
24,43798	45735
24,44210	47687
24,44623	47029
24,45035	45487
24,45447	45482
24,45860	44233
24,46272	43763
24,46683	46045
24,47097	46872
24,47508	44321
24,47920	45227
24,48333	43483
24,48745	43990
24,49157	45790
24,49570	43229
24,49982	45738
24,50393	44551
24,50807	43911
24,51218	46225
24,51630	46538
24,52042	47084
24,52455	48180
24,52867	46176
24,53278	45380
24,53692	44206
24,54103	46169
24,54515	46357
24,54928	44163
24,55340	45933
24,55752	45814
24,56165	42958
24,56577	45596
24,56988	45601
24,57402	45157
24,57813	45245
24,58225	45713
24,58638	47209
24,59050	44400
24,59462	46834
24,59875	46506
24,60287	47505
24,60698	44886
24,61110	48489
24,61523	46771
