D:\MassHunter\GCMS\1\data\Amal\Constant flow\70C\70C_1ml-min_8C-min_1.D Tue Aug 06 16:37:04 2024
Start of data points
6,24087,20673
6,24498,20164
6,24910,21812
6,25323,19617
6,25735,20534
6,26147,20370
6,26560,20279
6,26972,18623
6,27383,18542
6,27797,19651
6,28208,18426
6,28620,19622
6,29032,18788
6,29445,19001
6,29857,19145
6,30268,20254
6,30682,18118
6,31093,19827
6,31505,19394
6,31918,20473
6,32330,19832
6,32742,18515
6,33155,19152
6,33567,19217
6,33978,19156
6,34392,20219
6,34803,19907
6,35215,19873
6,35628,19486
6,36040,20930
6,36452,20658
6,36865,21458
6,37277,21963
6,37688,22201
6,38100,24795
6,38513,24352
6,38925,25652
6,39337,26047
6,39750,26063
6,40162,26489
6,40573,27100
6,40987,27190
6,41398,27850
6,41810,25601
6,42223,26953
6,42635,25548
6,43047,25113
6,43460,24200
6,43872,25628
6,44283,23403
6,44697,22519
6,45108,23030
6,45520,23410
6,45933,20440
6,46345,21013
6,46757,20203
6,47168,20991
6,47582,20417
6,47993,19125
6,48405,19078
6,48818,19035
6,49230,18739
6,49642,17506
6,50055,17980
6,50467,17058
6,50878,17757
6,51292,17018
6,51703,17215
6,52115,16279
6,52528,16585
6,52940,15657
6,53352,17052
6,53765,15331
6,54177,15122
6,54588,16605
6,55002,14935
6,55413,15162
6,55825,13885
6,56237,15248
6,56650,14276
6,57062,13738
6,57473,14991
6,57887,14720
6,58298,14824
6,58710,14908
6,59123,14518
6,59535,14329
6,59947,14266
6,60360,13486
6,60772,14462
6,61183,14929
6,61597,14221
6,62008,14932
6,62420,15365
6,62833,14828
6,63245,15093
6,63657,14465
6,64070,15966
6,64482,15532
6,64893,14992
6,65305,15013
6,65718,15009
6,66130,14945
6,66542,15572
6,66955,13716
6,67367,13793
6,67778,13419
6,68192,14146
6,68603,13872
6,69015,13160
6,69428,13656
6,69840,13144
6,70252,14893
6,70665,13777
6,71077,13067
6,71488,13972
6,71902,14069
6,72313,13933
6,72725,14583
6,73138,13680
6,73550,14663
6,73962,14594
6,74373,14284
6,74787,14429
6,75198,13821
6,75610,14070
6,76023,13049
6,76435,13697
6,76847,13789
6,77260,13679
6,77672,13968
6,78083,13097
6,78497,13209
6,78908,14205
6,79320,12496
6,79733,13367
6,80145,13871
6,80557,13345
6,80970,14741
6,81382,18844
6,81793,25837
6,82207,38869
6,82618,61554
6,83030,88302
6,83442,133593
6,83855,192933
6,84267,265641
6,84678,345506
6,85092,430913
6,85503,508314
6,85915,568774
6,86328,623907
6,86740,659028
6,87152,666895
6,87565,670582
6,87977,654006
6,88388,626899
6,88802,586523
6,89213,558283
6,89625,517960
6,90038,479925
6,90450,446765
6,90862,406775
6,91275,381591
6,91687,345580
6,92098,312310
6,92510,287747
6,92923,265860
6,93335,242316
6,93747,214221
6,94160,189800
6,94572,174282
6,94983,155726
6,95397,144642
6,95808,126056
6,96220,112105
6,96633,100543
6,97045,91407
6,97457,81806
6,97870,72501
6,98282,66409
6,98693,60166
6,99107,53600
6,99518,48027
6,99930,45266
7,00343,40097
7,00755,37816
7,01167,34666
7,01578,32047
7,01992,29128
7,02403,26335
7,02815,26879
7,03228,24658
7,03640,22465
7,04052,21676
7,04465,19750
7,04877,19983
7,05288,18025
7,05702,17385
7,06113,18182
7,06525,17108
7,06938,17031
7,07350,16496
7,07762,15950
7,08175,15849
7,08587,16560
7,08998,14750
7,09412,13154
7,09823,14057
7,10235,13904
7,10647,13208
7,11060,12604
7,11472,14628
7,11883,12394
7,12297,14866
7,12708,15731
7,13120,15032
7,13533,15639
7,13945,16795
7,14357,17943
7,14770,15880
7,15182,17450
7,15593,14424
7,16007,15917
7,16418,16281
7,16830,15234
7,17243,13408
7,17655,13513
7,18067,12957
7,18480,12198
7,18892,11990
7,19303,11786
7,19715,10757
7,20128,11571
7,20540,10725
7,20952,10103
7,21365,10162
7,21777,10386
7,22188,10370
7,22602,9353
7,23013,9985
7,23425,10151
7,23838,9966
7,24250,9701
7,24662,9412
7,25075,9999
7,25487,10107
7,25898,10737
7,26312,9411
7,26723,9585
7,27135,9400
7,27548,10077
7,27960,9332
7,28372,9615
7,28783,10433
7,29197,8957
7,29608,9638
7,30020,9393
7,30433,8916
7,30845,10285
7,31257,8817
7,31670,9903
7,32082,9554
7,32493,10312
7,32907,9685
7,33318,9173
7,33730,9397
7,34143,8015
7,34555,8320
7,34967,9230
7,35380,9591
7,35792,8643
7,36203,8842
7,36617,9228
7,37028,9064
7,37440,8774
7,37852,8366
7,38265,8419
7,38677,8076
7,39088,8190
7,39502,8619
7,39913,7973
7,40325,8474
7,40738,7929
7,41150,8414
7,41562,8343
7,41975,8622
7,42387,8018
7,42798,8903
7,43212,8356
7,43623,8060
7,44035,7846
7,44448,8288
7,44860,7849
7,45272,7122
7,45685,8001
7,46097,8669
7,46508,8339
7,46922,8326
7,47333,8447
7,47745,8480
7,48157,9020
7,48570,7968
7,48982,7598
7,49393,7737
7,49807,7596
7,50218,7456
7,50630,8298
7,51043,7358
7,51455,6839
7,51867,8108
7,52280,8077
7,52692,8377
7,53103,8291
7,53517,7197
7,53928,7417
7,54340,8126
7,54753,8311
7,55165,8251
7,55577,7112
7,55990,8105
7,56402,7582
7,56813,7812
7,57225,6653
7,57638,7926
7,58050,7355
7,58462,8226
7,58875,7189
7,59287,7169
7,59698,7603
7,60112,7832
7,60523,7459
7,60935,7165
7,61348,7524
7,61760,8042
7,62172,7146
7,62585,8050
7,62997,7305
7,63408,7045
7,63822,7311
7,64233,7639
7,64645,7389
7,65058,6850
7,65470,7514
7,65882,7738
7,66293,7343
7,66707,6620
7,67118,7076
7,67530,7510
7,67943,6867
7,68355,7485
7,68767,7273
7,69180,8016
7,69592,7644
7,70003,7166
7,70417,6924
7,70828,8086
7,71240,7059
7,71653,7550
7,72065,7652
7,72477,7915
7,72890,8291
7,73302,6807
7,73713,7844
7,74127,7681
7,74538,7245
7,74950,7713
7,75362,7926
7,75775,8342
7,76187,7492
7,76598,8289
7,77012,6880
7,77423,7105
7,77835,7373
7,78248,6609
7,78660,6814
7,79072,7126
7,79485,6531
7,79897,6511
7,80308,6348
7,80722,6956
7,81133,6628
7,81545,6618
7,81958,6258
7,82370,6516
7,82782,6384
7,83195,6809
7,83607,6432
7,84018,6634
7,84430,6898
7,84843,6982
7,85255,6349
7,85667,6930
7,86080,6743
7,86492,6503
7,86903,6636
7,87317,6719
7,87728,7053
7,88140,6838
7,88553,6874
7,88965,6485
7,89377,6069
7,89790,6507
7,90202,6322
7,90613,6207
7,91027,6563
7,91438,6562
7,91850,6161
7,92263,6436
7,92675,6000
7,93087,6858
7,93498,6628
7,93912,6745
7,94323,6122
7,94735,6596
7,95148,6571
7,95560,6676
7,95972,6614
7,96385,6445
7,96797,5648
7,97208,6387
7,97622,5994
7,98033,6090
7,98445,6874
7,98858,6344
7,99270,6551
7,99682,6750
8,00095,6455
8,00507,6039
8,00918,6406
8,01332,5788
8,01743,6442
8,02155,5722
8,02567,6021
8,02980,5828
8,03392,6490
8,03803,6655
8,04217,6430
8,04628,6815
8,05040,6659
8,05453,6472
8,05865,6013
8,06277,6645
8,06690,6233
8,07102,7351
8,07513,6577
8,07927,6989
8,08338,5991
8,08750,6293
8,09163,6572
8,09575,6284
8,09987,6466
8,10400,6330
8,10812,6312
8,11223,6340
8,11635,7581
8,12048,5968
8,12460,5807
8,12872,5598
8,13285,6366
8,13697,5796
8,14108,5956
8,14522,5749
8,14933,5122
8,15345,6427
8,15758,5682
8,16170,5775
8,16582,6255
8,16995,6298
8,17407,5802
8,17818,5491
8,18232,6314
8,18643,5309
8,19055,5762
8,19468,6416
8,19880,5716
8,20292,6369
8,20703,6246
8,21117,6308
8,21528,6447
8,21940,6478
8,22353,5874
8,22765,6718
8,23177,6868
8,23590,6906
8,24002,7020
8,24413,7537
8,24827,8069
8,25238,8383
8,25650,8595
8,26063,8591
8,26475,7394
8,26887,8061
8,27300,7724
8,27712,7848
8,28123,6662
8,28537,6241
8,28948,7620
8,29360,5705
8,29772,6215
8,30185,6279
8,30597,6245
8,31008,5826
8,31422,5835
8,31833,5821
8,32245,6260
8,32658,6031
8,33070,5778
8,33482,6058
8,33895,5787
8,34307,5270
8,34718,5260
8,35132,6051
8,35543,5489
8,35955,5743
8,36368,5769
8,36780,5217
8,37192,5847
8,37605,6313
8,38017,6023
8,38428,5856
8,38840,5179
8,39253,5719
8,39665,5631
8,40077,5803
8,40490,6642
8,40902,5578
8,41313,6051
8,41727,5799
8,42138,5742
8,42550,5432
8,42963,6082
8,43375,6172
8,43787,5446
8,44200,5280
8,44612,5497
8,45023,6174
8,45437,4560
8,45848,5761
8,46260,5464
8,46673,5476
8,47085,5590
8,47497,5698
8,47908,5160
8,48322,5621
8,48733,5480
8,49145,5384
8,49558,4808
8,49970,5676
8,50382,5135
8,50795,5435
8,51207,5362
8,51618,5753
8,52032,5167
8,52443,5333
8,52855,6147
8,53268,5456
8,53680,5158
8,54092,5344
8,54505,5295
8,54917,4969
8,55328,4736
8,55742,5761
8,56153,5603
8,56565,5428
8,56977,5039
8,57390,4482
8,57802,5015
8,58213,5128
8,58627,4696
8,59038,5424
8,59450,4963
8,59863,5019
8,60275,5234
8,60687,5042
8,61100,4752
8,61512,5571
8,61923,4771
8,62337,5479
8,62748,4799
8,63160,5108
8,63573,4945
8,63985,5521
8,64397,5286
8,64810,5599
8,65222,5014
8,65633,5753
8,66045,4936
8,66458,5350
8,66870,4974
8,67282,4704
8,67695,5003
8,68107,5001
8,68518,5144
8,68932,4844
8,69343,5041
8,69755,4963
8,70168,4583
8,70580,4552
8,70992,4704
8,71405,4701
8,71817,4787
8,72228,4733
8,72642,5743
8,73053,6770
8,73465,7481
8,73878,10089
8,74290,14591
8,74702,22545
8,75113,31289
8,75527,49354
8,75938,70232
8,76350,98324
8,76763,126679
8,77175,161534
8,77587,190715
8,78000,216206
8,78412,235834
8,78823,239448
8,79237,234905
8,79648,229970
8,80060,212155
8,80473,194182
8,80885,171577
8,81297,146880
8,81710,128806
8,82122,106227
8,82533,88154
8,82947,72499
8,83358,64485
8,83770,50768
8,84182,43803
8,84595,35840
8,85007,31610
8,85418,26556
8,85832,23155
8,86243,19805
8,86655,17982
8,87068,16167
8,87480,15545
8,87892,13282
8,88305,12594
8,88717,11758
8,89128,10971
8,89542,9563
8,89953,9343
8,90365,9769
8,90778,8654
8,91190,8654
8,91602,8261
8,92015,8496
8,92427,7274
8,92838,7166
8,93250,7925
8,93663,7381
8,94075,6812
8,94487,6699
8,94900,6968
8,95312,7129
8,95723,6301
8,96137,6266
8,96548,6369
8,96960,7112
8,97373,6461
8,97785,6404
8,98197,5533
8,98610,6025
8,99022,5583
8,99433,5152
8,99847,5768
9,00258,5861
9,00670,5891
9,01083,5099
9,01495,5027
9,01907,5512
9,02318,5196
9,02732,5419
9,03143,5577
9,03555,5186
9,03968,5295
9,04380,5005
9,04792,4644
9,05205,4928
9,05617,5389
9,06028,5211
9,06442,4576
9,06853,5378
9,07265,5398
9,07678,5760
9,08090,4916
9,08502,4719
9,08915,4791
9,09327,5138
9,09738,5250
9,10152,5250
9,10563,4736
9,10975,5081
9,11387,4841
9,11800,4773
9,12212,4714
9,12623,5183
9,13037,4216
9,13448,4296
9,13860,4633
9,14273,4548
9,14685,4598
9,15097,4397
9,15510,4214
9,15922,4943
9,16333,4635
9,16747,4567
9,17158,4436
9,17570,4653
9,17983,4240
9,18395,4335
9,18807,4664
9,19220,5443
9,19632,4481
9,20043,3931
9,20457,4158
9,20868,4070
9,21280,4888
9,21692,4365
9,22105,4682
9,22517,4594
9,22928,4295
9,23342,4261
9,23753,4060
9,24165,4082
9,24578,4514
9,24990,4253
9,25402,4248
9,25815,3938
9,26227,4198
9,26638,4375
9,27052,4558
9,27463,4999
9,27875,4911
9,28288,4504
9,28700,4907
9,29112,4564
9,29525,3633
9,29937,3760
9,30348,5045
9,30760,3974
9,31173,4995
9,31585,4702
9,31997,4904
9,32410,4415
9,32822,4514
9,33233,4303
9,33647,5306
9,34058,5350
9,34470,4932
9,34883,5774
9,35295,4959
9,35707,4433
9,36120,5535
9,36532,5952
9,36943,5553
9,37357,6488
9,37768,7575
9,38180,9445
9,38593,9978
9,39005,8926
9,39417,10174
9,39828,8637
9,40242,7554
9,40653,6362
9,41065,6001
9,41478,5484
9,41890,4618
9,42302,4230
9,42715,3662
9,43127,4048
9,43538,4343
9,43952,3837
9,44363,3818
9,44775,4121
9,45188,3837
9,45600,4072
9,46012,3706
9,46425,3681
9,46837,4327
9,47248,4046
9,47662,4116
9,48073,3780
9,48485,4019
9,48897,3803
9,49310,4386
9,49722,4032
9,50133,3859
9,50547,4247
9,50958,3941
9,51370,4293
9,51783,4149
9,52195,4574
9,52607,4137
9,53020,4645
9,53432,4270
9,53843,3982
9,54257,4654
9,54668,4424
9,55080,4474
9,55493,4049
9,55905,4206
9,56317,3811
9,56730,4041
9,57142,4229
9,57553,3951
9,57965,4034
9,58378,4542
9,58790,3930
9,59202,3999
9,59615,4608
9,60027,4047
9,60438,3690
9,60852,3375
9,61263,5230
9,61675,3578
9,62088,4367
9,62500,3683
9,62912,4266
9,63325,4169
9,63737,4255
9,64148,4036
9,64562,3814
9,64973,4235
9,65385,3768
9,65798,4099
9,66210,3841
9,66622,3999
9,67033,4180
9,67447,3982
9,67858,3771
9,68270,3655
9,68683,4087
9,69095,3970
9,69507,3474
9,69920,4266
9,70332,4024
9,70743,3728
9,71157,4000
9,71568,3808
9,71980,4444
9,72393,3937
9,72805,4089
9,73217,3935
9,73630,3603
9,74042,4117
9,74453,3880
9,74867,3658
9,75278,3558
9,75690,3628
9,76102,3114
9,76515,4085
9,76927,3753
9,77338,3667
9,77752,4051
9,78163,3508
9,78575,3815
9,78988,3891
9,79400,3833
9,79812,3566
9,80225,3378
9,80637,3878
9,81048,4036
9,81462,3785
9,81873,4083
9,82285,4284
9,82698,4161
9,83110,3947
9,83522,3843
9,83935,4224
9,84347,3891
9,84758,4138
9,85170,3674
9,85583,3270
9,85995,4103
9,86407,4362
9,86820,4182
9,87232,3892
9,87643,4505
9,88057,4065
9,88468,4771
9,88880,4041
9,89293,4655
9,89705,4397
9,90117,4683
9,90530,4341
9,90942,4215
9,91353,5314
9,91767,4628
9,92178,4906
9,92590,5313
9,93003,4456
9,93415,3985
9,93827,4176
9,94238,4419
9,94652,3850
9,95063,4041
9,95475,4142
9,95888,3780
9,96300,4119
9,96712,5305
9,97125,5597
9,97537,6466
9,97948,6745
9,98362,7513
9,98773,7504
9,99185,8721
9,99598,9009
10,00010,8978
10,00422,9196
10,00835,7868
10,01247,7398
10,01658,7908
10,02072,8002
10,02483,7152
10,02895,5898
10,03307,5190
10,03720,5885
10,04132,5048
10,04543,4703
10,04957,4241
10,05368,4073
10,05780,4487
10,06193,4177
10,06605,3724
10,07017,4158
10,07430,4047
10,07842,3226
10,08253,3457
10,08667,4059
10,09078,4195
10,09490,4337
10,09903,4751
10,10315,3462
10,10727,3875
10,11140,3847
10,11552,4157
10,11963,3993
10,12375,4032
10,12788,3659
10,13200,3919
10,13612,3527
10,14025,3658
10,14437,3467
10,14848,3254
10,15262,4485
10,15673,4261
10,16085,3509
10,16498,3556
10,16910,3719
10,17322,3739
10,17735,3572
10,18147,3864
10,18558,3980
10,18972,4881
10,19383,4248
10,19795,4589
10,20208,5726
10,20620,4511
10,21032,4767
10,21443,4209
10,21857,4378
10,22268,3974
10,22680,3943
10,23093,3450
10,23505,3443
10,23917,3627
10,24330,3607
10,24742,3869
10,25153,4160
10,25567,4021
10,25978,4021
10,26390,3576
10,26803,3450
10,27215,4011
10,27627,3812
10,28040,3638
10,28452,4262
10,28863,3201
10,29277,3282
10,29688,2810
10,30100,3409
10,30512,3868
10,30925,3518
10,31337,3598
10,31748,3323
10,32162,3660
10,32573,3632
10,32985,3989
10,33398,3365
10,33810,3710
10,34222,3625
10,34635,3221
10,35047,3388
10,35458,3522
10,35872,3492
10,36283,3969
10,36695,3725
10,37108,4290
10,37520,4227
10,37932,3119
10,38345,3976
10,38757,2730
10,39168,3992
10,39580,3253
10,39993,3240
10,40405,3678
10,40817,3578
10,41230,3532
10,41642,3924
10,42053,3709
10,42467,3859
10,42878,4268
10,43290,3260
10,43703,3078
10,44115,3340
10,44527,2842
10,44940,3721
10,45352,3448
10,45763,3900
10,46177,3766
10,46588,2535
10,47000,3729
10,47413,3462
10,47825,3858
10,48237,3518
10,48648,2743
10,49062,3919
10,49473,3430
10,49885,3824
10,50298,3436
10,50710,3177
10,51122,3552
10,51535,3473
10,51947,2848
10,52358,3963
10,52772,2945
10,53183,3881
10,53595,3434
10,54008,3807
10,54420,3843
10,54832,3454
10,55245,3730
10,55657,3446
10,56068,4163
10,56482,3790
10,56893,3435
10,57305,4202
10,57717,3906
10,58130,4895
10,58542,4075
10,58953,4206
10,59367,4890
10,59778,4337
10,60190,4821
10,60603,3834
10,61015,4143
10,61427,4083
10,61840,3873
10,62252,4360
10,62663,3439
10,63077,4556
10,63488,3232
10,63900,3372
10,64313,3056
10,64725,3188
10,65137,3394
10,65550,3345
10,65962,2862
10,66373,3182
10,66785,3497
10,67198,3125
10,67610,3528
10,68022,3324
10,68435,3184
10,68847,2933
10,69258,2836
10,69672,3170
10,70083,3192
10,70495,3433
10,70908,3721
10,71320,3353
10,71732,3354
10,72145,4063
10,72557,3578
10,72968,4023
10,73382,3840
10,73793,3455
10,74205,3428
10,74618,4071
10,75030,3746
10,75442,3195
10,75853,3394
10,76267,3653
10,76678,3510
10,77090,3234
10,77503,2865
10,77915,3105
10,78327,3617
10,78740,3556
10,79152,3043
10,79563,3303
10,79977,3190
10,80388,3449
10,80800,2961
10,81213,2887
10,81625,3087
10,82037,3229
10,82450,3922
10,82862,3135
10,83273,3115
10,83687,3469
10,84098,3169
10,84510,3448
10,84923,3124
10,85335,3431
10,85747,3178
10,86158,3624
10,86572,3120
10,86983,4064
10,87395,3859
10,87808,4384
10,88220,3406
10,88632,4035
10,89045,4005
10,89457,4892
10,89868,3961
10,90282,3552
10,90693,3462
10,91105,3601
10,91518,3918
10,91930,3470
10,92342,3389
10,92755,3709
10,93167,4223
10,93578,4212
10,93992,3531
10,94403,4404
10,94815,3880
10,95227,3989
10,95640,4533
10,96052,3820
10,96463,3301
10,96877,3880
10,97288,3676
10,97700,3204
10,98113,4201
10,98525,4922
10,98937,6275
10,99350,11671
10,99762,21377
11,00173,40319
11,00587,76398
11,00998,134985
11,01410,216413
11,01823,335147
11,02235,483083
11,02647,656856
11,03060,833078
11,03472,984065
11,03883,1108179
11,04295,1186068
11,04708,1187369
11,05120,1135087
11,05532,1039166
11,05945,911660
11,06357,768957
11,06768,630511
11,07182,501292
11,07593,396829
11,08005,316598
11,08418,248261
11,08830,195831
11,09242,158263
11,09655,129932
11,10067,106182
11,10478,89476
11,10892,74417
11,11303,63822
11,11715,57776
11,12128,47976
11,12540,43756
11,12952,40334
11,13363,33657
11,13777,32602
11,14188,29215
11,14600,26034
11,15013,23676
11,15425,20805
11,15837,20919
11,16250,20093
11,16662,16563
11,17073,16274
11,17487,14596
11,17898,14126
11,18310,12366
11,18723,14192
11,19135,12629
11,19547,12055
11,19960,10725
11,20372,10301
11,20783,8889
11,21197,9925
11,21608,9646
11,22020,9635
11,22432,8701
11,22845,8576
11,23257,8376
11,23668,7872
11,24082,7740
11,24493,7613
11,24905,7112
11,25318,7313
11,25730,6372
11,26142,6587
11,26555,6112
11,26967,6648
11,27378,5434
11,27792,5896
11,28203,5641
11,28615,5243
11,29028,5505
11,29440,6472
11,29852,5653
11,30265,5885
11,30677,5568
11,31088,5832
11,31500,6146
11,31913,6375
11,32325,5824
11,32737,5020
11,33150,5559
11,33562,4606
11,33973,4911
11,34387,4859
11,34798,4560
11,35210,4084
11,35623,4322
11,36035,4453
11,36447,4318
11,36860,4759
11,37272,4370
11,37683,4474
11,38097,3976
11,38508,3586
11,38920,3363
11,39333,3518
11,39745,3675
11,40157,3762
11,40568,3816
11,40982,4187
11,41393,3625
11,41805,3615
11,42218,3570
11,42630,3166
11,43042,3374
11,43455,4374
11,43867,4372
11,44278,3370
11,44692,3881
11,45103,3582
11,45515,3147
11,45928,3472
11,46340,3437
11,46752,3765
11,47165,3740
11,47577,3211
11,47988,2854
11,48402,2993
11,48813,2814
11,49225,3021
11,49637,4087
11,50050,3322
11,50462,4182
11,50873,4251
11,51287,4315
11,51698,3772
11,52110,3696
11,52523,3640
11,52935,4016
11,53347,3508
11,53760,4445
11,54172,3586
11,54583,4289
11,54997,4076
11,55408,4057
11,55820,3103
11,56233,3448
11,56645,3713
11,57057,3950
11,57470,3477
11,57882,3550
11,58293,3441
11,58705,3325
11,59118,3533
11,59530,4181
11,59942,3354
11,60355,3649
11,60767,3416
11,61178,3605
11,61592,2996
11,62003,3397
11,62415,3031
11,62828,4270
11,63240,3817
11,63652,2939
11,64065,3699
11,64477,3073
11,64888,3260
11,65302,2614
11,65713,2974
11,66125,2495
11,66538,3368
11,66950,2912
11,67362,3309
11,67773,3349
11,68187,4136
11,68598,5305
11,69010,7129
11,69423,7680
11,69835,8351
11,70247,8264
11,70660,7453
11,71072,6215
11,71483,5545
11,71897,3576
11,72308,3887
11,72720,4053
11,73133,3330
11,73545,3408
11,73957,3608
11,74370,2894
11,74782,2897
11,75193,3367
11,75607,2856
11,76018,2753
11,76430,2822
11,76842,2458
11,77255,2930
11,77667,3198
11,78078,2778
11,78492,3232
11,78903,2997
11,79315,2603
11,79728,3294
11,80140,3213
11,80552,2841
11,80965,3241
11,81377,2715
11,81788,3724
11,82202,3319
11,82613,3308
11,83025,2994
11,83438,3301
11,83850,3331
11,84262,2965
11,84675,3055
11,85087,2532
11,85498,2895
11,85910,3266
11,86323,3423
11,86735,3818
11,87147,2740
11,87560,2963
11,87972,2974
11,88383,3347
11,88797,3178
11,89208,3100
11,89620,3762
11,90033,2818
11,90445,3755
11,90857,2869
11,91270,3359
11,91682,3622
11,92093,3092
11,92507,2771
11,92918,2809
11,93330,2667
11,93743,3516
11,94155,2540
11,94567,3520
11,94978,2968
11,95392,2751
11,95803,3040
11,96215,2791
11,96628,2413
11,97040,2620
11,97452,2376
11,97865,2504
11,98277,2902
11,98688,2796
11,99102,2723
11,99513,3311
11,99925,3183
12,00338,3321
12,00750,3707
12,01162,2911
12,01575,2966
12,01987,2929
12,02398,3198
12,02812,3541
12,03223,3108
12,03635,3529
12,04047,3250
12,04460,3443
12,04872,3262
12,05283,2620
12,05697,2432
12,06108,3595
12,06520,2564
12,06933,3149
12,07345,2738
12,07757,3040
12,08170,3522
12,08582,2771
12,08993,2628
12,09407,3135
12,09818,2450
12,10230,2838
12,10643,4751
12,11055,5888
12,11467,10447
12,11880,17906
12,12292,33755
12,12703,61116
12,13115,104625
12,13528,173521
12,13940,265359
12,14352,370976
12,14765,498231
12,15177,606442
12,15588,695685
12,16002,758358
12,16413,781934
12,16825,753097
12,17238,681074
12,17650,595888
12,18062,501839
12,18475,413108
12,18887,322212
12,19298,258601
12,19712,203797
12,20123,155451
12,20535,123542
12,20948,99587
12,21360,80567
12,21772,66869
12,22183,54198
12,22597,48351
12,23008,40665
12,23420,34795
12,23833,29384
12,24245,28014
12,24657,24926
12,25070,21702
12,25482,20365
12,25893,18542
12,26307,17957
12,26718,14312
12,27130,13315
12,27543,13770
12,27955,12785
12,28367,12107
12,28780,11038
12,29192,10324
12,29603,9416
12,30017,8859
12,30428,8767
12,30840,8714
12,31252,7707
12,31665,7481
12,32077,7653
12,32488,6103
12,32902,7753
12,33313,6287
12,33725,6220
12,34138,6418
12,34550,5188
12,34962,6039
12,35375,6479
12,35787,5684
12,36198,5972
12,36612,4830
12,37023,3879
12,37435,5282
12,37848,4260
12,38260,3935
12,38672,4660
12,39085,4448
12,39497,4050
12,39908,3790
12,40320,3778
12,40733,4099
12,41145,3561
12,41557,4616
12,41970,4016
12,42382,4509
12,42793,4066
12,43207,3736
12,43618,3776
12,44030,4211
12,44443,4530
12,44855,3908
12,45267,3733
12,45680,3610
12,46092,4121
12,46503,4086
12,46917,3220
12,47328,3236
12,47740,3076
12,48153,3403
12,48565,3016
12,48977,3321
12,49390,3292
12,49802,3077
12,50213,2777
12,50625,3548
12,51038,3545
12,51450,2911
12,51862,3575
12,52275,3046
12,52687,3806
12,53098,2946
12,53512,2953
12,53923,2966
12,54335,2551
12,54748,3168
12,55160,3442
12,55572,4073
12,55985,3225
12,56397,4444
12,56808,4144
12,57222,4414
12,57633,5179
12,58045,5190
12,58458,5191
12,58870,6926
12,59282,5739
12,59693,6027
12,60107,5423
12,60518,5474
12,60930,3907
12,61343,3843
12,61755,3785
12,62167,3135
12,62580,3043
12,62992,3537
12,63403,3464
12,63817,3489
12,64228,3273
12,64640,2431
12,65053,3099
12,65465,3446
12,65877,3253
12,66290,2831
12,66702,2110
12,67113,2799
12,67527,2690
12,67938,2862
12,68350,2595
12,68762,3233
12,69175,3081
12,69587,2862
12,69998,2204
12,70412,3104
12,70823,2546
12,71235,3226
12,71648,2893
12,72060,2966
12,72472,3149
12,72885,2554
12,73297,2968
12,73708,3382
12,74122,2650
12,74533,2664
12,74945,2609
12,75358,2653
12,75770,3032
12,76182,2627
12,76595,3288
12,77007,2563
12,77418,2447
12,77830,2412
12,78243,2916
12,78655,2467
12,79067,3018
12,79480,2675
12,79892,2540
12,80303,2764
12,80717,2930
12,81128,2736
12,81540,2162
12,81953,2987
12,82365,2689
12,82777,3363
12,83190,1607
12,83602,2279
12,84013,1925
12,84427,2014
12,84838,2966
12,85250,2814
12,85663,2480
12,86075,1699
12,86487,2206
12,86898,2336
12,87312,2273
12,87723,2431
12,88135,2585
12,88548,2249
12,88960,2571
12,89372,2168
12,89785,2587
12,90197,2353
12,90608,1515
12,91022,2729
12,91433,2630
12,91845,2429
12,92258,2248
12,92670,2074
12,93082,2789
12,93495,2321
12,93907,2978
12,94318,2080
12,94732,1904
12,95143,2917
12,95555,2120
12,95967,2667
12,96380,2692
12,96792,2302
12,97203,2635
12,97617,2332
12,98028,2599
12,98440,3047
12,98853,2921
12,99265,2482
12,99677,2363
13,00090,2721
13,00502,2801
13,00913,2552
13,01327,3540
13,01738,3278
13,02150,3066
13,02563,3786
13,02975,3799
13,03387,3810
13,03800,3758
13,04212,4063
13,04623,4564
13,05035,4089
13,05448,3341
13,05860,3448
13,06272,3012
13,06685,3721
13,07097,2459
13,07508,3314
13,07922,2938
13,08333,3489
13,08745,3499
13,09158,2796
13,09570,2397
13,09982,2764
13,10395,2427
13,10807,2961
13,11218,2526
13,11632,2636
13,12043,2008
13,12455,2277
13,12868,1953
13,13280,2129
13,13692,2367
13,14103,1975
13,14517,2055
13,14928,2412
13,15340,1984
13,15753,2221
13,16165,2322
13,16577,2471
13,16990,2367
13,17402,1699
13,17813,2413
13,18227,2623
13,18638,3059
13,19050,3530
13,19463,7362
13,19875,16885
13,20287,32199
13,20700,65777
13,21112,127236
13,21523,227331
13,21937,379332
13,22348,571836
13,22760,822305
13,23172,1101599
13,23585,1381981
13,23997,1619774
13,24408,1777944
13,24822,1840395
13,25233,1805252
13,25645,1645500
13,26058,1421552
13,26470,1168234
13,26882,916259
13,27295,713695
13,27707,548216
13,28118,417519
13,28532,316289
13,28943,254251
13,29355,199166
13,29768,156722
13,30180,129115
13,30592,106706
13,31005,90614
13,31417,76415
13,31828,64948
13,32240,57513
13,32653,51470
13,33065,41719
13,33477,39667
13,33890,36321
13,34302,32152
13,34713,29160
13,35127,26785
13,35538,24805
13,35950,22730
13,36363,20311
13,36775,19450
13,37187,18153
13,37600,16135
13,38012,14539
13,38423,14377
13,38837,14581
13,39248,13490
13,39660,12039
13,40073,12058
13,40485,12044
13,40897,11074
13,41308,9845
13,41722,9493
13,42133,8822
13,42545,8029
13,42958,8433
13,43370,7771
13,43782,7640
13,44195,6844
13,44607,7983
13,45018,6517
13,45432,6232
13,45843,6018
13,46255,6237
13,46668,6366
13,47080,5934
13,47492,5396
13,47905,5411
13,48317,4797
13,48728,5282
13,49142,4933
13,49553,5064
13,49965,4762
13,50377,4739
13,50790,5179
13,51202,4727
13,51613,4531
13,52027,3807
13,52438,3590
13,52850,3433
13,53263,4907
13,53675,3829
13,54087,3671
13,54500,3798
13,54912,3958
13,55323,3526
13,55737,3758
13,56148,3242
13,56560,3087
13,56973,2852
13,57385,3428
13,57797,3501
13,58210,2975
13,58622,3559
13,59033,3749
13,59445,3404
13,59858,3346
13,60270,3326
13,60682,3168
13,61095,3239
13,61507,3650
13,61918,3387
13,62332,3585
13,62743,3521
13,63155,2995
13,63568,2675
13,63980,3171
13,64392,2734
13,64805,3622
13,65217,2903
13,65628,2680
13,66042,2665
13,66453,2725
13,66865,3357
13,67278,2630
13,67690,2359
13,68102,2577
13,68513,2914
13,68927,2457
13,69338,2637
13,69750,2697
13,70163,2579
13,70575,2671
13,70987,3009
13,71400,3417
13,71812,3559
13,72223,5115
13,72637,5383
13,73048,6640
13,73460,8021
13,73873,9841
13,74285,9874
13,74697,13334
13,75110,14407
13,75522,15382
13,75933,15723
13,76347,16963
13,76758,15500
13,77170,14870
13,77582,13461
13,77995,11898
13,78407,10661
13,78818,9154
13,79232,9191
13,79643,7500
13,80055,6092
13,80468,5012
13,80880,5020
13,81292,5042
13,81705,5278
13,82117,5795
13,82528,6716
13,82942,8040
13,83353,8952
13,83765,7025
13,84178,6346
13,84590,5183
13,85002,3738
13,85415,2488
13,85827,2040
13,86238,1916
13,86650,2995
13,87063,2339
13,87475,2341
13,87887,2091
13,88300,2065
13,88712,1793
13,89123,2415
13,89537,1825
13,89948,2399
13,90360,2795
13,90773,2515
13,91185,2932
13,91597,2083
13,92010,2129
13,92422,2355
13,92833,2062
13,93247,3328
13,93658,1988
13,94070,1991
13,94483,2147
13,94895,2592
13,95307,1965
13,95718,2196
13,96132,2683
13,96543,2539
13,96955,2301
13,97368,2362
13,97780,2166
13,98192,1964
13,98605,1988
13,99017,2536
13,99428,1956
13,99842,2114
14,00253,1704
14,00665,1328
14,01078,1689
14,01490,1893
14,01902,2127
14,02315,1750
14,02727,1835
14,03138,2148
14,03552,1962
14,03963,1705
14,04375,1746
14,04788,1481
14,05200,2434
14,05612,1691
14,06023,1919
14,06437,2411
14,06848,2215
14,07260,1999
14,07673,2440
14,08085,1955
14,08497,1903
14,08910,1302
14,09322,1942
14,09733,2057
14,10147,2284
14,10558,2465
14,10970,1364
14,11383,1600
14,11795,1791
14,12207,1930
14,12620,1738
14,13032,1467
14,13443,1824
14,13857,1738
14,14268,1854
14,14680,2172
14,15092,1984
14,15505,1867
14,15917,1548
14,16328,1686
14,16742,1502
14,17153,1296
14,17565,1446
14,17978,2031
14,18390,2163
14,18802,1696
14,19215,2173
14,19627,2261
14,20038,2538
14,20452,2356
14,20863,2135
14,21275,1797
14,21688,2559
14,22100,2579
14,22512,2128
14,22925,3232
14,23337,5753
14,23748,11013
14,24160,21569
14,24573,44397
14,24985,82519
14,25397,145085
14,25810,240215
14,26222,368554
14,26633,526578
14,27047,694955
14,27458,840164
14,27870,958429
14,28283,1018791
14,28695,1014252
14,29107,944578
14,29520,829789
14,29932,699635
14,30343,567183
14,30757,440279
14,31168,336758
14,31580,254124
14,31993,195019
14,32405,147586
14,32817,116757
14,33228,94854
14,33642,78391
14,34053,61669
14,34465,50637
14,34878,42974
14,35290,35933
14,35702,32620
14,36115,27100
14,36527,25391
14,36938,22301
14,37352,19130
14,37763,18626
14,38175,16386
14,38588,14440
14,39000,12931
14,39412,13406
14,39825,12081
14,40237,10924
14,40648,9003
14,41062,8080
14,41473,9206
14,41885,6818
14,42297,7230
14,42710,7088
14,43122,6801
14,43533,6591
14,43947,6277
14,44358,5328
14,44770,5389
14,45183,5011
14,45595,4855
14,46007,4923
14,46420,4013
14,46832,4627
14,47243,3982
14,47657,3919
14,48068,4277
14,48480,3729
14,48893,3850
14,49305,3934
14,49717,3500
14,50130,3802
14,50542,3515
14,50953,4139
14,51365,3373
14,51778,3316
14,52190,3031
14,52602,2548
14,53015,2737
14,53427,2257
14,53838,2160
14,54252,2823
14,54663,3110
14,55075,3029
14,55488,2572
14,55900,2974
14,56312,2433
14,56725,2425
14,57137,2294
14,57548,2160
14,57962,2064
14,58373,3016
14,58785,2624
14,59198,2205
14,59610,2072
14,60022,2149
14,60433,2035
14,60847,2253
14,61258,1948
14,61670,2125
14,62083,2068
14,62495,2021
14,62907,2188
14,63320,1748
14,63732,1788
14,64143,1861
14,64557,1428
14,64968,2099
14,65380,1809
14,65793,1173
14,66205,2270
14,66617,2160
14,67030,1318
14,67442,1615
14,67853,1213
14,68267,1732
14,68678,2485
14,69090,1060
14,69502,2281
14,69915,1320
14,70327,980
14,70738,1539
14,71152,1901
14,71563,1345
14,71975,1423
14,72388,1711
14,72800,1319
14,73212,1462
14,73625,1409
14,74037,1807
14,74448,1270
14,74862,2146
14,75273,1933
14,75685,2168
14,76098,2639
14,76510,3006
14,76922,3344
14,77335,4740
14,77747,4736
14,78158,5343
14,78570,5284
14,78983,6076
14,79395,5911
14,79807,5184
14,80220,4713
14,80632,3889
14,81043,3107
14,81457,3516
14,81868,3070
14,82280,2644
14,82693,2824
14,83105,2427
14,83517,2899
14,83930,4375
14,84342,5085
14,84753,4043
14,85167,4722
14,85578,5511
14,85990,5582
14,86403,4962
14,86815,5314
14,87227,5159
14,87638,4317
14,88052,3493
14,88463,3477
14,88875,3161
14,89288,2748
14,89700,2228
14,90112,2485
14,90525,2621
14,90937,2075
14,91348,2058
14,91762,1527
14,92173,1665
14,92585,1676
14,92998,2061
14,93410,1642
14,93822,1399
14,94235,1900
14,94647,1933
14,95058,1847
14,95472,2282
14,95883,2153
14,96295,2010
14,96707,1977
14,97120,1995
14,97532,2474
14,97943,1825
14,98357,1658
14,98768,1905
14,99180,1584
14,99593,1773
15,00005,1051
15,00417,1286
15,00830,1396
15,01242,1555
15,01653,1312
15,02067,1534
15,02478,1563
15,02890,1479
15,03303,1650
15,03715,2043
15,04127,2330
15,04540,2191
15,04952,2101
15,05363,2033
15,05775,1376
15,06188,2161
15,06600,2369
15,07012,1727
15,07425,2095
15,07837,2014
15,08248,1792
15,08662,1846
15,09073,1236
15,09485,1636
15,09898,1968
15,10310,1222
15,10722,1741
15,11135,1366
15,11547,1805
15,11958,2509
15,12372,1692
15,12783,1537
15,13195,1492
15,13608,970
15,14020,1755
15,14432,1989
15,14843,1784
15,15257,1237
15,15668,1522
15,16080,1210
15,16493,1324
15,16905,1008
15,17317,1480
15,17730,1512
15,18142,1413
15,18553,1086
15,18967,2149
15,19378,2406
15,19790,3008
15,20203,5231
15,20615,5948
15,21027,7189
15,21440,7847
15,21852,9927
15,22263,11665
15,22677,15752
15,23088,23388
15,23500,40043
15,23912,73197
15,24325,136536
15,24737,242045
15,25148,412536
15,25562,643191
15,25973,935320
15,26385,1272485
15,26798,1606354
15,27210,1929117
15,27622,2173386
15,28035,2273913
15,28447,2225010
15,28858,2039723
15,29272,1751045
15,29683,1426367
15,30095,1107013
15,30508,845680
15,30920,628732
15,31332,470387
15,31745,354802
15,32157,266349
15,32568,209698
15,32980,165268
15,33393,135224
15,33805,112307
15,34217,93976
15,34630,79232
15,35042,68369
15,35453,60342
15,35867,54566
15,36278,49112
15,36690,44057
15,37103,41629
15,37515,40331
15,37927,36325
15,38340,36701
15,38752,34257
15,39163,30583
15,39577,28645
15,39988,26458
15,40400,23137
15,40813,21715
15,41225,19469
15,41637,18337
15,42048,15540
15,42462,15190
15,42873,13970
15,43285,12569
15,43698,12166
15,44110,10262
15,44522,9984
15,44935,8981
15,45347,9110
15,45758,8683
15,46172,7904
15,46583,7119
15,46995,7120
15,47408,6590
15,47820,7104
15,48232,6319
15,48645,6221
15,49057,5409
15,49468,5020
15,49882,4507
15,50293,4732
15,50705,4987
15,51117,5176
15,51530,3735
15,51942,4678
15,52353,3538
15,52767,4235
15,53178,4081
15,53590,3652
15,54003,3627
15,54415,2936
15,54827,3312
15,55240,3458
15,55652,3298
15,56063,3680
15,56477,3066
15,56888,3576
15,57300,2917
15,57713,3505
15,58125,3423
15,58537,2794
15,58950,3841
15,59362,3732
15,59773,2759
15,60185,2924
15,60598,3513
15,61010,2591
15,61422,3531
15,61835,3527
15,62247,2365
15,62658,2615
15,63072,2343
15,63483,2041
15,63895,2796
15,64308,2574
15,64720,2178
15,65132,1659
15,65545,2198
15,65957,1736
15,66368,1901
15,66782,1450
15,67193,2048
15,67605,1979
15,68018,1284
15,68430,1987
15,68842,2035
15,69253,2169
15,69667,1689
15,70078,1502
15,70490,1801
15,70903,1435
15,71315,1796
15,71727,2083
15,72140,1769
15,72552,2293
15,72963,2630
15,73377,3556
15,73788,3287
15,74200,4642
15,74613,6205
15,75025,7322
15,75437,8708
15,75850,9682
15,76262,8571
15,76673,6015
15,77087,6192
15,77498,4207
15,77910,3831
15,78323,2765
15,78735,2862
15,79147,2382
15,79558,1483
15,79972,1853
15,80383,1636
15,80795,1831
15,81208,1907
15,81620,2086
15,82032,1511
15,82445,1384
15,82857,1316
15,83268,1541
15,83682,1773
15,84093,1545
15,84505,1709
15,84918,1096
15,85330,1777
15,85742,1601
15,86155,1762
15,86567,1476
15,86978,1445
15,87392,1407
15,87803,1469
15,88215,1592
15,88627,1548
15,89040,1769
15,89452,2917
15,89863,4928
15,90277,12260
15,90688,24093
15,91100,50432
15,91513,92101
15,91925,162444
15,92337,272827
15,92750,416924
15,93162,582198
15,93573,746093
15,93987,887017
15,94398,1007490
15,94810,1054079
15,95223,1019177
15,95635,935870
15,96047,811087
15,96460,676155
15,96872,539645
15,97283,415569
15,97695,319504
15,98108,243408
15,98520,183971
15,98932,143790
15,99345,113195
15,99757,89389
16,00168,74902
16,00582,60886
16,00993,52511
16,01405,44782
16,01818,38167
16,02230,32407
16,02642,28245
16,03055,24039
16,03467,20785
16,03878,21911
16,04292,17941
16,04703,16010
16,05115,14389
16,05528,13030
16,05940,11556
16,06352,10218
16,06763,10836
16,07177,9554
16,07588,7207
16,08000,8119
16,08413,6937
16,08825,7358
16,09237,5934
16,09650,6063
16,10062,6440
16,10473,6820
16,10887,4320
16,11298,4545
16,11710,4151
16,12123,3851
16,12535,3834
16,12947,4202
16,13360,3758
16,13772,3584
16,14183,4079
16,14597,3506
16,15008,3328
16,15420,2267
16,15832,2815
16,16245,2495
16,16657,2555
16,17068,3712
16,17482,6014
16,17893,11455
16,18305,24948
16,18718,52285
16,19130,98490
16,19542,179631
16,19955,290506
16,20367,435633
16,20778,615609
16,21192,804712
16,21603,987758
16,22015,1125582
16,22428,1195292
16,22840,1172495
16,23252,1070231
16,23665,927595
16,24077,752103
16,24488,587356
16,24900,443321
16,25313,333435
16,25725,252055
16,26137,189988
16,26550,146647
16,26962,111451
16,27373,91280
16,27787,71305
16,28198,56900
16,28610,50593
16,29023,42299
16,29435,35897
16,29847,31701
16,30260,28925
16,30672,26561
16,31083,23188
16,31497,19567
16,31908,18583
16,32320,16604
16,32733,15255
16,33145,14660
16,33557,13051
16,33968,11844
16,34382,11157
16,34793,10581
16,35205,8945
16,35618,8761
16,36030,7626
16,36442,7147
16,36855,7691
16,37267,7522
16,37678,7424
16,38092,6542
16,38503,5224
16,38915,5857
16,39328,5551
16,39740,4760
16,40152,4645
16,40565,4443
16,40977,3165
16,41388,4478
16,41802,4195
16,42213,4242
16,42625,3128
16,43037,3642
16,43450,3545
16,43862,3426
16,44273,3423
16,44687,2988
16,45098,2939
16,45510,2229
16,45923,2723
16,46335,2863
16,46747,2582
16,47160,2478
16,47572,2956
16,47983,2273
16,48397,1916
16,48808,2540
16,49220,2015
16,49633,2196
16,50045,2170
16,50457,2646
16,50870,2010
16,51282,1883
16,51693,2564
16,52105,2140
16,52518,2273
16,52930,2543
16,53342,2301
16,53755,2629
16,54167,2269
16,54578,2159
16,54992,2244
16,55403,2374
16,55815,2386
16,56228,2219
16,56640,2159
16,57052,2500
16,57465,2632
16,57877,3403
16,58288,3447
16,58702,3003
16,59113,3468
16,59525,3361
16,59938,2673
16,60350,3436
16,60762,3230
16,61173,2692
16,61587,3195
16,61998,2077
16,62410,1959
16,62823,2252
16,63235,1670
16,63647,1807
16,64060,1947
16,64472,2188
16,64883,2182
16,65297,3077
16,65708,2114
16,66120,1830
16,66533,2504
16,66945,2293
16,67357,1584
16,67770,2437
16,68182,1960
16,68593,1477
16,69007,2097
16,69418,982
16,69830,1936
16,70242,2698
16,70655,2237
16,71067,2403
16,71478,1895
16,71892,2614
16,72303,2220
16,72715,1895
16,73128,2405
16,73540,2513
16,73952,2921
16,74365,1781
16,74777,2115
16,75188,1887
16,75602,2271
16,76013,2081
16,76425,1550
16,76838,2251
16,77250,1893
16,77662,1871
16,78075,1737
16,78487,1946
16,78898,2090
16,79310,984
16,79723,1968
16,80135,1711
16,80547,1121
16,80960,1232
16,81372,1532
16,81783,1434
16,82197,2589
16,82608,3399
16,83020,7519
16,83433,18257
16,83845,35779
16,84257,69762
16,84670,129275
16,85082,216500
16,85493,349175
16,85907,504384
16,86318,683193
16,86730,868459
16,87143,1011398
16,87555,1103796
16,87967,1106434
16,88378,1063622
16,88792,960181
16,89203,818964
16,89615,655959
16,90028,507931
16,90440,393195
16,90852,292518
16,91265,218250
16,91677,170552
16,92088,130059
16,92502,106249
16,92913,84747
16,93325,69590
16,93738,54814
16,94150,49592
16,94562,40967
16,94975,38010
16,95387,30638
16,95798,28647
16,96212,25648
16,96623,23097
16,97035,18162
16,97447,16589
16,97860,14586
16,98272,13979
16,98683,14017
16,99097,11620
16,99508,9999
16,99920,10825
17,00333,9210
17,00745,8522
17,01157,6879
17,01570,6808
17,01982,7092
17,02393,7022
17,02807,5959
17,03218,6629
17,03630,5194
17,04043,5482
17,04455,4892
17,04867,3959
17,05280,2979
17,05692,3711
17,06103,3957
17,06515,3822
17,06928,4072
17,07340,4696
17,07752,6621
17,08165,10456
17,08577,24036
17,08988,48095
17,09402,92889
17,09813,178177
17,10225,314207
17,10638,513222
17,11050,781397
17,11462,1113664
17,11875,1522207
17,12287,1988533
17,12698,2514015
17,13112,3013855
17,13523,3441165
17,13935,3666634
17,14348,3669726
17,14760,3397421
17,15172,2947641
17,15583,2361866
17,15997,1805123
17,16408,1344639
17,16820,968162
17,17233,701990
17,17645,517255
17,18057,397645
17,18470,307124
17,18882,247254
17,19293,202816
17,19707,166211
17,20118,141909
17,20530,121883
17,20943,106260
17,21355,91584
17,21767,80355
17,22180,72017
17,22592,63796
17,23003,59591
17,23417,52801
17,23828,48336
17,24240,42152
17,24652,41108
17,25065,35449
17,25477,30655
17,25888,31096
17,26302,29699
17,26713,25831
17,27125,24253
17,27538,23332
17,27950,22556
17,28362,19895
17,28775,19516
17,29187,17865
17,29598,17186
17,30012,15163
17,30423,15117
17,30835,12978
17,31248,14418
17,31660,12948
17,32072,12345
17,32485,12567
17,32897,11619
17,33308,11017
17,33720,9801
17,34133,8959
17,34545,10074
17,34957,9119
17,35370,8449
17,35782,8623
17,36193,6802
17,36607,7594
17,37018,7808
17,37430,5798
17,37843,6527
17,38255,7600
17,38667,6394
17,39080,5131
17,39492,4827
17,39903,6281
17,40317,5067
17,40728,4968
17,41140,4520
17,41553,5175
17,41965,4202
17,42377,4340
17,42790,4006
17,43202,3921
17,43613,3809
17,44025,4302
17,44438,3910
17,44850,4019
17,45262,4095
17,45675,4470
17,46087,5083
17,46498,4636
17,46912,5296
17,47323,5131
17,47735,5053
17,48148,4161
17,48560,4889
17,48972,5325
17,49385,3131
17,49797,2948
17,50208,4029
17,50622,4079
17,51033,3274
17,51445,3167
17,51858,3343
17,52270,3716
17,52682,2680
17,53093,3078
17,53507,2849
17,53918,3602
17,54330,3320
17,54743,3952
17,55155,6940
17,55567,9157
17,55980,9970
17,56392,11416
17,56803,11135
17,57217,9115
17,57628,7578
17,58040,5352
17,58453,3998
17,58865,5096
17,59277,4126
17,59690,4846
17,60102,6479
17,60513,11080
17,60927,23600
17,61338,44738
17,61750,88889
17,62162,154078
17,62575,262383
17,62987,403255
17,63398,582882
17,63812,769386
17,64223,943878
17,64635,1086580
17,65048,1143290
17,65460,1128649
17,65872,1051162
17,66285,931916
17,66697,773037
17,67108,613561
17,67522,486138
17,67933,370641
17,68345,283426
17,68758,219931
17,69170,172850
17,69582,138602
17,69995,112862
17,70407,95313
17,70818,78537
17,71230,68250
17,71643,57238
17,72055,48945
17,72467,42547
17,72880,35238
17,73292,33517
17,73703,27316
17,74117,26658
17,74528,26021
17,74940,23773
17,75353,24644
17,75765,24879
17,76177,22697
17,76590,23560
17,77002,20941
17,77413,20130
17,77827,18038
17,78238,15474
17,78650,14740
17,79063,13257
17,79475,11266
17,79887,10716
17,80298,10229
17,80712,9511
17,81123,8460
17,81535,8548
17,81948,6988
17,82360,7128
17,82772,5943
17,83185,5706
17,83597,6027
17,84008,4885
17,84422,5443
17,84833,5136
17,85245,5135
17,85658,4701
17,86070,4912
17,86482,5049
17,86895,4329
17,87307,4305
17,87718,3470
17,88132,4237
17,88543,3918
17,88955,3412
17,89367,4213
17,89780,4109
17,90192,3417
17,90603,3269
17,91017,3878
17,91428,3131
17,91840,3224
17,92253,3440
17,92665,2453
17,93077,3250
17,93490,3253
17,93902,3828
17,94313,5586
17,94727,10266
17,95138,18819
17,95550,40328
17,95963,81286
17,96375,150636
17,96787,251414
17,97200,392316
17,97612,578922
17,98023,781512
17,98435,989449
17,98848,1168089
17,99260,1273060
17,99672,1300447
18,00085,1223982
18,00497,1092299
18,00908,906726
18,01322,714466
18,01733,552217
18,02145,410383
18,02558,302626
18,02970,230483
18,03382,175173
18,03795,133948
18,04207,104618
18,04618,85522
18,05032,69582
18,05443,58711
18,05855,51396
18,06268,41289
18,06680,37915
18,07092,32236
18,07503,30651
18,07917,26190
18,08328,24459
18,08740,21596
18,09153,18944
18,09565,17431
18,09977,15651
18,10390,15920
18,10802,13683
18,11213,13457
18,11627,12760
18,12038,11584
18,12450,10710
18,12863,9963
18,13275,9898
18,13687,10908
18,14100,8682
18,14512,9431
18,14923,8782
18,15337,10194
18,15748,9277
18,16160,9425
18,16572,8878
18,16985,8571
18,17397,8437
18,17808,6905
18,18222,5332
18,18633,5496
18,19045,6611
18,19458,5809
18,19870,5490
18,20282,6094
18,20695,5128
18,21107,4759
18,21518,4912
18,21932,4867
18,22343,5485
18,22755,5547
18,23168,5023
18,23580,5217
18,23992,4201
18,24405,4484
18,24817,6149
18,25228,5167
18,25640,4764
18,26053,6195
18,26465,3934
18,26877,3979
18,27290,3061
18,27702,3193
18,28113,3445
18,28527,3564
18,28938,3260
18,29350,3208
18,29763,4061
18,30175,2751
18,30587,3057
18,31000,3460
18,31412,3459
18,31823,3329
18,32237,2977
18,32648,3230
18,33060,3213
18,33473,3436
18,33885,2691
18,34297,2873
18,34708,2674
18,35122,2455
18,35533,2083
18,35945,1548
18,36358,2502
18,36770,2308
18,37182,2186
18,37595,2624
18,38007,2060
18,38418,2735
18,38832,3256
18,39243,2483
18,39655,2948
18,40068,2396
18,40480,2495
18,40892,2484
18,41305,2948
18,41717,2985
18,42128,2637
18,42542,2962
18,42953,2707
18,43365,2989
18,43777,4247
18,44190,3445
18,44602,3537
18,45013,6223
18,45427,14723
18,45838,26763
18,46250,57296
18,46663,106156
18,47075,195573
18,47487,309572
18,47900,471387
18,48312,658133
18,48723,861306
18,49137,1036633
18,49548,1176476
18,49960,1244133
18,50373,1214237
18,50785,1115861
18,51197,970933
18,51610,798189
18,52022,630639
18,52433,481070
18,52845,364971
18,53258,270956
18,53670,202370
18,54082,155201
18,54495,124611
18,54907,102310
18,55318,80643
18,55732,68029
18,56143,56761
18,56555,47591
18,56968,42932
18,57380,37293
18,57792,33178
18,58205,28553
18,58617,27336
18,59028,26107
18,59442,21001
18,59853,20737
18,60265,18731
18,60678,18620
18,61090,17034
18,61502,16951
18,61913,13359
18,62327,12825
18,62738,13069
18,63150,11999
18,63563,9088
18,63975,10102
18,64387,10043
18,64800,8393
18,65212,6981
18,65623,7136
18,66037,7656
18,66448,6147
18,66860,7305
18,67273,7176
18,67685,6547
18,68097,7907
18,68510,9039
18,68922,12354
18,69333,16837
18,69747,19870
18,70158,25625
18,70570,29300
18,70982,32685
18,71395,36204
18,71807,35377
18,72218,34289
18,72632,32208
18,73043,26072
18,73455,25031
18,73868,21272
18,74280,17426
18,74692,15932
18,75105,12383
18,75517,10568
18,75928,9027
18,76342,8224
18,76753,9067
18,77165,9870
18,77578,11477
18,77990,19251
18,78402,31960
18,78815,61022
18,79227,107713
18,79638,186880
18,80050,310793
18,80463,478391
18,80875,712903
18,81287,992826
18,81700,1334695
18,82112,1693838
18,82523,2020886
18,82937,2354456
18,83348,2568656
18,83760,2641304
18,84173,2522052
18,84585,2257843
18,84997,1868064
18,85410,1474602
18,85822,1124703
18,86233,826398
18,86647,610370
18,87058,450246
18,87470,339862
18,87883,266236
18,88295,211026
18,88707,170932
18,89118,141269
18,89532,118230
18,89943,104036
18,90355,87630
18,90768,76094
18,91180,69348
18,91592,60101
18,92005,54928
18,92417,50167
18,92828,43733
18,93242,41936
18,93653,37015
18,94065,34856
18,94478,33102
18,94890,29546
18,95302,27599
18,95715,26162
18,96127,22246
18,96538,22804
18,96952,20459
18,97363,20601
18,97775,18620
18,98187,16767
18,98600,15501
18,99012,14833
18,99423,14344
18,99837,14372
19,00248,13997
19,00660,11561
19,01073,11574
19,01485,10219
19,01897,11764
19,02310,10526
19,02722,9509
19,03133,10340
19,03547,8512
19,03958,9547
19,04370,9138
19,04783,9023
19,05195,9990
19,05607,12572
19,06020,21682
19,06432,35551
19,06843,61815
19,07257,113098
19,07668,192772
19,08080,304264
19,08492,442725
19,08905,621388
19,09317,807038
19,09728,996108
19,10142,1140773
19,10553,1221141
19,10965,1225141
19,11378,1185113
19,11790,1054143
19,12202,895697
19,12615,733892
19,13027,572909
19,13438,441377
19,13852,339668
19,14263,256935
19,14675,194868
19,15088,153113
19,15500,126286
19,15912,99357
19,16325,83231
19,16737,70221
19,17148,58805
19,17560,52424
19,17973,42818
19,18385,41551
19,18797,36593
19,19210,34158
19,19622,34163
19,20033,37835
19,20447,48998
19,20858,70246
19,21270,118869
19,21683,194834
19,22095,322210
19,22507,495412
19,22920,733032
19,23332,1031558
19,23743,1381375
19,24157,1750896
19,24568,2124031
19,24980,2368853
19,25393,2519819
19,25805,2506463
19,26217,2311419
19,26628,1976265
19,27042,1570896
19,27453,1222904
19,27865,929352
19,28278,680803
19,28690,514421
19,29102,390359
19,29515,300004
19,29927,240231
19,30338,192847
19,30752,162730
19,31163,135499
19,31575,114368
19,31988,100694
19,32400,87574
19,32812,79131
19,33225,71702
19,33637,61136
19,34048,56515
19,34462,51416
19,34873,46860
19,35285,43177
19,35697,39661
19,36110,37641
19,36522,35106
19,36933,31063
19,37347,26977
19,37758,27952
19,38170,26071
19,38583,25622
19,38995,23784
19,39407,21884
19,39820,20993
19,40232,18860
19,40643,19480
19,41057,18144
19,41468,18247
19,41880,16006
19,42293,15635
19,42705,15345
19,43117,13777
19,43530,12394
19,43942,11076
19,44353,11260
19,44765,11615
19,45178,10881
19,45590,10410
19,46002,10347
19,46415,10350
19,46827,8261
19,47238,8983
19,47652,8914
19,48063,7823
19,48475,8213
19,48888,9199
19,49300,7139
19,49712,7648
19,50125,7472
19,50537,7898
19,50948,7313
19,51362,8274
19,51773,10745
19,52185,12922
19,52598,22100
19,53010,42778
19,53422,80054
19,53833,144430
19,54247,243723
19,54658,379356
19,55070,546633
19,55483,739048
19,55895,917852
19,56307,1084908
19,56720,1173491
19,57132,1199230
19,57543,1118525
19,57957,976040
19,58368,812921
19,58780,642912
19,59193,497404
19,59605,376125
19,60017,291215
19,60430,227468
19,60842,170975
19,61253,139896
19,61667,112486
19,62078,92573
19,62490,79076
19,62902,66607
19,63315,57037
19,63727,50710
19,64138,45997
19,64552,40142
19,64963,37015
19,65375,34452
19,65788,31734
19,66200,28379
19,66612,25419
19,67025,24208
19,67437,22387
19,67848,19844
19,68262,19582
19,68673,20120
19,69085,15910
19,69498,14819
19,69910,15514
19,70322,13753
19,70735,13668
19,71147,13885
19,71558,13630
19,71970,12547
19,72383,11339
19,72795,12618
19,73207,11728
19,73620,12918
19,74032,11564
19,74443,11487
19,74857,10725
19,75268,10604
19,75680,10323
19,76093,8828
19,76505,8886
19,76917,9505
19,77330,8610
19,77742,9487
19,78153,8793
19,78567,8101
19,78978,9178
19,79390,9418
19,79803,9298
19,80215,10074
19,80627,8843
19,81038,9538
19,81452,8526
19,81863,6689
19,82275,6716
19,82688,6480
19,83100,6908
19,83512,6660
19,83925,7547
19,84337,8033
19,84748,9914
19,85162,14733
19,85573,26542
19,85985,48227
19,86398,90523
19,86810,154560
19,87222,256239
19,87635,408549
19,88047,564276
19,88458,761061
19,88872,935311
19,89283,1054705
19,89695,1109259
19,90107,1100031
19,90520,1019322
19,90932,884010
19,91343,732568
19,91757,584019
19,92168,442883
19,92580,342028
19,92993,258023
19,93405,194828
19,93817,154162
19,94230,122819
19,94642,98661
19,95053,80268
19,95467,68242
19,95878,58590
19,96290,52641
19,96703,47765
19,97115,42181
19,97527,37657
19,97940,35344
19,98352,31623
19,98763,29795
19,99175,27839
19,99588,26971
20,00000,23762
20,00412,23322
20,00825,21446
20,01237,20475
20,01648,19483
20,02062,19024
20,02473,18512
20,02885,16073
20,03298,15819
20,03710,15156
20,04122,14466
20,04535,13098
20,04947,13569
20,05358,12290
20,05772,11407
20,06183,12440
20,06595,11384
20,07008,11285
20,07420,9950
20,07832,10986
20,08243,9617
20,08657,10228
20,09068,8295
20,09480,7695
20,09893,8355
20,10305,7571
20,10717,7696
20,11130,8664
20,11542,5647
20,11953,7410
20,12367,7084
20,12778,6496
20,13190,6381
20,13603,7716
20,14015,6447
20,14427,6991
20,14840,7028
20,15252,6824
20,15663,6668
20,16077,4930
20,16488,6220
20,16900,4760
20,17312,5384
20,17725,4725
20,18137,6224
20,18548,5277
20,18962,5818
20,19373,5867
20,19785,5390
20,20198,5099
20,20610,6024
20,21022,5536
20,21435,4200
20,21847,5711
20,22258,5219
20,22672,5189
20,23083,5292
20,23495,4124
20,23908,4594
20,24320,5444
20,24732,4436
20,25145,4184
20,25557,4313
20,25968,4662
20,26380,5030
20,26793,5145
20,27205,4845
20,27617,4526
20,28030,5545
20,28442,5346
20,28853,4815
20,29267,4522
20,29678,4930
20,30090,6590
20,30503,9205
20,30915,15056
20,31327,31792
20,31740,57551
20,32152,110632
20,32563,188179
20,32977,303483
20,33388,458119
20,33800,652502
20,34213,856664
20,34625,1086321
20,35037,1286737
20,35448,1474688
20,35862,1653928
20,36273,1823667
20,36685,1998067
20,37098,2225276
20,37510,2433962
20,37922,2665165
20,38335,2835253
20,38747,2848418
20,39158,2704399
20,39572,2391276
20,39983,2000430
20,40395,1580256
20,40808,1193445
20,41220,895105
20,41632,665925
20,42045,497758
20,42457,390126
20,42868,310054
20,43282,250525
20,43693,215054
20,44105,180202
20,44517,154380
20,44930,135736
20,45342,119525
20,45753,104703
20,46167,93176
20,46578,84206
20,46990,76873
20,47403,71451
20,47815,66411
20,48227,58922
20,48640,56019
20,49052,51614
20,49463,49401
20,49877,46848
20,50288,43466
20,50700,45265
20,51113,44796
20,51525,46925
20,51937,48278
20,52350,53975
20,52762,54694
20,53173,56777
20,53585,53577
20,53998,54414
20,54410,48844
20,54822,46746
20,55235,42554
20,55647,35704
20,56058,31643
20,56472,30395
20,56883,26617
20,57295,24230
20,57708,22652
20,58120,20845
20,58532,21999
20,58945,24753
20,59357,27114
20,59768,40550
20,60182,64901
20,60593,102834
20,61005,169296
20,61418,262224
20,61830,392288
20,62242,543215
20,62653,702061
20,63067,834164
20,63478,920847
20,63890,958939
20,64303,917544
20,64715,849161
20,65127,725856
20,65540,593119
20,65952,471541
20,66363,369564
20,66777,282677
20,67188,220601
20,67600,163238
20,68013,132218
20,68425,106141
20,68837,88003
20,69250,73953
20,69662,63663
20,70073,55934
20,70487,47883
20,70898,42070
20,71310,38985
20,71723,36756
20,72135,36665
20,72547,38542
20,72958,47757
20,73372,67972
20,73783,105423
20,74195,170384
20,74608,268698
20,75020,392257
20,75432,560914
20,75845,750287
20,76257,941737
20,76668,1118656
20,77082,1222697
20,77493,1257098
20,77905,1204628
20,78318,1080062
20,78730,910587
20,79142,730648
20,79555,570780
20,79967,440576
20,80378,340682
20,80792,262983
20,81203,202190
20,81615,166253
20,82027,134340
20,82440,113452
20,82852,95792
20,83263,84357
20,83677,75725
20,84088,66731
20,84500,65147
20,84913,61965
20,85325,58487
20,85737,49612
20,86150,47692
20,86562,40789
20,86973,36232
20,87387,34062
20,87798,32500
20,88210,29406
20,88623,26598
20,89035,26077
20,89447,26331
20,89860,23742
20,90272,23249
20,90683,22890
20,91095,24097
20,91508,21446
20,91920,20703
20,92332,20462
20,92745,21391
20,93157,18511
20,93568,19602
20,93982,19451
20,94393,18060
20,94805,16947
20,95218,15358
20,95630,15143
20,96042,12855
20,96455,14216
20,96867,12512
20,97278,13500
20,97692,13810
20,98103,11569
20,98515,11886
20,98928,12617
20,99340,11348
20,99752,9932
21,00163,10832
21,00577,11276
21,00988,11598
21,01400,11134
21,01813,10659
21,02225,10928
21,02637,11453
21,03050,10777
21,03462,10880
21,03873,10288
21,04287,10325
21,04698,10499
21,05110,10481
21,05523,13894
21,05935,23096
21,06347,37672
21,06760,68609
21,07172,120363
21,07583,200092
21,07997,314998
21,08408,472149
21,08820,677426
21,09232,892570
21,09645,1097718
21,10057,1245199
21,10468,1311534
21,10882,1296664
21,11293,1149892
21,11705,972512
21,12118,785816
21,12530,611523
21,12942,468655
21,13355,352315
21,13767,270086
21,14178,212791
21,14592,171601
21,15003,142809
21,15415,114228
21,15828,99889
21,16240,85517
21,16652,75389
21,17065,66209
21,17477,58830
21,17888,55077
21,18300,49825
21,18713,47362
21,19125,42397
21,19537,41567
21,19950,36453
21,20362,34317
21,20773,36027
21,21187,33436
21,21598,32652
21,22010,31515
21,22423,30442
21,22835,30224
21,23247,28959
21,23660,26136
21,24072,23593
21,24483,23557
21,24897,22134
21,25308,20668
21,25720,20650
21,26133,19880
21,26545,19027
21,26957,17053
21,27368,17407
21,27782,17309
21,28193,16644
21,28605,16493
21,29018,16018
21,29430,14200
21,29842,14006
21,30255,15113
21,30667,13715
21,31078,13750
21,31492,11973
21,31903,11642
21,32315,12147
21,32728,12967
21,33140,12694
21,33552,15031
21,33965,18619
21,34377,26126
21,34788,41206
21,35202,75572
21,35613,135789
21,36025,220794
21,36437,336568
21,36850,489415
21,37262,662109
21,37673,840555
21,38087,994962
21,38498,1076464
21,38910,1082941
21,39323,1034472
21,39735,928006
21,40147,776158
21,40560,626807
21,40972,492462
21,41383,378742
21,41797,288968
21,42208,228960
21,42620,176977
21,43033,142728
21,43445,115681
21,43857,96619
21,44270,81470
21,44682,71047
21,45093,63141
21,45505,56571
21,45918,51325
21,46330,44349
21,46742,42598
21,47155,39391
21,47567,35309
21,47978,34263
21,48392,29462
21,48803,30379
21,49215,28312
21,49628,25243
21,50040,23935
21,50452,23569
21,50865,20682
21,51277,22447
21,51688,21791
21,52102,19798
21,52513,21121
21,52925,18834
21,53338,17991
21,53750,16483
21,54162,17489
21,54573,15751
21,54987,15432
21,55398,15353
21,55810,14644
21,56223,14784
21,56635,14579
21,57047,14622
21,57460,14026
21,57872,13544
21,58283,13664
21,58697,13496
21,59108,12355
21,59520,12838
21,59933,13120
21,60345,12460
21,60757,11647
21,61170,12281
21,61582,11073
21,61993,11113
21,62407,10782
21,62818,11646
21,63230,10640
21,63642,11441
21,64055,10398
21,64467,9966
21,64878,11639
21,65292,9843
21,65703,10155
21,66115,9927
21,66528,11095
21,66940,11619
21,67352,11984
21,67765,11525
21,68177,13095
21,68588,12788
21,69002,12323
21,69413,14788
21,69825,13566
21,70238,13662
21,70650,15053
21,71062,14428
21,71475,14284
21,71887,13132
21,72298,13753
21,72710,11190
21,73123,12091
21,73535,11115
21,73947,10104
21,74360,12373
21,74772,11348
21,75183,10276
21,75597,11610
21,76008,16834
21,76420,24424
21,76833,40947
21,77245,72712
21,77657,132823
21,78070,229290
21,78482,386737
21,78893,602082
21,79307,905289
21,79718,1272197
21,80130,1690151
21,80543,2184116
21,80955,2633247
21,81367,3041095
21,81778,3320537
21,82192,3428256
21,82603,3282615
21,83015,2929466
21,83428,2438594
21,83840,1920695
21,84252,1467813
21,84665,1094462
21,85077,830293
21,85488,638976
21,85902,498030
21,86313,395420
21,86725,327731
21,87138,277684
21,87550,239791
21,87962,202947
21,88375,179374
21,88787,159312
21,89198,145838
21,89612,132525
21,90023,120146
21,90435,111006
21,90847,99586
21,91260,92684
21,91672,88159
21,92083,87057
21,92497,76490
21,92908,73266
21,93320,71037
21,93733,66431
21,94145,61385
21,94557,59351
21,94970,54338
21,95382,51170
21,95793,47303
21,96207,47749
21,96618,45377
21,97030,45645
21,97443,43123
21,97855,41032
21,98267,40448
21,98680,39619
21,99092,38297
21,99503,36775
21,99915,36815
22,00328,34432
22,00740,35084
22,01152,32509
22,01565,31980
22,01977,27899
22,02388,30934
22,02802,30161
22,03213,32323
22,03625,40381
22,04038,55380
22,04450,80477
22,04862,129873
22,05275,202237
22,05687,313199
22,06098,455506
22,06512,613490
22,06923,774131
22,07335,905154
22,07748,965375
22,08160,987854
22,08572,916950
22,08983,814621
22,09397,704444
22,09808,595575
22,10220,503591
22,10633,451287
22,11045,448658
22,11457,492927
22,11870,572906
22,12282,692746
22,12693,801663
22,13107,895688
22,13518,958371
22,13930,942890
22,14343,913035
22,14755,850316
22,15167,785281
22,15580,734669
22,15992,717971
22,16403,745557
22,16817,827749
22,17228,944495
22,17640,1068865
22,18052,1178847
22,18465,1234964
22,18877,1232569
22,19288,1141737
22,19702,1012702
22,20113,860518
22,20525,712840
22,20938,572328
22,21350,447863
22,21762,356560
22,22175,294980
22,22587,238601
22,22998,194773
22,23412,168104
22,23823,145709
22,24235,126803
22,24648,116894
22,25060,105075
22,25472,96146
22,25885,87458
22,26297,81689
22,26708,77236
22,27122,68548
22,27533,63481
22,27945,61413
22,28357,59080
22,28770,52734
22,29182,51298
22,29593,48291
22,30007,46876
22,30418,44712
22,30830,42882
22,31243,39189
22,31655,39916
22,32067,36758
22,32480,35038
22,32892,32733
22,33303,35173
22,33717,31192
22,34128,31078
22,34540,32348
22,34953,30786
22,35365,33718
22,35777,35030
22,36190,34365
22,36602,32826
22,37013,32214
22,37425,30059
22,37838,28957
22,38250,29398
22,38662,26730
22,39075,27314
22,39487,26210
22,39898,27503
22,40312,28069
22,40723,26652
22,41135,25894
22,41548,27171
22,41960,25584
22,42372,26626
22,42785,27866
22,43197,29473
22,43608,31508
22,44022,42723
22,44433,62629
22,44845,99994
22,45258,157064
22,45670,247241
22,46082,367484
22,46493,507154
22,46907,681296
22,47318,861682
22,47730,1024540
22,48143,1155061
22,48555,1182887
22,48967,1135604
22,49380,1001451
22,49792,845178
22,50203,678701
22,50617,535586
22,51028,414552
22,51440,329177
22,51853,265858
22,52265,215412
22,52677,180045
22,53090,153403
22,53502,130963
22,53913,115969
22,54327,102440
22,54738,91813
22,55150,82813
22,55562,78056
22,55975,75579
22,56387,67697
22,56798,62282
22,57212,57754
22,57623,55466
22,58035,53717
22,58448,48697
22,58860,49205
22,59272,51450
22,59685,45901
22,60097,44009
22,60508,42335
22,60922,41170
22,61333,40524
22,61745,38888
22,62158,40335
22,62570,34646
22,62982,35736
22,63395,33891
22,63807,33959
22,64218,31906
22,64630,31829
22,65043,35228
22,65455,31826
22,65867,33149
22,66280,32784
22,66692,31998
22,67103,30472
22,67517,28348
22,67928,28314
22,68340,29194
22,68753,27400
22,69165,24881
22,69577,25638
22,69990,25698
22,70402,26183
22,70813,25059
22,71227,25862
22,71638,28454
22,72050,34647
22,72463,46893
22,72875,67745
22,73287,108328
22,73698,165072
22,74112,260439
22,74523,382144
22,74935,522086
22,75348,680181
22,75760,818332
22,76172,921740
22,76585,975575
22,76997,963350
22,77408,892678
22,77822,788639
22,78233,669808
22,78645,544459
22,79058,434784
22,79470,345035
22,79882,270308
22,80295,224729
22,80707,192796
22,81118,175085
22,81532,176753
22,81943,195027
22,82355,233318
22,82767,304213
22,83180,391643
22,83592,489731
22,84003,606576
22,84417,705015
22,84828,770924
22,85240,784917
22,85653,766260
22,86065,714546
22,86477,632721
22,86890,530260
22,87302,444247
22,87713,358158
22,88127,290058
22,88538,232800
22,88950,191791
22,89363,158123
22,89775,134978
22,90187,113743
22,90600,102594
22,91012,86464
22,91423,80722
22,91835,70955
22,92248,65121
22,92660,60712
22,93072,56402
22,93485,53006
22,93897,49149
22,94308,47036
22,94722,45180
22,95133,43073
22,95545,40847
22,95958,38855
22,96370,38335
22,96782,37042
22,97195,34008
22,97607,33954
22,98018,34258
22,98432,32487
22,98843,32911
22,99255,31303
22,99668,29829
23,00080,29222
23,00492,26566
23,00903,28219
23,01317,27266
23,01728,28231
23,02140,27040
23,02553,28090
23,02965,26025
23,03377,27091
23,03790,26281
23,04202,26125
23,04613,23859
23,05027,27134
23,05438,25198
23,05850,24063
23,06263,22571
23,06675,23236
23,07087,22253
23,07500,21839
23,07912,21426
23,08323,22617
23,08737,20979
23,09148,19645
23,09560,19900
23,09972,21059
23,10385,23271
23,10797,26493
23,11208,34065
23,11622,44853
23,12033,67281
23,12445,98249
23,12858,152568
23,13270,230606
23,13682,334250
23,14095,475445
23,14507,647539
23,14918,849378
23,15332,1063034
23,15743,1316661
23,16155,1556805
23,16568,1786583
23,16980,1948033
23,17392,2051278
23,17805,1998305
23,18217,1811148
23,18628,1544058
23,19040,1259140
23,19453,1005557
23,19865,777575
23,20277,612559
23,20690,491613
23,21102,406802
23,21513,335093
23,21927,287823
23,22338,243634
23,22750,214194
23,23163,195881
23,23575,176297
23,23987,154917
23,24400,147601
23,24812,131414
23,25223,118745
23,25637,110633
23,26048,105245
23,26460,98296
23,26873,91705
23,27285,84986
23,27697,82868
23,28108,78129
23,28522,73819
23,28933,71992
23,29345,66090
23,29758,64529
23,30170,63155
23,30582,59763
23,30995,55975
23,31407,54148
23,31818,50371
23,32232,47773
23,32643,49125
23,33055,49267
23,33468,47527
23,33880,42305
23,34292,44860
23,34705,42183
23,35117,42900
23,35528,41240
23,35942,41278
23,36353,40393
23,36765,39910
23,37177,39495
23,37590,39613
23,38002,37394
23,38413,38102
23,38827,38545
23,39238,35966
23,39650,36088
23,40063,35878
23,40475,34030
23,40887,33133
23,41300,33495
23,41712,32891
23,42123,31124
23,42537,30437
23,42948,31072
23,43360,30121
23,43773,30219
23,44185,29995
23,44597,29264
23,45010,29055
23,45422,29152
23,45833,26086
23,46245,28006
23,46658,28055
23,47070,25870
23,47482,25880
23,47895,26186
23,48307,25702
23,48718,27600
23,49132,27721
23,49543,32048
23,49955,41821
23,50368,55288
23,50780,78836
23,51192,122049
23,51605,180244
23,52017,257100
23,52428,360056
23,52842,486831
23,53253,618987
23,53665,755919
23,54078,874698
23,54490,948106
23,54902,959437
23,55313,930041
23,55727,850177
23,56138,748257
23,56550,636268
23,56963,534822
23,57375,438470
23,57787,361250
23,58200,293959
23,58612,246812
23,59023,213379
23,59437,185041
23,59848,161017
23,60260,142454
23,60673,123894
23,61085,115278
23,61497,104047
23,61910,95068
23,62322,88416
23,62733,81110
23,63147,77544
23,63558,71722
23,63970,66448
23,64382,64337
23,64795,59155
23,65207,56784
23,65618,51960
23,66032,52545
23,66443,50207
23,66855,48698
23,67268,47953
23,67680,46525
23,68092,41996
23,68505,42241
23,68917,39296
23,69328,39969
23,69742,38472
23,70153,38149
23,70565,36287
23,70978,34718
23,71390,34587
23,71802,34804
23,72215,32597
23,72627,33137
23,73038,32969
23,73452,31922
23,73863,30169
23,74275,30745
23,74687,31527
23,75100,28816
23,75512,28625
23,75923,27070
23,76337,27209
23,76748,28265
23,77160,27224
23,77573,26708
23,77985,26280
23,78397,25181
23,78810,26542
23,79222,24319
23,79633,25033
23,80047,24356
23,80458,24061
23,80870,25409
23,81283,23455
23,81695,26430
23,82107,25953
23,82520,25982
23,82932,25750
23,83343,27209
23,83755,28693
23,84168,29853
23,84580,32931
23,84992,32852
23,85405,32449
23,85817,37642
23,86228,37203
23,86642,38383
23,87053,40083
23,87465,41820
23,87878,39257
23,88290,39579
23,88702,35527
23,89115,32822
23,89527,30260
23,89938,28598
23,90352,26995
23,90763,27431
23,91175,24760
23,91588,26917
23,92000,22328
23,92412,21190
23,92823,20942
23,93237,19296
23,93648,21408
23,94060,21359
23,94473,21462
23,94885,21700
23,95297,20439
23,95710,21650
23,96122,19826
23,96533,22310
23,96947,21523
23,97358,23405
23,97770,22210
23,98183,22281
23,98595,23081
23,99007,22472
23,99420,22642
23,99832,18818
24,00243,20592
24,00657,21882
24,01068,22493
24,01480,20302
24,01892,19299
24,02305,20575
24,02717,21945
24,03128,21505
24,03542,20516
24,03953,22762
24,04365,20727
24,04778,22075
24,05190,21292
24,05602,21627
24,06015,21916
24,06427,21673
24,06838,22027
24,07252,21443
24,07663,24045
24,08075,23537
24,08488,22936
24,08900,22512
24,09312,23758
24,09725,23862
24,10137,23214
24,10548,25747
24,10960,26266
24,11373,27340
24,11785,26692
24,12197,26622
24,12610,24927
24,13022,25426
24,13433,22658
24,13847,22057
24,14258,21599
24,14670,22080
24,15083,19971
24,15495,21030
24,15907,20770
24,16320,20328
24,16732,19482
24,17143,17893
24,17557,18351
24,17968,21132
24,18380,19983
24,18793,19063
24,19205,18983
24,19617,19493
24,20028,21719
24,20442,21034
24,20853,20945
24,21265,21379
24,21678,20030
24,22090,20411
24,22502,19401
24,22915,19831
24,23327,18766
24,23738,19739
24,24152,20341
24,24563,20605
24,24975,19057
24,25388,19140
24,25800,19265
24,26212,18193
24,26625,18240
24,27037,18073
24,27448,18218
24,27862,16089
24,28273,18542
24,28685,17680
24,29097,16266
24,29510,17267
24,29922,17752
24,30333,16807
24,30747,17410
24,31158,16034
24,31570,18281
24,31983,17483
24,32395,17921
24,32807,20458
24,33220,18534
24,33632,15694
24,34043,19019
24,34457,19424
24,34868,19021
24,35280,17982
24,35693,19504
24,36105,18130
24,36517,17426
24,36930,18196
24,37342,19806
24,37753,18298
24,38165,18591
24,38578,16785
24,38990,16172
24,39402,19225
24,39815,18115
24,40227,18834
24,40638,19104
24,41052,18442
24,41463,19626
24,41875,19502
24,42288,19812
24,42700,18814
24,43112,17881
24,43525,16562
24,43937,18467
24,44348,20015
24,44762,19391
24,45173,16544
24,45585,17367
24,45998,16992
24,46410,18232
24,46822,17965
24,47233,17457
24,47647,16301
24,48058,18907
24,48470,17062
24,48883,18223
24,49295,17342
24,49707,17637
24,50120,18622
24,50532,17536
24,50943,16886
24,51357,17929
24,51768,19195
24,52180,16433
24,52593,17435
24,53005,17523
24,53417,17763
24,53830,18332
24,54242,18111
24,54653,17952
24,55067,18874
24,55478,17719
24,55890,16962
24,56302,17931
24,56715,17560
24,57127,19944
24,57538,18005
24,57952,17822
24,58363,19773
24,58775,17339
24,59188,17617
24,59600,18556
24,60012,18834
24,60425,16988
24,60837,17839
24,61248,18840
24,61662,18429
24,62073,19947
24,62485,19773
24,62898,20295
24,63310,22183
24,63722,24516
24,64135,30679
24,64547,38673
24,64958,53646
24,65370,78993
24,65783,107697
24,66195,148952
24,66607,205531
24,67020,264997
24,67432,333719
24,67843,395210
24,68257,450145
24,68668,478092
24,69080,498911
24,69493,505504
24,69905,475740
24,70317,446396
24,70730,406641
24,71142,357154
24,71553,316737
24,71967,264708
24,72378,228894
24,72790,198629
24,73203,169791
24,73615,146298
24,74027,127362
24,74438,111573
24,74852,97924
24,75263,87572
24,75675,77102
24,76088,68594
24,76500,66882
24,76912,60649
24,77325,55559
24,77737,52177
24,78148,50034
24,78562,44854
24,78973,47109
24,79385,42505
24,79798,42428
24,80210,40217
24,80622,42191
24,81035,37675
24,81447,37928
24,81858,34751
24,82272,32711
24,82683,34237
24,83095,35134
24,83507,29432
24,83920,29547
24,84332,27103
24,84743,28378
24,85157,26580
24,85568,26525
24,85980,28833
24,86393,27256
24,86805,28563
24,87217,26649
24,87630,25130
24,88042,25998
24,88453,26079
24,88867,25810
24,89278,24625
24,89690,23522
24,90103,22565
24,90515,23945
24,90927,24801
24,91340,24001
24,91752,24738
24,92163,23289
24,92575,21721
24,92988,23100
24,93400,23393
24,93812,23240
24,94225,22498
24,94637,21482
24,95048,22378
24,95462,21597
24,95873,21411
24,96285,20076
24,96698,20736
24,97110,20608
24,97522,21738
24,97935,21673
24,98347,22025
24,98758,21135
24,99172,20936
24,99583,21016
24,99995,20199
25,00408,20418
25,00820,20133
25,01232,20181
25,01643,20498
25,02057,21466
25,02468,19393
25,02880,19013
25,03293,18186
25,03705,18130
25,04117,18942
25,04530,18125
25,04942,17864
25,05353,17933
25,05767,19107
25,06178,19108
25,06590,18184
25,07003,20289
25,07415,16947
25,07827,19484
25,08240,17281
25,08652,18765
25,09063,19323
25,09477,19258
25,09888,18618
25,10300,20481
25,10712,18296
25,11125,18636
25,11537,18631
25,11948,18912
25,12362,21399
25,12773,21122
25,13185,21363
25,13598,20548
25,14010,20356
