D:\MassHunter\GCMS\1\data\Amal\Constant flow\130C\130C_1ml-min_7C-min_2.D Mon Sep 02 16:51:45 2024
Start of data points
5,19098	750019
5,19510	715111
5,19923	689321
5,20335	659146
5,20747	637112
5,21160	603460
5,21572	588481
5,21983	555716
5,22397	538058
5,22808	518879
5,23220	499296
5,23633	477626
5,24045	453682
5,24457	446308
5,24870	426905
5,25282	415754
5,25693	397594
5,26107	378041
5,26518	367493
5,26930	349971
5,27343	342194
5,27755	333524
5,28167	316504
5,28578	306970
5,28992	292712
5,29403	283225
5,29815	273657
5,30228	267369
5,30640	250207
5,31052	242670
5,31465	229504
5,31877	220272
5,32288	206466
5,32702	198763
5,33113	190804
5,33525	180136
5,33938	174257
5,34350	166888
5,34762	160705
5,35175	156678
5,35587	149326
5,35998	141504
5,36412	140137
5,36823	132534
5,37235	130816
5,37647	125337
5,38060	121770
5,38472	119528
5,38883	115539
5,39297	115141
5,39708	113479
5,40120	107876
5,40533	106490
5,40945	106303
5,41357	100219
5,41770	98462
5,42182	98198
5,42593	98673
5,43007	96558
5,43418	94225
5,43830	94755
5,44243	92192
5,44655	90074
5,45067	89300
5,45480	91069
5,45892	91725
5,46303	88828
5,46715	89304
5,47128	88037
5,47540	87947
5,47952	87290
5,48365	87488
5,48777	87451
5,49188	84088
5,49602	84628
5,50013	85730
5,50425	84015
5,50838	83550
5,51250	89452
5,51662	86601
5,52075	82428
5,52487	81637
5,52898	80285
5,53312	80560
5,53723	83764
5,54135	80598
5,54548	79285
5,54960	80899
5,55372	80865
5,55783	79705
5,56197	78942
5,56608	78662
5,57020	76349
5,57433	77205
5,57845	77838
5,58257	76077
5,58670	73119
5,59082	77401
5,59493	75669
5,59907	78006
5,60318	74311
5,60730	75498
5,61143	74767
5,61555	75379
5,61967	72694
5,62380	73937
5,62792	72156
5,63203	72398
5,63617	69812
5,64028	73940
5,64440	71579
5,64852	73117
5,65265	70801
5,65677	70268
5,66088	71256
5,66502	68822
5,66913	70482
5,67325	69518
5,67738	69433
5,68150	68096
5,68562	69753
5,68975	67980
5,69387	67214
5,69798	69173
5,70212	67628
5,70623	66375
5,71035	66547
5,71448	66177
5,71860	65569
5,72272	69037
5,72685	70358
5,73097	67826
5,73508	69954
5,73920	69852
5,74333	67926
5,74745	69686
5,75157	69226
5,75570	65403
5,75982	67974
5,76393	68090
5,76807	64651
5,77218	66056
5,77630	66029
5,78043	67226
5,78455	64812
5,78867	65945
5,79280	65294
5,79692	65258
5,80103	62864
5,80517	64793
5,80928	64931
5,81340	63734
5,81753	63270
5,82165	61620
5,82577	60576
5,82988	64924
5,83402	60916
5,83813	60390
5,84225	61562
5,84638	63047
5,85050	59857
5,85462	60348
5,85875	61399
5,86287	60722
5,86698	61012
5,87112	60234
5,87523	61762
5,87935	61152
5,88348	59136
5,88760	60770
5,89172	59592
5,89585	58370
5,89997	57712
5,90408	60127
5,90822	55855
5,91233	58572
5,91645	56561
5,92057	58672
5,92470	58158
5,92882	56628
5,93293	59534
5,93707	66743
5,94118	77975
5,94530	115739
5,94943	173995
5,95355	271002
5,95767	413534
5,96180	584474
5,96592	762930
5,97003	925870
5,97417	1055538
5,97828	1135811
5,98240	1165728
5,98653	1182592
5,99065	1155421
5,99477	1097373
5,99890	1058252
6,00302	1012537
6,00713	964712
6,01127	917441
6,01538	879796
6,01950	830825
6,02362	794061
6,02775	740695
6,03187	698343
6,03598	668086
6,04012	627327
6,04423	595760
6,04835	567715
6,05248	545135
6,05660	512649
6,06072	473221
6,06485	453635
6,06897	426591
6,07308	400751
6,07722	382130
6,08133	358338
6,08545	335686
6,08958	312320
6,09370	295110
6,09782	273382
6,10195	255439
6,10607	238134
6,11018	222926
6,11430	202949
6,11843	187318
6,12255	174590
6,12667	162923
6,13080	152156
6,13492	137797
6,13903	128171
6,14317	118380
6,14728	113788
6,15140	111255
6,15553	101735
6,15965	94670
6,16377	91999
6,16790	84221
6,17202	80987
6,17613	79968
6,18027	79400
6,18438	72158
6,18850	70369
6,19263	67428
6,19675	63576
6,20087	63768
6,20498	62455
6,20912	63141
6,21323	60179
6,21735	59061
6,22148	58526
6,22560	58250
6,22972	56144
6,23385	56286
6,23797	55005
6,24208	57123
6,24622	54290
6,25033	51728
6,25445	51713
6,25858	51849
6,26270	53028
6,26682	52272
6,27095	50671
6,27507	50419
6,27918	50054
6,28332	49365
6,28743	49614
6,29155	50215
6,29567	48728
6,29980	47681
6,30392	48113
6,30803	47273
6,31217	47835
6,31628	46522
6,32040	44203
6,32453	46614
6,32865	45876
6,33277	46069
6,33690	43932
6,34102	46008
6,34513	45875
6,34927	44616
6,35338	45492
6,35750	44150
6,36163	44853
6,36575	44384
6,36987	44103
6,37400	43433
6,37812	44670
6,38223	43543
6,38635	42653
6,39048	44443
6,39460	44273
6,39872	43253
6,40285	43785
6,40697	42208
6,41108	45406
6,41522	43467
6,41933	43948
6,42345	42301
6,42758	42881
6,43170	42470
6,43582	43339
6,43995	42279
6,44407	40819
6,44818	42800
6,45232	42288
6,45643	40063
6,46055	40726
6,46468	41085
6,46880	38281
6,47292	41019
6,47703	41507
6,48117	40005
6,48528	41993
6,48940	41222
6,49353	42157
6,49765	43813
6,50177	53225
6,50590	64003
6,51002	93813
6,51413	137967
6,51827	203038
6,52238	286730
6,52650	380579
6,53063	478121
6,53475	563177
6,53887	622760
6,54300	661418
6,54712	677673
6,55123	671982
6,55537	658294
6,55948	634695
6,56360	609130
6,56772	580994
6,57185	548812
6,57597	522197
6,58008	487304
6,58422	460476
6,58833	433040
6,59245	410304
6,59658	380030
6,60070	361707
6,60482	339639
6,60895	316226
6,61307	293426
6,61718	279536
6,62132	259576
6,62543	245192
6,62955	227904
6,63368	211380
6,63780	197317
6,64192	180097
6,64605	164461
6,65017	151193
6,65428	137780
6,65840	126312
6,66253	118271
6,66665	104288
6,67077	100038
6,67490	92177
6,67902	84445
6,68313	79947
6,68727	74488
6,69138	70871
6,69550	64189
6,69963	61504
6,70375	58917
6,70787	54876
6,71200	53171
6,71612	52359
6,72023	51030
6,72437	49392
6,72848	46629
6,73260	48001
6,73673	45837
6,74085	44613
6,74497	45041
6,74908	43754
6,75322	44576
6,75733	43309
6,76145	42170
6,76558	43469
6,76970	42397
6,77382	42828
6,77795	42310
6,78207	39891
6,78618	41541
6,79032	38309
6,79443	38971
6,79855	39653
6,80268	36940
6,80680	38700
6,81092	39138
6,81505	39285
6,81917	39850
6,82328	36657
6,82742	37807
6,83153	37857
6,83565	35410
6,83977	37763
6,84390	36389
6,84802	36646
6,85213	38289
6,85627	35764
6,86038	37409
6,86450	36985
6,86863	36203
6,87275	35840
6,87687	34958
6,88100	34757
6,88512	34845
6,88923	33399
6,89337	35117
6,89748	34244
6,90160	34367
6,90573	33405
6,90985	33193
6,91397	33612
6,91810	33220
6,92222	34875
6,92633	33755
6,93045	32860
6,93458	34821
6,93870	34099
6,94282	35590
6,94695	32847
6,95107	31580
6,95518	32089
6,95932	32279
6,96343	31417
6,96755	31880
6,97168	30543
6,97580	32782
6,97992	29750
6,98405	31913
6,98817	30577
6,99228	32260
6,99642	30253
7,00053	30912
7,00465	30386
7,00878	31002
7,01290	29787
7,01702	31020
7,02113	28261
7,02527	29664
7,02938	29872
7,03350	29420
7,03763	30064
7,04175	30027
7,04587	31133
7,05000	29284
7,05412	29664
7,05823	29520
7,06237	30940
7,06648	31571
7,07060	30963
7,07473	30842
7,07885	29976
7,08297	29585
7,08710	29297
7,09122	29122
7,09533	29771
7,09947	30583
7,10358	31253
7,10770	29823
7,11182	29639
7,11595	30290
7,12007	30282
7,12418	29970
7,12832	29028
7,13243	29618
7,13655	29224
7,14068	29831
7,14480	30555
7,14892	30274
7,15305	34781
7,15717	42573
7,16128	62853
7,16542	95971
7,16953	154697
7,17365	254925
7,17778	401301
7,18190	582954
7,18602	784630
7,19015	1011435
7,19427	1209904
7,19838	1363839
7,20250	1472830
7,20663	1524261
7,21075	1549944
7,21487	1518306
7,21900	1438689
7,22312	1376460
7,22723	1317137
7,23137	1218095
7,23548	1146827
7,23960	1070914
7,24373	1000447
7,24785	930044
7,25197	852203
7,25610	786105
7,26022	724559
7,26433	658542
7,26847	603971
7,27258	551662
7,27670	496506
7,28083	446321
7,28495	391272
7,28907	349273
7,29318	311811
7,29732	277918
7,30143	248899
7,30555	221105
7,30968	192594
7,31380	169747
7,31792	150548
7,32205	133667
7,32617	121191
7,33028	109856
7,33442	99592
7,33853	90142
7,34265	79317
7,34678	74061
7,35090	67962
7,35502	63494
7,35915	59503
7,36327	56118
7,36738	53626
7,37152	51036
7,37563	51621
7,37975	48549
7,38387	41616
7,38800	43278
7,39212	43416
7,39623	40610
7,40037	39313
7,40448	39275
7,40860	36349
7,41273	35158
7,41685	37404
7,42097	35689
7,42510	37551
7,42922	34814
7,43333	32902
7,43747	33561
7,44158	31407
7,44570	33056
7,44983	31447
7,45395	30903
7,45807	31349
7,46220	30835
7,46632	30528
7,47043	29568
7,47455	30439
7,47868	29046
7,48280	29753
7,48692	29321
7,49105	28987
7,49517	29106
7,49928	29707
7,50342	29953
7,50753	28472
7,51165	28834
7,51578	27761
7,51990	28473
7,52402	28922
7,52815	26468
7,53227	28887
7,53638	26268
7,54052	29377
7,54463	27885
7,54875	26126
7,55288	28334
7,55700	27722
7,56112	28473
7,56523	26581
7,56937	26424
7,57348	27909
7,57760	26408
7,58173	27036
7,58585	25985
7,58997	25915
7,59410	26647
7,59822	24991
7,60233	25681
7,60647	25300
7,61058	24626
7,61470	24909
7,61883	25125
7,62295	26290
7,62707	24458
7,63120	25227
7,63532	24407
7,63943	25601
7,64357	25461
7,64768	24155
7,65180	26468
7,65593	25210
7,66005	25552
7,66417	24859
7,66828	24221
7,67242	23951
7,67653	23112
7,68065	23809
7,68478	24591
7,68890	24386
7,69302	23805
7,69715	22747
7,70127	23797
7,70538	24669
7,70952	24478
7,71363	24719
7,71775	24175
7,72188	23892
7,72600	24813
7,73012	24674
7,73425	22675
7,73837	23538
7,74248	22843
7,74662	25061
7,75073	23056
7,75485	24235
7,75897	23196
7,76310	23444
7,76722	22540
7,77133	23958
7,77547	23068
7,77958	23821
7,78370	22899
7,78783	22852
7,79195	24153
7,79607	24663
7,80020	23901
7,80432	23403
7,80843	22581
7,81257	22037
7,81668	22897
7,82080	23947
7,82493	22742
7,82905	22469
7,83317	23068
7,83730	23278
7,84142	22440
7,84553	23234
7,84965	23011
7,85378	25259
7,85790	22808
7,86202	23571
7,86615	25135
7,87027	26657
7,87438	25357
7,87852	25212
7,88263	26470
7,88675	27495
7,89088	26369
7,89500	27918
7,89912	31766
7,90325	39835
7,90737	55741
7,91148	82615
7,91562	129976
7,91973	196483
7,92385	292810
7,92798	396516
7,93210	525367
7,93622	647276
7,94033	748948
7,94447	827256
7,94858	881537
7,95270	903425
7,95683	895950
7,96095	868791
7,96507	835652
7,96920	786025
7,97332	734184
7,97743	667376
7,98157	618294
7,98568	566834
7,98980	518228
7,99393	468561
7,99805	417984
8,00217	374081
8,00630	332414
8,01042	284886
8,01453	257111
8,01867	222151
8,02278	193796
8,02690	164352
8,03102	148096
8,03515	126027
8,03927	111068
8,04338	98199
8,04752	86947
8,05163	77278
8,05575	66238
8,05988	63546
8,06400	56786
8,06812	54091
8,07225	50660
8,07637	47046
8,08048	44041
8,08462	42403
8,08873	38691
8,09285	36999
8,09698	34784
8,10110	34947
8,10522	34869
8,10935	31297
8,11347	32857
8,11758	30315
8,12170	30599
8,12583	29272
8,12995	29249
8,13407	26965
8,13820	27315
8,14232	26918
8,14643	27136
8,15057	25813
8,15468	24917
8,15880	25046
8,16293	23865
8,16705	24755
8,17117	22944
8,17530	22424
8,17942	23565
8,18353	25539
8,18767	23611
8,19178	23725
8,19590	22522
8,20003	23953
8,20415	22046
8,20827	21605
8,21238	22193
8,21652	22562
8,22063	22844
8,22475	23050
8,22888	21169
8,23300	23867
8,23712	22734
8,24125	22411
8,24537	21484
8,24948	21469
8,25362	21187
8,25773	21431
8,26185	22249
8,26598	23018
8,27010	20726
8,27422	21767
8,27835	19606
8,28247	19606
8,28658	20313
8,29072	20448
8,29483	21411
8,29895	20923
8,30307	20139
8,30720	21509
8,31132	22135
8,31543	22911
8,31957	21813
8,32368	22437
8,32780	25284
8,33193	23451
8,33605	23994
8,34017	24978
8,34430	24334
8,34842	24409
8,35253	25312
8,35667	24778
8,36078	24496
8,36490	24082
8,36903	22412
8,37315	23956
8,37727	23853
8,38140	22581
8,38552	21726
8,38963	20480
8,39375	21730
8,39788	22815
8,40200	21599
8,40612	20881
8,41025	19882
8,41437	19447
8,41848	20000
8,42262	19277
8,42673	19124
8,43085	18215
8,43498	18512
8,43910	18280
8,44322	18026
8,44735	19086
8,45147	20284
8,45558	18507
8,45972	18873
8,46383	19162
8,46795	18354
8,47208	17714
8,47620	19190
8,48032	18036
8,48443	19087
8,48857	18257
8,49268	18722
8,49680	19013
8,50093	17875
8,50505	19287
8,50917	18764
8,51330	19390
8,51742	18479
8,52153	17697
8,52567	17698
8,52978	17219
8,53390	16793
8,53803	18256
8,54215	17877
8,54627	16998
8,55040	18304
8,55452	18442
8,55863	16265
8,56277	18131
8,56688	17605
8,57100	17069
8,57512	20024
8,57925	18633
8,58337	19393
8,58748	20557
8,59162	21268
8,59573	22462
8,59985	23794
8,60398	23532
8,60810	22741
8,61222	24775
8,61635	23525
8,62047	25038
8,62458	26788
8,62872	24576
8,63283	23648
8,63695	23662
8,64108	23997
8,64520	22876
8,64932	23965
8,65345	22473
8,65757	22962
8,66168	20792
8,66580	21046
8,66993	20943
8,67405	19915
8,67817	19455
8,68230	18140
8,68642	18439
8,69053	18914
8,69467	17957
8,69878	21582
8,70290	23992
8,70703	34991
8,71115	49891
8,71527	86192
8,71940	150100
8,72352	247491
8,72763	392618
8,73177	595816
8,73588	848189
8,74000	1134943
8,74413	1425986
8,74825	1684529
8,75237	1902082
8,75648	2051266
8,76062	2127239
8,76473	2115342
8,76885	2052171
8,77298	1935482
8,77710	1795593
8,78122	1657262
8,78535	1492075
8,78947	1327605
8,79358	1160164
8,79772	1010391
8,80183	871323
8,80595	741605
8,81008	631366
8,81420	531784
8,81832	447189
8,82245	374371
8,82657	313291
8,83068	265057
8,83482	220332
8,83893	191625
8,84305	168345
8,84717	144205
8,85130	124456
8,85542	106474
8,85953	99378
8,86367	87975
8,86778	81434
8,87190	70666
8,87603	66808
8,88015	61651
8,88427	59761
8,88840	53989
8,89252	53718
8,89663	50351
8,90077	50699
8,90488	49005
8,90900	46418
8,91313	46433
8,91725	44677
8,92137	43577
8,92550	42348
8,92962	42026
8,93373	40856
8,93785	40544
8,94198	38258
8,94610	38309
8,95022	36095
8,95435	35161
8,95847	36556
8,96258	32841
8,96672	30731
8,97083	30979
8,97495	29898
8,97908	29271
8,98320	28707
8,98732	26137
8,99145	28027
8,99557	25385
8,99968	26204
9,00382	23663
9,00793	24637
9,01205	23976
9,01618	22260
9,02030	21891
9,02442	23351
9,02853	21441
9,03267	22091
9,03678	21852
9,04090	22261
9,04503	20925
9,04915	19081
9,05327	19268
9,05740	20372
9,06152	20244
9,06563	20424
9,06977	20064
9,07388	20180
9,07800	19372
9,08213	19757
9,08625	20163
9,09037	19720
9,09450	20584
9,09862	22989
9,10273	22045
9,10687	22414
9,11098	20651
9,11510	21130
9,11922	22173
9,12335	22949
9,12747	22101
9,13158	22887
9,13572	24385
9,13983	22846
9,14395	20432
9,14808	22727
9,15220	23326
9,15632	22053
9,16045	21939
9,16457	22368
9,16868	21940
9,17282	22091
9,17693	22384
9,18105	22606
9,18518	20975
9,18930	20560
9,19342	22524
9,19755	20138
9,20167	20992
9,20578	19498
9,20990	19739
9,21403	18482
9,21815	19257
9,22227	18262
9,22640	19488
9,23052	18622
9,23463	20250
9,23877	18071
9,24288	17634
9,24700	18632
9,25113	17431
9,25525	18630
9,25937	16929
9,26350	17650
9,26762	17477
9,27173	17307
9,27587	17809
9,27998	18204
9,28410	16635
9,28823	18052
9,29235	17413
9,29647	18416
9,30060	16087
9,30472	15627
9,30883	18084
9,31295	17107
9,31708	16958
9,32120	17108
9,32532	16894
9,32945	19787
9,33357	25424
9,33768	35286
9,34182	54229
9,34593	83057
9,35005	137571
9,35418	207104
9,35830	307654
9,36242	435836
9,36655	575580
9,37067	722785
9,37478	850521
9,37892	958895
9,38303	1016761
9,38715	1054579
9,39128	1038604
9,39540	1017804
9,39952	966645
9,40363	889856
9,40777	798992
9,41188	711630
9,41600	616679
9,42013	533199
9,42425	450542
9,42837	387359
9,43250	320723
9,43662	278485
9,44073	230118
9,44487	195690
9,44898	165139
9,45310	137844
9,45723	119548
9,46135	103898
9,46547	89290
9,46960	81049
9,47372	72019
9,47783	65739
9,48197	58734
9,48608	54200
9,49020	51014
9,49432	47122
9,49845	42787
9,50257	39633
9,50668	39526
9,51082	38534
9,51493	34193
9,51905	32268
9,52318	30407
9,52730	27845
9,53142	27868
9,53555	28037
9,53967	26823
9,54378	28299
9,54792	25051
9,55203	25889
9,55615	31422
9,56028	38072
9,56440	52859
9,56852	82266
9,57265	132160
9,57677	208851
9,58088	315886
9,58500	455558
9,58913	608246
9,59325	771338
9,59737	931298
9,60150	1072688
9,60562	1167147
9,60973	1221982
9,61387	1201822
9,61798	1160557
9,62210	1096628
9,62623	992388
9,63035	894791
9,63447	780462
9,63860	669475
9,64272	573011
9,64683	479998
9,65097	397626
9,65508	332974
9,65920	273805
9,66333	225747
9,66745	184118
9,67157	156867
9,67568	131101
9,67982	113942
9,68393	100986
9,68805	89167
9,69218	78782
9,69630	70010
9,70042	61597
9,70455	59341
9,70867	51258
9,71278	49639
9,71692	45275
9,72103	41995
9,72515	40593
9,72928	36256
9,73340	37634
9,73752	33601
9,74165	32557
9,74577	32869
9,74988	29772
9,75402	30928
9,75813	28847
9,76225	27564
9,76637	24579
9,77050	27267
9,77462	25266
9,77873	25265
9,78287	23554
9,78698	23624
9,79110	22873
9,79523	23387
9,79935	23585
9,80347	22798
9,80760	21413
9,81172	21265
9,81583	21264
9,81997	20099
9,82408	19449
9,82820	19895
9,83233	18974
9,83645	18360
9,84057	18719
9,84470	19861
9,84882	18021
9,85293	17856
9,85705	18138
9,86118	17662
9,86530	18679
9,86942	16482
9,87355	16650
9,87767	17299
9,88178	17228
9,88592	16330
9,89003	16413
9,89415	17444
9,89828	16270
9,90240	16110
9,90652	16341
9,91065	17404
9,91477	15558
9,91888	18389
9,92302	16870
9,92713	15244
9,93125	17328
9,93538	15809
9,93950	16502
9,94362	16491
9,94773	15308
9,95187	15947
9,95598	16122
9,96010	15382
9,96423	15651
9,96835	15149
9,97247	15817
9,97660	15506
9,98072	13574
9,98483	15354
9,98897	14207
9,99308	14449
9,99720	15801
10,00133	15043
10,00545	15747
10,00957	16444
10,01370	15312
10,01782	14756
10,02193	15327
10,02607	16886
10,03018	15773
10,03430	15857
10,03842	15095
10,04255	15983
10,04667	15462
10,05078	15798
10,05492	15511
10,05903	14232
10,06315	15204
10,06728	14787
10,07140	14760
10,07552	15189
10,07965	15283
10,08377	13620
10,08788	14145
10,09202	14306
10,09613	15547
10,10025	14840
10,10438	14005
10,10850	15617
10,11262	15252
10,11675	15502
10,12087	14745
10,12498	13002
10,12910	14413
10,13323	16675
10,13735	14803
10,14147	14708
10,14560	14597
10,14972	14087
10,15383	13851
10,15797	14781
10,16208	14175
10,16620	15341
10,17033	14206
10,17445	14372
10,17857	13619
10,18270	15115
10,18682	15211
10,19093	15105
10,19507	13909
10,19918	15521
10,20330	17248
10,20743	22347
10,21155	32990
10,21567	50936
10,21978	82928
10,22392	134381
10,22803	219070
10,23215	332701
10,23628	476563
10,24040	642238
10,24452	809884
10,24865	956797
10,25277	1095683
10,25688	1172966
10,26102	1196619
10,26513	1173710
10,26925	1123196
10,27338	1031611
10,27750	924425
10,28162	808331
10,28575	688340
10,28987	578328
10,29398	483263
10,29812	398749
10,30223	327597
10,30635	271029
10,31047	227949
10,31460	188868
10,31872	157359
10,32283	136935
10,32697	117365
10,33108	100952
10,33520	87902
10,33933	79214
10,34345	69233
10,34757	62714
10,35170	56898
10,35582	51573
10,35993	49170
10,36407	45898
10,36818	43453
10,37230	40459
10,37643	39268
10,38055	34690
10,38467	34036
10,38880	30227
10,39292	30920
10,39703	30578
10,40115	29075
10,40528	28776
10,40940	27666
10,41352	25737
10,41765	26980
10,42177	27613
10,42588	35458
10,43002	47021
10,43413	73270
10,43825	131171
10,44238	230307
10,44650	395565
10,45062	642734
10,45475	994549
10,45887	1433299
10,46298	1973126
10,46712	2550251
10,47123	3120054
10,47535	3619041
10,47948	3969237
10,48360	4143777
10,48772	4093756
10,49183	3911000
10,49597	3590996
10,50008	3186739
10,50420	2708922
10,50833	2269049
10,51245	1877647
10,51657	1515551
10,52070	1219895
10,52482	986193
10,52893	799036
10,53307	648680
10,53718	533493
10,54130	443291
10,54543	371233
10,54955	319453
10,55367	273112
10,55780	244519
10,56192	212455
10,56603	182701
10,57017	164990
10,57428	148638
10,57840	135071
10,58252	121333
10,58665	112980
10,59077	99716
10,59488	94536
10,59902	88924
10,60313	81767
10,60725	77279
10,61138	71559
10,61550	65924
10,61962	63631
10,62375	60508
10,62787	55081
10,63198	52926
10,63612	48825
10,64023	49513
10,64435	48058
10,64848	46351
10,65260	42412
10,65672	41485
10,66085	41103
10,66497	39254
10,66908	38034
10,67320	36784
10,67733	35216
10,68145	34790
10,68557	33023
10,68970	31887
10,69382	29769
10,69793	31260
10,70207	29358
10,70618	28703
10,71030	27819
10,71443	27648
10,71855	26559
10,72267	25718
10,72680	25775
10,73092	24579
10,73503	24980
10,73917	23145
10,74328	23242
10,74740	24355
10,75153	22038
10,75565	23015
10,75977	22062
10,76388	19950
10,76802	20906
10,77213	21156
10,77625	19728
10,78038	21382
10,78450	19852
10,78862	19077
10,79275	19621
10,79687	19704
10,80098	18792
10,80512	18446
10,80923	19046
10,81335	19264
10,81748	19278
10,82160	18956
10,82572	17349
10,82985	18616
10,83397	19049
10,83808	18877
10,84222	20029
10,84633	19790
10,85045	19434
10,85457	18614
10,85870	19890
10,86282	19277
10,86693	16779
10,87107	18082
10,87518	17875
10,87930	18552
10,88343	16146
10,88755	15535
10,89167	16996
10,89580	15790
10,89992	16342
10,90403	16548
10,90817	16048
10,91228	17322
10,91640	16151
10,92053	17080
10,92465	16242
10,92877	18191
10,93290	17213
10,93702	17302
10,94113	16446
10,94527	18512
10,94938	17497
10,95350	16595
10,95762	16236
10,96175	18448
10,96587	19214
10,96998	21060
10,97412	25509
10,97823	36227
10,98235	58577
10,98648	90156
10,99060	147685
10,99472	244898
10,99885	369901
11,00297	522139
11,00708	707203
11,01122	878398
11,01533	1058135
11,01945	1190419
11,02358	1272416
11,02770	1296269
11,03182	1257034
11,03595	1180437
11,04007	1067220
11,04418	928527
11,04830	791997
11,05243	660872
11,05655	534100
11,06067	444833
11,06480	361508
11,06892	297712
11,07303	244163
11,07717	201833
11,08128	172290
11,08540	144320
11,08953	128593
11,09365	109945
11,09777	95669
11,10190	84611
11,10602	76883
11,11013	70535
11,11427	66729
11,11838	59556
11,12250	55564
11,12663	55609
11,13075	52122
11,13487	51043
11,13898	49064
11,14312	44623
11,14723	46414
11,15135	41607
11,15548	40078
11,15960	39761
11,16372	39504
11,16785	36797
11,17197	35469
11,17608	37157
11,18022	36324
11,18433	35203
11,18845	34121
11,19258	35272
11,19670	32952
11,20082	32845
11,20495	33376
11,20907	31092
11,21318	31476
11,21732	29540
11,22143	28455
11,22555	23968
11,22967	24227
11,23380	23736
11,23792	23666
11,24203	22896
11,24617	20759
11,25028	22209
11,25440	20142
11,25853	20686
11,26265	18590
11,26677	19414
11,27090	19753
11,27502	17732
11,27913	19421
11,28327	19861
11,28738	18692
11,29150	17572
11,29563	20173
11,29975	21663
11,30387	21669
11,30800	28043
11,31212	39475
11,31623	61368
11,32035	103785
11,32448	174382
11,32860	277475
11,33272	422777
11,33685	612131
11,34097	824465
11,34508	1040617
11,34922	1234873
11,35333	1390548
11,35745	1482346
11,36158	1492305
11,36570	1400249
11,36982	1293631
11,37395	1148508
11,37807	963576
11,38218	816201
11,38632	675143
11,39043	551724
11,39455	438009
11,39868	357907
11,40280	289139
11,40692	237853
11,41103	200811
11,41517	171733
11,41928	144731
11,42340	126412
11,42753	107162
11,43165	95719
11,43577	86108
11,43990	79656
11,44402	69522
11,44813	63411
11,45227	56114
11,45638	55863
11,46050	47202
11,46463	46908
11,46875	44479
11,47287	41577
11,47700	38601
11,48112	36769
11,48523	35248
11,48937	32253
11,49348	32726
11,49760	32517
11,50172	30816
11,50585	30610
11,50997	30103
11,51408	27726
11,51822	27298
11,52233	26500
11,52645	26213
11,53058	26879
11,53470	25036
11,53882	24050
11,54295	24743
11,54707	23580
11,55118	20774
11,55532	21912
11,55943	20502
11,56355	21029
11,56768	19489
11,57180	22158
11,57592	21155
11,58005	20182
11,58417	20202
11,58828	20948
11,59240	20143
11,59653	20060
11,60065	20335
11,60477	19734
11,60890	19668
11,61302	19054
11,61713	18806
11,62127	18587
11,62538	17265
11,62950	17418
11,63363	17608
11,63775	17146
11,64187	17335
11,64600	17051
11,65012	17084
11,65423	16506
11,65837	17723
11,66248	17314
11,66660	16636
11,67073	15824
11,67485	16337
11,67897	15936
11,68308	15244
11,68722	16187
11,69133	16147
11,69545	16733
11,69958	14830
11,70370	14921
11,70782	15178
11,71195	13332
11,71607	16281
11,72018	13688
11,72432	15159
11,72843	15285
11,73255	15863
11,73668	16198
11,74080	14684
11,74492	15438
11,74905	15404
11,75317	15026
11,75728	15732
11,76142	15623
11,76553	14131
11,76965	15476
11,77377	15397
11,77790	14251
11,78202	15208
11,78613	14768
11,79027	14629
11,79438	13390
11,79850	15969
11,80263	13703
11,80675	14514
11,81087	14744
11,81500	13351
11,81912	14248
11,82323	14648
11,82737	13178
11,83148	14277
11,83560	16045
11,83973	15787
11,84385	16019
11,84797	19300
11,85210	23420
11,85622	37204
11,86033	53800
11,86445	91526
11,86858	151405
11,87270	242743
11,87682	375612
11,88095	545168
11,88507	752948
11,88918	967391
11,89332	1151032
11,89743	1304668
11,90155	1395724
11,90568	1429828
11,90980	1381035
11,91392	1279099
11,91805	1147248
11,92217	994642
11,92628	823087
11,93042	687531
11,93453	555179
11,93865	458492
11,94278	366628
11,94690	301716
11,95102	251910
11,95513	209782
11,95927	174972
11,96338	151790
11,96750	127538
11,97163	115558
11,97575	101681
11,97987	88963
11,98400	77702
11,98812	73136
11,99223	64215
11,99637	60186
12,00048	54659
12,00460	53075
12,00873	48905
12,01285	45878
12,01697	42937
12,02110	38508
12,02522	38404
12,02933	35571
12,03347	36010
12,03758	34875
12,04170	32543
12,04582	29565
12,04995	29504
12,05407	28714
12,05818	27884
12,06232	26228
12,06643	26338
12,07055	25460
12,07468	24607
12,07880	23723
12,08292	22414
12,08705	21935
12,09117	22803
12,09528	20261
12,09942	22611
12,10353	21647
12,10765	20929
12,11178	21423
12,11590	20989
12,12002	19915
12,12415	19026
12,12827	20279
12,13238	18227
12,13650	18078
12,14063	17568
12,14475	18325
12,14887	18439
12,15300	18351
12,15712	17932
12,16123	17114
12,16537	18203
12,16948	20241
12,17360	23041
12,17773	29662
12,18185	43447
12,18597	70818
12,19010	125981
12,19422	221736
12,19833	374796
12,20247	596271
12,20658	899875
12,21070	1298865
12,21483	1740649
12,21895	2203977
12,22307	2631216
12,22718	2980398
12,23132	3224711
12,23543	3286057
12,23955	3193913
12,24368	2898114
12,24780	2560840
12,25192	2174614
12,25605	1778889
12,26017	1439017
12,26428	1152049
12,26842	923492
12,27253	752051
12,27665	606982
12,28078	497441
12,28490	413593
12,28902	348351
12,29315	301850
12,29727	257898
12,30138	223607
12,30552	194078
12,30963	174654
12,31375	156218
12,31787	140716
12,32200	123698
12,32612	114058
12,33023	107074
12,33437	96291
12,33848	90806
12,34260	85839
12,34673	80071
12,35085	72778
12,35497	68259
12,35910	67134
12,36322	62261
12,36733	61879
12,37147	56649
12,37558	53568
12,37970	52840
12,38383	49209
12,38795	45588
12,39207	45152
12,39620	43871
12,40032	42779
12,40443	41489
12,40855	39343
12,41268	38150
12,41680	37154
12,42092	34298
12,42505	33347
12,42917	34158
12,43328	33436
12,43742	33181
12,44153	30373
12,44565	29700
12,44978	29491
12,45390	27515
12,45802	26236
12,46215	25437
12,46627	25469
12,47038	26190
12,47452	25267
12,47863	26017
12,48275	26031
12,48688	30745
12,49100	38355
12,49512	54770
12,49923	83341
12,50337	133320
12,50748	209204
12,51160	332137
12,51573	495856
12,51985	702360
12,52397	939656
12,52810	1145555
12,53222	1344284
12,53633	1497075
12,54047	1549831
12,54458	1525372
12,54870	1450678
12,55283	1299984
12,55695	1134502
12,56107	949389
12,56520	788956
12,56932	644631
12,57343	535600
12,57757	427040
12,58168	354283
12,58580	293423
12,58992	243114
12,59405	208737
12,59817	180860
12,60228	157473
12,60642	134727
12,61053	120306
12,61465	104771
12,61878	97402
12,62290	87327
12,62702	79620
12,63115	72853
12,63527	66855
12,63938	65893
12,64352	65247
12,64763	71813
12,65175	86025
12,65588	119468
12,66000	188896
12,66412	307159
12,66825	495531
12,67237	755445
12,67648	1108125
12,68062	1533240
12,68473	1977466
12,68885	2421716
12,69297	2798698
12,69710	3023210
12,70122	3116026
12,70533	3056843
12,70947	2857063
12,71358	2535270
12,71770	2175749
12,72183	1806870
12,72595	1457162
12,73007	1185162
12,73420	961018
12,73832	780622
12,74243	638193
12,74657	524128
12,75068	435746
12,75480	372506
12,75893	322434
12,76305	277750
12,76717	245212
12,77130	214051
12,77542	192157
12,77953	169365
12,78365	149484
12,78778	142257
12,79190	127326
12,79602	120290
12,80015	110069
12,80427	101787
12,80838	93729
12,81252	86217
12,81663	82257
12,82075	75654
12,82488	74970
12,82900	70703
12,83312	66969
12,83725	63629
12,84137	61207
12,84548	59399
12,84962	55392
12,85373	53272
12,85785	51276
12,86198	49300
12,86610	47664
12,87022	44699
12,87433	42571
12,87847	41524
12,88258	41099
12,88670	39085
12,89083	36848
12,89495	38314
12,89907	34796
12,90320	34134
12,90732	32845
12,91143	33440
12,91557	33261
12,91968	31571
12,92380	30196
12,92793	30155
12,93205	31389
12,93617	31326
12,94030	29746
12,94442	27826
12,94853	27692
12,95267	28481
12,95678	26785
12,96090	26940
12,96502	26890
12,96915	25686
12,97327	26338
12,97738	25709
12,98152	23029
12,98563	23640
12,98975	24550
12,99388	29965
12,99800	36843
13,00212	49845
13,00625	73420
13,01037	120204
13,01448	190421
13,01862	304723
13,02273	461963
13,02685	649468
13,03098	874201
13,03510	1105503
13,03922	1300697
13,04335	1464429
13,04747	1560508
13,05158	1629483
13,05570	1692946
13,05983	1798834
13,06395	1921680
13,06807	2142499
13,07220	2438564
13,07632	2812107
13,08043	3162426
13,08457	3462539
13,08868	3604884
13,09280	3566578
13,09693	3385503
13,10105	3024385
13,10517	2588185
13,10930	2140262
13,11342	1753060
13,11753	1416019
13,12167	1147084
13,12578	925456
13,12990	760485
13,13403	639758
13,13815	528941
13,14227	451481
13,14638	387322
13,15052	335734
13,15463	295645
13,15875	259832
13,16288	236489
13,16700	211031
13,17112	190545
13,17525	173746
13,17937	161039
13,18348	147540
13,18762	135204
13,19173	124255
13,19585	118117
13,19998	107355
13,20410	103807
13,20822	97914
13,21235	92067
13,21647	86366
13,22058	83452
13,22472	79303
13,22883	74395
13,23295	74019
13,23707	70018
13,24120	65389
13,24532	64237
13,24943	62187
13,25357	59169
13,25768	59201
13,26180	54348
13,26593	52223
13,27005	49694
13,27417	51620
13,27830	49328
13,28242	47402
13,28653	44644
13,29067	45806
13,29478	43695
13,29890	43255
13,30303	44354
13,30715	39315
13,31127	40055
13,31540	39670
13,31952	38240
13,32363	37392
13,32775	36593
13,33188	35016
13,33600	34201
13,34012	34567
13,34425	30646
13,34837	32607
13,35248	33838
13,35662	35918
13,36073	41256
13,36485	51313
13,36898	77043
13,37310	116484
13,37722	182079
13,38135	284284
13,38547	424631
13,38958	605636
13,39372	813080
13,39783	1015573
13,40195	1180716
13,40608	1302539
13,41020	1374422
13,41432	1358096
13,41843	1302618
13,42257	1173933
13,42668	1014843
13,43080	865944
13,43493	723180
13,43905	597924
13,44317	488289
13,44730	397297
13,45142	330704
13,45553	276201
13,45967	231164
13,46378	197662
13,46790	172556
13,47203	149261
13,47615	131568
13,48027	116185
13,48440	99785
13,48852	96148
13,49263	86024
13,49677	82174
13,50088	75840
13,50500	68853
13,50912	66942
13,51325	62020
13,51737	61295
13,52148	56734
13,52562	53420
13,52973	52650
13,53385	55148
13,53798	49207
13,54210	47534
13,54622	45243
13,55035	44683
13,55447	45413
13,55858	43267
13,56272	41990
13,56683	39683
13,57095	37590
13,57508	37178
13,57920	36138
13,58332	35828
13,58745	35220
13,59157	34582
13,59568	33796
13,59980	32308
13,60393	31682
13,60805	29619
13,61217	30348
13,61630	31194
13,62042	28662
13,62453	27660
13,62867	27136
13,63278	28240
13,63690	28546
13,64103	26705
13,64515	26721
13,64927	26257
13,65340	26143
13,65752	26232
13,66163	23697
13,66577	25623
13,66988	24725
13,67400	24102
13,67813	24944
13,68225	23031
13,68637	23660
13,69048	22739
13,69462	23177
13,69873	23664
13,70285	23706
13,70698	21983
13,71110	21613
13,71522	20247
13,71935	23646
13,72347	22070
13,72758	22172
13,73172	22739
13,73583	22247
13,73995	21719
13,74408	21204
13,74820	20147
13,75232	22954
13,75645	20407
13,76057	21289
13,76468	21540
13,76882	21738
13,77293	22246
13,77705	21067
13,78117	21673
13,78530	19828
13,78942	20607
13,79353	18624
13,79767	20712
13,80178	20013
13,80590	21720
13,81003	20334
13,81415	20820
13,81827	20354
13,82240	20743
13,82652	18718
13,83063	19822
13,83477	19494
13,83888	20179
13,84300	21917
13,84713	21242
13,85125	19331
13,85537	21176
13,85950	22406
13,86362	28147
13,86773	37097
13,87185	57428
13,87598	96823
13,88010	173030
13,88422	298360
13,88835	492408
13,89247	782000
13,89658	1173663
13,90072	1666125
13,90483	2233382
13,90895	2832914
13,91308	3420680
13,91720	3939181
13,92132	4351553
13,92545	4606645
13,92957	4593674
13,93368	4390038
13,93782	4021009
13,94193	3491686
13,94605	2939217
13,95018	2420853
13,95430	1968922
13,95842	1599385
13,96253	1286618
13,96667	1046201
13,97078	864952
13,97490	722498
13,97903	614779
13,98315	523694
13,98727	460040
13,99140	400308
13,99552	352745
13,99963	313677
14,00377	277639
14,00788	252520
14,01200	226825
14,01613	206747
14,02025	192390
14,02437	176758
14,02850	165436
14,03262	152614
14,03673	144989
14,04087	130105
14,04498	124433
14,04910	117489
14,05323	109575
14,05735	104509
14,06147	100729
14,06558	92586
14,06972	89085
14,07383	82953
14,07795	82926
14,08208	77211
14,08620	76841
14,09032	71269
14,09445	70103
14,09857	71559
14,10268	71954
14,10682	70817
14,11093	71326
14,11505	70090
14,11918	70546
14,12330	71778
14,12742	70738
14,13155	69728
14,13567	67210
14,13978	64550
14,14392	64735
14,14803	61524
14,15215	56176
14,15627	54750
14,16040	50304
14,16452	50969
14,16863	48557
14,17277	49805
14,17688	48828
14,18100	53256
14,18513	63746
14,18925	88644
14,19337	123883
14,19750	184216
14,20162	287345
14,20573	411258
14,20987	570507
14,21398	740747
14,21810	915580
14,22223	1069284
14,22635	1174156
14,23047	1209190
14,23460	1193606
14,23872	1123094
14,24283	1024221
14,24695	887867
14,25108	761807
14,25520	638687
14,25932	525963
14,26345	436890
14,26757	353958
14,27168	299045
14,27582	251239
14,27993	215575
14,28405	182331
14,28818	158103
14,29230	134994
14,29642	124279
14,30055	111012
14,30467	100460
14,30878	93290
14,31292	86772
14,31703	85320
14,32115	87067
14,32528	87843
14,32940	103479
14,33352	139352
14,33763	199782
14,34177	300928
14,34588	441688
14,35000	627944
14,35413	862077
14,35825	1110393
14,36237	1351438
14,36650	1553309
14,37062	1670261
14,37473	1679761
14,37887	1610501
14,38298	1496726
14,38710	1332404
14,39123	1145746
14,39535	948256
14,39947	791704
14,40360	659005
14,40772	541305
14,41183	450826
14,41597	380009
14,42008	323362
14,42420	272608
14,42832	247904
14,43245	216915
14,43657	190565
14,44068	172904
14,44482	156098
14,44893	142067
14,45305	128994
14,45718	121313
14,46130	111942
14,46542	103730
14,46955	96077
14,47367	89220
14,47778	89021
14,48192	78836
14,48603	76332
14,49015	74469
14,49428	68300
14,49840	65840
14,50252	63861
14,50665	61828
14,51077	57709
14,51488	56055
14,51900	53424
14,52313	54840
14,52725	49686
14,53137	47856
14,53550	47795
14,53962	46304
14,54373	46169
14,54787	44687
14,55198	44955
14,55610	43223
14,56023	44096
14,56435	40325
14,56847	40730
14,57260	39687
14,57672	37216
14,58083	36003
14,58497	36288
14,58908	36244
14,59320	37114
14,59733	33452
14,60145	33966
14,60557	33662
14,60968	33714
14,61382	32364
14,61793	34901
14,62205	33579
14,62618	32529
14,63030	30544
14,63442	30149
14,63855	32350
14,64267	32842
14,64678	30506
14,65092	32062
14,65503	28880
14,65915	30708
14,66328	30504
14,66740	28060
14,67152	29133
14,67565	29732
14,67977	29903
14,68388	30919
14,68802	37239
14,69213	44381
14,69625	61011
14,70037	97512
14,70450	155983
14,70862	255648
14,71273	401357
14,71687	612092
14,72098	865299
14,72510	1148857
14,72923	1433085
14,73335	1664056
14,73747	1807442
14,74160	1848206
14,74572	1789846
14,74983	1626901
14,75397	1436878
14,75808	1229284
14,76220	1027497
14,76633	847463
14,77045	694605
14,77457	585840
14,77870	492338
14,78282	409055
14,78693	352071
14,79105	307201
14,79518	266459
14,79930	232265
14,80342	210368
14,80755	183365
14,81167	170929
14,81578	152748
14,81992	139551
14,82403	131939
14,82815	123593
14,83228	111440
14,83640	105529
14,84052	98531
14,84465	94840
14,84877	89898
14,85288	88084
14,85702	83230
14,86113	77646
14,86525	71802
14,86938	72782
14,87350	70317
14,87762	67810
14,88173	68352
14,88587	65535
14,88998	62619
14,89410	60577
14,89823	60633
14,90235	55894
14,90647	56898
14,91060	54847
14,91472	53006
14,91883	50262
14,92297	51337
14,92708	47314
14,93120	45663
14,93533	47081
14,93945	43565
14,94357	46666
14,94770	44168
14,95182	43591
14,95593	42985
14,96007	39775
14,96418	41513
14,96830	40436
14,97242	38608
14,97655	38768
14,98067	37457
14,98478	37592
14,98892	38912
14,99303	38251
14,99715	36267
15,00128	39271
15,00540	38024
15,00952	45888
15,01365	60312
15,01777	83711
15,02188	126752
15,02602	198573
15,03013	308559
15,03425	466401
15,03838	667691
15,04250	891069
15,04662	1097614
15,05075	1285779
15,05487	1421341
15,05898	1468371
15,06310	1450236
15,06723	1345798
15,07135	1219699
15,07547	1061955
15,07960	905475
15,08372	752414
15,08783	622626
15,09197	526082
15,09608	434783
15,10020	368772
15,10433	309961
15,10845	267456
15,11257	231813
15,11670	199877
15,12082	181674
15,12493	160898
15,12907	146246
15,13318	130089
15,13730	120433
15,14143	113954
15,14555	102552
15,14967	96929
15,15378	88706
15,15792	84780
15,16203	79093
15,16615	78142
15,17028	72109
15,17440	66746
15,17852	65279
15,18265	64068
15,18677	59731
15,19088	59670
15,19502	59155
15,19913	55641
15,20325	53953
15,20738	51835
15,21150	51315
15,21562	49965
15,21975	51180
15,22387	49858
15,22798	46503
15,23212	44535
15,23623	43920
15,24035	47147
15,24447	43114
15,24860	41174
15,25272	41876
15,25683	40502
15,26097	41604
15,26508	40206
15,26920	39644
15,27333	40117
15,27745	35721
15,28157	39200
15,28570	36480
15,28982	34641
15,29393	37243
15,29807	35287
15,30218	35480
15,30630	34630
15,31043	34640
15,31455	32638
15,31867	34676
15,32280	33435
15,32692	32163
15,33103	34538
15,33515	34053
15,33928	33749
15,34340	33294
15,34752	32301
15,35165	31345
15,35577	32587
15,35988	31083
15,36402	31363
15,36813	29715
15,37225	31711
15,37638	30834
15,38050	33063
15,38462	32789
15,38875	33856
15,39287	33130
15,39698	33705
15,40112	32097
15,40523	33056
15,40935	30456
15,41348	31732
15,41760	31495
15,42172	29192
15,42583	30313
15,42997	30783
15,43408	32139
15,43820	29841
15,44233	29378
15,44645	29482
15,45057	29576
15,45470	29598
15,45882	29436
15,46293	29872
15,46707	30397
15,47118	30301
15,47530	33728
15,47943	37074
15,48355	47564
15,48767	66836
15,49180	107999
15,49592	180384
15,50003	302820
15,50417	504861
15,50828	800164
15,51240	1212589
15,51652	1733358
15,52065	2375620
15,52477	3109516
15,52888	3841838
15,53302	4448840
15,53713	4879192
15,54125	5082568
15,54538	4984003
15,54950	4627319
15,55362	4096074
15,55775	3515292
15,56187	2927177
15,56598	2409871
15,57012	1991011
15,57423	1631394
15,57835	1352910
15,58248	1129747
15,58660	954915
15,59072	821628
15,59485	704704
15,59897	615472
15,60308	535310
15,60720	489973
15,61133	429914
15,61545	391244
15,61957	351906
15,62370	326685
15,62782	303558
15,63193	278627
15,63607	257691
15,64018	240577
15,64430	220825
15,64843	207249
15,65255	199577
15,65667	186458
15,66080	180740
15,66492	166251
15,66903	159973
15,67317	153371
15,67728	146132
15,68140	135602
15,68553	131245
15,68965	123390
15,69377	121729
15,69790	115161
15,70202	109911
15,70613	109218
15,71025	104332
15,71438	103073
15,71850	101855
15,72262	96528
15,72675	92871
15,73087	89702
15,73498	88689
15,73912	85567
15,74323	84498
15,74735	80032
15,75148	78094
15,75560	75562
15,75972	75456
15,76385	71561
15,76797	72238
15,77208	71872
15,77622	70162
15,78033	72003
15,78445	73776
15,78858	74741
15,79270	82394
15,79682	102836
15,80093	135941
15,80507	190135
15,80918	273088
15,81330	395698
15,81743	561647
15,82155	747731
15,82567	956765
15,82980	1131089
15,83392	1279094
15,83803	1372399
15,84217	1370200
15,84628	1312203
15,85040	1209563
15,85453	1084736
15,85865	960958
15,86277	850792
15,86690	786693
15,87102	749798
15,87513	765494
15,87927	832939
15,88338	944455
15,88750	1074356
15,89162	1180581
15,89575	1305752
15,89987	1377734
15,90398	1378541
15,90812	1351204
15,91223	1269538
15,91635	1174689
15,92048	1074659
15,92460	998327
15,92872	982216
15,93285	999555
15,93697	1091261
15,94108	1240749
15,94522	1422954
15,94933	1615540
15,95345	1796049
15,95758	1883057
15,96170	1916880
15,96582	1847644
15,96995	1724555
15,97407	1533514
15,97818	1347003
15,98230	1163335
15,98643	980239
15,99055	833100
15,99467	708747
15,99880	603126
16,00292	526065
16,00703	460792
16,01117	404146
16,01528	365761
16,01940	328225
16,02353	293178
16,02765	277208
16,03177	247923
16,03590	230242
16,04002	215931
16,04413	204051
16,04827	186962
16,05238	178420
16,05650	164797
16,06063	156829
16,06475	149332
16,06887	142928
16,07298	135685
16,07712	130943
16,08123	122386
16,08535	118745
16,08948	116498
16,09360	110934
16,09772	106272
16,10185	104171
16,10597	102476
16,11008	93769
16,11422	91945
16,11833	90163
16,12245	88277
16,12658	87102
16,13070	81086
16,13482	80516
16,13895	80128
16,14307	77292
16,14718	77263
16,15132	72611
16,15543	73335
16,15955	70338
16,16367	71556
16,16780	69679
16,17192	65649
16,17603	66498
16,18017	66117
16,18428	65412
16,18840	65550
16,19253	64624
16,19665	65416
16,20077	62837
16,20490	62031
16,20902	62038
16,21313	61643
16,21727	61399
16,22138	59820
16,22550	57808
16,22963	57925
16,23375	58904
16,23787	59701
16,24200	62946
16,24612	63828
16,25023	76947
16,25435	94115
16,25848	128294
16,26260	183418
16,26672	269771
16,27085	403783
16,27497	588240
16,27908	824660
16,28322	1096329
16,28733	1386262
16,29145	1611945
16,29558	1775594
16,29970	1824680
16,30382	1763539
16,30795	1645085
16,31207	1474169
16,31618	1278382
16,32032	1091863
16,32443	932856
16,32855	779013
16,33268	671442
16,33680	578393
16,34092	504231
16,34503	445125
16,34917	386274
16,35328	349109
16,35740	314094
16,36153	282074
16,36565	261814
16,36977	238442
16,37390	218663
16,37802	206702
16,38213	191325
16,38627	178999
16,39038	169571
16,39450	158851
16,39863	153599
16,40275	145397
16,40687	140431
16,41100	136671
16,41512	133205
16,41923	129532
16,42337	122046
16,42748	118805
16,43160	113424
16,43572	110323
16,43985	108121
16,44397	104649
16,44808	100444
16,45222	98413
16,45633	93667
16,46045	92587
16,46458	90967
16,46870	85800
16,47282	84499
16,47695	83807
16,48107	81714
16,48518	81154
16,48932	79306
16,49343	77443
16,49755	75706
16,50168	75554
16,50580	77031
16,50992	71205
16,51405	72805
16,51817	70781
16,52228	70302
16,52640	69238
16,53053	68408
16,53465	68492
16,53877	68185
16,54290	65601
16,54702	66450
16,55113	68940
16,55527	66328
16,55938	69710
16,56350	77898
16,56763	92241
16,57175	119171
16,57587	169528
16,58000	254736
16,58412	377102
16,58823	541274
16,59237	760811
16,59648	991359
16,60060	1189044
16,60473	1369693
16,60885	1489692
16,61297	1531206
16,61708	1502197
16,62122	1403584
16,62533	1262742
16,62945	1095975
16,63358	939898
16,63770	794752
16,64182	679216
16,64595	574067
16,65007	505586
16,65418	438450
16,65832	405987
16,66243	404935
16,66655	413696
16,67068	460231
16,67480	540987
16,67892	650686
16,68305	782655
16,68717	941683
16,69128	1068428
16,69542	1181036
16,69953	1228526
16,70365	1234943
16,70777	1197951
16,71190	1096976
16,71602	984365
16,72013	868127
16,72427	749842
16,72838	640427
16,73250	548606
16,73663	472871
16,74075	401346
16,74487	346870
16,74900	305913
16,75312	276362
16,75723	244592
16,76137	222904
16,76548	206271
16,76960	187191
16,77373	173562
16,77785	159619
16,78197	149401
16,78610	141129
16,79022	134712
16,79433	127045
16,79845	123945
16,80258	118964
16,80670	109853
16,81082	105954
16,81495	107297
16,81907	100588
16,82318	99298
16,82732	93849
16,83143	92007
16,83555	89163
16,83968	91982
16,84380	88951
16,84792	82155
16,85205	83428
16,85617	82680
16,86028	77587
16,86442	79053
16,86853	81582
16,87265	77099
16,87678	74479
16,88090	76805
16,88502	75239
16,88913	71180
16,89327	70967
16,89738	68328
16,90150	70956
16,90563	71121
16,90975	68963
16,91387	68940
16,91800	69008
16,92212	65233
16,92623	67003
16,93037	66299
16,93448	64143
16,93860	65626
16,94273	63786
16,94685	62071
16,95097	62799
16,95510	62390
16,95922	62256
16,96333	60134
16,96747	60903
16,97158	60239
16,97570	60059
16,97982	57810
16,98395	61014
16,98807	62155
16,99218	66348
16,99632	73816
17,00043	94965
17,00455	123887
17,00868	176021
17,01280	266635
17,01692	403411
17,02105	596931
17,02517	859768
17,02928	1194273
17,03342	1587583
17,03753	2060875
17,04165	2533922
17,04578	2995984
17,04990	3314493
17,05402	3485055
17,05815	3484213
17,06227	3265826
17,06638	2930528
17,07050	2545753
17,07463	2148849
17,07875	1811390
17,08287	1502448
17,08700	1269273
17,09112	1086239
17,09523	930908
17,09937	816388
17,10348	706820
17,10760	635436
17,11173	568133
17,11585	517649
17,11997	465668
17,12410	428361
17,12822	398789
17,13233	369781
17,13647	338612
17,14058	321958
17,14470	296819
17,14883	282989
17,15295	262551
17,15707	251921
17,16118	233565
17,16532	227023
17,16943	217190
17,17355	210018
17,17768	198668
17,18180	193066
17,18592	183326
17,19005	179160
17,19417	176088
17,19828	170768
17,20242	162994
17,20653	158113
17,21065	153932
17,21478	148649
17,21890	145171
17,22302	143163
17,22715	138348
17,23127	137069
17,23538	129255
17,23952	127235
17,24363	121242
17,24775	124774
17,25188	119207
17,25600	113889
17,26012	114857
17,26423	114110
17,26837	110918
17,27248	108849
17,27660	108485
17,28073	106696
17,28485	104013
17,28897	102117
17,29310	102655
17,29722	99374
17,30133	97058
17,30547	96636
17,30958	97635
17,31370	95806
17,31783	94716
17,32195	91673
17,32607	91063
17,33020	89227
17,33432	89315
17,33843	88711
17,34257	88391
17,34668	88132
17,35080	86540
17,35492	85703
17,35905	85948
17,36317	85301
17,36728	85389
17,37142	82664
17,37553	80796
17,37965	86710
17,38378	80301
17,38790	82325
17,39202	79717
17,39615	81971
17,40027	84648
17,40438	91072
17,40852	100771
17,41263	124215
17,41675	162414
17,42088	224098
17,42500	310012
17,42912	435494
17,43325	599758
17,43737	790437
17,44148	1022769
17,44560	1242155
17,44973	1426757
17,45385	1553336
17,45797	1620170
17,46210	1581557
17,46622	1491220
17,47033	1363994
17,47447	1209202
17,47858	1050289
17,48270	912401
17,48683	793796
17,49095	693936
17,49507	605043
17,49920	532381
17,50332	478627
17,50743	426267
17,51157	393315
17,51568	356133
17,51980	320574
17,52393	300739
17,52805	279537
17,53217	260596
17,53628	245991
17,54042	228832
17,54453	219743
17,54865	208417
17,55278	196449
17,55690	189308
17,56102	180417
17,56515	173445
17,56927	165836
17,57338	160820
17,57752	154298
17,58163	147754
17,58575	149930
17,58988	136918
17,59400	135762
17,59812	133688
17,60225	129452
17,60637	123764
17,61048	121431
17,61462	120467
17,61873	113464
17,62285	115579
17,62697	113025
17,63110	110278
17,63522	109882
17,63933	106959
17,64347	108735
17,64758	101387
17,65170	99649
17,65583	101667
17,65995	98786
17,66407	95026
17,66820	95348
17,67232	96315
17,67643	92984
17,68057	90167
17,68468	90329
17,68880	91569
17,69293	90104
17,69705	88993
17,70117	86901
17,70530	88134
17,70942	84586
17,71353	87942
17,71765	84969
17,72178	85200
17,72590	82527
17,73002	83962
17,73415	81483
17,73827	83997
17,74238	79597
17,74652	77806
17,75063	80249
17,75475	80111
17,75888	79745
17,76300	79760
17,76712	79880
17,77125	77534
17,77537	76537
17,77948	76583
17,78362	75786
17,78773	77440
17,79185	75183
17,79598	75040
17,80010	75155
17,80422	70667
17,80833	72642
17,81247	73893
17,81658	73189
17,82070	71909
17,82483	74570
17,82895	73042
17,83307	74205
17,83720	76589
17,84132	86362
17,84543	93529
17,84957	99215
17,85368	106058
17,85780	114446
17,86193	126066
17,86605	132643
17,87017	135762
17,87430	139868
17,87842	135442
17,88253	136545
17,88667	131934
17,89078	123941
17,89490	115431
17,89902	111573
17,90315	106748
17,90727	98366
17,91138	91232
17,91552	88112
17,91963	85704
17,92375	80175
17,92788	78644
17,93200	74294
17,93612	74561
17,94025	71998
17,94437	69424
17,94848	70767
17,95262	70411
17,95673	72409
17,96085	68105
17,96498	67096
17,96910	64592
17,97322	63467
17,97735	67720
17,98147	66250
17,98558	63622
17,98970	66305
17,99383	64405
17,99795	65964
18,00207	63032
18,00620	63326
18,01032	61998
18,01443	62582
18,01857	61875
18,02268	63920
18,02680	64019
18,03093	63756
18,03505	62343
18,03917	63350
18,04330	63651
18,04742	62281
18,05153	60135
18,05567	62521
18,05978	61459
18,06390	62200
18,06803	64354
18,07215	60795
18,07627	61692
18,08038	60485
18,08452	63955
18,08863	60918
18,09275	60248
18,09688	59355
18,10100	60719
18,10512	57632
18,10925	60159
18,11337	60715
18,11748	58110
18,12162	60829
18,12573	56679
18,12985	58395
18,13398	61531
18,13810	60704
18,14222	59136
18,14635	59811
18,15047	60996
18,15458	58402
18,15872	60109
18,16283	60812
18,16695	55880
18,17107	60418
18,17520	61517
18,17932	57802
18,18343	61595
18,18757	60957
18,19168	58983
18,19580	57346
18,19993	59636
18,20405	58704
18,20817	60233
18,21230	57816
18,21642	59264
18,22053	61225
18,22467	58005
18,22878	58914
18,23290	57903
18,23703	60159
18,24115	58718
18,24527	58408
18,24940	58333
18,25352	56857
18,25763	60420
18,26175	57769
18,26588	57891
18,27000	57909
18,27412	59288
18,27825	57992
18,28237	57683
18,28648	58637
18,29062	59130
18,29473	58164
18,29885	60074
18,30298	59979
18,30710	59329
18,31122	57261
18,31535	59154
18,31947	58248
18,32358	62070
18,32772	59850
18,33183	59742
18,33595	56507
18,34008	55876
18,34420	56791
18,34832	57528
18,35243	57223
18,35657	57742
18,36068	57672
18,36480	56716
18,36893	56020
18,37305	57910
18,37717	56666
18,38130	57497
18,38542	59535
18,38953	58613
18,39367	57939
18,39778	56750
18,40190	57136
18,40603	60267
18,41015	58525
18,41427	57260
18,41840	55207
18,42252	56495
18,42663	58593
18,43077	55680
18,43488	56286
18,43900	57107
18,44312	54338
18,44725	55962
18,45137	53416
18,45548	56458
18,45962	58581
18,46373	56364
18,46785	53761
18,47198	58204
18,47610	55177
18,48022	56082
18,48435	53287
18,48847	56527
18,49258	54692
18,49672	57788
18,50083	54300
18,50495	56218
18,50908	57688
18,51320	54057
18,51732	58013
18,52145	54845
18,52557	56021
18,52968	56424
18,53380	55081
18,53793	58208
18,54205	54107
18,54617	57281
18,55030	53401
18,55442	57984
18,55853	56848
18,56267	58065
18,56678	58135
18,57090	56737
18,57503	57800
18,57915	54747
18,58327	57033
18,58740	57099
18,59152	59495
18,59563	63750
18,59977	70481
18,60388	82598
18,60800	102844
18,61213	129189
18,61625	168236
18,62037	224354
18,62448	291872
18,62862	388742
18,63273	485308
18,63685	586840
18,64098	678444
18,64510	759237
18,64922	815829
18,65335	836326
18,65747	835866
18,66158	802302
18,66572	746197
18,66983	688715
18,67395	628566
18,67808	565287
18,68220	500729
18,68632	451892
18,69045	394750
18,69457	360222
18,69868	311399
18,70282	282260
18,70693	263817
18,71105	235278
18,71517	215049
18,71930	198595
18,72342	182837
18,72753	176270
18,73167	163307
18,73578	152508
18,73990	139815
18,74403	135173
18,74815	129879
18,75227	125904
18,75640	122342
18,76052	116077
18,76463	110379
18,76877	106119
18,77288	105491
18,77700	99600
18,78113	99197
18,78525	96186
18,78937	92669
18,79350	90795
18,79762	92806
18,80173	89078
18,80587	88271
18,80998	89668
18,81410	85008
18,81822	83532
18,82235	83364
18,82647	79724
18,83058	79660
18,83472	80927
18,83883	77877
18,84295	77092
18,84708	77514
18,85120	74519
18,85532	73719
18,85945	73297
18,86357	72370
18,86768	72907
18,87182	69434
18,87593	72934
18,88005	70448
18,88418	69032
18,88830	70158
18,89242	70178
18,89655	70184
18,90067	69906
18,90478	69355
18,90890	67120
18,91303	64162
18,91715	67485
18,92127	66743
18,92540	68378
18,92952	68186
18,93363	69643
18,93777	69606
18,94188	65927
18,94600	67853
18,95013	66683
18,95425	64938
18,95837	63492
18,96250	66810
18,96662	65593
18,97073	64046
18,97487	65865
18,97898	65454
18,98310	63677
18,98723	64416
18,99135	64980
18,99547	64783
18,99958	63460
19,00372	64752
