D:\MassHunter\GCMS\1\data\Amal\Constant flow\70C\70C_1ml-min_9C-min_1.D Tue Aug 06 16:07:32 2024
Start of data points
6,24095,17622
6,24508,18161
6,24920,18312
6,25332,19750
6,25745,20251
6,26157,20347
6,26568,19409
6,26980,19714
6,27393,20339
6,27805,19573
6,28217,18531
6,28630,18983
6,29042,18628
6,29453,18417
6,29867,17356
6,30278,17912
6,30690,17369
6,31103,16182
6,31515,15301
6,31927,17814
6,32340,17138
6,32752,16086
6,33163,15811
6,33577,15244
6,33988,15321
6,34400,15729
6,34813,15088
6,35225,13938
6,35637,14987
6,36048,13925
6,36462,13601
6,36873,13629
6,37285,12936
6,37698,13243
6,38110,12737
6,38522,13429
6,38935,13371
6,39347,12817
6,39758,12323
6,40172,12475
6,40583,13105
6,40995,12742
6,41408,12196
6,41820,12033
6,42232,12335
6,42645,12335
6,43057,12597
6,43468,12191
6,43882,12151
6,44293,11261
6,44705,11104
6,45117,11261
6,45530,12049
6,45942,11884
6,46353,12255
6,46767,12532
6,47178,13094
6,47590,11626
6,48003,12569
6,48415,11776
6,48827,11480
6,49240,11502
6,49652,11244
6,50063,11345
6,50477,11575
6,50888,11270
6,51300,10169
6,51713,11118
6,52125,10766
6,52537,10690
6,52950,12233
6,53362,11483
6,53773,10512
6,54185,11646
6,54598,10399
6,55010,9944
6,55422,11845
6,55835,12816
6,56247,11460
6,56658,10444
6,57072,11138
6,57483,10686
6,57895,10636
6,58308,11417
6,58720,11395
6,59132,10637
6,59545,11056
6,59957,10899
6,60368,10289
6,60782,10514
6,61193,10133
6,61605,10150
6,62018,11311
6,62430,11593
6,62842,10664
6,63253,11786
6,63667,14425
6,64078,18160
6,64490,24163
6,64903,39603
6,65315,58831
6,65727,86338
6,66140,126259
6,66552,169979
6,66963,223240
6,67377,272411
6,67788,320954
6,68200,355488
6,68613,383864
6,69025,400921
6,69437,402065
6,69850,388343
6,70262,377015
6,70673,355305
6,71087,335870
6,71498,311409
6,71910,291526
6,72322,269695
6,72735,250384
6,73147,228479
6,73558,209938
6,73972,194247
6,74383,182118
6,74795,163266
6,75208,150178
6,75620,138522
6,76032,130629
6,76445,118615
6,76857,110338
6,77268,99443
6,77682,89367
6,78093,81200
6,78505,71577
6,78918,67828
6,79330,59371
6,79742,54354
6,80155,49604
6,80567,45909
6,80978,40721
6,81390,36743
6,81803,34452
6,82215,30474
6,82627,28501
6,83040,25883
6,83452,24444
6,83863,22315
6,84277,20135
6,84688,18917
6,85100,18538
6,85513,17820
6,85925,16824
6,86337,16513
6,86750,15463
6,87162,15983
6,87573,15132
6,87987,15289
6,88398,15630
6,88810,15440
6,89223,15657
6,89635,13133
6,90047,14056
6,90458,13361
6,90872,12187
6,91283,13031
6,91695,11055
6,92108,10303
6,92520,11418
6,92932,11044
6,93345,9450
6,93757,9043
6,94168,9713
6,94582,9464
6,94993,9592
6,95405,9025
6,95818,9058
6,96230,8695
6,96642,8373
6,97055,10035
6,97467,8616
6,97878,8494
6,98292,8525
6,98703,8357
6,99115,7142
6,99527,7700
6,99940,8109
7,00352,7661
7,00763,8181
7,01177,8327
7,01588,7904
7,02000,7054
7,02413,7312
7,02825,7377
7,03237,7647
7,03650,7973
7,04062,8134
7,04473,7458
7,04887,8092
7,05298,8556
7,05710,7620
7,06123,7680
7,06535,6908
7,06947,7624
7,07360,7429
7,07772,6567
7,08183,7350
7,08595,6816
7,09008,7635
7,09420,7393
7,09832,7688
7,10245,7916
7,10657,7181
7,11068,6466
7,11482,7967
7,11893,7381
7,12305,7871
7,12718,7311
7,13130,8157
7,13542,6578
7,13955,7033
7,14367,7090
7,14778,6823
7,15192,6314
7,15603,7015
7,16015,7341
7,16428,7333
7,16840,6694
7,17252,7754
7,17663,7063
7,18077,6745
7,18488,6681
7,18900,6801
7,19313,6667
7,19725,7125
7,20137,7168
7,20550,6401
7,20962,6480
7,21373,5966
7,21787,6201
7,22198,6616
7,22610,6115
7,23023,6219
7,23435,6430
7,23847,6226
7,24260,6876
7,24672,7030
7,25083,6050
7,25497,6357
7,25908,7148
7,26320,6634
7,26732,6041
7,27145,6023
7,27557,6558
7,27968,7004
7,28382,6684
7,28793,6238
7,29205,6166
7,29618,6924
7,30030,6687
7,30442,6200
7,30855,6677
7,31267,5975
7,31678,5666
7,32092,6033
7,32503,6339
7,32915,5783
7,33328,6419
7,33740,6302
7,34152,6084
7,34565,6187
7,34977,5624
7,35388,5929
7,35802,5736
7,36213,5444
7,36625,6116
7,37037,6325
7,37450,6456
7,37862,6177
7,38273,5533
7,38687,6214
7,39098,6131
7,39510,5509
7,39923,6690
7,40335,5701
7,40747,5683
7,41160,5941
7,41572,5325
7,41983,5902
7,42397,6450
7,42808,5286
7,43220,5717
7,43633,6053
7,44045,6523
7,44457,6087
7,44870,6500
7,45282,6829
7,45693,6520
7,46105,5865
7,46518,6010
7,46930,6109
7,47342,6458
7,47755,5843
7,48167,6564
7,48578,5766
7,48992,6786
7,49403,6145
7,49815,5442
7,50228,5846
7,50640,6272
7,51052,5781
7,51465,5686
7,51877,5489
7,52288,5714
7,52702,5917
7,53113,5203
7,53525,5373
7,53938,5868
7,54350,6388
7,54762,5306
7,55173,5729
7,55587,5502
7,55998,6424
7,56410,6897
7,56823,6076
7,57235,5366
7,57647,5966
7,58060,5507
7,58472,5159
7,58883,5370
7,59297,5561
7,59708,5719
7,60120,5679
7,60533,5698
7,60945,5291
7,61357,4783
7,61770,5647
7,62182,4839
7,62593,5903
7,63007,4802
7,63418,4993
7,63830,5745
7,64242,6051
7,64655,5606
7,65067,5333
7,65478,5549
7,65892,5492
7,66303,5549
7,66715,5599
7,67128,6013
7,67540,4834
7,67952,5629
7,68365,4878
7,68777,5622
7,69188,5366
7,69602,4854
7,70013,5801
7,70425,5242
7,70838,4790
7,71250,5475
7,71662,5636
7,72075,5402
7,72487,4883
7,72898,5417
7,73310,5361
7,73723,4712
7,74135,5005
7,74547,5277
7,74960,4665
7,75372,4878
7,75783,5005
7,76197,5252
7,76608,5251
7,77020,4580
7,77433,5706
7,77845,4969
7,78257,5331
7,78670,5288
7,79082,4847
7,79493,5507
7,79907,4968
7,80318,5081
7,80730,6215
7,81143,5218
7,81555,5329
7,81967,5080
7,82378,5374
7,82792,5126
7,83203,4784
7,83615,5549
7,84028,5327
7,84440,4948
7,84852,4480
7,85265,4756
7,85677,5588
7,86088,5415
7,86502,5497
7,86913,5174
7,87325,5469
7,87738,5191
7,88150,5993
7,88562,6118
7,88975,4743
7,89387,5686
7,89798,5047
7,90212,5820
7,90623,6327
7,91035,6735
7,91447,6073
7,91860,6079
7,92272,6396
7,92683,6746
7,93097,6380
7,93508,5663
7,93920,5253
7,94333,5807
7,94745,5835
7,95157,5550
7,95570,4891
7,95982,4542
7,96393,5134
7,96807,5552
7,97218,5456
7,97630,5713
7,98043,4981
7,98455,4592
7,98867,4835
7,99280,5064
7,99692,4776
8,00103,4856
8,00515,4741
8,00928,4720
8,01340,4852
8,01752,4182
8,02165,4978
8,02577,5007
8,02988,5151
8,03402,4707
8,03813,4979
8,04225,4850
8,04638,4496
8,05050,4721
8,05462,5269
8,05875,5468
8,06287,5327
8,06698,4134
8,07112,4504
8,07523,5226
8,07935,4799
8,08348,4632
8,08760,4645
8,09172,4981
8,09583,4805
8,09997,4648
8,10408,4683
8,10820,4884
8,11233,4534
8,11645,4375
8,12057,4888
8,12470,5191
8,12882,5680
8,13293,4619
8,13707,4358
8,14118,5356
8,14530,4239
8,14943,4495
8,15355,5903
8,15767,5179
8,16180,4265
8,16592,4739
8,17003,4969
8,17417,4638
8,17828,4457
8,18240,5175
8,18652,4467
8,19065,5457
8,19477,4740
8,19888,4399
8,20302,4703
8,20713,4147
8,21125,4613
8,21538,5364
8,21950,5328
8,22362,4890
8,22775,4605
8,23187,4781
8,23598,4924
8,24012,5211
8,24423,4816
8,24835,5143
8,25248,4833
8,25660,4452
8,26072,4365
8,26485,4831
8,26897,5321
8,27308,4413
8,27720,5043
8,28133,4376
8,28545,5118
8,28957,4862
8,29370,4824
8,29782,5164
8,30193,5092
8,30607,4211
8,31018,4218
8,31430,4967
8,31843,4296
8,32255,4103
8,32667,5293
8,33080,4583
8,33492,4681
8,33903,4334
8,34317,5602
8,34728,4524
8,35140,4788
8,35553,5178
8,35965,6710
8,36377,8187
8,36788,13185
8,37202,17949
8,37613,27614
8,38025,39420
8,38438,55635
8,38850,73465
8,39262,93279
8,39675,114297
8,40087,134535
8,40498,140208
8,40912,149104
8,41323,149659
8,41735,140228
8,42148,129087
8,42560,118996
8,42972,104333
8,43385,93066
8,43797,79348
8,44208,68094
8,44622,55370
8,45033,47295
8,45445,40880
8,45857,34463
8,46270,28582
8,46682,24484
8,47093,20636
8,47507,17646
8,47918,16877
8,48330,14092
8,48743,12943
8,49155,11666
8,49567,10621
8,49980,9017
8,50392,9168
8,50803,8925
8,51217,8037
8,51628,7887
8,52040,8156
8,52453,6576
8,52865,6063
8,53277,6336
8,53690,6759
8,54102,6106
8,54513,6163
8,54925,6077
8,55338,6427
8,55750,6138
8,56162,5133
8,56575,5527
8,56987,5942
8,57398,5755
8,57812,5359
8,58223,5846
8,58635,4828
8,59048,5349
8,59460,5240
8,59872,4601
8,60285,4405
8,60697,4003
8,61108,5329
8,61522,4489
8,61933,4699
8,62345,5111
8,62758,5104
8,63170,4226
8,63582,4555
8,63993,4821
8,64407,5098
8,64818,4360
8,65230,4351
8,65643,4331
8,66055,4803
8,66467,4135
8,66880,4480
8,67292,4584
8,67703,4331
8,68117,4056
8,68528,4213
8,68940,3990
8,69353,4661
8,69765,3687
8,70177,4210
8,70590,3812
8,71002,3963
8,71413,3774
8,71827,4407
8,72238,4337
8,72650,4014
8,73062,4453
8,73475,4125
8,73887,4155
8,74298,3989
8,74712,3369
8,75123,3269
8,75535,4059
8,75948,4423
8,76360,4333
8,76772,3976
8,77185,3890
8,77597,4328
8,78008,4098
8,78422,4201
8,78833,4246
8,79245,3849
8,79658,4199
8,80070,3138
8,80482,4407
8,80895,4603
8,81307,3956
8,81718,4196
8,82130,4156
8,82543,4083
8,82955,4052
8,83367,4449
8,83780,4593
8,84192,4420
8,84603,3866
8,85017,4028
8,85428,3862
8,85840,4108
8,86253,4420
8,86665,5290
8,87077,6315
8,87490,6453
8,87902,8107
8,88313,5734
8,88727,6713
8,89138,7229
8,89550,5391
8,89963,4822
8,90375,5416
8,90787,4585
8,91198,4273
8,91612,4238
8,92023,4709
8,92435,3688
8,92848,4480
8,93260,4004
8,93672,4166
8,94085,4184
8,94497,4292
8,94908,4358
8,95322,4044
8,95733,4566
8,96145,3788
8,96558,3813
8,96970,3162
8,97382,3914
8,97795,3444
8,98207,3504
8,98618,2966
8,99032,3569
8,99443,3881
8,99855,4241
9,00268,3738
9,00680,3563
9,01092,4077
9,01503,4050
9,01917,3568
9,02328,3679
9,02740,3916
9,03153,3919
9,03565,3522
9,03977,3123
9,04390,3835
9,04802,3618
9,05213,3500
9,05627,3700
9,06038,4096
9,06450,3259
9,06863,3865
9,07275,4222
9,07687,3888
9,08100,3880
9,08512,4041
9,08923,4233
9,09337,4528
9,09748,4275
9,10160,3935
9,10572,4406
9,10985,3895
9,11397,3305
9,11808,4045
9,12222,3971
9,12633,3108
9,13045,4221
9,13458,3753
9,13870,4338
9,14282,3571
9,14695,4032
9,15107,3776
9,15518,3694
9,15932,4770
9,16343,3699
9,16755,3306
9,17168,3482
9,17580,3446
9,17992,3964
9,18405,3309
9,18817,3616
9,19228,3997
9,19640,3337
9,20053,3110
9,20465,4043
9,20877,3669
9,21290,3344
9,21702,3952
9,22113,4317
9,22527,3543
9,22938,3316
9,23350,3528
9,23763,4488
9,24175,4072
9,24587,3289
9,25000,3432
9,25412,3470
9,25823,3615
9,26237,3471
9,26648,3844
9,27060,4031
9,27473,3491
9,27885,3342
9,28297,3125
9,28708,3149
9,29122,3805
9,29533,3548
9,29945,2981
9,30358,3386
9,30770,3183
9,31182,3480
9,31595,3917
9,32007,3979
9,32418,3909
9,32832,3896
9,33243,3903
9,33655,3639
9,34068,3673
9,34480,4420
9,34892,3015
9,35305,4223
9,35717,4162
9,36128,4178
9,36542,3495
9,36953,3953
9,37365,3972
9,37777,3930
9,38190,3512
9,38602,3011
9,39013,3654
9,39427,3658
9,39838,3711
9,40250,3559
9,40663,4444
9,41075,4368
9,41487,4323
9,41900,4262
9,42312,3883
9,42723,4133
9,43137,3728
9,43548,3893
9,43960,3592
9,44373,3050
9,44785,3946
9,45197,3988
9,45610,3469
9,46022,3553
9,46433,3365
9,46845,3585
9,47258,3569
9,47670,3693
9,48082,3242
9,48495,4602
9,48907,3267
9,49318,4066
9,49732,4667
9,50143,5245
9,50555,4989
9,50968,6446
9,51380,7102
9,51792,6346
9,52205,6172
9,52617,6629
9,53028,7063
9,53442,6893
9,53853,6161
9,54265,5333
9,54678,5065
9,55090,4867
9,55502,4425
9,55913,4873
9,56327,3574
9,56738,4157
9,57150,3464
9,57563,3726
9,57975,3580
9,58387,3932
9,58800,3873
9,59212,2963
9,59623,3487
9,60037,3030
9,60448,3341
9,60860,2896
9,61273,2960
9,61685,3159
9,62097,3374
9,62510,3377
9,62922,3574
9,63333,3317
9,63747,3708
9,64158,3705
9,64570,3466
9,64982,4437
9,65395,3564
9,65807,3885
9,66218,4493
9,66632,3811
9,67043,3874
9,67455,4127
9,67868,3893
9,68280,3790
9,68692,3553
9,69105,2610
9,69517,3308
9,69928,3893
9,70342,3612
9,70753,3248
9,71165,3390
9,71578,3333
9,71990,3341
9,72402,3106
9,72815,3147
9,73227,2849
9,73638,3298
9,74050,3429
9,74463,3479
9,74875,3427
9,75287,3176
9,75700,2912
9,76112,3770
9,76523,3301
9,76937,3231
9,77348,3892
9,77760,3488
9,78173,3537
9,78585,2871
9,78997,2903
9,79410,2887
9,79822,3470
9,80233,3489
9,80647,2954
9,81058,3858
9,81470,3036
9,81883,3229
9,82295,3859
9,82707,3098
9,83118,2944
9,83532,3354
9,83943,3768
9,84355,2717
9,84768,3439
9,85180,3623
9,85592,3312
9,86005,3440
9,86417,3499
9,86828,3220
9,87242,3406
9,87653,3772
9,88065,3797
9,88478,3164
9,88890,3034
9,89302,3272
9,89715,3160
9,90127,2429
9,90538,2993
9,90952,2930
9,91363,2665
9,91775,2680
9,92187,2785
9,92600,3155
9,93012,3268
9,93423,2961
9,93837,3097
9,94248,3068
9,94660,3128
9,95073,2840
9,95485,2922
9,95897,3116
9,96310,3025
9,96722,3206
9,97133,3078
9,97547,3409
9,97958,3365
9,98370,3495
9,98783,3152
9,99195,3012
9,99607,3235
10,00020,2677
10,00432,2985
10,00843,3714
10,01255,3356
10,01668,3389
10,02080,3690
10,02492,3861
10,02905,3864
10,03317,3271
10,03728,3336
10,04142,4634
10,04553,4124
10,04965,4032
10,05378,4286
10,05790,3863
10,06202,3330
10,06615,4001
10,07027,3177
10,07438,3578
10,07852,3437
10,08263,3518
10,08675,3234
10,09088,3203
10,09500,2581
10,09912,3141
10,10323,3448
10,10737,2682
10,11148,3034
10,11560,3229
10,11973,2976
10,12385,2341
10,12797,3392
10,13210,3295
10,13622,3146
10,14033,3130
10,14447,3195
10,14858,2977
10,15270,2903
10,15683,3010
10,16095,3374
10,16507,3524
10,16920,3628
10,17332,3745
10,17743,3654
10,18157,3459
10,18568,2670
10,18980,3240
10,19392,3606
10,19805,2705
10,20217,3528
10,20628,3058
10,21042,3122
10,21453,2852
10,21865,3489
10,22278,3352
10,22690,3421
10,23102,3535
10,23515,2900
10,23927,2958
10,24338,3479
10,24752,3266
10,25163,2786
10,25575,2647
10,25988,3193
10,26400,2610
10,26812,2368
10,27225,2899
10,27637,2783
10,28048,2639
10,28460,3344
10,28873,3395
10,29285,2778
10,29697,3080
10,30110,2924
10,30522,3772
10,30933,3331
10,31347,3086
10,31758,3149
10,32170,3237
10,32583,3986
10,32995,3868
10,33407,3199
10,33820,3784
10,34232,3966
10,34643,3977
10,35057,3781
10,35468,3366
10,35880,3222
10,36293,3914
10,36705,4336
10,37117,5048
10,37528,8659
10,37942,14914
10,38353,29412
10,38765,54473
10,39178,99697
10,39590,163556
10,40002,253258
10,40415,361454
10,40827,487718
10,41238,601716
10,41652,698890
10,42063,744601
10,42475,766172
10,42888,728181
10,43300,671593
10,43712,578216
10,44125,477330
10,44537,386491
10,44948,307053
10,45362,238823
10,45773,182391
10,46185,140766
10,46597,110723
10,47010,88847
10,47422,70099
10,47833,57791
10,48247,47422
10,48658,40903
10,49070,35126
10,49483,32025
10,49895,26198
10,50307,25306
10,50720,21652
10,51132,19971
10,51543,17818
10,51957,16210
10,52368,14203
10,52780,14466
10,53193,12437
10,53605,11573
10,54017,11332
10,54430,9950
10,54842,10237
10,55253,9054
10,55667,7261
10,56078,8248
10,56490,8187
10,56902,7816
10,57315,7419
10,57727,6299
10,58138,6719
10,58552,5935
10,58963,5887
10,59375,5720
10,59788,5475
10,60200,5670
10,60612,5794
10,61025,5453
10,61437,5334
10,61848,4937
10,62262,4276
10,62673,5449
10,63085,5249
10,63498,4757
10,63910,3782
10,64322,4009
10,64735,4455
10,65147,4529
10,65558,4616
10,65970,4210
10,66383,3804
10,66795,4279
10,67207,4157
10,67620,4624
10,68032,5038
10,68443,4004
10,68857,4421
10,69268,3920
10,69680,3612
10,70093,4460
10,70505,3387
10,70917,3973
10,71330,3512
10,71742,3379
10,72153,3487
10,72567,3068
10,72978,3168
10,73390,3832
10,73803,3236
10,74215,2725
10,74627,3445
10,75038,3249
10,75452,3593
10,75863,3622
10,76275,2416
10,76688,3654
10,77100,2965
10,77512,2935
10,77925,3474
10,78337,2613
10,78748,3567
10,79162,2740
10,79573,2860
10,79985,2641
10,80398,2857
10,80810,2632
10,81222,3737
10,81635,2144
10,82047,3341
10,82458,3163
10,82872,2912
10,83283,3345
10,83695,3358
10,84107,3392
10,84520,3486
10,84932,3415
10,85343,3067
10,85757,3464
10,86168,3270
10,86580,3224
10,86993,3191
10,87405,3388
10,87817,3218
10,88230,4301
10,88642,2906
10,89053,2649
10,89467,2857
10,89878,2946
10,90290,3468
10,90703,3177
10,91115,2937
10,91527,3455
10,91940,4034
10,92352,5366
10,92763,6932
10,93175,6662
10,93588,7378
10,94000,5931
10,94412,5407
10,94825,4290
10,95237,3999
10,95648,3525
10,96062,3089
10,96473,2926
10,96885,3066
10,97298,2661
10,97710,3352
10,98122,2617
10,98535,3055
10,98947,2815
10,99358,2470
10,99772,3360
11,00183,3509
11,00595,3062
11,01008,2433
11,01420,2521
11,01832,2728
11,02243,2544
11,02657,2209
11,03068,3190
11,03480,2811
11,03893,2713
11,04305,2508
11,04717,2604
11,05130,3084
11,05542,2945
11,05953,2714
11,06367,2687
11,06778,3114
11,07190,3313
11,07603,3049
11,08015,2748
11,08427,2642
11,08840,2911
11,09252,2586
11,09663,2082
11,10077,2935
11,10488,2987
11,10900,2533
11,11312,2961
11,11725,3617
11,12137,2823
11,12548,2995
11,12962,3651
11,13373,2702
11,13785,2586
11,14198,2537
11,14610,3176
11,15022,2363
11,15435,3311
11,15847,2939
11,16258,3356
11,16672,2887
11,17083,2533
11,17495,2869
11,17908,3142
11,18320,3073
11,18732,2675
11,19145,2707
11,19557,2956
11,19968,2920
11,20380,2898
11,20793,2800
11,21205,2902
11,21617,2703
11,22030,2976
11,22442,2809
11,22853,2551
11,23267,2773
11,23678,2832
11,24090,2686
11,24503,2735
11,24915,2513
11,25327,2120
11,25740,2616
11,26152,2553
11,26563,2258
11,26977,2697
11,27388,2408
11,27800,2713
11,28213,2809
11,28625,2654
11,29037,2649
11,29448,2687
11,29862,2795
11,30273,3178
11,30685,2719
11,31098,2286
11,31510,2859
11,31922,2392
11,32335,2679
11,32747,2672
11,33158,2565
11,33572,2301
11,33983,2825
11,34395,2538
11,34808,2418
11,35220,2201
11,35632,3060
11,36045,2504
11,36457,2973
11,36868,4138
11,37282,6701
11,37693,11834
11,38105,24091
11,38517,43171
11,38930,76589
11,39342,125437
11,39753,193563
11,40167,274544
11,40578,349723
11,40990,421146
11,41403,468481
11,41815,490569
11,42227,473079
11,42640,430839
11,43052,377932
11,43463,312105
11,43877,246868
11,44288,196706
11,44700,149529
11,45113,118594
11,45525,90940
11,45937,71663
11,46350,55879
11,46762,43771
11,47173,38495
11,47585,32262
11,47998,26261
11,48410,22776
11,48822,18689
11,49235,19097
11,49647,14419
11,50058,13451
11,50472,12458
11,50883,11116
11,51295,10976
11,51708,9475
11,52120,9483
11,52532,8194
11,52945,7969
11,53357,8394
11,53768,7460
11,54182,7380
11,54593,6525
11,55005,5441
11,55418,5946
11,55830,5274
11,56242,5113
11,56653,4746
11,57067,5563
11,57478,4759
11,57890,4651
11,58303,5175
11,58715,4802
11,59127,4253
11,59540,4214
11,59952,3564
11,60363,3862
11,60777,3959
11,61188,3518
11,61600,4547
11,62013,3395
11,62425,3684
11,62837,3603
11,63250,3682
11,63662,4450
11,64073,3397
11,64487,2721
11,64898,2688
11,65310,2806
11,65722,3321
11,66135,3023
11,66547,3108
11,66958,3764
11,67372,3921
11,67783,2588
11,68195,3154
11,68608,3056
11,69020,2696
11,69432,3441
11,69845,3134
11,70257,3216
11,70668,3304
11,71082,2993
11,71493,2354
11,71905,3580
11,72318,2777
11,72730,2564
11,73142,2907
11,73555,3095
11,73967,2948
11,74378,3049
11,74790,2831
11,75203,2532
11,75615,2641
11,76027,2788
11,76440,2658
11,76852,3095
11,77263,3862
11,77677,3808
11,78088,3521
11,78500,3931
11,78913,3413
11,79325,4286
11,79737,4572
11,80150,4308
11,80562,3596
11,80973,4225
11,81387,3110
11,81798,2416
11,82210,3747
11,82623,2661
11,83035,2414
11,83447,2254
11,83858,2294
11,84272,1769
11,84683,2661
11,85095,2766
11,85508,2399
11,85920,2382
11,86332,2394
11,86745,2573
11,87157,2505
11,87568,1822
11,87982,1886
11,88393,2172
11,88805,2635
11,89218,2280
11,89630,2250
11,90042,2750
11,90455,2115
11,90867,2422
11,91278,3065
11,91692,2602
11,92103,2660
11,92515,2277
11,92927,2401
11,93340,2510
11,93752,2532
11,94163,2063
11,94577,2198
11,94988,2274
11,95400,2344
11,95813,1658
11,96225,2166
11,96637,2740
11,97050,2952
11,97462,2822
11,97873,2765
11,98287,2736
11,98698,2452
11,99110,2207
11,99523,2441
11,99935,2531
12,00347,2657
12,00760,2998
12,01172,2019
12,01583,2919
12,01995,2679
12,02408,1817
12,02820,2242
12,03232,2623
12,03645,1965
12,04057,2143
12,04468,1970
12,04882,2353
12,05293,1907
12,05705,2263
12,06118,2047
12,06530,1365
12,06942,1703
12,07355,2048
12,07767,2144
12,08178,2317
12,08592,2007
12,09003,1787
12,09415,1665
12,09828,2534
12,10240,2019
12,10652,1535
12,11063,2457
12,11477,2159
12,11888,2222
12,12300,2505
12,12713,1881
12,13125,1803
12,13537,1910
12,13950,2035
12,14362,2340
12,14773,2534
12,15187,2392
12,15598,2926
12,16010,2525
12,16423,2270
12,16835,1610
12,17247,1637
12,17660,2092
12,18072,2004
12,18483,2687
12,18897,2823
12,19308,2194
12,19720,1598
12,20133,2686
12,20545,3062
12,20957,3019
12,21368,2168
12,21782,3401
12,22193,2335
12,22605,3170
12,23018,3500
12,23430,3285
12,23842,3252
12,24255,2315
12,24667,2735
12,25078,2648
12,25492,2569
12,25903,2035
12,26315,2314
12,26728,2756
12,27140,2544
12,27552,2316
12,27965,1762
12,28377,2061
12,28788,2039
12,29202,2160
12,29613,2159
12,30025,1922
12,30437,2436
12,30850,1803
12,31262,2014
12,31673,2292
12,32087,2253
12,32498,2738
12,32910,4280
12,33323,6638
12,33735,16474
12,34147,33162
12,34560,70826
12,34972,131513
12,35383,228585
12,35797,374246
12,36208,545220
12,36620,740394
12,37033,929314
12,37445,1068162
12,37857,1148628
12,38270,1142246
12,38682,1058834
12,39093,915148
12,39505,773557
12,39918,608617
12,40330,466197
12,40742,341977
12,41155,259299
12,41567,196108
12,41978,148320
12,42392,117399
12,42803,90309
12,43215,74860
12,43628,60211
12,44040,50326
12,44452,44372
12,44865,37435
12,45277,32359
12,45688,27324
12,46102,24602
12,46513,21376
12,46925,20940
12,47338,18120
12,47750,16164
12,48162,14930
12,48573,13760
12,48987,11025
12,49398,11616
12,49810,10605
12,50223,10048
12,50635,9133
12,51047,8630
12,51460,8522
12,51872,7625
12,52283,6632
12,52697,7254
12,53108,6218
12,53520,6740
12,53933,5689
12,54345,6871
12,54757,5247
12,55170,5164
12,55582,5242
12,55993,4586
12,56407,4866
12,56818,3953
12,57230,5348
12,57642,4425
12,58055,3995
12,58467,3948
12,58878,3946
12,59292,4241
12,59703,3305
12,60115,3602
12,60528,3996
12,60940,3369
12,61352,3751
12,61765,3774
12,62177,3281
12,62588,3405
12,63002,2970
12,63413,3391
12,63825,2902
12,64238,3378
12,64650,3384
12,65062,2413
12,65475,2696
12,65887,2932
12,66298,2401
12,66710,2815
12,67123,2502
12,67535,2923
12,67947,2594
12,68360,2672
12,68772,2298
12,69183,2384
12,69597,2374
12,70008,2438
12,70420,2578
12,70833,2874
12,71245,2476
12,71657,2409
12,72070,2128
12,72482,2177
12,72893,1959
12,73307,2946
12,73718,2563
12,74130,2030
12,74543,2316
12,74955,2397
12,75367,2554
12,75778,2063
12,76192,2221
12,76603,2622
12,77015,2313
12,77428,2129
12,77840,2079
12,78252,1918
12,78665,2324
12,79077,2873
12,79488,1958
12,79902,1930
12,80313,2166
12,80725,2624
12,81138,3678
12,81550,4231
12,81962,4447
12,82375,5812
12,82787,5872
12,83198,5625
12,83612,4678
12,84023,3876
12,84435,3920
12,84847,3073
12,85260,3076
12,85672,3752
12,86083,4215
12,86497,6072
12,86908,6493
12,87320,9313
12,87733,9686
12,88145,10000
12,88557,11506
12,88970,11326
12,89382,10631
12,89793,10275
12,90207,9242
12,90618,8352
12,91030,7838
12,91443,6929
12,91855,5368
12,92267,5153
12,92680,4194
12,93092,4232
12,93503,3576
12,93915,2573
12,94328,2643
12,94740,2483
12,95152,2434
12,95565,2476
12,95977,2123
12,96388,1533
12,96802,1793
12,97213,1872
12,97625,2015
12,98038,1610
12,98450,1781
12,98862,1697
12,99275,2127
12,99687,1658
13,00098,1541
13,00512,1337
13,00923,2158
13,01335,1332
13,01748,1977
13,02160,2362
13,02572,2091
13,02983,1653
13,03397,1620
13,03808,1911
13,04220,1564
13,04633,1648
13,05045,1924
13,05457,1958
13,05870,1261
13,06282,1430
13,06693,1382
13,07107,1276
13,07518,1084
13,07930,1604
13,08343,1680
13,08755,1644
13,09167,1991
13,09580,1634
13,09992,1696
13,10403,1681
13,10817,2058
13,11228,1513
13,11640,1362
13,12052,1800
13,12465,1547
13,12877,1770
13,13288,2624
13,13702,1381
13,14113,1408
13,14525,1963
13,14938,1872
13,15350,1956
13,15762,1455
13,16175,1713
13,16587,1433
13,16998,1246
13,17412,1254
13,17823,1698
13,18235,1207
13,18648,1441
13,19060,1887
13,19472,1678
13,19885,1614
13,20297,1171
13,20708,1238
13,21120,1342
13,21533,1315
13,21945,1356
13,22357,977
13,22770,1544
13,23182,1484
13,23593,1624
13,24007,1411
13,24418,1619
13,24830,1783
13,25243,3339
13,25655,5594
13,26067,11469
13,26480,23378
13,26892,49925
13,27303,90873
13,27717,156777
13,28128,249082
13,28540,362141
13,28953,469909
13,29365,566490
13,29777,629554
13,30188,638344
13,30602,593912
13,31013,538447
13,31425,447910
13,31838,358943
13,32250,274299
13,32662,207918
13,33075,154192
13,33487,115585
13,33898,83700
13,34312,67033
13,34723,52074
13,35135,41574
13,35548,33838
13,35960,28678
13,36372,23159
13,36785,19744
13,37197,17512
13,37608,14939
13,38022,13708
13,38433,12608
13,38845,10741
13,39257,9272
13,39670,8079
13,40082,7757
13,40493,6501
13,40907,6868
13,41318,6873
13,41730,5362
13,42143,5684
13,42555,4760
13,42967,4201
13,43380,4400
13,43792,4451
13,44203,4550
13,44617,2918
13,45028,3127
13,45440,3884
13,45853,3054
13,46265,3032
13,46677,3053
13,47090,3159
13,47502,3115
13,47913,2399
13,48325,2988
13,48738,2487
13,49150,2562
13,49562,2832
13,49975,2348
13,50387,2514
13,50798,2638
13,51212,2632
13,51623,1972
13,52035,2091
13,52448,2343
13,52860,1651
13,53272,2432
13,53685,1762
13,54097,2356
13,54508,2220
13,54922,2212
13,55333,1865
13,55745,1489
13,56158,2412
13,56570,1934
13,56982,2346
13,57393,2594
13,57807,1703
13,58218,2171
13,58630,2085
13,59043,1998
13,59455,1879
13,59867,1454
13,60280,1257
13,60692,1347
13,61103,1476
13,61517,1636
13,61928,1856
13,62340,2028
13,62753,1715
13,63165,1439
13,63577,1559
13,63990,1331
13,64402,1506
13,64813,1257
13,65227,1100
13,65638,1112
13,66050,1306
13,66462,1214
13,66875,1557
13,67287,1511
13,67698,1591
13,68112,1456
13,68523,1780
13,68935,1278
13,69348,1751
13,69760,1066
13,70172,1522
13,70585,1237
13,70997,386
13,71408,2106
13,71822,1492
13,72233,2111
13,72645,2059
13,73058,2442
13,73470,2534
13,73882,3399
13,74295,3772
13,74707,4227
13,75118,4187
13,75530,3431
13,75943,2982
13,76355,2390
13,76767,3044
13,77180,2157
13,77592,2095
13,78003,1775
13,78417,1557
13,78828,1716
13,79240,1920
13,79653,1689
13,80065,1561
13,80477,1347
13,80890,1291
13,81302,936
13,81713,1867
13,82127,2133
13,82538,1982
13,82950,2998
13,83363,3183
13,83775,2877
13,84187,3024
13,84600,3557
13,85012,4006
13,85423,4402
13,85835,3267
13,86248,3231
13,86660,3755
13,87072,2040
13,87485,2500
13,87897,2067
13,88308,1991
13,88722,1593
13,89133,1337
13,89545,1264
13,89958,2099
13,90370,1269
13,90782,1602
13,91195,1054
13,91607,1322
13,92018,1246
13,92432,1397
13,92843,1115
13,93255,1375
13,93668,718
13,94080,872
13,94492,1109
13,94903,2034
13,95317,1138
13,95728,1245
13,96140,1969
13,96553,1879
13,96965,1521
13,97377,1471
13,97790,2142
13,98202,1367
13,98613,1313
13,99027,2078
13,99438,1754
13,99850,2172
14,00263,1357
14,00675,767
14,01087,1777
14,01500,848
14,01912,2223
14,02323,1836
14,02737,1830
14,03148,1603
14,03560,1203
14,03972,910
14,04385,1096
14,04797,1340
14,05208,1267
14,05622,1090
14,06033,1208
14,06445,1158
14,06858,1910
14,07270,1063
14,07682,1760
14,08095,1042
14,08507,1576
14,08918,1382
14,09332,1276
14,09743,1030
14,10155,1178
14,10568,1409
14,10980,767
14,11392,996
14,11805,1203
14,12217,1105
14,12628,1064
14,13040,2667
14,13453,3451
14,13865,8714
14,14277,22556
14,14690,48942
14,15102,99701
14,15513,193563
14,15927,336219
14,16338,530321
14,16750,764219
14,17163,1006880
14,17575,1248842
14,17987,1384131
14,18400,1443672
14,18812,1370116
14,19223,1223399
14,19637,1011149
14,20048,799705
14,20460,601802
14,20873,445742
14,21285,323724
14,21697,240840
14,22108,172199
14,22522,132103
14,22933,100151
14,23345,81561
14,23758,66016
14,24170,53983
14,24582,44331
14,24995,37991
14,25407,33693
14,25818,29176
14,26232,25790
14,26643,22265
14,27055,21143
14,27468,18560
14,27880,17508
14,28292,14498
14,28705,13334
14,29117,12712
14,29528,12291
14,29942,10921
14,30353,12029
14,30765,11072
14,31177,11954
14,31590,12074
14,32002,11532
14,32413,12462
14,32827,12250
14,33238,12345
14,33650,12407
14,34063,10521
14,34475,9392
14,34887,9126
14,35300,8219
14,35712,6834
14,36123,6712
14,36537,5520
14,36948,5414
14,37360,4099
14,37773,5031
14,38185,3392
14,38597,3926
14,39010,3081
14,39422,3117
14,39833,2655
14,40245,3270
14,40658,3122
14,41070,2319
14,41482,3036
14,41895,2218
14,42307,2399
14,42718,2564
14,43132,2380
14,43543,2364
14,43955,2170
14,44368,1727
14,44780,1980
14,45192,2683
14,45605,2168
14,46017,2009
14,46428,2397
14,46842,2149
14,47253,2272
14,47665,2465
14,48078,2345
14,48490,2575
14,48902,2307
14,49313,1778
14,49727,2123
14,50138,1936
14,50550,1813
14,50963,2146
14,51375,2390
14,51787,3313
14,52200,2064
14,52612,3756
14,53023,5037
14,53437,3988
14,53848,4385
14,54260,3538
14,54673,2722
14,55085,2406
14,55497,1859
14,55910,1004
14,56322,1366
14,56733,1981
14,57147,1900
14,57558,2007
14,57970,2315
14,58382,2135
14,58795,2460
14,59207,3115
14,59618,2533
14,60032,2706
14,60443,3206
14,60855,3568
14,61268,2637
14,61680,2438
14,62092,2178
14,62505,1980
14,62917,2314
14,63328,1777
14,63742,2190
14,64153,1289
14,64565,1822
14,64978,1594
14,65390,1102
14,65802,1227
14,66215,2001
14,66627,1501
14,67038,1684
14,67450,942
14,67863,1236
14,68275,1216
14,68687,1106
14,69100,1322
14,69512,1373
14,69923,1039
14,70337,1020
14,70748,1411
14,71160,1138
14,71573,1094
14,71985,1393
14,72397,1127
14,72810,1134
14,73222,2262
14,73633,1882
14,74047,5133
14,74458,14202
14,74870,30379
14,75283,62845
14,75695,111513
14,76107,192045
14,76518,294666
14,76932,407895
14,77343,522157
14,77755,609298
14,78168,651651
14,78580,642140
14,78992,590954
14,79405,514297
14,79817,426493
14,80228,335330
14,80642,254611
14,81053,188847
14,81465,143381
14,81878,103847
14,82290,81088
14,82702,63094
14,83115,48679
14,83527,39104
14,83938,33799
14,84352,26933
14,84763,24014
14,85175,18447
14,85587,17590
14,86000,15615
14,86412,14247
14,86823,10797
14,87237,10181
14,87648,9635
14,88060,8213
14,88473,7244
14,88885,6698
14,89297,5453
14,89710,5515
14,90122,4658
14,90533,4684
14,90947,4108
14,91358,3574
14,91770,4710
14,92183,2677
14,92595,3098
14,93007,1913
14,93420,2604
14,93832,2797
14,94243,2742
14,94655,2206
14,95068,2776
14,95480,1963
14,95892,3084
14,96305,2644
14,96717,1770
14,97128,2304
14,97542,3740
14,97953,6201
14,98365,14100
14,98778,33290
14,99190,64158
14,99602,120795
15,00015,213001
15,00427,323774
15,00838,457145
15,01252,594543
15,01663,697035
15,02075,742322
15,02488,741731
15,02900,674522
15,03312,575696
15,03723,464946
15,04137,358915
15,04548,265911
15,04960,196524
15,05373,144422
15,05785,104747
15,06197,80029
15,06610,59989
15,07022,48192
15,07433,37218
15,07847,30878
15,08258,26264
15,08670,22477
15,09083,19475
15,09495,16715
15,09907,13998
15,10320,12273
15,10732,13060
15,11143,9650
15,11557,10554
15,11968,8220
15,12380,7648
15,12792,7902
15,13205,6909
15,13617,5809
15,14028,7043
15,14442,5404
15,14853,5146
15,15265,5000
15,15678,4895
15,16090,5010
15,16502,4380
15,16915,3941
15,17327,4336
15,17738,3489
15,18152,4292
15,18563,3649
15,18975,3454
15,19388,3366
15,19800,3649
15,20212,3769
15,20625,3376
15,21037,3155
15,21448,2329
15,21860,2358
15,22273,2541
15,22685,2404
15,23097,1970
15,23510,2842
15,23922,2718
15,24333,2114
15,24747,2302
15,25158,3234
15,25570,1980
15,25983,1869
15,26395,1751
15,26807,1264
15,27220,2301
15,27632,1477
15,28043,1865
15,28457,2156
15,28868,1787
15,29280,2099
15,29693,1412
15,30105,1823
15,30517,2132
15,30928,2255
15,31342,2856
15,31753,2137
15,32165,1472
15,32578,1457
15,32990,1387
15,33402,1300
15,33815,1541
15,34227,2394
15,34638,1514
15,35052,1474
15,35463,2405
15,35875,2134
15,36288,1801
15,36700,2174
15,37112,2275
15,37525,1747
15,37937,2556
15,38348,2677
15,38762,2491
15,39173,2819
15,39585,3100
15,39997,2534
15,40410,2617
15,40822,2931
15,41233,2289
15,41647,2120
15,42058,2851
15,42470,2599
15,42883,1853
15,43295,1717
15,43707,2453
15,44120,2451
15,44532,1671
15,44943,1426
15,45357,1064
15,45768,2256
15,46180,1922
15,46593,1542
15,47005,1319
15,47417,1818
15,47830,1584
15,48242,1214
15,48653,1094
15,49067,1486
15,49478,1774
15,49890,950
15,50302,1187
15,50715,1249
15,51127,677
15,51538,1649
15,51952,659
15,52363,1799
15,52775,1515
15,53188,1651
15,53600,1780
15,54012,2044
15,54425,1206
15,54837,2108
15,55248,1753
15,55662,1994
15,56073,4256
15,56485,6028
15,56898,13653
15,57310,33525
15,57722,63331
15,58135,116051
15,58547,199215
15,58958,310629
15,59370,438155
15,59783,561500
15,60195,660742
15,60607,707097
15,61020,704847
15,61432,647597
15,61843,549463
15,62257,448610
15,62668,348343
15,63080,258691
15,63493,196614
15,63905,142777
15,64317,106758
15,64730,79880
15,65142,61787
15,65553,49859
15,65967,38101
15,66378,32976
15,66790,27815
15,67203,20951
15,67615,19885
15,68027,16155
15,68438,15126
15,68852,13818
15,69263,12591
15,69675,10444
15,70088,11605
15,70500,10184
15,70912,9221
15,71325,8425
15,71737,7883
15,72148,7127
15,72562,6149
15,72973,4384
15,73385,5468
15,73798,4755
15,74210,4724
15,74622,3605
15,75035,3749
15,75447,3757
15,75858,3591
15,76272,3040
15,76683,2984
15,77095,3967
15,77507,3938
15,77920,6797
15,78332,14100
15,78743,35233
15,79157,70369
15,79568,145569
15,79980,277319
15,80393,481101
15,80805,754473
15,81217,1102843
15,81630,1500068
15,82042,1886280
15,82453,2231470
15,82867,2430167
15,83278,2454992
15,83690,2234770
15,84103,1901550
15,84515,1475951
15,84927,1106548
15,85340,801289
15,85752,574275
15,86163,406268
15,86575,302310
15,86988,229637
15,87400,172881
15,87812,136498
15,88225,111121
15,88637,92459
15,89048,76126
15,89462,65385
15,89873,55508
15,90285,49239
15,90698,44528
15,91110,38004
15,91522,35658
15,91935,33133
15,92347,28481
15,92758,25828
15,93172,24289
15,93583,20994
15,93995,20085
15,94408,20114
15,94820,16544
15,95232,16176
15,95643,14100
15,96057,13665
15,96468,12173
15,96880,11683
15,97293,10862
15,97705,9561
15,98117,10978
15,98530,9056
15,98942,8745
15,99353,8201
15,99767,7474
16,00178,7032
16,00590,6970
16,01003,6999
16,01415,5959
16,01827,6413
16,02240,5278
16,02652,5240
16,03063,4291
16,03477,5138
16,03888,4790
16,04300,4914
16,04712,4952
16,05125,5365
16,05537,4432
16,05948,5374
16,06362,5201
16,06773,3943
16,07185,3773
16,07598,4926
16,08010,4614
16,08422,2729
16,08835,3835
16,09247,3717
16,09658,3315
16,10072,1972
16,10483,3813
16,10895,3346
16,11308,2951
16,11720,3527
16,12132,4179
16,12545,6268
16,12957,7216
16,13368,8563
16,13780,9532
16,14193,6626
16,14605,5817
16,15017,5385
16,15430,2669
16,15842,3633
16,16253,1930
16,16667,2841
16,17078,3070
16,17490,2524
16,17903,2425
16,18315,1904
16,18727,2289
16,19140,2100
16,19552,2067
16,19963,2824
16,20377,2475
16,20788,3129
16,21200,2869
16,21613,3955
16,22025,3182
16,22437,3464
16,22848,3806
16,23262,2530
16,23673,3028
16,24085,2655
16,24498,4383
16,24910,5824
16,25322,13632
16,25735,28102
16,26147,59507
16,26558,114551
16,26972,199116
16,27383,310639
16,27795,436217
16,28208,565586
16,28620,667693
16,29032,727837
16,29445,719209
16,29857,677449
16,30268,587786
16,30682,483563
16,31093,379218
16,31505,280778
16,31917,204348
16,32330,152440
16,32742,114513
16,33153,86890
16,33567,68233
16,33978,54489
16,34390,43403
16,34803,36526
16,35215,32863
16,35627,28282
16,36040,25563
16,36452,25480
16,36863,27031
16,37277,26248
16,37688,28635
16,38100,29713
16,38513,28829
16,38925,26146
16,39337,24704
16,39750,21050
16,40162,19990
16,40573,15346
16,40985,14334
16,41398,12292
16,41810,11478
16,42222,9080
16,42635,8735
16,43047,6781
16,43458,7169
16,43872,5650
16,44283,6039
16,44695,5107
16,45108,5430
16,45520,4744
16,45932,4835
16,46345,4134
16,46757,3578
16,47168,3679
16,47582,4314
16,47993,3773
16,48405,3523
16,48818,2987
16,49230,3380
16,49642,3058
16,50053,2824
16,50467,3876
16,50878,2896
16,51290,2682
16,51703,2658
16,52115,2829
16,52527,3341
16,52940,2275
16,53352,2556
16,53763,2815
16,54177,3585
16,54588,4290
16,55000,12005
16,55413,23718
16,55825,47867
16,56237,93867
16,56650,166096
16,57062,277460
16,57473,411581
16,57887,566154
16,58298,713922
16,58710,820656
16,59122,856876
16,59535,843655
16,59947,746292
16,60358,621784
16,60772,484958
16,61183,371584
16,61595,266069
16,62008,195804
16,62420,145350
16,62832,107430
16,63245,80645
16,63657,62181
16,64068,50537
16,64482,40825
16,64893,34703
16,65305,28232
16,65718,26156
16,66130,20973
16,66542,20738
16,66955,15972
16,67367,15333
16,67778,14732
16,68190,12132
16,68603,11014
16,69015,10590
16,69427,10654
16,69840,8930
16,70252,8090
16,70663,6970
16,71077,7125
16,71488,6375
16,71900,5947
16,72313,7090
16,72725,5059
16,73137,4736
16,73550,4932
16,73962,4623
16,74373,5634
16,74787,5170
16,75198,4706
16,75610,5718
16,76023,5288
16,76435,5403
16,76847,5218
16,77258,5416
16,77672,4843
16,78083,4256
16,78495,4908
16,78908,4774
16,79320,4575
16,79732,4326
16,80145,3263
16,80557,3812
16,80968,3946
16,81382,2877
16,81793,3341
16,82205,3607
16,82618,3319
16,83030,3685
16,83442,2578
16,83855,4241
16,84267,3403
16,84678,3372
16,85092,3545
16,85503,3121
16,85915,2712
16,86327,3398
16,86740,2985
16,87152,2737
16,87563,4946
16,87977,4592
16,88388,3405
16,88800,3266
16,89213,3059
16,89625,3958
16,90037,3244
16,90450,3052
16,90862,2566
16,91273,2411
16,91687,2681
16,92098,3312
16,92510,2383
16,92923,3579
16,93335,2035
16,93747,2410
16,94160,2491
16,94572,2003
16,94983,2273
16,95395,2276
16,95808,2313
16,96220,2570
16,96632,2263
16,97045,2356
16,97457,2247
16,97868,2969
16,98282,2347
16,98693,3204
16,99105,3554
16,99518,4234
16,99930,6697
17,00342,10813
17,00755,22485
17,01167,44471
17,01578,86181
17,01992,159580
17,02403,256695
17,02815,385864
17,03228,530174
17,03640,670254
17,04052,767682
17,04463,814722
17,04877,794384
17,05288,712648
17,05700,607024
17,06113,478734
17,06525,364938
17,06937,270086
17,07350,202771
17,07762,151528
17,08173,111492
17,08587,88921
17,08998,66004
17,09410,53532
17,09823,45277
17,10235,37984
17,10647,32102
17,11060,26240
17,11472,23848
17,11883,19978
17,12297,17627
17,12708,16724
17,13120,13730
17,13533,13355
17,13945,12973
17,14357,12750
17,14768,10273
17,15182,9284
17,15593,9791
17,16005,7617
17,16418,7267
17,16830,6884
17,17242,6835
17,17655,6233
17,18067,5413
17,18478,5680
17,18892,5585
17,19303,5602
17,19715,5358
17,20128,4939
17,20540,4798
17,20952,4515
17,21365,5928
17,21777,3228
17,22188,4541
17,22602,4681
17,23013,3924
17,23425,3493
17,23837,5110
17,24250,4535
17,24662,4041
17,25073,5500
17,25487,5970
17,25898,10125
17,26310,10901
17,26723,15890
17,27135,20388
17,27547,23104
17,27960,26491
17,28372,32406
17,28783,39457
17,29197,61745
17,29608,93715
17,30020,169977
17,30433,285799
17,30845,460602
17,31257,703099
17,31670,1000046
17,32082,1311015
17,32493,1622376
17,32905,1853085
17,33318,1936929
17,33730,1848827
17,34142,1643181
17,34555,1348725
17,34967,1033059
17,35378,777894
17,35792,556562
17,36203,407413
17,36615,295991
17,37028,223160
17,37440,169772
17,37852,133067
17,38265,106298
17,38677,85942
17,39088,74050
17,39502,64751
17,39913,55284
17,40325,48067
17,40738,41923
17,41150,39009
17,41562,33889
17,41973,32830
17,42387,30293
17,42798,26906
17,43210,23848
17,43623,22410
17,44035,20715
17,44447,19547
17,44860,18200
17,45272,15714
17,45683,15246
17,46097,13493
17,46508,14121
17,46920,13781
17,47333,13033
17,47745,9231
17,48157,10469
17,48570,11003
17,48982,10613
17,49393,10178
17,49807,7977
17,50218,9049
17,50630,8695
17,51042,6587
17,51455,7161
17,51867,6772
17,52278,7740
17,52692,9115
17,53103,8663
17,53515,13417
17,53928,20170
17,54340,38751
17,54752,72629
17,55165,129598
17,55577,222642
17,55988,343484
17,56402,497311
17,56813,642629
17,57225,773256
17,57638,862908
17,58050,879817
17,58462,841430
17,58875,740297
17,59287,615012
17,59698,483130
17,60110,372607
17,60523,277544
17,60935,200874
17,61347,154025
17,61760,121093
17,62172,91245
17,62583,71040
17,62997,59748
17,63408,50223
17,63820,46428
17,64233,41262
17,64645,36688
17,65057,28101
17,65470,26262
17,65882,25444
17,66293,25784
17,66707,33318
17,67118,50164
17,67530,87538
17,67943,159321
17,68355,279743
17,68767,458135
17,69178,692128
17,69592,979942
17,70003,1271417
17,70415,1528489
17,70828,1707050
17,71240,1744196
17,71652,1676596
17,72065,1471822
17,72477,1217357
17,72888,937553
17,73302,697289
17,73713,514454
17,74125,375926
17,74538,276931
17,74950,214008
17,75362,160423
17,75775,129016
17,76187,107731
17,76598,89132
17,77012,76088
17,77423,63532
17,77835,59023
17,78247,52110
17,78660,45515
17,79072,39835
17,79483,36728
17,79897,36415
17,80308,30210
17,80720,28698
17,81133,25674
17,81545,25976
17,81957,23307
17,82370,21923
17,82782,20094
17,83193,19265
17,83607,18325
17,84018,17853
17,84430,17286
17,84843,15912
17,85255,14579
17,85667,12702
17,86080,12802
17,86492,12038
17,86903,11858
17,87315,10072
17,87728,11922
17,88140,9655
17,88552,8440
17,88965,9182
17,89377,9809
17,89788,8390
17,90202,8958
17,90613,7245
17,91025,7909
17,91438,8019
17,91850,6851
17,92262,6729
17,92675,8127
17,93087,6449
17,93498,7179
17,93912,8845
17,94323,8167
17,94735,11704
17,95148,18339
17,95560,35640
17,95972,69368
17,96383,136080
17,96797,227197
17,97208,356625
17,97620,503218
17,98033,648988
17,98445,758778
17,98857,821287
17,99270,814896
17,99682,734322
18,00093,630422
18,00507,503630
18,00918,391180
18,01330,295871
18,01743,218784
18,02155,164278
18,02567,123888
18,02980,95983
18,03392,76610
18,03803,63131
18,04217,50949
18,04628,44876
18,05040,37092
18,05452,32793
18,05865,28655
18,06277,25872
18,06688,22560
18,07102,20662
18,07513,21339
18,07925,17963
18,08338,17287
18,08750,17670
18,09162,15657
18,09575,14535
18,09987,13829
18,10398,14281
18,10812,13874
18,11223,13197
18,11635,12949
18,12048,12872
18,12460,12364
18,12872,10552
18,13285,10771
18,13697,11646
18,14108,11353
18,14520,11449
18,14933,11107
18,15345,11117
18,15757,11216
18,16170,8691
18,16582,8741
18,16993,9202
18,17407,8678
18,17818,8516
18,18230,8830
18,18643,9081
18,19055,7692
18,19467,7654
18,19880,8740
18,20292,8566
18,20703,7667
18,21117,7323
18,21528,6019
18,21940,6937
18,22353,8206
18,22765,6816
18,23177,7661
18,23588,7019
18,24002,7747
18,24413,10441
18,24825,17191
18,25238,31017
18,25650,61994
18,26062,111707
18,26475,195234
18,26887,300965
18,27298,433479
18,27712,566847
18,28123,676468
18,28535,757411
18,28948,760903
18,29360,714002
18,29772,629271
18,30185,515050
18,30597,408200
18,31008,309146
18,31422,227146
18,31833,170300
18,32245,128255
18,32657,98668
18,33070,77291
18,33482,60861
18,33893,51117
18,34307,42862
18,34718,39062
18,35130,31682
18,35543,29540
18,35955,25714
18,36367,23901
18,36780,21962
18,37192,20441
18,37603,19831
18,38017,16911
18,38428,17022
18,38840,17842
18,39253,15991
18,39665,16181
18,40077,13879
18,40490,13295
18,40902,12865
18,41313,12019
18,41725,11923
18,42138,11614
18,42550,11499
18,42962,12861
18,43375,11361
18,43787,10689
18,44198,11241
18,44612,10897
18,45023,10368
18,45435,10778
18,45848,10439
18,46260,10566
18,46672,9553
18,47085,9409
18,47497,8499
18,47908,8193
18,48322,8823
18,48733,8996
18,49145,10724
18,49558,9907
18,49970,9988
18,50382,9451
18,50793,8392
18,51207,7512
18,51618,8248
18,52030,6036
18,52443,6963
18,52855,6788
18,53267,7368
18,53680,5856
18,54092,6340
18,54503,6015
18,54917,5521
18,55328,5987
18,55740,5637
18,56153,6180
18,56565,5981
18,56977,6006
18,57390,5993
18,57802,6091
18,58213,7120
18,58627,6566
18,59038,4360
18,59450,4880
18,59862,5842
18,60275,5748
18,60687,5368
18,61098,6464
18,61512,5668
18,61923,4622
18,62335,5659
18,62748,5787
18,63160,6496
18,63572,5758
18,63985,5459
18,64397,5891
18,64808,6800
18,65222,10619
18,65633,17646
18,66045,34737
18,66458,70738
18,66870,135749
18,67282,261142
18,67695,453205
18,68107,719650
18,68518,1057597
18,68930,1446806
18,69343,1828487
18,69755,2212841
18,70167,2509575
18,70580,2644215
18,70992,2652951
18,71403,2502534
18,71817,2193491
18,72228,1789558
18,72640,1369743
18,73053,1000431
18,73465,723374
18,73877,523735
18,74290,392356
18,74702,303017
18,75113,240467
18,75527,192353
18,75938,161717
18,76350,135870
18,76763,116510
18,77175,102018
18,77587,87892
18,78000,80291
18,78412,72591
18,78823,64541
18,79235,63150
18,79648,55353
18,80060,48933
18,80472,45968
18,80885,42450
18,81297,38489
18,81708,38835
18,82122,33986
18,82533,33595
18,82945,29452
18,83358,29898
18,83770,28590
18,84182,26129
18,84595,24595
18,85007,26109
18,85418,23406
18,85832,22241
18,86243,21837
18,86655,22392
18,87068,25588
18,87480,28058
18,87892,30900
18,88303,34689
18,88717,37063
18,89128,37002
18,89540,37993
18,89953,36782
18,90365,36632
18,90777,36350
18,91190,40106
18,91602,54940
18,92013,85686
18,92427,129237
18,92838,208845
18,93250,311387
18,93663,428969
18,94075,540787
18,94487,622517
18,94900,662640
18,95312,656081
18,95723,608112
18,96137,518867
18,96548,419985
18,96960,326103
18,97372,245735
18,97785,185658
18,98197,141018
18,98608,108866
18,99022,85108
18,99433,68904
18,99845,56892
19,00258,48354
19,00670,42379
19,01082,39362
19,01495,38053
19,01907,42065
19,02318,52772
19,02732,77564
19,03143,127953
19,03555,212939
19,03968,325470
19,04380,477479
19,04792,651209
19,05205,818212
19,05617,943880
19,06028,1008651
19,06440,986109
19,06853,903275
19,07265,756752
19,07677,611715
19,08090,464400
19,08502,353768
19,08913,266422
19,09327,205670
19,09738,158120
19,10150,127568
19,10563,102600
19,10975,84162
19,11387,73878
19,11800,64993
19,12212,56203
19,12623,48285
19,13037,43721
19,13448,40229
19,13860,35941
19,14273,36399
19,14685,33361
19,15097,31054
19,15508,27868
19,15922,25145
19,16333,26799
19,16745,23952
19,17158,23333
19,17570,21033
19,17982,22366
19,18395,20224
19,18807,19727
19,19218,19134
19,19632,17809
19,20043,18402
19,20455,18334
19,20868,17060
19,21280,16458
19,21692,17299
19,22105,16991
19,22517,16220
19,22928,14577
19,23342,15443
19,23753,14457
19,24165,14006
19,24577,12960
19,24990,12783
19,25402,12494
19,25813,12152
19,26227,12291
19,26638,10543
19,27050,11645
19,27463,11425
19,27875,10944
19,28287,10588
19,28700,11057
19,29112,10910
19,29523,11927
19,29937,11687
19,30348,13549
19,30760,22371
19,31173,39597
19,31585,68441
19,31997,123702
19,32410,227017
19,32822,367546
19,33233,548658
19,33645,750815
19,34058,948734
19,34470,1106398
19,34882,1171236
19,35295,1133382
19,35707,1009419
19,36118,839585
19,36532,668318
19,36943,507972
19,37355,385892
19,37768,286374
19,38180,214741
19,38592,166021
19,39005,138081
19,39417,112619
19,39828,93194
19,40242,79429
19,40653,68525
19,41065,62073
19,41478,55901
19,41890,47929
19,42302,46423
19,42713,40560
19,43127,38752
19,43538,33897
19,43950,33108
19,44363,31723
19,44775,32582
19,45187,30647
19,45600,27779
19,46012,28603
19,46423,28202
19,46837,27796
19,47248,25741
19,47660,25854
19,48073,24823
19,48485,23135
19,48897,22681
19,49310,20853
19,49722,20362
19,50133,19345
19,50547,18504
19,50958,18669
19,51370,17817
19,51782,17204
19,52195,16084
19,52607,16177
19,53018,17097
19,53432,15226
19,53843,15065
19,54255,14396
19,54668,14338
19,55080,14469
19,55492,14452
19,55905,15606
19,56317,16928
19,56728,23347
19,57142,34430
19,57553,58384
19,57965,106579
19,58378,184467
19,58790,283356
19,59202,416626
19,59615,567086
19,60027,706922
19,60438,822015
19,60850,866977
19,61263,850695
19,61675,763385
19,62087,641453
19,62500,510833
19,62912,394179
19,63323,301225
19,63737,228885
19,64148,181670
19,64560,136586
19,64973,109210
19,65385,89879
19,65797,73180
19,66210,64235
19,66622,56113
19,67033,48222
19,67447,44439
19,67858,39360
19,68270,37005
19,68683,36038
19,69095,35149
19,69507,31648
19,69918,28893
19,70332,26395
19,70743,26635
19,71155,25356
19,71568,22892
19,71980,21505
19,72392,20230
19,72805,21227
19,73217,19821
19,73628,18105
19,74042,17661
19,74453,17925
19,74865,17502
19,75278,16464
19,75690,16042
19,76102,15590
19,76515,16944
19,76927,14940
19,77338,15590
19,77752,14482
19,78163,13440
19,78575,14075
19,78987,14178
19,79400,16051
19,79812,13749
19,80223,12912
19,80637,16299
19,81048,13349
19,81460,14370
19,81873,13623
19,82285,12178
19,82697,13854
19,83110,12602
19,83522,13014
19,83933,13704
19,84347,12307
19,84758,13647
19,85170,13389
19,85583,10767
19,85995,12322
19,86407,12655
19,86820,13286
19,87232,14053
19,87643,13485
19,88055,12168
19,88468,12325
19,88880,13378
19,89292,12881
19,89705,11830
19,90117,12975
19,90528,13932
19,90942,14283
19,91353,14766
19,91765,14454
19,92178,13447
19,92590,16579
19,93002,19241
19,93415,26482
19,93827,41607
19,94238,73448
19,94652,136882
19,95063,234122
19,95475,386525
19,95888,605858
19,96300,906739
19,96712,1282526
19,97123,1718433
19,97537,2187807
19,97948,2649164
19,98360,2975167
19,98773,3077832
19,99185,2952136
19,99597,2611859
20,00010,2173264
20,00422,1720030
20,00833,1313120
20,01247,989732
20,01658,753762
20,02070,570971
20,02483,445251
20,02895,352041
20,03307,290576
20,03720,242824
20,04132,202770
20,04543,174286
20,04957,150896
20,05368,138922
20,05780,125287
20,06192,110934
20,06605,98910
20,07017,93539
20,07428,87810
20,07842,79332
20,08253,76259
20,08665,69045
20,09078,67267
20,09490,58069
20,09902,57771
20,10315,53808
20,10727,51438
20,11138,50460
20,11552,48504
20,11963,47210
20,12375,45067
20,12788,44241
20,13200,42237
20,13612,41516
20,14025,39592
20,14437,41993
20,14848,41700
20,15260,40375
20,15673,38490
20,16085,38228
20,16497,37187
20,16910,34397
20,17322,34145
20,17733,33299
20,18147,34233
20,18558,36149
20,18970,43544
20,19383,56111
20,19795,82045
20,20207,130253
20,20620,205855
20,21032,312523
20,21443,439476
20,21857,570674
20,22268,682471
20,22680,752860
20,23093,767583
20,23505,730845
20,23917,651909
20,24330,550995
20,24742,445842
20,25153,374617
20,25565,330660
20,25978,324295
20,26390,351178
20,26802,421431
20,27215,506639
20,27627,607837
20,28038,694922
20,28452,762562
20,28863,804720
20,29275,855188
20,29688,899738
20,30100,940919
20,30512,1021172
20,30925,1108566
20,31337,1199629
20,31748,1221092
20,32162,1196149
20,32573,1106381
20,32985,958607
20,33398,793157
20,33810,643064
20,34222,506894
20,34633,400428
20,35047,320197
20,35458,259295
20,35870,211329
20,36283,179694
20,36695,153315
20,37107,134978
20,37520,119683
20,37932,106784
20,38343,97693
20,38757,90944
20,39168,83000
20,39580,80642
20,39993,78781
20,40405,72051
20,40817,65698
20,41230,62149
20,41642,58131
20,42053,56064
20,42467,49910
20,42878,46518
20,43290,45002
20,43702,41418
20,44115,40666
20,44527,39484
20,44938,39350
20,45352,36555
20,45763,33653
20,46175,34939
20,46588,30747
20,47000,30937
20,47412,31136
20,47825,29842
20,48237,29687
20,48648,27646
20,49062,27993
20,49473,27656
20,49885,27734
20,50298,26152
20,50710,24798
20,51122,25336
20,51535,24428
20,51947,23880
20,52358,25063
20,52770,23724
20,53183,25203
20,53595,24899
20,54007,29698
20,54420,36188
20,54832,49858
20,55243,76586
20,55657,121189
20,56068,187443
20,56480,296337
20,56893,438878
20,57305,602915
20,57717,790281
20,58130,959066
20,58542,1094905
20,58953,1154628
20,59367,1126567
20,59778,1019083
20,60190,862046
20,60603,709451
20,61015,552827
20,61427,429196
20,61838,335383
20,62252,267070
20,62663,224144
20,63075,185400
20,63488,154656
20,63900,132192
20,64312,118419
20,64725,103460
20,65137,91714
20,65548,85640
20,65962,77261
20,66373,70229
20,66785,68596
20,67198,64150
20,67610,60631
20,68022,55685
20,68435,52363
20,68847,49990
20,69258,49876
20,69672,49045
20,70083,44280
20,70495,45493
20,70907,42323
20,71320,41696
20,71732,39129
20,72143,36657
20,72557,37700
20,72968,35334
20,73380,34764
20,73793,32451
20,74205,31595
20,74617,30798
20,75030,30825
20,75442,29159
20,75853,28801
20,76267,30284
20,76678,29764
20,77090,29932
20,77503,28182
20,77915,28156
20,78327,26872
20,78740,29048
20,79152,29703
20,79563,28198
20,79975,26033
20,80388,26948
20,80800,25840
20,81212,26634
20,81625,33071
20,82037,41690
20,82448,57181
20,82862,90342
20,83273,146706
20,83685,225618
20,84098,334878
20,84510,464713
20,84922,613555
20,85335,731351
20,85747,822254
20,86158,865011
20,86572,840924
20,86983,784499
20,87395,681603
20,87808,572094
20,88220,466540
20,88632,373525
20,89043,295013
20,89457,240230
20,89868,190478
20,90280,163602
20,90693,140480
20,91105,124438
20,91517,117825
20,91930,121962
20,92342,144410
20,92753,175354
20,93167,230746
20,93578,294972
20,93990,376735
20,94403,463332
20,94815,533657
20,95227,574030
20,95640,577183
20,96052,554560
20,96463,505782
20,96877,439672
20,97288,378457
20,97700,309854
20,98112,255960
20,98525,205531
20,98937,168829
20,99348,138191
20,99762,117672
21,00173,103046
21,00585,88113
21,00998,77929
21,01410,68328
21,01822,63463
21,02235,58566
21,02647,54060
21,03058,50062
21,03472,46011
21,03883,44448
21,04295,42894
21,04708,38598
21,05120,39809
21,05532,36442
21,05945,36377
21,06357,35129
21,06768,33456
21,07180,33439
21,07593,29641
21,08005,29887
21,08417,27408
21,08830,27896
21,09242,29647
21,09653,27610
21,10067,28257
21,10478,26707
21,10890,25971
21,11303,26978
21,11715,24904
21,12127,24123
21,12540,24428
21,12952,25667
21,13363,23545
21,13777,24513
21,14188,22762
21,14600,22974
21,15013,23545
21,15425,21679
21,15837,23022
21,16248,22661
21,16662,24751
21,17073,27622
21,17485,35919
21,17898,49312
21,18310,73899
21,18722,114449
21,19135,181395
21,19547,274141
21,19958,394383
21,20372,561660
21,20783,771402
21,21195,984660
21,21608,1256798
21,22020,1516295
21,22432,1764525
21,22845,1950895
21,23257,2060753
21,23668,2043853
21,24082,1890348
21,24493,1641561
21,24905,1350048
21,25317,1070262
21,25730,833854
21,26142,661353
21,26553,531775
21,26967,429237
21,27378,356486
21,27790,302259
21,28203,260120
21,28615,225552
21,29027,203880
21,29440,177190
21,29852,163666
21,30263,149562
21,30677,138956
21,31088,124043
21,31500,114252
21,31913,109858
21,32325,99771
21,32737,93475
21,33150,90884
21,33562,83232
21,33973,80472
21,34385,75786
21,34798,71798
21,35210,69493
21,35622,66917
21,36035,63030
21,36447,61986
21,36858,58840
21,37272,55322
21,37683,53153
21,38095,53710
21,38508,50523
21,38920,49021
21,39332,46518
21,39745,46333
21,40157,45821
21,40568,44288
21,40982,42663
21,41393,43089
21,41805,40603
21,42218,39942
21,42630,37477
21,43042,38314
21,43453,37048
21,43867,38300
21,44278,37087
21,44690,36620
21,45103,35305
21,45515,31897
21,45927,34292
21,46340,33316
21,46752,34677
21,47163,35329
21,47577,34841
21,47988,32934
21,48400,30965
21,48813,32160
21,49225,33665
21,49637,31773
21,50050,29778
21,50462,29860
21,50873,29184
21,51287,29434
21,51698,28574
21,52110,27584
21,52522,28536
21,52935,27895
21,53347,30024
21,53758,33041
21,54172,42154
21,54583,53314
21,54995,80673
21,55408,115142
21,55820,167489
21,56232,248420
21,56645,353155
21,57057,473206
21,57468,610720
21,57882,750291
21,58293,857513
21,58705,922568
21,59118,950666
21,59530,926479
21,59942,847653
21,60355,744253
21,60767,634378
21,61178,520584
21,61590,436586
21,62003,355716
21,62415,296008
21,62827,249681
21,63240,211081
21,63652,178931
21,64063,158033
21,64477,143824
21,64888,127081
21,65300,112701
21,65713,105277
21,66125,96395
21,66537,87949
21,66950,86150
21,67362,81768
21,67773,73015
21,68187,71667
21,68598,66280
21,69010,63192
21,69423,60559
21,69835,57131
21,70247,54204
21,70658,53205
21,71072,49086
21,71483,46410
21,71895,47793
21,72308,44111
21,72720,42725
21,73132,42384
21,73545,40507
21,73957,38493
21,74368,35916
21,74782,37439
21,75193,34458
21,75605,34379
21,76018,32913
21,76430,34192
21,76842,34863
21,77255,33526
21,77667,32616
21,78078,30736
21,78492,31469
21,78903,30518
21,79315,28955
21,79727,29473
21,80140,30727
21,80552,27890
21,80963,31290
21,81377,32643
21,81788,31911
21,82200,33685
21,82613,32121
21,83025,30742
21,83437,30032
21,83850,30391
21,84262,27505
21,84673,26963
21,85087,27952
21,85498,26883
21,85910,26354
21,86323,25469
21,86735,26002
21,87147,26483
21,87560,27733
21,87972,24896
21,88383,25501
21,88795,25198
21,89208,27393
21,89620,27565
21,90032,27175
21,90445,29439
21,90857,29679
21,91268,31809
21,91682,32531
21,92093,31248
21,92505,28914
21,92918,31156
21,93330,29617
21,93742,28226
21,94155,26702
21,94567,25739
21,94978,23569
21,95392,24703
21,95803,22845
21,96215,22082
21,96628,22589
21,97040,21469
21,97452,21472
21,97865,22114
21,98277,21070
21,98688,20446
21,99100,20053
21,99513,19762
21,99925,20685
22,00337,20062
22,00750,21515
22,01162,17737
22,01573,20132
22,01987,20017
22,02398,19659
22,02810,19476
22,03223,21578
22,03635,20810
22,04047,20837
22,04460,21422
22,04872,21774
22,05283,23351
22,05697,22146
22,06108,23697
22,06520,21861
22,06933,22067
22,07345,21741
22,07757,23872
22,08168,22571
22,08582,22225
22,08993,20915
22,09405,21804
22,09818,22063
22,10230,20310
22,10642,22428
22,11055,20227
22,11467,23346
22,11878,21648
22,12292,20795
22,12703,21855
22,13115,22566
22,13528,22244
22,13940,23471
22,14352,23491
22,14765,24723
22,15177,24429
22,15588,23855
22,16002,23208
22,16413,25363
22,16825,23568
22,17237,21623
22,17650,21745
22,18062,22125
22,18473,22707
22,18887,20345
22,19298,19961
22,19710,20705
22,20123,19509
22,20535,20509
22,20947,19897
22,21360,19602
22,21772,18339
22,22183,18721
22,22597,20042
22,23008,21006
22,23420,19796
22,23833,19709
22,24245,19793
22,24657,20808
22,25070,20695
22,25482,19252
22,25893,19752
22,26305,19515
22,26718,19289
22,27130,19666
22,27542,20558
22,27955,19009
22,28367,20507
22,28778,19956
22,29192,20468
22,29603,17406
22,30015,19709
22,30428,19611
22,30840,17709
22,31252,19647
22,31665,17310
22,32077,18711
22,32488,18763
22,32902,17457
22,33313,19070
22,33725,18102
22,34138,18361
22,34550,18364
22,34962,18281
22,35373,18736
22,35787,20395
22,36198,21238
22,36610,18915
22,37023,20066
22,37435,19022
22,37847,19634
22,38260,19296
22,38672,19777
22,39083,19006
22,39497,19945
22,39908,18253
22,40320,17046
22,40733,18343
22,41145,19310
22,41557,17913
22,41970,17947
22,42382,18264
22,42793,18117
22,43207,16188
22,43618,18576
22,44030,19184
22,44442,18294
22,44855,19027
22,45267,18948
22,45678,16860
22,46092,18441
22,46503,18661
22,46915,17385
22,47328,18926
22,47740,18594
22,48152,18751
22,48565,18707
22,48977,20070
22,49388,18826
22,49802,18141
22,50213,17451
22,50625,16739
22,51038,17932
22,51450,18050
22,51862,16583
22,52275,18356
22,52687,18644
22,53098,16144
22,53510,16364
22,53923,15570
22,54335,18266
22,54747,17840
22,55160,17421
22,55572,16196
22,55983,18295
22,56397,16565
22,56808,18868
22,57220,17598
22,57633,16585
22,58045,17570
22,58457,17232
22,58870,17386
22,59282,18227
22,59693,16820
22,60107,18446
22,60518,17759
22,60930,18687
22,61343,17726
22,61755,18035
22,62167,17460
22,62578,17626
22,62992,18693
22,63403,17916
22,63815,18163
22,64228,22219
22,64640,26689
22,65052,34503
22,65465,46149
22,65877,63430
22,66288,92735
22,66702,126247
22,67113,171956
22,67525,228375
22,67938,276170
22,68350,332558
22,68762,371663
22,69175,408146
22,69587,421405
22,69998,414898
22,70412,398856
22,70823,378239
22,71235,339157
22,71647,296432
22,72060,258462
22,72472,222154
22,72883,185655
22,73297,165082
22,73708,139658
22,74120,119576
22,74533,105201
22,74945,92734
22,75357,84249
22,75770,75390
22,76182,69658
22,76593,60707
22,77007,60191
22,77418,52598
22,77830,48484
22,78243,45338
22,78655,45950
22,79067,43921
22,79480,41583
22,79892,38899
22,80303,37108
22,80715,33572
22,81128,34886
22,81540,35973
22,81952,32150
22,82365,32592
22,82777,29537
22,83188,30698
22,83602,29299
22,84013,28606
22,84425,28220
22,84838,28392
22,85250,27757
22,85662,28062
22,86075,26341
22,86487,26577
22,86898,25049
22,87312,26200
22,87723,25829
22,88135,25845
22,88548,23515
22,88960,24787
22,89372,25196
22,89783,23859
22,90197,24662
22,90608,24372
22,91020,23504
22,91433,22248
22,91845,21393
22,92257,23303
22,92670,20981
22,93082,22951
22,93493,22929
22,93907,22213
22,94318,21071
22,94730,22543
22,95143,22453
22,95555,21433
22,95967,21540
22,96380,22323
22,96792,19831
22,97203,20479
22,97617,20998
22,98028,20449
22,98440,19959
22,98852,21857
22,99265,19567
22,99677,19468
23,00088,20330
23,00502,20328
23,00913,19691
23,01325,19360
23,01738,20183
23,02150,20183
23,02562,19038
23,02975,18906
23,03387,20584
23,03798,19360
23,04212,17403
23,04623,19175
23,05035,19198
23,05448,17866
23,05860,19119
23,06272,17266
23,06685,18052
23,07097,17929
23,07508,20794
23,07920,19222
23,08333,17228
23,08745,19333
23,09157,17179
23,09570,18073
23,09982,17734
23,10393,18862
23,10807,18768
23,11218,19726
23,11630,19010
23,12043,19596
23,12455,20612
23,12867,18828
23,13280,18025
23,13692,18731
23,14103,20228
23,14517,18360
23,14928,19042
23,15340,17544
23,15753,17973
23,16165,19133
23,16577,17243
23,16988,17845
23,17402,17222
23,17813,17614
23,18225,19080
23,18638,16736
23,19050,18736
23,19462,18393
23,19875,18611
23,20287,18063
23,20698,18074
23,21112,19952
23,21523,20070
23,21935,18798
23,22348,19854
23,22760,16586
23,23172,19165
23,23585,17472
23,23997,18098
23,24408,17892
23,24822,17815
23,25233,18096
23,25645,19257
23,26057,17707
23,26470,18483
23,26882,17013
23,27293,18860
23,27707,17586
23,28118,17031
23,28530,17209
23,28943,16264
23,29355,18375
23,29767,18772
23,30180,17735
23,30592,17959
23,31003,19107
23,31417,17455
23,31828,17094
23,32240,19281
23,32653,19771
23,33065,18970
23,33477,17939
23,33890,21139
23,34302,18235
23,34713,17328
23,35125,17920
23,35538,19011
23,35950,19765
23,36362,18154
23,36775,19073
23,37187,18305
23,37598,18540
23,38012,17020
23,38423,18069
23,38835,18815
23,39248,18430
23,39660,18356
23,40072,20425
23,40485,20632
23,40897,20154
23,41308,19837
23,41722,18509
23,42133,17757
23,42545,18979
23,42958,19978
23,43370,20059
23,43782,17977
23,44193,18075
23,44607,16773
23,45018,20415
23,45430,18134
23,45843,17291
23,46255,17125
23,46667,18361
23,47080,19154
23,47492,15713
23,47903,17057
23,48317,16287
23,48728,18419
23,49140,18601
23,49553,17562
23,49965,18596
23,50377,18977
23,50790,18037
23,51202,20182
23,51613,21101
23,52027,21366
23,52438,20877
23,52850,21286
23,53263,20834
23,53675,19827
23,54087,18908
23,54498,20043
23,54912,20950
23,55323,18655
23,55735,18017
23,56148,19582
23,56560,18733
23,56972,18610
23,57385,17412
23,57797,18715
23,58208,18409
23,58622,17627
23,59033,17334
23,59445,17936
23,59858,17114
23,60270,17365
23,60682,16709
23,61095,18978
23,61507,17864
23,61918,18128
23,62332,17336
23,62743,18212
23,63155,16924
23,63567,16182
23,63980,16343
23,64392,19280
23,64803,18837
23,65217,17908
23,65628,17965
23,66040,19322
23,66453,17629
23,66865,17698
23,67277,18545
23,67690,18989
23,68102,18106
23,68513,17920
23,68927,17110
23,69338,18437
23,69750,17254
23,70163,19807
23,70575,18683
23,70987,19658
23,71400,19120
23,71812,21192
23,72223,18907
23,72635,21269
23,73048,18789
23,73460,18500
23,73872,18399
23,74285,17972
23,74697,18151
23,75108,17640
23,75522,19516
23,75933,17381
23,76345,18419
23,76758,19490
23,77170,19349
23,77582,19145
23,77995,18280
23,78407,19224
23,78818,15931
23,79232,17516
23,79643,19636
23,80055,18043
23,80468,21258
23,80880,17639
23,81292,19328
23,81703,19622
23,82117,20149
23,82528,18951
23,82940,18735
23,83353,16984
23,83765,18010
23,84177,16352
23,84590,15852
23,85002,18012
23,85413,15110
23,85827,17163
23,86238,16847
23,86650,17259
23,87063,16359
23,87475,15722
23,87887,15803
23,88300,16218
23,88712,15628
23,89123,17010
23,89537,15689
23,89948,17095
23,90360,16564
23,90772,16500
23,91185,16529
23,91597,16242
23,92008,16562
23,92422,17054
23,92833,17537
23,93245,16648
23,93658,16663
23,94070,16293
23,94482,16625
23,94895,17340
23,95307,17646
23,95718,16695
23,96132,18893
23,96543,18922
23,96955,18542
23,97368,18249
23,97780,17580
23,98192,18260
23,98605,17472
23,99017,18644
23,99428,17288
23,99840,17298
24,00253,16241
24,00665,17339
24,01077,18782
24,01490,16498
24,01902,16569
24,02313,17571
24,02727,15447
24,03138,15729
24,03550,16676
24,03963,16402
24,04375,15711
24,04787,16725
24,05200,16122
24,05612,18186
24,06023,14960
24,06437,16340
24,06848,16707
24,07260,16199
24,07673,16456
24,08085,17068
24,08497,15218
24,08908,15750
24,09322,16300
24,09733,14876
24,10145,17043
24,10558,15761
24,10970,16654
24,11382,14920
24,11795,16724
24,12207,16521
24,12618,16353
24,13032,17538
24,13443,17463
24,13855,17950
24,14268,18857
24,14680,17322
24,15092,19409
24,15505,18092
24,15917,16686
24,16328,18171
24,16742,17563
24,17153,17671
24,17565,18692
24,17977,16715
24,18390,18270
24,18802,16916
24,19213,17241
24,19627,17496
24,20038,16381
24,20450,17822
24,20863,17697
24,21275,18035
24,21687,17154
24,22100,16068
24,22512,16200
24,22923,16789
24,23337,18381
24,23748,17794
24,24160,16127
24,24573,17350
24,24985,17218
24,25397,14429
24,25810,18943
24,26222,17421
24,26633,17376
24,27045,17004
24,27458,14409
24,27870,16489
24,28282,15695
24,28695,17268
24,29107,16115
24,29518,16108
24,29932,16819
24,30343,17357
24,30755,17384
24,31168,16940
24,31580,16419
24,31992,18065
24,32405,16851
24,32817,16168
24,33228,18002
24,33642,18158
24,34053,19206
24,34465,18906
24,34878,18090
24,35290,17418
24,35702,17029
24,36113,17795
24,36527,16329
24,36938,15436
24,37350,18289
24,37763,15984
24,38175,15349
24,38587,15201
24,39000,15529
24,39412,16293
24,39823,17087
24,40237,16272
24,40648,16961
24,41060,16671
24,41473,15197
24,41885,18057
24,42297,16629
24,42710,17119
24,43122,17563
24,43533,14812
24,43947,16311
24,44358,16758
24,44770,16727
24,45182,15617
24,45595,16957
24,46007,16253
24,46418,17145
24,46832,15785
24,47243,15640
24,47655,15264
24,48068,16131
24,48480,16511
24,48892,14606
24,49305,14145
24,49717,14394
24,50128,15706
24,50542,15222
24,50953,16516
24,51365,14415
24,51778,16547
24,52190,15959
24,52602,14484
24,53015,16288
24,53427,15535
24,53838,17549
24,54250,16395
24,54663,16449
24,55075,14164
24,55487,13565
24,55900,15752
24,56312,14946
24,56723,15711
24,57137,14975
24,57548,15652
24,57960,16512
24,58373,17443
24,58785,15828
24,59197,16716
24,59610,15727
24,60022,15454
24,60433,16723
24,60847,17901
24,61258,14709
24,61670,18227
24,62083,18529
24,62495,18722
24,62907,17255
24,63318,16442
24,63732,17952
24,64143,18328
24,64555,15424
24,64968,17719
24,65380,15579
24,65792,15366
24,66205,16910
24,66617,16735
24,67028,17158
24,67442,15977
24,67853,16557
24,68265,14319
24,68678,15997
24,69090,14820
24,69502,16539
24,69915,15032
24,70327,15915
24,70738,16494
24,71152,17061
24,71563,15349
24,71975,16191
24,72387,16361
24,72800,16888
24,73212,17344
24,73623,16971
24,74037,14379
24,74448,17080
24,74860,17003
24,75273,17003
24,75685,15255
24,76097,16771
24,76510,18623
24,76922,18237
24,77333,17457
24,77747,18569
24,78158,19197
24,78570,17877
24,78983,17970
24,79395,18160
24,79807,16947
24,80220,16161
24,80632,16033
24,81043,16204
24,81455,16135
24,81868,15565
24,82280,15824
24,82692,16372
24,83105,16944
24,83517,17178
24,83928,17087
24,84342,14872
24,84753,15962
24,85165,16887
24,85578,17411
24,85990,16384
24,86402,16764
24,86815,17544
24,87227,16713
24,87638,17212
24,88052,17757
24,88463,16637
24,88875,16196
24,89288,16719
24,89700,15222
24,90112,16842
24,90523,15813
24,90937,16264
24,91348,16134
24,91760,15523
24,92173,16285
24,92585,17095
24,92997,17324
24,93410,18103
24,93822,17323
24,94233,17622
24,94647,15738
24,95058,16506
24,95470,15736
24,95883,16889
24,96295,16296
24,96707,15658
24,97120,17607
24,97532,15685
24,97943,15492
24,98357,15550
24,98768,16101
24,99180,16349
24,99592,17030
