D:\MassHunter\GCMS\1\data\Amal\Constant flow\140C\140C_1ml-min_7C-min_2.D Fri Aug 30 18:45:28 2024
Start of data points
5,09085	239617
5,09498	237663
5,09910	227139
5,10322	220569
5,10735	211190
5,11147	203716
5,11558	195279
5,11972	189176
5,12383	188372
5,12795	182330
5,13208	177473
5,13620	175737
5,14032	168440
5,14445	169646
5,14857	158140
5,15268	159765
5,15682	155272
5,16093	151882
5,16505	148102
5,16918	145869
5,17330	142879
5,17742	138429
5,18153	133800
5,18567	132184
5,18978	130699
5,19390	129566
5,19803	127853
5,20215	124450
5,20627	121223
5,21040	120388
5,21452	121713
5,21863	117971
5,22277	116326
5,22688	111727
5,23100	114621
5,23513	114503
5,23925	110213
5,24337	106619
5,24750	106674
5,25162	109055
5,25573	104685
5,25987	102639
5,26398	101012
5,26810	100690
5,27223	98158
5,27635	99573
5,28047	98186
5,28458	96343
5,28872	96136
5,29283	95752
5,29695	93269
5,30108	92004
5,30520	92099
5,30932	91095
5,31345	90098
5,31757	88430
5,32168	90453
5,32582	88017
5,32993	87119
5,33405	86907
5,33818	88036
5,34230	87765
5,34642	86855
5,35055	89129
5,35467	87807
5,35878	86210
5,36292	84685
5,36703	86946
5,37115	85187
5,37527	85929
5,37940	83337
5,38352	81847
5,38763	80962
5,39177	82821
5,39588	81217
5,40000	84423
5,40413	85061
5,40825	78322
5,41237	81684
5,41650	76813
5,42062	78415
5,42473	80673
5,42887	78950
5,43298	78816
5,43710	78263
5,44123	79123
5,44535	76474
5,44947	78699
5,45360	82825
5,45772	100654
5,46183	135057
5,46595	201555
5,47008	315604
5,47420	462084
5,47832	633654
5,48245	793401
5,48657	917061
5,49068	993718
5,49482	1019820
5,49893	1028952
5,50305	1016707
5,50718	985387
5,51130	953062
5,51542	919624
5,51955	884323
5,52367	862271
5,52778	823188
5,53192	795979
5,53603	770620
5,54015	741190
5,54428	718985
5,54840	691807
5,55252	666909
5,55663	643901
5,56077	615462
5,56488	597409
5,56900	575091
5,57313	558790
5,57725	527404
5,58137	505772
5,58550	494367
5,58962	471263
5,59373	448272
5,59787	429352
5,60198	399721
5,60610	383794
5,61023	354790
5,61435	336238
5,61847	307597
5,62260	287257
5,62672	263177
5,63083	252307
5,63497	228261
5,63908	217064
5,64320	199485
5,64732	187631
5,65145	176225
5,65557	165034
5,65968	155034
5,66382	143054
5,66793	137999
5,67205	131841
5,67618	121517
5,68030	115544
5,68442	109777
5,68855	105210
5,69267	100756
5,69678	98997
5,70092	92173
5,70503	91355
5,70915	89586
5,71328	83264
5,71740	82686
5,72152	81626
5,72565	78479
5,72977	78086
5,73388	72587
5,73800	72340
5,74213	71661
5,74625	70514
5,75037	68243
5,75450	66688
5,75862	68210
5,76273	66804
5,76687	63682
5,77098	63423
5,77510	64658
5,77923	63515
5,78335	60966
5,78747	59569
5,79160	62464
5,79572	59126
5,79983	59779
5,80397	58903
5,80808	58228
5,81220	58191
5,81633	58626
5,82045	57951
5,82457	58386
5,82868	57749
5,83282	59514
5,83693	56820
5,84105	57006
5,84518	57471
5,84930	59580
5,85342	58499
5,85755	57168
5,86167	56824
5,86578	57293
5,86992	59790
5,87403	55205
5,87815	55372
5,88228	58467
5,88640	62945
5,89052	71448
5,89465	88382
5,89877	124507
5,90288	175660
5,90702	253261
5,91113	335949
5,91525	419813
5,91937	499091
5,92350	555364
5,92762	578253
5,93173	589923
5,93587	589428
5,93998	576615
5,94410	559094
5,94823	545351
5,95235	519061
5,95647	505689
5,96060	484262
5,96472	466989
5,96883	451735
5,97297	429373
5,97708	412071
5,98120	399459
5,98533	381107
5,98945	369254
5,99357	346391
5,99770	335354
6,00182	319076
6,00593	308944
6,01005	292314
6,01418	279544
6,01830	263162
6,02242	245303
6,02655	234366
6,03067	222020
6,03478	200389
6,03892	187531
6,04303	173145
6,04715	161954
6,05128	150166
6,05540	143105
6,05952	129089
6,06365	122439
6,06777	112166
6,07188	108208
6,07602	101162
6,08013	96320
6,08425	90702
6,08838	86625
6,09250	82147
6,09662	78861
6,10073	74293
6,10487	71589
6,10898	68835
6,11310	65553
6,11723	65048
6,12135	63923
6,12547	61175
6,12960	60262
6,13372	59258
6,13783	56956
6,14197	55394
6,14608	55601
6,15020	55080
6,15433	51728
6,15845	51202
6,16257	53350
6,16670	51500
6,17082	49467
6,17493	50609
6,17907	50171
6,18318	46736
6,18730	48742
6,19142	46404
6,19555	46002
6,19967	45607
6,20378	46558
6,20792	44792
6,21203	45525
6,21615	43878
6,22028	43637
6,22440	43066
6,22852	44088
6,23265	43882
6,23677	45048
6,24088	44994
6,24502	43116
6,24913	43493
6,25325	44057
6,25738	43040
6,26150	42686
6,26562	41643
6,26975	43000
6,27387	41047
6,27798	43363
6,28210	42724
6,28623	42691
6,29035	41857
6,29447	41676
6,29860	39463
6,30272	42727
6,30683	39778
6,31097	40706
6,31508	40346
6,31920	40416
6,32333	40341
6,32745	40483
6,33157	40534
6,33570	38160
6,33982	37331
6,34393	37564
6,34807	39081
6,35218	37894
6,35630	39397
6,36043	38657
6,36455	39446
6,36867	39088
6,37278	37442
6,37692	36721
6,38103	37467
6,38515	37410
6,38928	37770
6,39340	38909
6,39752	38157
6,40165	38884
6,40577	44172
6,40988	53911
6,41402	81950
6,41813	131562
6,42225	208338
6,42638	329823
6,43050	493775
6,43462	679476
6,43875	872470
6,44287	1038403
6,44698	1179102
6,45112	1256910
6,45523	1283822
6,45935	1288378
6,46347	1262709
6,46760	1220278
6,47172	1169391
6,47583	1119533
6,47997	1074142
6,48408	1021637
6,48820	980310
6,49233	938120
6,49645	880710
6,50057	848888
6,50470	792668
6,50882	756021
6,51293	712017
6,51707	665914
6,52118	623844
6,52530	583071
6,52943	550596
6,53355	499950
6,53767	454586
6,54180	416441
6,54592	378527
6,55003	339832
6,55415	306491
6,55828	274189
6,56240	243947
6,56652	219741
6,57065	198615
6,57477	184680
6,57888	161053
6,58302	145169
6,58713	131332
6,59125	120046
6,59538	107104
6,59950	103032
6,60362	92656
6,60775	86502
6,61187	79017
6,61598	75219
6,62012	68560
6,62423	66091
6,62835	62286
6,63248	55892
6,63660	55461
6,64072	54730
6,64483	50813
6,64897	49841
6,65308	50440
6,65720	46040
6,66133	45189
6,66545	44770
6,66957	44294
6,67370	42022
6,67782	39925
6,68193	41003
6,68607	38835
6,69018	39286
6,69430	39233
6,69843	39334
6,70255	37536
6,70667	38409
6,71080	37530
6,71492	37882
6,71903	36901
6,72317	37627
6,72728	36717
6,73140	36664
6,73552	35676
6,73965	35372
6,74377	35529
6,74788	35000
6,75202	33907
6,75613	33375
6,76025	34480
6,76438	32182
6,76850	33972
6,77262	33577
6,77675	33152
6,78087	32761
6,78498	33638
6,78912	33241
6,79323	34405
6,79735	32501
6,80148	33414
6,80560	31116
6,80972	33436
6,81385	31757
6,81797	31672
6,82208	31750
6,82620	30601
6,83033	30261
6,83445	31404
6,83857	32142
6,84270	31029
6,84682	31168
6,85093	31446
6,85507	32063
6,85918	31899
6,86330	30102
6,86743	32262
6,87155	31377
6,87567	30124
6,87980	29557
6,88392	29092
6,88803	29641
6,89217	30433
6,89628	29308
6,90040	30002
6,90453	30139
6,90865	29855
6,91277	30631
6,91688	29736
6,92102	30235
6,92513	29099
6,92925	30057
6,93338	28892
6,93750	28650
6,94162	30061
6,94575	29125
6,94987	29886
6,95398	31012
6,95812	28882
6,96223	29388
6,96635	27857
6,97048	28411
6,97460	29160
6,97872	30875
6,98285	27107
6,98697	27985
6,99108	29253
6,99522	28366
6,99933	30161
7,00345	30620
7,00758	29804
7,01170	30790
7,01582	34639
7,01993	43135
7,02407	60608
7,02818	91740
7,03230	142355
7,03643	212608
7,04055	301146
7,04467	408719
7,04880	512391
7,05292	602507
7,05703	676517
7,06117	722978
7,06528	753282
7,06940	753502
7,07353	738993
7,07765	722150
7,08177	686535
7,08590	660354
7,09002	621197
7,09413	584215
7,09827	549299
7,10238	517462
7,10650	487850
7,11062	454354
7,11475	425427
7,11887	385132
7,12298	360123
7,12712	327970
7,13123	295113
7,13535	267429
7,13948	240185
7,14360	218387
7,14772	187906
7,15185	169371
7,15597	150758
7,16008	138397
7,16422	118455
7,16833	102928
7,17245	97708
7,17658	90212
7,18070	77682
7,18482	71697
7,18895	66560
7,19307	62998
7,19718	57462
7,20130	54927
7,20543	52503
7,20955	48994
7,21367	46369
7,21780	44070
7,22192	42855
7,22603	39684
7,23017	38562
7,23428	36551
7,23840	37283
7,24253	34588
7,24665	35174
7,25077	32758
7,25490	32870
7,25902	34494
7,26313	31902
7,26727	33427
7,27138	30740
7,27550	30896
7,27963	31351
7,28375	32325
7,28787	30816
7,29198	28706
7,29612	28915
7,30023	31381
7,30435	28047
7,30848	29615
7,31260	27587
7,31672	28479
7,32085	28121
7,32497	26634
7,32908	28554
7,33322	28066
7,33733	27737
7,34145	27431
7,34558	26734
7,34970	26757
7,35382	27965
7,35795	25694
7,36207	27519
7,36618	27078
7,37032	27703
7,37443	27267
7,37855	29563
7,38267	29263
7,38680	28678
7,39092	30777
7,39503	29595
7,39917	31190
7,40328	28946
7,40740	29372
7,41153	28565
7,41565	28705
7,41977	28443
7,42390	28380
7,42802	26107
7,43213	28288
7,43627	27449
7,44038	27086
7,44450	26882
7,44863	24730
7,45275	24498
7,45687	26151
7,46100	25494
7,46512	24620
7,46923	24889
7,47335	26047
7,47748	26083
7,48160	23448
7,48572	24668
7,48985	24549
7,49397	24380
7,49808	24008
7,50222	24481
7,50633	25513
7,51045	24071
7,51458	24603
7,51870	23291
7,52282	23230
7,52695	24650
7,53107	24548
7,53518	23706
7,53932	25703
7,54343	23841
7,54755	23991
7,55168	24126
7,55580	22501
7,55992	23839
7,56403	23744
7,56817	23726
7,57228	22114
7,57640	22997
7,58053	24214
7,58465	23739
7,58877	22539
7,59290	24204
7,59702	24489
7,60113	22535
7,60527	25158
7,60938	24932
7,61350	20941
7,61763	23822
7,62175	23645
7,62587	22757
7,63000	23336
7,63412	24119
7,63823	23748
7,64237	22932
7,64648	22554
7,65060	23755
7,65472	24868
7,65885	24094
7,66297	24589
7,66708	23873
7,67122	24207
7,67533	24962
7,67945	26528
7,68358	25875
7,68770	27440
7,69182	29403
7,69595	33022
7,70007	39254
7,70418	59049
7,70832	91771
7,71243	156287
7,71655	252830
7,72068	400649
7,72480	599320
7,72892	825576
7,73305	1070734
7,73717	1300800
7,74128	1485580
7,74540	1628258
7,74953	1701713
7,75365	1734953
7,75777	1717639
7,76190	1653944
7,76602	1588039
7,77013	1484650
7,77427	1402042
7,77838	1304355
7,78250	1185820
7,78663	1095891
7,79075	994613
7,79487	885666
7,79900	789365
7,80312	689361
7,80723	610579
7,81137	529848
7,81548	456952
7,81960	394787
7,82373	339909
7,82785	295710
7,83197	253383
7,83608	220184
7,84022	188516
7,84433	165448
7,84845	144698
7,85258	126023
7,85670	114418
7,86082	100374
7,86495	87885
7,86907	82857
7,87318	74438
7,87732	65883
7,88143	61635
7,88555	57722
7,88968	53103
7,89380	50568
7,89792	49954
7,90205	45476
7,90617	43344
7,91028	41770
7,91442	40931
7,91853	38076
7,92265	37132
7,92677	37036
7,93090	34523
7,93502	33594
7,93913	33874
7,94327	32758
7,94738	34651
7,95150	32643
7,95563	34514
7,95975	33629
7,96387	33404
7,96800	35508
7,97212	35920
7,97623	34630
7,98037	33381
7,98448	34750
7,98860	33102
7,99273	31857
7,99685	32558
8,00097	30403
8,00510	31399
8,00922	30172
8,01333	27925
8,01745	28010
8,02158	30104
8,02570	26836
8,02982	26519
8,03395	27522
8,03807	25945
8,04218	26728
8,04632	24983
8,05043	22041
8,05455	25724
8,05868	25067
8,06280	22855
8,06692	23590
8,07105	22910
8,07517	23265
8,07928	23777
8,08342	22923
8,08753	24853
8,09165	24803
8,09578	24068
8,09990	25213
8,10402	24789
8,10813	25707
8,11227	23999
8,11638	25554
8,12050	25251
8,12463	25493
8,12875	24735
8,13287	24135
8,13700	25270
8,14112	24984
8,14523	25075
8,14937	25449
8,15348	24428
8,15760	24738
8,16173	24365
8,16585	25520
8,16997	23847
8,17410	23685
8,17822	23762
8,18233	24777
8,18647	24730
8,19058	24002
8,19470	22814
8,19882	22480
8,20295	24098
8,20707	23395
8,21118	22522
8,21532	21623
8,21943	21127
8,22355	22882
8,22768	22934
8,23180	22884
8,23592	24077
8,24005	23355
8,24417	25198
8,24828	25910
8,25242	27589
8,25653	32083
8,26065	35603
8,26478	45157
8,26890	64379
8,27302	97882
8,27715	149479
8,28127	213277
8,28538	311371
8,28950	416118
8,29363	538314
8,29775	641784
8,30187	739331
8,30600	791882
8,31012	857289
8,31423	870679
8,31837	875882
8,32248	838698
8,32660	799211
8,33073	758484
8,33485	688587
8,33897	626295
8,34310	572850
8,34722	509617
8,35133	452821
8,35547	407074
8,35958	349517
8,36370	307642
8,36783	264368
8,37195	228253
8,37607	198825
8,38018	170965
8,38432	145247
8,38843	127087
8,39255	111080
8,39668	94119
8,40080	82885
8,40492	75086
8,40905	67276
8,41317	60072
8,41728	55928
8,42142	50296
8,42553	47379
8,42965	45950
8,43378	41335
8,43790	41251
8,44202	41552
8,44615	44337
8,45027	54305
8,45438	75018
8,45852	111517
8,46263	177521
8,46675	256353
8,47087	358718
8,47500	489114
8,47912	624042
8,48323	758336
8,48737	854166
8,49148	939009
8,49560	983877
8,49973	987234
8,50385	979292
8,50797	942189
8,51210	883141
8,51622	806564
8,52033	730085
8,52447	665398
8,52858	590320
8,53270	513508
8,53683	445495
8,54095	379945
8,54507	324689
8,54920	280421
8,55332	237270
8,55743	200807
8,56157	169879
8,56568	142460
8,56980	124439
8,57392	108256
8,57805	97229
8,58217	83497
8,58628	75163
8,59042	67798
8,59453	58765
8,59865	55117
8,60278	49832
8,60690	48012
8,61102	44759
8,61515	43070
8,61927	40307
8,62338	37423
8,62752	35802
8,63163	35348
8,63575	34018
8,63988	33402
8,64400	30707
8,64812	30058
8,65225	28602
8,65637	27802
8,66048	28375
8,66460	26092
8,66873	25222
8,67285	25110
8,67697	23340
8,68110	22221
8,68522	22392
8,68933	24131
8,69347	23116
8,69758	22746
8,70170	22142
8,70583	21252
8,70995	21131
8,71407	21108
8,71820	20146
8,72232	20790
8,72643	21367
8,73057	23198
8,73468	20102
8,73880	20404
8,74293	20078
8,74705	19592
8,75117	19285
8,75528	20248
8,75942	19899
8,76353	19729
8,76765	19972
8,77178	19749
8,77590	18672
8,78002	18320
8,78415	19578
8,78827	19729
8,79238	18284
8,79652	18145
8,80063	19626
8,80475	19563
8,80888	18448
8,81300	18427
8,81712	18089
8,82125	17342
8,82537	17880
8,82948	19773
8,83362	19532
8,83773	17027
8,84185	18534
8,84597	18444
8,85010	18714
8,85422	18229
8,85833	17831
8,86247	17298
8,86658	17492
8,87070	16667
8,87483	17287
8,87895	18187
8,88307	17110
8,88720	19090
8,89132	17471
8,89543	17014
8,89957	17669
8,90368	17236
8,90780	16907
8,91193	16839
8,91605	17536
8,92017	16930
8,92430	17331
8,92842	17500
8,93253	17849
8,93665	16949
8,94078	16253
8,94490	17189
8,94902	16441
8,95315	17079
8,95727	17175
8,96138	15585
8,96552	16527
8,96963	15528
8,97375	17806
8,97788	16086
8,98200	15765
8,98612	17538
8,99025	16028
8,99437	17441
8,99848	18164
9,00262	15902
9,00673	17746
9,01085	17028
9,01498	16805
9,01910	17630
9,02322	17367
9,02733	16316
9,03147	18258
9,03558	17716
9,03970	21331
9,04383	28906
9,04795	42586
9,05207	62675
9,05620	102287
9,06032	159794
9,06443	244083
9,06857	344824
9,07268	480345
9,07680	611370
9,08093	750663
9,08505	868113
9,08917	937740
9,09330	990860
9,09742	999940
9,10153	972744
9,10567	927831
9,10978	860326
9,11390	783017
9,11802	693238
9,12215	614866
9,12627	529274
9,13038	458636
9,13452	387287
9,13863	330561
9,14275	273724
9,14688	234431
9,15100	196063
9,15512	168688
9,15925	140920
9,16337	123179
9,16748	102911
9,17162	92786
9,17573	79009
9,17985	73305
9,18398	66190
9,18810	57177
9,19222	53164
9,19635	47900
9,20047	45762
9,20458	43744
9,20870	38953
9,21283	37782
9,21695	34940
9,22107	33711
9,22520	35630
9,22932	41861
9,23343	55990
9,23757	93745
9,24168	157635
9,24580	268357
9,24993	458796
9,25405	713678
9,25817	1073374
9,26230	1497473
9,26642	1926694
9,27053	2388185
9,27467	2798019
9,27878	3128472
9,28290	3347350
9,28703	3455145
9,29115	3371829
9,29527	3221858
9,29938	2947956
9,30352	2639862
9,30763	2318919
9,31175	1982947
9,31588	1668280
9,32000	1387498
9,32412	1156106
9,32825	948469
9,33237	781432
9,33648	627893
9,34062	526819
9,34473	439396
9,34885	362333
9,35298	308129
9,35710	261947
9,36122	227100
9,36535	193885
9,36947	170291
9,37358	153807
9,37772	134182
9,38183	124084
9,38595	112454
9,39007	102718
9,39420	94472
9,39832	89412
9,40243	81574
9,40657	74088
9,41068	69674
9,41480	66228
9,41893	61626
9,42305	58506
9,42717	55954
9,43130	52851
9,43542	51529
9,43953	48631
9,44367	45483
9,44778	44787
9,45190	44608
9,45603	42496
9,46015	39040
9,46427	36959
9,46840	38161
9,47252	35873
9,47663	36591
9,48075	33777
9,48488	33562
9,48900	32195
9,49312	31966
9,49725	31603
9,50137	30053
9,50548	30012
9,50962	28909
9,51373	28121
9,51785	27647
9,52198	27738
9,52610	26187
9,53022	25439
9,53435	25776
9,53847	24786
9,54258	23284
9,54672	24883
9,55083	26271
9,55495	22414
9,55908	22536
9,56320	22584
9,56732	23781
9,57143	21620
9,57557	23053
9,57968	22195
9,58380	22307
9,58793	21574
9,59205	22039
9,59617	22675
9,60030	21255
9,60442	22362
9,60853	22089
9,61267	22484
9,61678	22221
9,62090	22327
9,62503	22299
9,62915	21367
9,63327	21850
9,63740	19792
9,64152	22542
9,64563	20525
9,64977	20499
9,65388	20457
9,65800	18857
9,66212	19019
9,66625	19423
9,67037	18562
9,67448	19774
9,67862	19424
9,68273	18706
9,68685	19724
9,69098	18097
9,69510	19507
9,69922	20345
9,70335	20503
9,70747	20505
9,71158	20529
9,71572	20705
9,71983	20971
9,72395	18405
9,72808	21695
9,73220	21540
9,73632	21874
9,74045	22205
9,74457	24884
9,74868	35392
9,75280	53049
9,75693	83024
9,76105	134329
9,76517	208436
9,76930	316461
9,77342	438615
9,77753	582492
9,78167	729990
9,78578	870699
9,78990	990075
9,79403	1050615
9,79815	1087815
9,80227	1054620
9,80640	1019088
9,81052	950981
9,81463	847536
9,81877	748743
9,82288	638810
9,82700	543166
9,83113	453899
9,83525	375571
9,83937	314852
9,84348	256190
9,84762	215318
9,85173	179261
9,85585	151628
9,85998	130560
9,86410	109998
9,86822	97902
9,87235	84936
9,87647	75192
9,88058	69955
9,88472	64114
9,88883	62853
9,89295	58957
9,89708	55113
9,90120	50309
9,90532	49274
9,90945	45327
9,91357	45028
9,91768	40964
9,92182	39652
9,92593	35691
9,93005	33365
9,93417	34177
9,93830	31644
9,94242	29732
9,94653	30078
9,95067	26270
9,95478	28633
9,95890	26945
9,96303	24759
9,96715	26788
9,97127	22764
9,97540	24223
9,97952	21884
9,98363	21422
9,98777	22975
9,99188	21656
9,99600	22801
10,00013	23708
10,00425	22493
10,00837	24348
10,01250	23704
10,01662	25165
10,02073	26591
10,02485	25160
10,02898	27937
10,03310	26954
10,03722	27440
10,04135	31255
10,04547	34053
10,04958	47190
10,05372	72202
10,05783	116286
10,06195	186470
10,06608	281881
10,07020	424227
10,07432	592917
10,07845	764318
10,08257	937322
10,08668	1070041
10,09082	1185222
10,09493	1236116
10,09905	1230090
10,10318	1165664
10,10730	1079105
10,11142	968501
10,11555	851311
10,11967	722327
10,12378	599099
10,12790	496753
10,13203	401174
10,13615	331085
10,14027	273078
10,14440	228162
10,14852	190610
10,15263	154301
10,15677	136047
10,16088	116755
10,16500	100217
10,16913	89560
10,17325	80991
10,17737	72543
10,18150	64807
10,18562	59406
10,18973	54465
10,19387	50890
10,19798	46404
10,20210	44392
10,20623	42056
10,21035	39527
10,21447	39311
10,21858	33916
10,22272	34257
10,22683	30960
10,23095	28598
10,23508	30133
10,23920	28737
10,24332	27697
10,24745	27609
10,25157	26623
10,25568	25012
10,25982	24921
10,26393	24611
10,26805	24171
10,27218	23248
10,27630	23576
10,28042	21727
10,28455	23661
10,28867	21037
10,29278	23148
10,29692	22629
10,30103	21317
10,30515	20989
10,30927	21119
10,31340	19990
10,31752	18797
10,32163	20642
10,32577	18983
10,32988	19448
10,33400	19098
10,33813	17190
10,34225	17352
10,34637	17582
10,35050	17911
10,35462	16805
10,35873	18561
10,36287	17718
10,36698	17261
10,37110	16444
10,37523	17710
10,37935	18594
10,38347	17388
10,38760	17328
10,39172	17285
10,39583	16911
10,39995	17233
10,40408	16316
10,40820	17102
10,41232	16915
10,41645	15432
10,42057	16700
10,42468	15906
10,42882	16928
10,43293	16213
10,43705	16365
10,44118	14476
10,44530	15331
10,44942	16332
10,45355	14021
10,45767	16597
10,46178	15158
10,46592	15175
10,47003	15386
10,47415	15298
10,47828	14367
10,48240	16944
10,48652	16058
10,49063	15378
10,49477	14958
10,49888	15812
10,50300	15069
10,50713	15700
10,51125	15499
10,51537	15285
10,51950	13871
10,52362	15817
10,52773	15268
10,53187	15278
10,53598	14659
10,54010	15646
10,54423	15439
10,54835	15071
10,55247	15499
10,55660	16487
10,56072	17495
10,56483	22291
10,56897	29390
10,57308	43761
10,57720	70437
10,58132	117683
10,58545	188458
10,58957	285825
10,59368	422608
10,59782	584476
10,60193	754742
10,60605	918048
10,61018	1072951
10,61430	1175713
10,61842	1219106
10,62255	1192244
10,62667	1137894
10,63078	1042001
10,63492	920929
10,63903	802486
10,64315	666480
10,64728	552769
10,65140	457111
10,65552	375539
10,65965	307973
10,66377	257729
10,66788	212653
10,67200	177631
10,67613	153532
10,68025	129298
10,68437	109529
10,68850	98832
10,69262	86683
10,69673	78554
10,70087	69873
10,70498	64647
10,70910	61018
10,71323	53392
10,71735	49190
10,72147	47224
10,72560	42523
10,72972	39580
10,73383	40679
10,73797	36868
10,74208	35498
10,74620	34103
10,75033	31780
10,75445	31142
10,75857	28737
10,76268	28226
10,76682	28553
10,77093	28755
10,77505	25006
10,77918	24460
10,78330	22905
10,78742	25037
10,79155	23755
10,79567	22356
10,79978	23686
10,80392	22362
10,80803	22981
10,81215	20852
10,81628	22074
10,82040	20270
10,82452	20395
10,82865	19703
10,83277	18418
10,83688	21378
10,84102	19052
10,84513	17803
10,84925	20545
10,85337	18987
10,85750	19600
10,86162	23607
10,86573	32028
10,86987	48038
10,87398	82716
10,87810	141128
10,88223	244130
10,88635	396940
10,89047	632120
10,89460	926348
10,89872	1298531
10,90283	1681652
10,90697	2072212
10,91108	2447984
10,91520	2698660
10,91933	2815343
10,92345	2806398
10,92757	2617133
10,93170	2382981
10,93582	2052220
10,93993	1739426
10,94405	1432711
10,94818	1174611
10,95230	938243
10,95642	766092
10,96055	625354
10,96467	509199
10,96878	429633
10,97292	358709
10,97703	306729
10,98115	263803
10,98528	228475
10,98940	198476
10,99352	178266
10,99765	156150
11,00177	135676
11,00588	127205
11,01002	112751
11,01413	103582
11,01825	95301
11,02238	87097
11,02650	81579
11,03062	73445
11,03473	71190
11,03887	66237
11,04298	60487
11,04710	56893
11,05123	55868
11,05535	51938
11,05947	51357
11,06360	47716
11,06772	45447
11,07183	42647
11,07597	40339
11,08008	40499
11,08420	39513
11,08833	36464
11,09245	37606
11,09657	36312
11,10070	34552
11,10482	35255
11,10893	32595
11,11307	33394
11,11718	32110
11,12130	30794
11,12542	30972
11,12955	30977
11,13367	27204
11,13778	28823
11,14192	26289
11,14603	28095
11,15015	25140
11,15428	25367
11,15840	27511
11,16252	25985
11,16665	32910
11,17077	42572
11,17488	61847
11,17902	93523
11,18313	152512
11,18725	245685
11,19138	373407
11,19550	533940
11,19962	714682
11,20375	913686
11,20787	1078579
11,21198	1227377
11,21610	1318204
11,22023	1336841
11,22435	1301541
11,22847	1207942
11,23260	1068550
11,23672	925656
11,24083	781032
11,24497	638611
11,24908	527898
11,25320	428980
11,25733	356703
11,26145	292598
11,26557	244636
11,26970	205789
11,27382	179791
11,27793	152372
11,28207	129940
11,28618	116351
11,29030	102833
11,29443	94598
11,29855	82367
11,30267	75111
11,30678	70361
11,31092	64190
11,31503	63461
11,31915	65133
11,32328	70643
11,32740	86893
11,33152	129244
11,33565	203120
11,33977	326878
11,34388	504355
11,34802	767026
11,35213	1094998
11,35625	1468519
11,36038	1856071
11,36450	2246993
11,36862	2529450
11,37275	2683518
11,37687	2703452
11,38098	2610007
11,38512	2416760
11,38923	2127717
11,39335	1804142
11,39747	1498094
11,40160	1238519
11,40572	1005140
11,40983	815079
11,41397	659151
11,41808	538990
11,42220	440876
11,42633	379814
11,43045	321486
11,43457	274138
11,43870	241092
11,44282	204408
11,44693	182237
11,45107	163778
11,45518	149124
11,45930	134375
11,46343	121855
11,46755	108563
11,47167	102839
11,47580	92673
11,47992	89082
11,48403	79490
11,48815	75589
11,49228	72939
11,49640	67813
11,50052	64416
11,50465	62085
11,50877	57747
11,51288	54127
11,51702	53972
11,52113	47703
11,52525	47299
11,52938	45536
11,53350	44476
11,53762	43825
11,54175	43620
11,54587	40736
11,54998	38998
11,55412	38302
11,55823	37595
11,56235	36175
11,56648	36359
11,57060	33569
11,57472	33677
11,57883	33657
11,58297	31958
11,58708	30743
11,59120	29076
11,59533	28751
11,59945	29610
11,60357	27668
11,60770	28192
11,61182	27540
11,61593	26271
11,62007	25317
11,62418	25908
11,62830	26917
11,63243	25107
11,63655	25078
11,64067	24141
11,64480	25467
11,64892	24654
11,65303	28184
11,65717	32745
11,66128	44133
11,66540	65885
11,66953	106824
11,67365	174340
11,67777	269226
11,68188	408878
11,68602	597305
11,69013	785093
11,69425	1000905
11,69838	1213739
11,70250	1413840
11,70662	1624272
11,71075	1841316
11,71487	2029725
11,71898	2290066
11,72312	2548287
11,72723	2808069
11,73135	3056797
11,73548	3237151
11,73960	3293353
11,74372	3204612
11,74785	2979544
11,75197	2629117
11,75608	2261588
11,76022	1897812
11,76433	1535950
11,76845	1254817
11,77257	1014941
11,77670	823163
11,78082	680139
11,78493	562870
11,78907	471390
11,79318	406557
11,79730	349641
11,80143	303210
11,80555	265966
11,80967	232082
11,81380	209951
11,81792	189969
11,82203	176039
11,82617	156722
11,83028	145546
11,83440	130917
11,83853	120945
11,84265	111798
11,84677	104791
11,85090	99136
11,85502	93156
11,85913	88912
11,86325	83471
11,86738	76669
11,87150	76366
11,87562	71736
11,87975	67459
11,88387	67058
11,88798	65705
11,89212	60904
11,89623	61319
11,90035	57714
11,90448	54097
11,90860	53746
11,91272	50478
11,91685	49919
11,92097	48871
11,92508	47716
11,92922	44840
11,93333	44424
11,93745	42659
11,94158	40797
11,94570	42093
11,94982	41242
11,95393	38417
11,95807	38526
11,96218	39148
11,96630	37447
11,97043	36860
11,97455	34982
11,97867	34018
11,98280	33560
11,98692	33523
11,99103	31987
11,99517	30773
11,99928	29704
12,00340	31273
12,00753	30637
12,01165	35413
12,01577	42321
12,01990	55104
12,02402	83747
12,02813	128558
12,03227	201967
12,03638	304534
12,04050	443465
12,04462	605086
12,04875	780770
12,05287	943974
12,05698	1088660
12,06112	1170635
12,06523	1202399
12,06935	1172288
12,07348	1091557
12,07760	970708
12,08172	836357
12,08585	718452
12,08997	589499
12,09408	486120
12,09822	403585
12,10233	331819
12,10645	275105
12,11058	232834
12,11470	193665
12,11882	164450
12,12295	142927
12,12707	126919
12,13118	109468
12,13530	98853
12,13943	89717
12,14355	81535
12,14767	76538
12,15180	70443
12,15592	66699
12,16003	63611
12,16417	58727
12,16828	58365
12,17240	53610
12,17653	52372
12,18065	47807
12,18477	46897
12,18890	48353
12,19302	45083
12,19713	42959
12,20127	39465
12,20538	36508
12,20950	37757
12,21363	35224
12,21775	32714
12,22187	33338
12,22598	33440
12,23012	31644
12,23423	32089
12,23835	30367
12,24248	30800
12,24660	28325
12,25072	27687
12,25485	26903
12,25897	27226
12,26308	26876
12,26722	25597
12,27133	28774
12,27545	26639
12,27958	26715
12,28370	24960
12,28782	26773
12,29195	24304
12,29607	23349
12,30018	24911
12,30432	23884
12,30843	24410
12,31255	23720
12,31667	24680
12,32080	23650
12,32492	24066
12,32903	22714
12,33317	23438
12,33728	22295
12,34140	23294
12,34553	21898
12,34965	22041
12,35377	21427
12,35790	22089
12,36202	20215
12,36613	21718
12,37027	22255
12,37438	21982
12,37850	20488
12,38263	20960
12,38675	21355
12,39087	19946
12,39500	21912
12,39912	19988
12,40323	20741
12,40735	20786
12,41148	19987
12,41560	21003
12,41972	18589
12,42385	19338
12,42797	19046
12,43208	20718
12,43622	20295
12,44033	19700
12,44445	21391
12,44858	17277
12,45270	19818
12,45682	18070
12,46095	20843
12,46507	18748
12,46918	17590
12,47332	17347
12,47743	17662
12,48155	18646
12,48568	18681
12,48980	20890
12,49392	25453
12,49803	31719
12,50217	46820
12,50628	82647
12,51040	146376
12,51453	262674
12,51865	448481
12,52277	724601
12,52690	1116590
12,53102	1630021
12,53513	2224245
12,53927	2869471
12,54338	3450659
12,54750	3933040
12,55163	4219192
12,55575	4266167
12,55987	4058990
12,56400	3701742
12,56812	3231220
12,57223	2729397
12,57637	2264430
12,58048	1856529
12,58460	1507896
12,58872	1223234
12,59285	1007851
12,59697	824356
12,60108	687727
12,60522	581296
12,60933	497103
12,61345	426346
12,61758	372610
12,62170	330313
12,62582	294670
12,62995	261208
12,63407	234123
12,63818	209719
12,64232	190971
12,64643	176984
12,65055	159559
12,65468	144903
12,65880	138236
12,66292	129609
12,66705	123737
12,67117	115923
12,67528	105933
12,67940	98385
12,68353	95583
12,68765	89582
12,69177	86356
12,69590	80824
12,70002	76566
12,70413	74201
12,70827	71619
12,71238	66670
12,71650	68384
12,72063	63382
12,72475	60566
12,72887	57284
12,73300	56671
12,73712	53879
12,74123	53811
12,74537	51016
12,74948	48703
12,75360	49416
12,75773	46619
12,76185	48218
12,76597	47612
12,77008	50499
12,77422	50007
12,77833	51701
12,78245	49889
12,78658	51385
12,79070	52222
12,79482	53298
12,79895	52317
12,80307	51554
12,80718	50438
12,81132	53175
12,81543	61100
12,81955	72022
12,82368	95970
12,82780	139913
12,83192	209102
12,83605	308373
12,84017	438083
12,84428	590574
12,84842	744304
12,85253	875538
12,85665	998964
12,86077	1059184
12,86490	1074410
12,86902	1032011
12,87313	953465
12,87727	835466
12,88138	723021
12,88550	612377
12,88963	505914
12,89375	424658
12,89787	347538
12,90200	285747
12,90612	235769
12,91023	205830
12,91437	174270
12,91848	149387
12,92260	129740
12,92673	117842
12,93085	102196
12,93497	98235
12,93910	92784
12,94322	92031
12,94733	98903
12,95145	116269
12,95558	156542
12,95970	223452
12,96382	326712
12,96795	479000
12,97207	664548
12,97618	875238
12,98032	1098794
12,98443	1300801
12,98855	1446474
12,99268	1483850
12,99680	1466089
13,00092	1380312
13,00505	1229589
13,00917	1080725
13,01328	914976
13,01742	771183
13,02153	628552
13,02565	522018
13,02978	437526
13,03390	367945
13,03802	308829
13,04213	268056
13,04627	232073
13,05038	204896
13,05450	177032
13,05863	161636
13,06275	145653
13,06687	133990
13,07100	119763
13,07512	111360
13,07923	104218
13,08337	96336
13,08748	88699
13,09160	81134
13,09573	80084
13,09985	77266
13,10397	71175
13,10810	67085
13,11222	64006
13,11633	60469
13,12047	55639
13,12458	57027
13,12870	53524
13,13282	50700
13,13695	48912
13,14107	50900
13,14518	48783
13,14932	46290
13,15343	45625
13,15755	44132
13,16168	42841
13,16580	41974
13,16992	41438
13,17405	39235
13,17817	40763
13,18228	37519
13,18642	36845
13,19053	36827
13,19465	36062
13,19878	33886
13,20290	35690
13,20702	34752
13,21115	34916
13,21527	34031
13,21938	32621
13,22352	31791
13,22763	30527
13,23175	31105
13,23587	29848
13,24000	32212
13,24412	31184
13,24823	30686
13,25237	30412
13,25648	31215
13,26060	31318
13,26473	29928
13,26885	28735
13,27297	30145
13,27710	29804
13,28122	28866
13,28533	29391
13,28947	30003
13,29358	32831
13,29770	37788
13,30183	52231
13,30595	77904
13,31007	124911
13,31420	200701
13,31832	319194
13,32243	487110
13,32655	700740
13,33068	951857
13,33480	1195804
13,33892	1401501
13,34305	1547640
13,34717	1594561
13,35128	1571071
13,35542	1453237
13,35953	1313684
13,36365	1131622
13,36778	951407
13,37190	792527
13,37602	652717
13,38015	549778
13,38427	459485
13,38838	389821
13,39252	331248
13,39663	281681
13,40075	248833
13,40488	218814
13,40900	195781
13,41312	173834
13,41723	159109
13,42137	145384
13,42548	133126
13,42960	121226
13,43373	114160
13,43785	106599
13,44197	100265
13,44610	92282
13,45022	87179
13,45433	80127
13,45847	79021
13,46258	73720
13,46670	69668
13,47083	70410
13,47495	66499
13,47907	65476
13,48320	62044
13,48732	59584
13,49143	58640
13,49557	57522
13,49968	55508
13,50380	52285
13,50792	52688
13,51205	52607
13,51617	47128
13,52028	45766
13,52442	45461
13,52853	46217
13,53265	45118
13,53678	43017
13,54090	42807
13,54502	38961
13,54915	40883
13,55327	43090
13,55738	38469
13,56152	38261
13,56563	36942
13,56975	36984
13,57388	34233
13,57800	34241
13,58212	33930
13,58625	35299
13,59037	34777
13,59448	34502
13,59860	33729
13,60273	33401
13,60685	33830
13,61097	34166
13,61510	35101
13,61922	40236
13,62333	53767
13,62747	74593
13,63158	111039
13,63570	177903
13,63983	272262
13,64395	408010
13,64807	590072
13,65220	773893
13,65632	972133
13,66043	1129689
13,66457	1254236
13,66868	1298896
13,67280	1278423
13,67693	1192120
13,68105	1074140
13,68517	933862
13,68928	789608
13,69342	671598
13,69753	558351
13,70165	465249
13,70578	383605
13,70990	325613
13,71402	279249
13,71815	238730
13,72227	203752
13,72638	181815
13,73052	161420
13,73463	145383
13,73875	130167
13,74288	116177
13,74700	109976
13,75112	100671
13,75525	92011
13,75937	87220
13,76348	80522
13,76762	76465
13,77173	68982
13,77585	68034
13,77997	65685
13,78410	60545
13,78822	58141
13,79233	56777
13,79647	55889
13,80058	53647
13,80470	53300
13,80883	51134
13,81295	48346
13,81707	46923
13,82120	47560
13,82532	43646
13,82943	44404
13,83357	43566
13,83768	43210
13,84180	42461
13,84593	39187
13,85005	39948
13,85417	41165
13,85830	37486
13,86242	37482
13,86653	37638
13,87065	38489
13,87478	39443
13,87890	37792
13,88302	35678
13,88715	36200
13,89127	34040
13,89538	35681
13,89952	33525
13,90363	35441
13,90775	32581
13,91188	33128
13,91600	33337
13,92012	32361
13,92425	31102
13,92837	32688
13,93248	32103
13,93662	28459
13,94073	30522
13,94485	29297
13,94898	29521
13,95310	30518
13,95722	27881
13,96133	30741
13,96547	31710
13,96958	29271
13,97370	29041
13,97783	29380
13,98195	30430
13,98607	28934
13,99020	29336
13,99432	30423
13,99843	28146
14,00257	31013
14,00668	29060
14,01080	28365
14,01493	29409
14,01905	27769
14,02317	28321
14,02730	28677
14,03142	29647
14,03553	27813
14,03967	27694
14,04378	29653
14,04790	25807
14,05202	27446
14,05615	27523
14,06027	28935
14,06438	28647
14,06852	29938
14,07263	35132
14,07675	41489
14,08088	61677
14,08500	94355
14,08912	152599
14,09325	251202
14,09737	409121
14,10148	642971
14,10562	972226
14,10973	1400592
14,11385	1914900
14,11798	2495477
14,12210	3053891
14,12622	3583763
14,13035	3972853
14,13447	4199975
14,13858	4203104
14,14270	4014373
14,14683	3658395
14,15095	3251697
14,15507	2831669
14,15920	2420173
14,16332	2040260
14,16743	1715254
14,17157	1429577
14,17568	1187953
14,17980	1004605
14,18393	857993
14,18805	730829
14,19217	623147
14,19630	547404
14,20042	481295
14,20453	430658
14,20867	383847
14,21278	347956
14,21690	312696
14,22103	293983
14,22515	262283
14,22927	242941
14,23338	225833
14,23752	211466
14,24163	194550
14,24575	183878
14,24988	172406
14,25400	163779
14,25812	158103
14,26225	148696
14,26637	141318
14,27048	135370
14,27462	126206
14,27873	126592
14,28285	117868
14,28698	114137
14,29110	108445
14,29522	107504
14,29935	105309
14,30347	96516
14,30758	95440
14,31172	88705
14,31583	89741
14,31995	86665
14,32407	84803
14,32820	80490
14,33232	79213
14,33643	77826
14,34057	76469
14,34468	72985
14,34880	70789
14,35293	69199
14,35705	70626
14,36117	67711
14,36530	64878
14,36942	66004
14,37353	65510
14,37767	64577
14,38178	63365
14,38590	66197
14,39003	71845
14,39415	78850
14,39827	97471
14,40240	133241
14,40652	188908
14,41063	272460
14,41475	399922
14,41888	558557
14,42300	735061
14,42712	918311
14,43125	1060910
14,43537	1170883
14,43948	1216729
14,44362	1194739
14,44773	1133304
14,45185	1026418
14,45598	909898
14,46010	803762
14,46422	707140
14,46835	649937
14,47247	634257
14,47658	655089
14,48072	721082
14,48483	823990
14,48895	937225
14,49308	1049200
14,49720	1161717
14,50132	1216224
14,50543	1231109
14,50957	1233299
14,51368	1199067
14,51780	1134262
14,52193	1109114
14,52605	1124973
14,53017	1180937
14,53430	1281500
14,53842	1410986
14,54253	1555216
14,54667	1662195
14,55078	1734093
14,55490	1733123
14,55903	1659506
14,56315	1528012
14,56727	1357144
14,57140	1194615
14,57552	1028156
14,57963	877178
14,58377	752103
14,58788	642599
14,59200	554429
14,59612	482362
14,60025	416916
14,60437	376266
14,60848	333967
14,61262	306095
14,61673	279695
14,62085	255074
14,62498	231525
14,62910	215514
14,63322	198576
14,63735	188343
14,64147	174982
14,64558	162872
14,64972	154272
14,65383	147605
14,65795	139775
14,66208	132960
14,66620	125441
14,67032	118839
14,67445	111655
14,67857	108705
14,68268	106342
14,68680	102521
14,69093	98034
14,69505	93437
14,69917	91294
14,70330	88332
14,70742	84767
14,71153	82310
14,71567	82579
14,71978	81576
14,72390	76532
14,72803	75281
14,73215	70767
14,73627	72130
14,74040	70509
14,74452	67693
14,74863	67552
14,75277	66176
14,75688	63334
14,76100	64624
14,76513	62257
14,76925	60133
14,77337	58136
14,77748	59829
14,78162	56347
14,78573	56237
14,78985	56013
14,79398	54688
14,79810	56232
14,80222	54605
14,80635	55548
14,81047	54100
14,81458	53049
14,81872	52301
14,82283	55542
14,82695	54791
14,83108	58628
14,83520	68271
14,83932	81571
14,84345	110632
14,84757	156515
14,85168	234997
14,85582	347442
14,85993	507008
14,86405	712324
14,86818	948934
14,87230	1200368
14,87642	1409738
14,88053	1535701
14,88467	1592846
14,88878	1557303
14,89290	1457830
14,89703	1302163
14,90115	1132096
14,90527	979376
14,90940	839887
14,91352	710828
14,91763	611830
14,92177	529473
14,92588	458794
14,93000	408416
14,93413	362400
14,93825	327168
14,94237	298209
14,94650	269529
14,95062	247286
14,95473	226044
14,95887	210307
14,96298	195599
14,96710	177698
14,97122	171057
14,97535	161400
14,97947	152147
14,98358	144072
14,98772	134216
14,99183	132183
14,99595	125055
15,00008	118263
15,00420	118033
15,00832	113553
15,01245	110318
15,01657	108118
15,02068	100948
15,02482	99211
15,02893	96321
15,03305	92084
15,03718	91796
15,04130	86568
15,04542	84488
15,04955	84289
15,05367	86738
15,05778	80600
15,06190	79419
15,06603	75946
15,07015	76217
15,07427	74027
15,07840	72892
15,08252	71009
15,08663	67481
15,09077	67808
15,09488	68999
15,09900	65035
15,10313	63575
15,10725	67276
15,11137	64299
15,11550	65387
15,11962	62247
15,12373	62509
15,12787	61741
15,13198	60553
15,13610	59500
15,14023	62356
15,14435	61382
15,14847	64871
15,15258	74476
15,15672	90196
15,16083	117219
15,16495	170258
15,16908	253829
15,17320	375671
15,17732	539555
15,18145	722381
15,18557	934516
15,18968	1129045
15,19382	1265657
15,19793	1355729
15,20205	1365971
15,20618	1303428
15,21030	1191710
15,21442	1060492
15,21855	925304
15,22267	791453
15,22678	675474
15,23092	574375
15,23503	488429
15,23915	419648
15,24327	375110
15,24740	337970
15,25152	317410
15,25563	317450
15,25977	339311
15,26388	385980
15,26800	451328
15,27213	557447
15,27625	675563
15,28037	817350
15,28450	953184
15,28862	1043622
15,29273	1085958
15,29687	1093719
15,30098	1067863
15,30510	984912
15,30923	884470
15,31335	779862
15,31747	672876
15,32160	571690
15,32572	489859
15,32983	412805
15,33395	355471
15,33808	319551
15,34220	272199
15,34632	245592
15,35045	220585
15,35457	194381
15,35868	180160
15,36282	167529
15,36693	157306
15,37105	143019
15,37518	134203
15,37930	127828
15,38342	123287
15,38755	111399
15,39167	105433
15,39578	106386
15,39992	100834
15,40403	97435
15,40815	93949
15,41228	91001
15,41640	88242
15,42052	84175
15,42463	81517
15,42877	78409
15,43288	77055
15,43700	80332
15,44113	73318
15,44525	74006
15,44937	73408
15,45350	71410
15,45762	68554
15,46173	68220
15,46587	68890
15,46998	66246
15,47410	64824
15,47823	66126
15,48235	64172
15,48647	67645
15,49060	65802
15,49472	62806
15,49883	65887
15,50297	63928
15,50708	60322
15,51120	61110
15,51532	59756
15,51945	57144
15,52357	58598
15,52768	58160
15,53182	58533
15,53593	57974
15,54005	55693
15,54418	53496
15,54830	54319
15,55242	51928
15,55655	51179
15,56067	55061
15,56478	54502
15,56892	60466
15,57303	65392
15,57715	77048
15,58128	95933
15,58540	131484
15,58952	190009
15,59365	280742
15,59777	412749
15,60188	609374
15,60600	877006
15,61013	1205841
15,61425	1607598
15,61837	2029871
15,62250	2445397
15,62662	2814156
15,63073	3060900
15,63487	3106605
15,63898	3015829
15,64310	2780517
15,64723	2454677
15,65135	2117628
15,65547	1777717
15,65960	1499540
15,66372	1262761
15,66783	1077815
15,67197	937649
15,67608	805693
15,68020	714118
15,68433	620689
15,68845	560761
15,69257	511284
15,69668	469741
15,70082	424520
15,70493	392975
15,70905	362048
15,71318	339321
15,71730	312089
15,72142	292418
15,72555	277076
15,72967	257133
15,73378	240094
15,73792	230979
15,74203	216236
15,74615	210033
15,75028	200965
15,75440	194810
15,75852	182229
15,76265	175218
15,76677	173515
15,77088	164925
15,77502	159006
15,77913	154668
15,78325	149722
15,78737	144163
15,79150	140768
15,79562	135234
15,79973	131447
15,80387	130727
15,80798	128300
15,81210	121574
15,81623	122312
15,82035	115828
15,82447	117474
15,82860	116037
15,83272	111964
15,83683	109688
15,84097	105335
15,84508	104448
15,84920	101872
15,85333	100004
15,85745	98981
15,86157	97477
15,86570	96506
15,86982	95237
15,87393	90573
15,87805	89127
15,88218	90105
15,88630	89072
15,89042	90527
15,89455	84218
15,89867	85746
15,90278	83619
15,90692	82837
15,91103	81604
15,91515	82893
15,91928	81830
15,92340	77201
15,92752	81971
15,93165	77429
15,93577	76071
15,93988	77338
15,94402	80193
15,94813	77242
15,95225	78545
15,95638	77517
15,96050	73889
15,96462	76200
15,96873	71448
15,97287	76234
15,97698	73038
15,98110	77524
15,98523	83660
15,98935	98339
15,99347	120709
15,99760	157261
16,00172	213610
16,00583	300394
16,00997	417952
16,01408	568074
16,01820	753257
16,02233	941460
16,02645	1133818
16,03057	1305571
16,03470	1391517
16,03882	1413167
16,04293	1382653
16,04707	1299526
16,05118	1185011
16,05530	1053019
16,05942	923782
16,06355	806384
16,06767	700778
16,07178	618494
16,07592	536241
16,08003	480280
16,08415	432430
16,08828	386652
16,09240	355299
16,09652	323257
16,10065	297509
16,10477	273420
16,10888	257230
16,11302	241197
16,11713	224994
16,12125	217066
16,12538	200501
16,12950	191154
16,13362	185247
16,13775	172680
16,14187	166894
16,14598	155509
16,15010	152515
16,15423	151431
16,15835	140025
16,16247	137369
16,16660	133743
16,17072	131754
16,17483	127227
16,17897	121282
16,18308	120182
16,18720	117201
16,19133	113171
16,19545	111219
16,19957	107146
16,20370	108597
16,20782	101869
16,21193	102797
16,21607	100390
16,22018	99019
16,22430	98831
16,22843	95674
16,23255	93518
16,23667	93554
16,24078	90730
16,24492	91995
16,24903	89012
16,25315	89557
16,25728	84976
16,26140	82789
16,26552	78420
16,26965	82776
16,27377	83099
16,27788	78264
16,28202	79882
16,28613	78618
16,29025	76834
16,29438	74670
16,29850	75374
16,30262	77333
16,30675	73089
16,31087	73734
16,31498	75285
16,31912	73344
16,32323	72615
16,32735	72412
16,33147	70681
16,33560	74778
16,33972	69585
16,34383	69562
16,34797	69350
16,35208	72946
16,35620	67963
16,36033	70535
16,36445	69348
16,36857	69294
16,37270	69079
16,37682	66911
16,38093	67543
16,38507	65878
16,38918	65900
16,39330	64747
16,39743	65990
16,40155	64418
16,40567	65388
16,40980	65282
16,41392	62634
16,41803	66018
16,42215	64476
16,42628	69426
16,43040	70616
16,43452	77991
16,43865	83089
16,44277	85453
16,44688	98236
16,45102	99125
16,45513	107509
16,45925	115681
16,46338	120853
16,46750	123459
16,47162	122929
16,47575	118943
16,47987	116663
16,48398	110621
16,48812	103632
16,49223	98341
16,49635	95645
16,50048	88644
16,50460	79778
16,50872	80534
16,51285	75323
16,51697	73879
16,52108	72100
16,52520	66745
16,52933	67269
16,53345	62241
16,53757	65096
16,54170	61696
16,54582	59992
16,54993	60207
16,55407	62560
16,55818	59243
16,56230	58548
16,56643	58020
16,57055	58540
16,57467	59727
16,57880	56703
16,58292	55469
16,58703	55659
16,59117	58958
16,59528	57683
16,59940	58719
16,60353	57502
16,60765	55778
16,61177	56430
16,61588	54553
16,62002	56122
16,62413	57281
16,62825	55509
16,63238	59613
16,63650	57052
16,64062	54060
16,64475	55036
16,64887	55735
16,65298	54871
16,65712	57214
16,66123	55156
16,66535	54952
16,66948	54911
16,67360	54044
16,67772	53998
16,68185	53125
16,68597	53907
16,69008	53514
16,69422	55582
16,69833	55125
16,70245	52543
16,70657	53475
16,71070	55597
16,71482	55059
16,71893	53175
16,72307	56567
16,72718	52976
16,73130	54075
16,73543	57612
16,73955	54763
16,74367	53321
16,74780	54563
16,75192	57168
16,75603	51738
16,76017	53890
16,76428	53860
16,76840	55690
16,77253	53898
16,77665	54625
16,78077	54762
16,78490	53447
16,78902	56967
16,79313	57265
16,79725	54577
16,80138	55632
16,80550	53217
16,80962	52774
16,81375	52410
16,81787	53226
16,82198	51888
16,82612	55660
16,83023	52491
16,83435	51422
16,83848	52413
16,84260	53393
16,84672	51499
16,85085	52651
16,85497	51815
16,85908	54988
16,86322	53319
16,86733	51397
16,87145	52260
16,87558	51693
16,87970	51254
16,88382	53663
16,88793	53169
16,89207	51309
16,89618	54088
16,90030	52031
16,90443	56806
16,90855	52920
16,91267	55300
16,91680	52157
16,92092	53525
16,92503	52998
16,92917	54782
16,93328	54162
16,93740	53723
16,94153	56418
16,94565	51818
16,94977	53155
16,95390	52132
16,95802	51860
16,96213	54359
16,96627	50701
16,97038	52936
16,97450	55546
16,97862	54132
16,98275	51917
16,98687	53504
16,99098	54694
16,99512	50932
16,99923	53860
17,00335	52036
17,00748	52193
17,01160	54735
17,01572	53515
17,01985	53684
17,02397	52214
17,02808	54919
17,03222	52845
17,03633	49972
17,04045	49617
17,04458	51223
17,04870	48150
17,05282	49051
17,05695	50307
17,06107	51607
17,06518	49421
17,06930	50265
17,07343	50618
17,07755	50944
17,08167	48041
17,08580	51247
17,08992	49274
17,09403	51593
17,09817	50683
17,10228	50595
17,10640	50949
17,11053	49201
17,11465	52593
17,11877	51800
17,12290	50601
17,12702	51011
17,13113	49754
17,13527	49783
17,13938	52413
17,14350	51610
17,14763	48521
17,15175	51045
17,15587	50166
17,15998	50840
17,16412	53433
17,16823	53357
17,17235	55165
17,17648	57136
17,18060	66740
17,18472	78459
17,18885	93144
17,19297	124041
17,19708	159984
17,20122	218863
17,20533	286013
17,20945	374261
17,21358	455604
17,21770	545127
17,22182	631657
17,22595	691840
17,23007	735369
17,23418	742966
17,23832	747576
17,24243	710470
17,24655	665757
17,25067	614765
17,25480	561214
17,25892	504606
17,26303	444579
17,26717	400337
17,27128	353738
17,27540	310465
17,27953	287248
17,28365	259125
17,28777	226725
17,29190	209079
17,29602	192621
17,30013	175512
17,30427	162408
17,30838	156989
17,31250	145490
17,31663	139729
17,32075	134591
17,32487	121136
17,32900	119786
17,33312	114709
17,33723	108898
17,34135	106611
17,34548	101589
17,34960	97479
17,35372	98176
17,35785	94170
17,36197	88091
17,36608	89665
17,37022	85150
17,37433	83747
17,37845	83391
17,38258	81416
17,38670	79889
17,39082	77137
17,39495	75205
17,39907	76544
17,40318	74645
17,40732	73141
17,41143	74630
17,41555	71666
17,41968	71121
17,42380	71230
17,42792	69852
17,43203	69456
17,43617	70530
17,44028	70186
17,44440	69637
17,44853	65944
17,45265	67327
17,45677	67298
17,46090	64881
17,46502	64368
17,46913	63607
17,47327	60555
17,47738	64740
17,48150	65215
17,48563	59679
17,48975	60581
17,49387	61801
17,49800	59875
17,50212	61781
17,50623	60075
17,51037	60871
17,51448	59956
17,51860	59061
17,52272	57124
17,52685	62228
17,53097	60878
17,53508	61159
17,53922	60610
17,54333	60956
17,54745	57125
17,55158	58075
17,55570	58319
17,55982	55988
17,56395	60580
17,56807	58421
17,57218	56140
17,57632	55774
17,58043	60774
17,58455	55337
17,58868	54604
17,59280	56369
17,59692	55531
17,60105	57400
17,60517	58841
17,60928	55637
17,61340	56033
17,61753	58072
17,62165	52451
17,62577	53477
17,62990	54837
17,63402	56215
17,63813	57075
17,64227	54355
17,64638	55281
17,65050	55012
17,65463	54489
17,65875	56026
17,66287	57360
17,66700	55658
17,67112	57445
17,67523	56813
17,67937	55733
17,68348	55497
17,68760	55850
17,69173	57059
17,69585	54161
17,69997	56820
17,70408	54591
17,70822	56867
17,71233	57268
17,71645	57869
17,72058	56448
17,72470	57368
17,72882	57345
17,73295	55073
17,73707	55098
