D:\MassHunter\GCMS\1\data\Amal\Constant flow\150C_1ml-min_5C-min_1.D Fri Jul 26 14:00:44 2024
Start of data points
4,89128,731434
4,89572,685126
4,90017,658220
4,90460,617302
4,90905,591687
4,91348,559480
4,91793,535077
4,92237,505981
4,92682,474321
4,93125,453879
4,93570,433631
4,94013,413964
4,94458,390784
4,94902,376088
4,95347,354491
4,95790,339234
4,96235,328527
4,96678,308612
4,97123,294875
4,97567,284689
4,98012,271461
4,98455,254489
4,98900,246872
4,99343,233840
4,99788,228985
5,00232,217758
5,00677,208128
5,01122,199955
5,01565,188531
5,02010,186567
5,02453,180798
5,02898,172960
5,03342,164133
5,03787,155758
5,04230,152571
5,04675,150569
5,05118,143289
5,05563,137725
5,06007,132597
5,06452,127152
5,06895,120707
5,07340,123206
5,07783,113968
5,08228,115376
5,08672,112742
5,09117,108509
5,09560,106939
5,10005,101408
5,10448,97293
5,10893,96561
5,11337,92837
5,11782,92097
5,12225,88792
5,12670,85640
5,13115,86053
5,13558,85952
5,14003,82946
5,14447,81145
5,14892,80314
5,15335,80019
5,15780,77758
5,16223,75578
5,16668,74942
5,17112,70524
5,17557,71767
5,18000,71221
5,18445,71769
5,18888,69436
5,19333,69357
5,19777,67149
5,20222,65591
5,20665,68006
5,21110,64950
5,21553,65637
5,21998,65404
5,22442,63786
5,22887,62216
5,23330,61244
5,23775,59619
5,24218,62062
5,24663,62119
5,25108,68604
5,25552,80029
5,25997,112472
5,26440,163558
5,26885,231500
5,27328,314799
5,27773,381751
5,28217,426591
5,28662,456692
5,29105,459342
5,29550,452500
5,29993,438886
5,30438,424809
5,30882,415457
5,31327,395182
5,31770,378442
5,32215,361296
5,32658,351728
5,33103,334322
5,33547,325599
5,33992,308888
5,34435,296942
5,34880,287424
5,35323,275567
5,35768,264620
5,36212,250478
5,36657,244867
5,37100,230751
5,37545,220131
5,37990,212570
5,38433,201852
5,38878,193704
5,39322,187989
5,39767,179234
5,40210,170286
5,40655,165090
5,41098,155752
5,41543,150875
5,41987,143443
5,42432,135984
5,42875,132527
5,43320,131757
5,43763,126223
5,44208,119301
5,44652,116730
5,45097,111404
5,45540,106491
5,45985,102974
5,46428,96076
5,46873,93697
5,47317,88519
5,47762,85922
5,48205,81647
5,48650,78418
5,49093,74757
5,49538,68700
5,49983,68753
5,50427,64912
5,50872,63720
5,51315,59676
5,51760,57566
5,52203,55734
5,52648,57036
5,53092,54878
5,53537,51861
5,53980,51675
5,54425,48449
5,54868,47990
5,55313,47025
5,55757,46274
5,56202,45436
5,56645,45237
5,57090,45996
5,57533,44281
5,57978,42006
5,58422,43295
5,58867,44612
5,59310,41371
5,59755,40589
5,60198,41363
5,60643,41704
5,61087,42072
5,61532,41455
5,61977,40486
5,62420,41777
5,62865,39933
5,63308,39468
5,63753,41885
5,64197,44150
5,64642,52508
5,65085,66924
5,65530,91715
5,65973,127975
5,66418,172173
5,66862,214843
5,67307,249370
5,67750,271313
5,68195,284806
5,68638,289120
5,69083,283546
5,69527,276575
5,69972,267312
5,70415,255217
5,70860,246463
5,71303,234910
5,71748,225508
5,72192,215834
5,72637,202739
5,73080,195697
5,73525,194293
5,73970,185985
5,74413,174797
5,74858,168605
5,75302,160457
5,75747,155587
5,76190,146512
5,76635,143158
5,77078,134629
5,77523,127382
5,77967,123596
5,78412,115582
5,78855,113624
5,79300,108148
5,79743,104321
5,80188,100390
5,80632,94717
5,81077,92497
5,81520,86430
5,81965,88166
5,82408,80628
5,82853,79823
5,83297,75385
5,83742,71775
5,84185,70806
5,84630,64478
5,85073,64245
5,85518,61305
5,85963,58713
5,86407,55449
5,86852,53458
5,87295,48607
5,87740,49295
5,88183,48005
5,88628,46352
5,89072,43449
5,89517,41405
5,89960,42982
5,90405,40684
5,90848,40832
5,91293,38644
5,91737,37175
5,92182,39180
5,92625,36903
5,93070,34559
5,93513,35704
5,93958,34153
5,94402,35133
5,94847,34814
5,95290,34294
5,95735,33070
5,96178,33294
5,96623,32660
5,97067,31239
5,97512,31981
5,97955,32653
5,98400,31753
5,98845,32376
5,99288,32262
5,99733,31137
6,00177,31249
6,00622,31161
6,01065,30941
6,01510,31457
6,01953,30430
6,02398,31902
6,02842,31312
6,03287,31571
6,03730,31428
6,04175,29660
6,04618,32198
6,05063,31571
6,05507,30651
6,05952,30151
6,06395,30109
6,06840,31544
6,07283,30640
6,07728,30574
6,08172,30602
6,08617,30973
6,09060,30456
6,09505,29398
6,09948,30763
6,10393,28977
6,10838,29387
6,11282,28883
6,11727,29537
6,12170,30135
6,12615,31995
6,13058,37818
6,13503,47390
6,13947,70421
6,14392,116774
6,14835,178676
6,15280,267325
6,15723,359046
6,16168,454465
6,16612,534682
6,17057,578964
6,17500,603927
6,17945,614308
6,18388,598063
6,18833,592399
6,19277,565595
6,19722,546627
6,20165,519240
6,20610,497165
6,21053,470646
6,21498,448531
6,21942,426914
6,22387,398336
6,22832,375451
6,23275,364840
6,23720,341081
6,24163,320253
6,24608,303380
6,25052,286974
6,25497,269628
6,25940,252831
6,26385,242302
6,26828,224698
6,27273,206793
6,27717,194665
6,28162,183187
6,28605,172904
6,29050,165568
6,29493,152563
6,29938,144124
6,30382,133778
6,30827,124424
6,31270,116753
6,31715,107358
6,32158,102509
6,32603,95615
6,33047,85382
6,33492,79551
6,33935,73787
6,34380,69634
6,34825,64417
6,35268,57792
6,35713,53520
6,36157,51232
6,36602,47683
6,37045,45410
6,37490,41573
6,37933,39668
6,38378,37780
6,38822,34544
6,39267,34994
6,39710,32304
6,40155,31092
6,40598,30687
6,41043,28989
6,41487,28099
6,41932,26864
6,42375,28536
6,42820,27052
6,43263,27150
6,43708,25520
6,44152,26620
6,44597,25853
6,45040,24492
6,45485,25895
6,45928,23948
6,46373,24429
6,46818,23384
6,47262,24418
6,47707,22097
6,48150,24436
6,48595,23541
6,49038,23178
6,49483,22280
6,49927,22448
6,50372,22978
6,50815,22218
6,51260,21478
6,51703,21576
6,52148,20912
6,52592,21630
6,53037,20181
6,53480,21726
6,53925,21336
6,54368,21655
6,54813,22131
6,55257,20782
6,55702,21946
6,56145,20994
6,56590,21308
6,57033,19559
6,57478,21437
6,57922,20992
6,58367,20770
6,58812,19721
6,59255,21994
6,59700,20601
6,60143,21129
6,60588,19541
6,61032,20313
6,61477,19408
6,61920,20588
6,62365,20296
6,62808,20986
6,63253,20119
6,63697,20153
6,64142,22084
6,64585,20422
6,65030,20933
6,65473,20231
6,65918,20381
6,66362,20222
6,66807,20057
6,67250,20234
6,67695,20189
6,68138,21143
6,68583,21081
6,69027,19871
6,69472,19930
6,69915,19908
6,70360,19272
6,70803,20049
6,71248,20034
6,71693,18399
6,72137,21559
6,72582,22286
6,73025,25475
6,73470,34818
6,73913,50101
6,74358,73596
6,74802,109503
6,75247,154280
6,75690,200902
6,76135,252436
6,76578,296962
6,77023,320725
6,77467,344061
6,77912,345715
6,78355,346595
6,78800,337226
6,79243,326159
6,79688,314734
6,80132,293942
6,80577,283281
6,81020,272712
6,81465,256037
6,81908,242562
6,82353,228041
6,82797,215519
6,83242,203642
6,83687,187903
6,84130,173524
6,84575,164498
6,85018,155863
6,85463,146807
6,85907,139563
6,86352,129211
6,86795,120445
6,87240,108813
6,87683,106154
6,88128,98950
6,88572,91141
6,89017,84591
6,89460,79539
6,89905,71757
6,90348,65821
6,90793,59125
6,91237,57875
6,91682,53216
6,92125,46629
6,92570,44722
6,93013,43322
6,93458,40347
6,93902,33934
6,94347,33867
6,94790,31574
6,95235,30750
6,95680,29830
6,96123,27448
6,96568,25550
6,97012,24537
6,97457,23789
6,97900,23563
6,98345,23219
6,98788,24351
6,99233,21682
6,99677,22754
7,00122,20334
7,00565,20700
7,01010,19632
7,01453,20159
7,01898,20533
7,02342,19438
7,02787,17513
7,03230,18025
7,03675,18827
7,04118,19004
7,04563,19480
7,05007,17889
7,05452,18650
7,05895,18747
7,06340,17773
7,06783,18072
7,07228,17318
7,07673,18088
7,08117,17289
7,08562,18419
7,09005,18769
7,09450,19098
7,09893,18727
7,10338,17125
7,10782,18546
7,11227,18336
7,11670,18092
7,12115,18952
7,12558,17421
7,13003,17736
7,13447,17244
7,13892,17617
7,14335,17770
7,14780,17744
7,15223,17238
7,15668,18228
7,16112,17309
7,16557,17822
7,17000,18231
7,17445,16674
7,17888,16440
7,18333,17168
7,18777,17713
7,19222,16672
7,19667,17130
7,20110,16333
7,20555,17227
7,20998,16743
7,21443,15795
7,21887,15682
7,22332,17059
7,22775,16257
7,23220,16104
7,23663,16534
7,24108,15826
7,24552,16155
7,24997,16472
7,25440,17165
7,25885,15800
7,26328,16325
7,26773,15523
7,27217,15996
7,27662,16717
7,28105,16785
7,28550,16703
7,28993,15322
7,29438,14813
7,29882,15780
7,30327,15380
7,30770,15140
7,31215,14717
7,31660,15616
7,32103,14694
7,32548,14519
7,32992,15583
7,33437,15409
7,33880,14755
7,34325,15297
7,34768,14336
7,35213,15486
7,35657,15970
7,36102,14599
7,36545,15635
7,36990,15108
7,37433,15576
7,37878,15101
7,38322,14646
7,38767,15530
7,39210,15409
7,39655,15351
7,40098,15973
7,40543,15340
7,40987,15199
7,41432,15831
7,41875,14562
7,42320,16503
7,42763,17574
7,43208,20515
7,43652,26269
7,44097,43203
7,44542,66881
7,44985,111807
7,45430,173989
7,45873,257029
7,46318,362057
7,46762,472590
7,47207,570955
7,47650,652257
7,48095,724224
7,48538,757116
7,48983,776522
7,49427,778430
7,49872,747356
7,50315,726257
7,50760,695784
7,51203,653966
7,51648,616627
7,52092,578666
7,52537,543978
7,52980,506550
7,53425,479434
7,53868,442563
7,54313,404487
7,54757,376858
7,55202,344614
7,55645,317931
7,56090,290600
7,56535,266596
7,56978,243582
7,57423,218602
7,57867,197365
7,58312,184021
7,58755,164124
7,59200,144601
7,59643,133238
7,60088,115554
7,60532,103261
7,60977,91268
7,61420,78453
7,61865,73265
7,62308,65732
7,62753,56324
7,63197,53712
7,63642,45473
7,64085,42788
7,64530,39686
7,64973,36854
7,65418,30410
7,65862,30476
7,66307,28244
7,66750,26015
7,67195,25621
7,67638,24470
7,68083,21668
7,68528,22249
7,68972,21504
7,69417,20709
7,69860,20260
7,70305,17723
7,70748,18958
7,71193,18498
7,71637,18101
7,72082,18037
7,72525,17280
7,72970,18056
7,73413,18461
7,73858,18888
7,74302,17875
7,74747,17836
7,75190,17653
7,75635,17743
7,76078,18245
7,76523,17807
7,76967,18617
7,77412,17934
7,77855,17786
7,78300,18624
7,78743,16880
7,79188,16404
7,79632,17104
7,80077,17648
7,80522,16683
7,80965,15444
7,81410,16612
7,81853,16223
7,82298,15349
7,82742,16313
7,83187,15326
7,83630,16001
7,84075,15274
7,84518,14963
7,84963,15654
7,85407,15179
7,85852,15405
7,86295,14948
7,86740,14752
7,87183,16023
7,87628,15175
7,88072,15476
7,88517,15106
7,88960,14976
7,89405,14864
7,89848,15655
7,90293,14585
7,90737,14968
7,91182,15442
7,91625,15144
7,92070,14527
7,92515,15187
7,92958,13684
7,93403,15177
7,93847,14099
7,94292,14099
7,94735,14183
7,95180,15469
7,95623,15730
7,96068,15171
7,96512,14945
7,96957,15626
7,97400,14718
7,97845,14203
7,98288,14005
7,98733,13826
7,99177,14385
7,99622,14642
8,00065,14592
8,00510,14094
8,00953,15128
8,01398,13640
8,01842,13950
8,02287,12828
8,02730,13657
8,03175,14958
8,03618,14342
8,04063,14588
8,04508,18397
8,04952,21704
8,05397,31457
8,05840,49411
8,06285,72693
8,06728,104767
8,07173,149527
8,07617,195217
8,08062,245996
8,08505,292016
8,08950,328079
8,09393,351930
8,09838,367434
8,10282,377543
8,10727,367202
8,11170,362014
8,11615,346138
8,12058,332850
8,12503,312797
8,12947,290876
8,13392,277442
8,13835,261971
8,14280,236506
8,14723,216243
8,15168,199112
8,15612,186949
8,16057,169092
8,16502,153522
8,16945,140514
8,17390,127375
8,17833,114789
8,18278,103329
8,18722,95337
8,19167,85914
8,19610,75601
8,20055,68856
8,20498,60535
8,20943,54751
8,21387,48704
8,21832,42832
8,22275,38731
8,22720,34427
8,23163,31827
8,23608,29122
8,24052,27387
8,24497,28388
8,24940,32077
8,25385,41205
8,25828,56427
8,26273,81068
8,26717,116234
8,27162,162266
8,27605,214757
8,28050,269058
8,28493,314773
8,28938,359248
8,29383,396946
8,29827,414922
8,30272,428751
8,30715,419112
8,31160,414521
8,31603,396947
8,32048,374998
8,32492,351691
8,32937,332745
8,33380,309282
8,33825,285926
8,34268,268500
8,34713,248336
8,35157,225259
8,35602,206094
8,36045,187427
8,36490,171471
8,36933,154702
8,37378,138291
8,37822,125531
8,38267,108950
8,38710,94778
8,39155,88044
8,39598,75440
8,40043,66860
8,40487,59634
8,40932,52089
8,41377,46873
8,41820,40280
8,42265,34623
8,42708,33239
8,43153,30004
8,43597,27480
8,44042,25896
8,44485,22923
8,44930,21100
8,45373,19489
8,45818,19420
8,46262,18512
8,46707,16758
8,47150,16754
8,47595,16166
8,48038,16495
8,48483,15918
8,48927,15174
8,49372,13902
8,49815,15369
8,50260,14166
8,50703,14632
8,51148,14491
8,51592,13057
8,52037,12121
8,52480,13048
8,52925,12559
8,53370,12725
8,53813,13510
8,54258,11914
8,54702,12497
8,55147,12795
8,55590,12253
8,56035,12679
8,56478,12187
8,56923,12912
8,57367,11842
8,57812,12068
8,58255,11937
8,58700,10743
8,59143,13043
8,59588,11548
8,60032,12166
8,60477,11818
8,60920,12006
8,61365,11353
8,61808,11468
8,62253,11117
8,62697,11397
8,63142,11693
8,63585,10771
8,64030,11288
8,64473,11721
8,64918,11231
8,65363,11282
8,65807,10940
8,66252,10915
8,66695,10815
8,67140,11158
8,67583,11292
8,68028,11752
8,68472,11691
8,68917,11924
8,69360,11299
8,69805,11632
8,70248,12013
8,70693,10217
8,71137,11765
8,71582,11280
8,72025,11346
8,72470,11082
8,72913,10838
8,73358,11544
8,73802,12289
8,74247,11298
8,74690,10491
8,75135,11347
8,75578,10122
8,76023,11116
8,76467,10733
8,76912,10652
8,77357,11069
8,77800,10428
8,78245,10079
8,78688,11603
8,79133,9656
8,79577,10400
8,80022,10075
8,80465,10322
8,80910,10924
8,81353,10500
8,81798,10608
8,82242,11246
8,82687,10844
8,83130,9825
8,83575,10585
8,84018,9516
8,84463,10588
8,84907,11063
8,85352,10990
8,85795,11249
8,86240,10034
8,86683,10059
8,87128,10806
8,87572,9636
8,88017,10613
8,88460,9580
8,88905,11314
8,89350,9653
8,89793,11047
8,90238,10468
8,90682,10736
8,91127,11081
8,91570,10523
8,92015,12011
8,92458,14040
8,92903,18392
8,93347,26664
8,93792,39114
8,94235,60999
8,94680,90023
8,95123,128469
8,95568,172673
8,96012,227150
8,96457,281053
8,96900,331535
8,97345,370883
8,97788,400471
8,98233,415628
8,98677,416348
8,99122,406771
8,99565,404394
9,00010,386156
9,00453,364193
9,00898,348847
9,01342,318376
9,01787,293205
9,02232,270532
9,02675,246851
9,03120,221113
9,03563,197681
9,04008,177075
9,04452,161083
9,04897,141875
9,05340,123539
9,05785,106980
9,06228,96417
9,06673,81874
9,07117,69570
9,07562,62977
9,08005,51127
9,08450,47651
9,08893,41408
9,09338,37379
9,09782,33179
9,10227,27658
9,10670,26421
9,11115,24403
9,11558,22551
9,12003,20641
9,12447,18273
9,12892,17028
9,13335,18888
9,13780,19644
9,14225,24593
9,14668,34527
9,15113,57319
9,15557,90686
9,16002,148773
9,16445,234517
9,16890,349772
9,17333,477737
9,17778,637793
9,18222,809032
9,18667,992074
9,19110,1142172
9,19555,1270251
9,19998,1363611
9,20443,1425564
9,20887,1455248
9,21332,1436480
9,21775,1370037
9,22220,1306270
9,22663,1233298
9,23108,1146638
9,23552,1054881
9,23997,955288
9,24440,860141
9,24885,758588
9,25328,672299
9,25773,590895
9,26218,516135
9,26662,448731
9,27107,385583
9,27550,328482
9,27995,280183
9,28438,240356
9,28883,200502
9,29327,173639
9,29772,146753
9,30215,124806
9,30660,103206
9,31103,88373
9,31548,77479
9,31992,70596
9,32437,61741
9,32880,55645
9,33325,49883
9,33768,44743
9,34213,41388
9,34657,37469
9,35102,34948
9,35545,31830
9,35990,28799
9,36433,28770
9,36878,27151
9,37322,25057
9,37767,23796
9,38212,22913
9,38655,22983
9,39100,21026
9,39543,20487
9,39988,19164
9,40432,19072
9,40877,18301
9,41320,18559
9,41765,18020
9,42208,17556
9,42653,17076
9,43097,15593
9,43542,17196
9,43985,15698
9,44430,14592
9,44873,13850
9,45318,14454
9,45762,15637
9,46207,14912
9,46650,13930
9,47095,12525
9,47538,12960
9,47983,13190
9,48427,12761
9,48872,12726
9,49315,12792
9,49760,12963
9,50205,11466
9,50648,11497
9,51093,12342
9,51537,12753
9,51982,12293
9,52425,12076
9,52870,10428
9,53313,11436
9,53758,11709
9,54202,11781
9,54647,12311
9,55090,12400
9,55535,12966
9,55978,11645
9,56423,12266
9,56867,12484
9,57312,12309
9,57755,12683
9,58200,12140
9,58643,12060
9,59088,11559
9,59532,10683
9,59977,11685
9,60420,10468
9,60865,10611
9,61308,10767
9,61753,10185
9,62198,11261
9,62642,10629
9,63087,11533
9,63530,11385
9,63975,10135
9,64418,11203
9,64863,10875
9,65307,10546
9,65752,10728
9,66195,10684
9,66640,10351
9,67083,10202
9,67528,10657
9,67972,11139
9,68417,10968
9,68860,9568
9,69305,9946
9,69748,11098
9,70193,9803
9,70637,11070
9,71082,11178
9,71525,10731
9,71970,11195
9,72413,11411
9,72858,10856
9,73302,10558
9,73747,10763
9,74190,10258
9,74635,13306
9,75080,14117
9,75523,17444
9,75968,24041
9,76412,36252
9,76857,58385
9,77300,86880
9,77745,126824
9,78188,172716
9,78633,230255
9,79077,284296
9,79522,336463
9,79965,386321
9,80410,429695
9,80853,451388
9,81298,462775
9,81742,465924
9,82187,452025
9,82630,432830
9,83075,408456
9,83518,380033
9,83963,347681
9,84407,312410
9,84852,287504
9,85295,252286
9,85740,227285
9,86183,194973
9,86628,169836
9,87073,145502
9,87517,125057
9,87962,108245
9,88405,96727
9,88850,80870
9,89293,68372
9,89738,56275
9,90182,48848
9,90627,42372
9,91070,38630
9,91515,35647
9,91958,29857
9,92403,30748
9,92847,27425
9,93292,25498
9,93735,23568
9,94180,21690
9,94623,22050
9,95068,20008
9,95512,17900
9,95957,18344
9,96400,16996
9,96845,16585
9,97288,14579
9,97733,15978
9,98177,14235
9,98622,14327
9,99067,13173
9,99510,11760
9,99955,12103
10,00398,13188
10,00843,11203
10,01287,11184
10,01732,11677
10,02175,12711
10,02620,11737
10,03063,12109
10,03508,12030
10,03952,12462
10,04397,12863
10,04840,13067
10,05285,12687
10,05728,12873
10,06173,13753
10,06617,13661
10,07062,12396
10,07505,12058
10,07950,13192
10,08393,11913
10,08838,13754
10,09282,12685
10,09727,12751
10,10170,13121
10,10615,12426
10,11060,14425
10,11503,17250
10,11948,21705
10,12392,33370
10,12837,51414
10,13280,79313
10,13725,114169
10,14168,165398
10,14613,218983
10,15057,282902
10,15502,348066
10,15945,418351
10,16390,467793
10,16833,496049
10,17278,525728
10,17722,533851
10,18167,524361
10,18610,508400
10,19055,482237
10,19498,450490
10,19943,414603
10,20387,375351
10,20832,338384
10,21275,294985
10,21720,260875
10,22163,221563
10,22608,187684
10,23053,159510
10,23497,136755
10,23942,113068
10,24385,94259
10,24830,79315
10,25273,68040
10,25718,59837
10,26162,49305
10,26607,41839
10,27050,37994
10,27495,34356
10,27938,30640
10,28383,26782
10,28827,24381
10,29272,23084
10,29715,22468
10,30160,19750
10,30603,19308
10,31048,18053
10,31492,17334
10,31937,15578
10,32380,15665
10,32825,14925
10,33268,14171
10,33713,14152
10,34157,14562
10,34602,13955
10,35047,12332
10,35490,12127
10,35935,11612
10,36378,12459
10,36823,12339
10,37267,10690
10,37712,11122
10,38155,12042
10,38600,10231
10,39043,8946
10,39488,9734
10,39932,9979
10,40377,10741
10,40820,9507
10,41265,9834
10,41708,9290
10,42153,9739
10,42597,9567
10,43042,9706
10,43485,10635
10,43930,11110
10,44373,9490
10,44818,10137
10,45262,8568
10,45707,9887
10,46150,9331
10,46595,10244
10,47038,9694
10,47483,9423
10,47928,8876
10,48372,9384
10,48817,9175
10,49260,10132
10,49705,9473
10,50148,9575
10,50593,9206
10,51037,8444
10,51482,8484
10,51925,9796
10,52370,8507
10,52813,8882
10,53258,8802
10,53702,9187
10,54147,9405
10,54590,8959
10,55035,8374
10,55478,8551
10,55923,8105
10,56367,7983
10,56812,8139
10,57255,8170
10,57700,8321
10,58143,8764
10,58588,8277
10,59032,8498
10,59477,8557
10,59922,8893
10,60365,8059
10,60810,9174
10,61253,8816
10,61698,9456
10,62142,7769
10,62587,9319
10,63030,7783
10,63475,8869
10,63918,7774
10,64363,7954
10,64807,9320
10,65252,8141
10,65695,9334
10,66140,8745
10,66583,8164
10,67028,9054
10,67472,8741
10,67917,8698
10,68360,8374
10,68805,8717
10,69248,10032
10,69693,8716
10,70137,9247
10,70582,8562
10,71025,8226
10,71470,8243
10,71915,7781
10,72358,9025
10,72803,8725
10,73247,8368
10,73692,8923
10,74135,8211
10,74580,10178
10,75023,10711
10,75468,13365
10,75912,17550
10,76357,27568
10,76800,43320
10,77245,68151
10,77688,100227
10,78133,143358
10,78577,195429
10,79022,253787
10,79465,322828
10,79910,383812
10,80353,446231
10,80798,483555
10,81242,514986
10,81687,537116
10,82130,532204
10,82575,523226
10,83018,488399
10,83463,453854
10,83908,418433
10,84352,377780
10,84797,328242
10,85240,286788
10,85685,246306
10,86128,213177
10,86573,180757
10,87017,147177
10,87462,129587
10,87905,104931
10,88350,88333
10,88793,74176
10,89238,62150
10,89682,51058
10,90127,46763
10,90570,41577
10,91015,36783
10,91458,31638
10,91903,28039
10,92347,25753
10,92792,25849
10,93235,21238
10,93680,20344
10,94123,19316
10,94568,17312
10,95012,16768
10,95457,16408
10,95902,14862
10,96345,13816
10,96790,12638
10,97233,13335
10,97678,13275
10,98122,12520
10,98567,11465
10,99010,11474
10,99455,10860
10,99898,12119
11,00343,10394
11,00787,10803
11,01232,10347
11,01675,10400
11,02120,9498
11,02563,9480
11,03008,9328
11,03452,10558
11,03897,9060
11,04340,9027
11,04785,10383
11,05228,9711
11,05673,9436
11,06117,9148
11,06562,9042
11,07005,8414
11,07450,8273
11,07895,9230
11,08338,8896
11,08783,9934
11,09227,8684
11,09672,9322
11,10115,8174
11,10560,7908
11,11003,9499
11,11448,8154
11,11892,8541
11,12337,9462
11,12780,11543
11,13225,15403
11,13668,24118
11,14113,40190
11,14557,66966
11,15002,111165
11,15445,167709
11,15890,247694
11,16333,348970
11,16778,470806
11,17222,610970
11,17667,750923
11,18110,897850
11,18555,1029697
11,18998,1128182
11,19443,1190165
11,19887,1229281
11,20332,1247357
11,20777,1223782
11,21220,1164342
11,21665,1063257
11,22108,960640
11,22553,835267
11,22997,718396
11,23442,610695
11,23885,507360
11,24330,416926
11,24773,339258
11,25218,281068
11,25662,230059
11,26107,187699
11,26550,157603
11,26995,132970
11,27438,111075
11,27883,94779
11,28327,81665
11,28772,71422
11,29215,62222
11,29660,58066
11,30103,51118
11,30548,47166
11,30992,41491
11,31437,40273
11,31880,36871
11,32325,33251
11,32770,30596
11,33213,27600
11,33658,27061
11,34102,25235
11,34547,24943
11,34990,22514
11,35435,22913
11,35878,19719
11,36323,19421
11,36767,17753
11,37212,18948
11,37655,18549
11,38100,17022
11,38543,16909
11,38988,15502
11,39432,17305
11,39877,16357
11,40320,14948
11,40765,14465
11,41208,14549
11,41653,14824
11,42097,12936
11,42542,12277
11,42985,12696
11,43430,12616
11,43873,12675
11,44318,12398
11,44763,10845
11,45207,12807
11,45652,11609
11,46095,11330
11,46540,10954
11,46983,11678
11,47428,12203
11,47872,12052
11,48317,10211
11,48760,10817
11,49205,10283
11,49648,10337
11,50093,10755
11,50537,11234
11,50982,13418
11,51425,17293
11,51870,25672
11,52313,33584
11,52758,55181
11,53202,80220
11,53647,121865
11,54090,169762
11,54535,235522
11,54978,306487
11,55423,380357
11,55867,453628
11,56312,513166
11,56757,565078
11,57200,590764
11,57645,600531
11,58088,583337
11,58533,556981
11,58977,524562
11,59422,470287
11,59865,421557
11,60310,368908
11,60753,316158
11,61198,272507
11,61642,230004
11,62087,192879
11,62530,157265
11,62975,131844
11,63418,106082
11,63863,90586
11,64307,76415
11,64752,65890
11,65195,56761
11,65640,49293
11,66083,42667
11,66528,38752
11,66972,32237
11,67417,29708
11,67860,26261
11,68305,26674
11,68750,23922
11,69193,22788
11,69638,22783
11,70082,23989
11,70527,26051
11,70970,34793
11,71415,46887
11,71858,72980
11,72303,108846
11,72747,165557
11,73192,240447
11,73635,339003
11,74080,454901
11,74523,586355
11,74968,727748
11,75412,869380
11,75857,992773
11,76300,1091841
11,76745,1159803
11,77188,1185589
11,77633,1176385
11,78077,1138952
11,78522,1066500
11,78965,959531
11,79410,851900
11,79853,729868
11,80298,619607
11,80742,519034
11,81187,423375
11,81632,349795
11,82075,296552
11,82520,239598
11,82963,197490
11,83408,167157
11,83852,139297
11,84297,118685
11,84740,102272
11,85185,86944
11,85628,77499
11,86073,68649
11,86517,59506
11,86962,54413
11,87405,49378
11,87850,44156
11,88293,39961
11,88738,38824
11,89182,36143
11,89627,34634
11,90070,31623
11,90515,29840
11,90958,29250
11,91403,27631
11,91847,27725
11,92292,24018
11,92735,22865
11,93180,23108
11,93625,21358
11,94068,19211
11,94513,20063
11,94957,18287
11,95402,18236
11,95845,19412
11,96290,17036
11,96733,14381
11,97178,16427
11,97622,15302
11,98067,14030
11,98510,14396
11,98955,14760
11,99398,13315
11,99843,12941
12,00287,13231
12,00732,11831
12,01175,12616
12,01620,12464
12,02063,11113
12,02508,12207
12,02952,11605
12,03397,11561
12,03840,11609
12,04285,11050
12,04728,9878
12,05173,10369
12,05618,10650
12,06062,10527
12,06507,9955
12,06950,9666
12,07395,9790
12,07838,10610
12,08283,9946
12,08727,8827
12,09172,9552
12,09615,8976
12,10060,8806
12,10503,9721
12,10948,9715
12,11392,9037
12,11837,8486
12,12280,9491
12,12725,8856
12,13168,9630
12,13613,12269
12,14057,14738
12,14502,22635
12,14945,31302
12,15390,50728
12,15833,76357
12,16278,114890
12,16722,165840
12,17167,229983
12,17612,295072
12,18055,366846
12,18500,430101
12,18943,495826
12,19388,537612
12,19832,562716
12,20277,568122
12,20720,550048
12,21165,517236
12,21608,470540
12,22053,423147
12,22497,368137
12,22942,319997
12,23385,268858
12,23830,220399
12,24273,185678
12,24718,154300
12,25162,127425
12,25607,107609
12,26050,90792
12,26495,76718
12,26938,65087
12,27383,54526
12,27827,48032
12,28272,43600
12,28715,38551
12,29160,33950
12,29605,30233
12,30048,27428
12,30493,25109
12,30937,25605
12,31382,21249
12,31825,20727
12,32270,20725
12,32713,18930
12,33158,16309
12,33602,16225
12,34047,16802
12,34490,16037
12,34935,14662
12,35378,14698
12,35823,14046
12,36267,13942
12,36712,13455
12,37155,12765
12,37600,13043
12,38043,12362
12,38488,12795
12,38932,11962
12,39377,10789
12,39820,10735
12,40265,11582
12,40708,11778
12,41153,10509
12,41598,11573
12,42042,11201
12,42487,11229
12,42930,11854
12,43375,11589
12,43818,10306
12,44263,11561
12,44707,11642
12,45152,9729
12,45595,10142
12,46040,9539
12,46483,8988
12,46928,8760
12,47372,9182
12,47817,9581
12,48260,9969
12,48705,9121
12,49148,9715
12,49593,9650
12,50037,8774
12,50482,8991
12,50925,9805
12,51370,10216
12,51813,8625
12,52258,8378
12,52702,9435
12,53147,9091
12,53592,9654
12,54035,9229
12,54480,9193
12,54923,9361
12,55368,9138
12,55812,7783
12,56257,8436
12,56700,8870
12,57145,8389
12,57588,8124
12,58033,8257
12,58477,10806
12,58922,12964
12,59365,18113
12,59810,27172
12,60253,42830
12,60698,65446
12,61142,98253
12,61587,140069
12,62030,197287
12,62475,250614
12,62918,331260
12,63363,392245
12,63807,453869
12,64252,503432
12,64695,527518
12,65140,542275
12,65583,538876
12,66028,520932
12,66473,476117
12,66917,436939
12,67362,380542
12,67805,327588
12,68250,279379
12,68693,231941
12,69138,187458
12,69582,155695
12,70027,128588
12,70470,107490
12,70915,89831
12,71358,76682
12,71803,64886
12,72247,51967
12,72692,46170
12,73135,42522
12,73580,38144
12,74023,32682
12,74468,31009
12,74912,28512
12,75357,25880
12,75800,23452
12,76245,21761
12,76688,20328
12,77133,19709
12,77577,19109
12,78022,18027
12,78467,18311
12,78910,15801
12,79355,16128
12,79798,14387
12,80243,15195
12,80687,14851
12,81132,13982
12,81575,14166
12,82020,13878
12,82463,12958
12,82908,13530
12,83352,12838
12,83797,12945
12,84240,12254
12,84685,11634
12,85128,10968
12,85573,10021
12,86017,11206
12,86462,11281
12,86905,10525
12,87350,9768
12,87793,9570
12,88238,9389
12,88682,9613
12,89127,9550
12,89570,9779
12,90015,9988
12,90460,9253
12,90903,9422
12,91348,9345
12,91792,9580
12,92237,9932
12,92680,8972
12,93125,9231
12,93568,9451
12,94013,9076
12,94457,8741
12,94902,8968
12,95345,8109
12,95790,9074
12,96233,9398
12,96678,8232
12,97122,8694
12,97567,8674
12,98010,8800
12,98455,8437
12,98898,8808
12,99343,7319
12,99787,8491
13,00232,7594
13,00675,8517
13,01120,9153
13,01563,7493
13,02008,8651
13,02453,8300
13,02897,8037
13,03342,7928
13,03785,8967
13,04230,8702
13,04673,8029
13,05118,8162
13,05562,8494
13,06007,7800
13,06450,7904
13,06895,7976
13,07338,7896
13,07783,7306
13,08227,8314
13,08672,7556
13,09115,7871
13,09560,8272
13,10003,7733
13,10448,7803
13,10892,7759
13,11337,8090
13,11780,7813
13,12225,8192
13,12668,8266
13,13113,7994
13,13557,8525
13,14002,8423
13,14447,7617
13,14890,6445
13,15335,7999
13,15778,8849
13,16223,7798
13,16667,8544
13,17112,7335
13,17555,7055
13,18000,7034
13,18443,7819
13,18888,7319
13,19332,7978
13,19777,7201
13,20220,7205
13,20665,7620
13,21108,7547
13,21553,8291
13,21997,8576
13,22442,10858
13,22885,16726
13,23330,23863
13,23773,35725
13,24218,60267
13,24662,93928
13,25107,142387
13,25550,210221
13,25995,295644
13,26440,403741
13,26883,531581
13,27328,673798
13,27772,832002
13,28217,991492
13,28660,1154388
13,29105,1307463
13,29548,1435337
13,29993,1586581
13,30437,1716249
13,30882,1807437
13,31325,1805632
13,31770,1755920
13,32213,1670396
13,32658,1518140
13,33102,1357567
13,33547,1162523
13,33990,961943
13,34435,784048
13,34878,631340
13,35323,512178
13,35767,414033
13,36212,338235
13,36655,277931
13,37100,233015
13,37543,193980
13,37988,166661
13,38432,144524
13,38877,123638
13,39322,112640
13,39765,96417
13,40210,88364
13,40653,78586
13,41098,74308
13,41542,64524
13,41987,60709
13,42430,53350
13,42875,49406
13,43318,46348
13,43763,46792
13,44207,42001
13,44652,38753
13,45095,35842
13,45540,35303
13,45983,32980
13,46428,31127
13,46872,30905
13,47317,28621
13,47760,29322
13,48205,28094
13,48648,27744
13,49093,26301
13,49537,28589
13,49982,29687
13,50425,26961
13,50870,28467
13,51315,27470
13,51758,27912
13,52203,26994
13,52647,26924
13,53092,24972
13,53535,23464
13,53980,23256
13,54423,21812
13,54868,20695
13,55312,19070
13,55757,18810
13,56200,18229
13,56645,18082
13,57088,16122
13,57533,16129
13,57977,14779
13,58422,15441
13,58865,15078
13,59310,14112
13,59753,13969
13,60198,12840
13,60642,12281
13,61087,13448
13,61530,13313
13,61975,12410
13,62418,14889
13,62863,17253
13,63308,21040
13,63752,26639
13,64197,38772
13,64640,58552
13,65085,88525
13,65528,124037
13,65973,175189
13,66417,229155
13,66862,292043
13,67305,351397
13,67750,402783
13,68193,455396
13,68638,492085
13,69082,500270
13,69527,493668
13,69970,464096
13,70415,432443
13,70858,391921
13,71303,341466
13,71747,287074
13,72192,242124
13,72635,202106
13,73080,167948
13,73523,138031
13,73968,116317
13,74412,95519
13,74857,80646
13,75302,67330
13,75745,59154
13,76190,53101
13,76633,43360
13,77078,41438
13,77522,36859
13,77967,31577
13,78410,29653
13,78855,28805
13,79298,27230
13,79743,23654
13,80187,22844
13,80632,20118
13,81075,21637
13,81520,22010
13,81963,23189
13,82408,25375
13,82852,30321
13,83297,39500
13,83740,57435
13,84185,87235
13,84628,124679
13,85073,177294
13,85517,240509
13,85962,322021
13,86405,404039
13,86850,491012
13,87295,571387
13,87738,628820
13,88183,678022
13,88627,694574
13,89072,678863
13,89515,629701
13,89960,572678
13,90403,505171
13,90848,432479
13,91292,371538
13,91737,306713
13,92180,249199
13,92625,206911
13,93068,173801
13,93513,142076
13,93957,118749
13,94402,103870
13,94845,87050
13,95290,75135
13,95733,68648
13,96178,57431
13,96622,50924
13,97067,47227
13,97510,41115
13,97955,38743
13,98398,35849
13,98843,33044
13,99288,31022
13,99732,30483
14,00177,26857
14,00620,27145
14,01065,24157
14,01508,22745
14,01953,22167
14,02397,20378
14,02842,19951
14,03285,19077
14,03730,17487
14,04173,16366
14,04618,19144
14,05062,16881
14,05507,17484
14,05950,16416
14,06395,15239
14,06838,16001
14,07283,15790
14,07727,14949
14,08172,13918
14,08615,14545
14,09060,13413
14,09503,12922
14,09948,13597
14,10392,11054
14,10837,12226
14,11280,12365
14,11725,11218
14,12170,12607
14,12613,11483
14,13058,12038
14,13502,10727
14,13947,11844
14,14390,11406
14,14835,10719
14,15278,12051
14,15723,11368
14,16167,9904
14,16612,10461
14,17055,11399
14,17500,11011
14,17943,10521
14,18388,10966
14,18832,10058
14,19277,9808
14,19720,10555
14,20165,9960
14,20608,9783
14,21053,9938
14,21497,9935
14,21942,10216
14,22385,11022
14,22830,9543
14,23273,8686
14,23718,9875
14,24163,9803
14,24607,9130
14,25052,9143
14,25495,9780
14,25940,8614
14,26383,9389
14,26828,8147
14,27272,9906
14,27717,8765
14,28160,9296
14,28605,9182
14,29048,8973
14,29493,8842
14,29937,9933
14,30382,10371
14,30825,13115
14,31270,17771
14,31713,24193
14,32158,37478
14,32602,54679
14,33047,85601
14,33490,131159
14,33935,185425
14,34378,253509
14,34823,344263
14,35267,435580
14,35712,536941
14,36157,631463
14,36600,707967
14,37045,767452
14,37488,783721
14,37933,774267
14,38377,727011
14,38822,649803
14,39265,576044
14,39710,477226
14,40153,402704
14,40598,322941
14,41042,260700
14,41487,217599
14,41930,181395
14,42375,147920
14,42818,123921
14,43263,107154
14,43707,93937
14,44152,79783
14,44595,68294
14,45040,62762
14,45483,55063
14,45928,50682
14,46372,45605
14,46817,43080
14,47260,39012
14,47705,36007
14,48150,32580
14,48593,31730
14,49038,29911
14,49482,27641
14,49927,27015
14,50370,24606
14,50815,24493
14,51258,21427
14,51703,21653
14,52147,21381
14,52592,20580
14,53035,21161
14,53480,20206
14,53923,18757
14,54368,19500
14,54812,18498
14,55257,18926
14,55700,16329
14,56145,17636
14,56588,16832
14,57033,16284
14,57477,14141
14,57922,15441
14,58365,15154
14,58810,14819
14,59253,14065
14,59698,14063
14,60143,13126
14,60587,12911
14,61032,12841
14,61475,12825
14,61920,13192
14,62363,11785
14,62808,11845
14,63252,11567
14,63697,11372
14,64140,12326
14,64585,11610
14,65028,12255
14,65473,10909
14,65917,12365
14,66362,12073
14,66805,10972
14,67250,11222
14,67693,10855
14,68138,11085
14,68582,11469
14,69027,10900
14,69470,9914
14,69915,9858
14,70358,10961
14,70803,11942
14,71247,11993
14,71692,14608
14,72137,18368
14,72580,27859
14,73025,39130
14,73468,58890
14,73913,88431
14,74357,128994
14,74802,185857
14,75245,249108
14,75690,326742
14,76133,409700
14,76578,486037
14,77022,544057
14,77467,584177
14,77910,602386
14,78355,600816
14,78798,568716
14,79243,525673
14,79687,471698
14,80132,406593
14,80575,345638
14,81020,283929
14,81463,238903
14,81908,194533
14,82352,161120
14,82797,137479
14,83240,114863
14,83685,94050
14,84128,80018
14,84573,70423
14,85018,62537
14,85462,54019
14,85907,48636
14,86350,44235
14,86795,39662
14,87238,36836
14,87683,34713
14,88127,30933
14,88572,28936
14,89015,26021
14,89460,25104
14,89903,23176
14,90348,22670
14,90792,21619
14,91237,21747
14,91680,19377
14,92125,19000
14,92568,19341
14,93013,18172
14,93457,17613
14,93902,17621
14,94345,16405
14,94790,16723
14,95233,15035
14,95678,14939
14,96122,15106
14,96567,15132
14,97012,15620
14,97455,14215
14,97900,14913
14,98343,14332
14,98788,14403
14,99232,12740
14,99677,14099
15,00120,13069
15,00565,13952
15,01008,12833
15,01453,13351
15,01897,11825
15,02342,12767
15,02785,12540
15,03230,11973
15,03673,11301
15,04118,12158
15,04562,11774
15,05007,11763
15,05450,10614
15,05895,10937
15,06338,10261
15,06783,11612
15,07227,11048
15,07672,10860
15,08115,11300
15,08560,10333
15,09005,9842
15,09448,10172
15,09893,10968
15,10337,10159
15,10782,8747
15,11225,10661
15,11670,11464
15,12113,9720
15,12558,10632
15,13002,9944
15,13447,10431
15,13890,10654
15,14335,10815
15,14778,10038
15,15223,10384
15,15667,9930
15,16112,9386
15,16555,10784
15,17000,10601
15,17443,9100
15,17888,10608
15,18332,10261
15,18777,10734
15,19220,9670
15,19665,9583
15,20108,10410
15,20553,10094
15,20998,10251
15,21442,10830
15,21887,9952
15,22330,10903
15,22775,10532
15,23218,10658
15,23663,10046
15,24107,9812
15,24552,9833
15,24995,9745
15,25440,8583
15,25883,8477
15,26328,8882
15,26772,10253
15,27217,9773
15,27660,10124
15,28105,10333
15,28548,9702
15,28993,9329
15,29437,8200
15,29882,10815
15,30325,8735
15,30770,9024
15,31213,8674
15,31658,9615
15,32102,9687
15,32547,9282
15,32992,8876
15,33435,10292
15,33880,10634
15,34323,11509
15,34768,12798
15,35212,15219
15,35657,20265
15,36100,30927
15,36545,50167
15,36988,77270
15,37433,124283
15,37877,187435
15,38322,271853
15,38765,384918
15,39210,518891
15,39653,674698
15,40098,834245
15,40542,1020013
15,40987,1183666
15,41430,1339623
15,41875,1489338
15,42318,1620149
15,42763,1748124
15,43207,1847451
15,43652,1896137
15,44095,1892477
15,44540,1828710
15,44985,1704900
15,45428,1513566
15,45873,1300257
15,46317,1087524
15,46762,885468
15,47205,718408
15,47650,582370
15,48093,474680
15,48538,395763
15,48982,326134
15,49427,275692
15,49870,234051
15,50315,204406
15,50758,180869
15,51203,158497
15,51647,138054
15,52092,126546
15,52535,112298
15,52980,104402
15,53423,96448
15,53868,89753
15,54312,81399
15,54757,76254
15,55200,70361
15,55645,65487
15,56088,64645
15,56533,57156
15,56977,55199
15,57422,52533
15,57867,50529
15,58310,47050
15,58755,43333
15,59198,43127
15,59643,40059
15,60087,37832
15,60532,39568
15,60975,37480
15,61420,35219
15,61863,34892
15,62308,32856
15,62752,31714
15,63197,29211
15,63640,30434
15,64085,28512
15,64528,28416
15,64973,26127
15,65417,27466
15,65862,25013
15,66305,24526
15,66750,25640
15,67193,23341
15,67638,24025
15,68082,23205
15,68527,21490
15,68970,22255
15,69415,22455
15,69860,19696
15,70303,21066
15,70748,19399
15,71192,20338
15,71637,17769
15,72080,18926
15,72525,17569
15,72968,18197
15,73413,20514
15,73857,18890
15,74302,19052
15,74745,21396
15,75190,25724
15,75633,30628
15,76078,40625
15,76522,57631
15,76967,80418
15,77410,117575
15,77855,163403
15,78298,221314
15,78743,289116
15,79187,364386
15,79632,428012
15,80075,492690
15,80520,534492
15,80963,570525
15,81408,578946
15,81853,557691
15,82297,517719
15,82742,476148
15,83185,418198
15,83630,380861
15,84073,339627
15,84518,321478
15,84962,322530
15,85407,341555
15,85850,365618
15,86295,403382
15,86738,448950
15,87183,491610
15,87627,524528
15,88072,544353
15,88515,553460
15,88960,544450
15,89403,508352
15,89848,469298
15,90292,423347
15,90737,369999
15,91180,312147
15,91625,265564
15,92068,222684
15,92513,186728
15,92957,163574
15,93402,143612
15,93847,128739
15,94290,126752
15,94735,134970
15,95178,150710
15,95623,186126
15,96067,230254
15,96512,286229
15,96955,369294
15,97400,447066
15,97843,537313
15,98288,616918
15,98732,691357
15,99177,737744
15,99620,744666
16,00065,732219
16,00508,686337
16,00953,623771
16,01397,552952
16,01842,465872
16,02285,402413
16,02730,336646
16,03173,281990
16,03618,234567
16,04062,199358
16,04507,169855
16,04950,144989
16,05395,123618
16,05840,107947
16,06283,99426
16,06728,87779
16,07172,79411
16,07617,71546
16,08060,64876
16,08505,60026
16,08948,57004
16,09393,52697
16,09837,50005
16,10282,48655
16,10725,44731
16,11170,43560
16,11613,39764
16,12058,36110
16,12502,34566
16,12947,31735
16,13390,32017
16,13835,30638
16,14278,30589
16,14723,28429
16,15167,27618
16,15612,26443
16,16055,25834
16,16500,25239
16,16943,24351
16,17388,22949
16,17833,22962
16,18277,22964
16,18722,21681
16,19165,21286
16,19610,20915
16,20053,21928
16,20498,20782
16,20942,19638
16,21387,18924
16,21830,18269
16,22275,19048
16,22718,18968
16,23163,18441
16,23607,17353
16,24052,17796
16,24495,18539
16,24940,20145
16,25383,18090
16,25828,17745
16,26272,17891
16,26717,18415
16,27160,17259
16,27605,17523
16,28048,16192
16,28493,16993
16,28937,16349
16,29382,15241
16,29825,14608
16,30270,16392
16,30715,15630
16,31158,15643
16,31603,15126
16,32047,14005
16,32492,15518
16,32935,12915
16,33380,13995
16,33823,13867
16,34268,14540
16,34712,14062
16,35157,12862
16,35600,14872
16,36045,12990
16,36488,13653
16,36933,13751
16,37377,13597
16,37822,13409
16,38265,13848
16,38710,13944
16,39153,14793
16,39598,13716
16,40042,17045
16,40487,20782
16,40930,28530
16,41375,37342
16,41818,52553
16,42263,81414
16,42708,116414
16,43152,168033
16,43597,236339
16,44040,315239
16,44485,410727
16,44928,512451
16,45373,606592
16,45817,694848
16,46262,771428
16,46705,811547
16,47150,804573
16,47593,767710
16,48038,696288
16,48482,610610
16,48927,518308
16,49370,446842
16,49815,366005
16,50258,302211
16,50703,248095
16,51147,208911
16,51592,176241
16,52035,151875
16,52480,133315
16,52923,115205
16,53368,101641
16,53812,93007
16,54257,84299
16,54702,76998
16,55145,69093
16,55590,63980
16,56033,59264
16,56478,54840
16,56922,50936
16,57367,46558
16,57810,47353
16,58255,44222
16,58698,40798
16,59143,40333
16,59587,37713
16,60032,36548
16,60475,35460
16,60920,35535
16,61363,33130
16,61808,32544
16,62252,31340
16,62697,31663
16,63140,30621
16,63585,30324
16,64028,28176
16,64473,28432
16,64917,28280
16,65362,26133
16,65805,24797
16,66250,25165
16,66695,26210
16,67138,26549
16,67583,25345
16,68027,24587
16,68472,25337
16,68915,24630
16,69360,23815
16,69803,22457
16,70248,20884
16,70692,21107
16,71137,20907
16,71580,19291
16,72025,19384
16,72468,18419
16,72913,19263
16,73357,18746
16,73802,19492
16,74245,18441
16,74690,17170
16,75133,16439
16,75578,16883
16,76022,16103
16,76467,15191
16,76910,15515
16,77355,15961
16,77798,16205
16,78243,14881
16,78688,16517
16,79132,15536
16,79577,16279
16,80020,15542
16,80465,21874
16,80908,24023
16,81353,34561
16,81797,44258
16,82242,64898
16,82685,94365
16,83130,140311
16,83573,197807
16,84018,269753
16,84462,350854
16,84907,441902
16,85350,518857
16,85795,585643
16,86238,632185
16,86683,657828
16,87127,642989
16,87572,608573
16,88015,552103
16,88460,484316
16,88903,415867
16,89348,360457
16,89792,317359
16,90237,277069
16,90682,258623
16,91125,263286
16,91570,269455
16,92013,301440
16,92458,340868
16,92902,388861
16,93347,436675
16,93790,468851
16,94235,496007
16,94678,519039
16,95123,512632
16,95567,490167
16,96012,456242
16,96455,415643
16,96900,363203
16,97343,320063
16,97788,274284
16,98232,231377
16,98677,195018
16,99120,165169
16,99565,143168
17,00008,120976
17,00453,105040
17,00897,91481
17,01342,79000
17,01785,71138
17,02230,63189
17,02673,59289
17,03118,53822
17,03563,51223
17,04007,47315
17,04452,43292
17,04895,39833
17,05340,38855
17,05783,36853
17,06228,35311
17,06672,31230
17,07117,31045
17,07560,30160
17,08005,27824
17,08448,28130
17,08893,26354
17,09337,26736
17,09782,27590
17,10225,25367
17,10670,25987
17,11113,23178
17,11558,24578
17,12002,21047
17,12447,21502
17,12890,21614
17,13335,21280
17,13778,21192
17,14223,19944
17,14667,19623
17,15112,20113
17,15557,18708
17,16000,19314
17,16445,18563
17,16888,19379
17,17333,18620
17,17777,18334
17,18222,17123
17,18665,18550
17,19110,16681
17,19553,17988
17,19998,17565
17,20442,16422
17,20887,16367
17,21330,15710
17,21775,16331
17,22218,15741
17,22663,17315
17,23107,16253
17,23552,16567
17,23995,16211
17,24440,15830
17,24883,16114
17,25328,16972
17,25772,16342
17,26217,15418
17,26660,15007
17,27105,16580
17,27550,14684
17,27993,14056
17,28438,15387
17,28882,14448
17,29327,15600
17,29770,14306
17,30215,15998
17,30658,13903
17,31103,15189
17,31547,15314
17,31992,15815
17,32435,14719
17,32880,16035
17,33323,14288
17,33768,13032
17,34212,14331
17,34657,13695
17,35100,14664
17,35545,14342
17,35988,14386
17,36433,15865
17,36877,14296
17,37322,13035
17,37765,14516
17,38210,14149
17,38653,14382
17,39098,13982
17,39543,14737
17,39987,13295
17,40432,12323
17,40875,14159
17,41320,14119
17,41763,17022
17,42208,19024
17,42652,22196
17,43097,29772
17,43540,39338
17,43985,56096
17,44428,80372
17,44873,118325
17,45317,162245
17,45762,222264
17,46205,296116
17,46650,394484
17,47093,501774
17,47538,625116
17,47982,756405
17,48427,905228
17,48870,1056245
17,49315,1213532
17,49758,1336820
17,50203,1433005
17,50647,1501888
17,51092,1508419
17,51537,1446061
17,51980,1319942
17,52425,1142931
17,52868,966548
17,53313,796063
17,53757,644733
17,54202,535288
17,54645,439435
17,55090,370043
17,55533,312853
17,55978,269429
17,56422,226794
17,56867,199168
17,57310,180795
17,57755,160216
17,58198,149249
17,58643,132700
17,59087,123418
17,59532,112778
17,59975,100863
17,60420,95352
17,60863,90027
17,61308,85296
17,61752,79802
17,62197,74107
17,62640,70043
17,63085,67065
17,63530,62644
17,63973,60590
17,64418,57021
17,64862,55777
17,65307,52421
17,65750,50940
17,66195,48728
17,66638,47468
17,67083,46022
17,67527,44793
17,67972,42816
17,68415,40653
17,68860,37966
17,69303,38641
17,69748,37030
17,70192,38188
17,70637,36980
17,71080,36693
17,71525,33616
17,71968,30657
17,72413,33206
17,72857,34241
17,73302,32481
17,73745,30983
17,74190,28024
17,74633,28060
17,75078,28552
17,75522,28652
17,75967,27595
17,76412,27410
17,76855,26430
17,77300,25702
17,77743,25679
17,78188,27208
17,78632,26150
17,79077,26739
17,79520,25039
17,79965,24584
17,80408,25600
17,80853,23895
17,81297,26207
17,81742,25396
17,82185,25468
17,82630,25410
17,83073,22948
17,83518,24604
17,83962,23219
17,84407,23844
17,84850,22324
17,85295,23307
17,85738,21191
17,86183,21738
17,86627,22304
17,87072,20925
17,87515,21031
17,87960,21110
17,88405,20652
17,88848,21354
17,89293,23083
17,89737,20749
17,90182,19865
17,90625,20378
17,91070,18623
17,91513,20701
17,91958,20509
17,92402,19440
17,92847,19096
17,93290,19151
17,93735,17407
17,94178,18119
17,94623,17885
17,95067,19124
17,95512,20699
17,95955,18843
17,96400,21940
17,96843,23951
17,97288,28816
17,97732,34637
17,98177,47506
17,98620,64246
17,99065,93882
17,99508,130332
17,99953,185127
18,00398,245990
18,00842,319200
18,01287,401574
18,01730,486948
18,02175,572035
18,02618,644682
18,03063,703889
18,03507,726976
18,03952,717299
18,04395,679282
18,04840,629005
18,05283,554009
18,05728,479608
18,06172,418477
18,06617,352942
18,07060,296427
18,07505,253729
18,07948,212060
18,08393,185545
18,08837,160086
18,09282,140552
18,09725,124569
18,10170,110398
18,10613,102702
18,11058,90448
18,11502,84859
18,11947,77894
18,12392,74070
18,12835,67555
18,13280,63354
18,13723,58057
18,14168,55804
18,14612,51945
18,15057,49595
18,15500,48559
18,15945,46922
18,16388,44221
18,16833,41897
18,17277,41362
18,17722,38453
18,18165,37667
18,18610,34856
18,19053,34914
18,19498,34492
18,19942,34170
18,20387,30127
18,20830,32059
18,21275,29091
18,21718,30455
18,22163,29169
18,22607,25353
18,23052,27680
18,23495,27720
18,23940,27154
18,24385,24902
18,24828,26903
18,25273,24383
18,25717,24984
18,26162,22927
18,26605,23161
18,27050,23421
18,27493,24330
18,27938,22739
18,28382,22149
18,28827,22347
18,29270,23195
18,29715,22456
18,30158,21124
18,30603,20870
18,31047,21219
18,31492,18964
18,31935,18678
18,32380,19919
18,32823,21082
18,33268,20809
18,33712,20185
18,34157,20898
18,34600,21585
18,35045,20654
18,35488,20756
18,35933,21684
18,36377,21547
18,36822,21317
18,37267,20445
18,37710,21814
18,38155,21532
18,38598,20142
18,39043,22731
18,39487,20461
18,39932,21632
18,40375,20008
18,40820,20949
18,41263,20400
18,41708,21161
18,42152,19778
18,42597,18576
18,43040,21430
18,43485,19437
18,43928,19096
18,44373,19398
18,44817,17000
18,45262,19450
18,45705,19782
18,46150,17282
18,46593,20171
18,47038,17376
18,47482,18601
18,47927,18013
18,48370,17862
18,48815,18041
18,49260,17351
18,49703,17450
18,50148,17935
18,50592,16614
18,51037,18064
18,51480,15625
18,51925,17538
18,52368,19143
18,52813,17268
18,53257,17231
18,53702,18978
18,54145,18129
18,54590,18407
18,55033,17161
18,55478,16058
18,55922,16772
18,56367,17489
18,56810,17465
18,57255,17443
18,57698,16135
18,58143,17394
18,58587,17212
18,59032,15233
18,59475,16289
18,59920,17010
18,60363,17566
18,60808,16233
18,61253,15411
18,61697,16346
18,62142,17368
18,62585,17329
18,63030,16731
18,63473,16254
18,63918,16294
18,64362,16474
18,64807,17018
18,65250,16228
18,65695,17979
18,66138,16131
18,66583,18535
18,67027,18148
18,67472,15866
18,67915,17561
18,68360,16457
18,68803,16914
18,69248,17005
18,69692,17597
18,70137,16288
18,70580,15935
18,71025,16262
18,71468,15769
18,71913,14808
18,72357,16670
18,72802,17754
18,73247,15653
18,73690,18171
18,74135,15703
18,74578,15784
18,75023,15193
18,75467,17741
18,75912,15227
18,76355,15678
18,76800,14330
18,77243,16451
18,77688,15289
18,78132,15889
18,78577,15323
18,79020,15314
18,79465,15555
18,79908,16225
18,80353,15793
18,80797,16593
18,81242,15567
18,81685,15687
18,82130,16862
18,82573,15649
18,83018,15614
18,83462,15522
18,83907,16406
18,84350,14523
18,84795,15118
18,85240,16924
18,85683,16474
18,86128,15641
18,86572,16206
18,87017,15515
18,87460,14453
18,87905,16069
18,88348,15444
18,88793,16063
18,89237,16434
18,89682,15939
18,90125,16061
18,90570,16738
18,91013,15330
18,91458,16694
18,91902,16665
18,92347,16440
18,92790,15824
18,93235,16773
18,93678,18119
18,94123,18467
18,94567,18219
18,95012,19069
18,95455,20933
18,95900,19113
18,96343,20031
18,96788,19627
18,97233,18720
18,97677,19789
18,98122,17932
18,98565,16853
18,99010,18853
18,99453,17899
18,99898,17868
19,00342,17071
19,00787,16445
19,01230,17446
19,01675,16944
19,02118,16197
19,02563,17050
19,03007,17902
19,03452,16158
19,03895,17107
19,04340,17138
19,04783,16131
19,05228,17642
19,05672,16705
19,06117,16084
19,06560,17152
19,07005,17257
19,07448,17205
19,07893,16836
19,08337,16645
19,08782,16493
19,09225,17235
19,09670,16792
19,10115,17110
19,10558,16455
19,11003,17658
19,11447,16528
19,11892,15815
19,12335,16380
19,12780,16081
19,13223,16542
19,13668,14907
19,14112,16249
19,14557,16508
19,15000,15269
19,15445,16047
19,15888,16561
19,16333,16773
19,16777,16512
19,17222,15238
19,17665,16177
19,18110,17047
19,18553,16879
19,18998,17034
19,19442,16994
19,19887,15527
19,20330,17431
19,20775,16734
19,21218,16930
19,21663,17341
19,22108,15696
19,22552,16608
19,22997,17998
19,23440,17892
19,23885,15983
19,24328,15905
19,24773,16505
19,25217,15515
19,25662,17549
19,26105,17999
19,26550,17695
19,26993,16108
19,27438,15694
19,27882,17563
19,28327,17655
19,28770,16950
19,29215,16525
19,29658,16914
19,30103,15553
19,30547,15828
19,30992,16317
19,31435,17828
19,31880,16264
19,32323,17359
19,32768,16585
19,33212,17961
19,33657,17833
19,34102,18332
19,34545,17449
19,34990,16154
19,35433,17455
19,35878,17916
19,36322,18007
19,36767,18910
19,37210,18465
19,37655,17888
19,38098,16317
19,38543,16339
19,38987,17256
19,39432,17792
19,39875,17410
19,40320,18868
19,40763,19688
19,41208,20340
19,41652,21427
19,42097,22793
19,42540,29478
19,42985,37222
19,43428,51108
19,43873,67584
19,44317,98650
19,44762,134883
19,45205,182861
19,45650,235834
19,46095,295475
19,46538,349765
19,46983,395184
19,47427,428694
19,47872,442831
19,48315,440579
19,48760,425202
19,49203,397484
19,49648,363220
19,50092,313390
19,50537,272192
19,50980,233595
19,51425,202011
19,51868,167959
19,52313,143022
19,52757,123953
19,53202,109046
19,53645,98229
19,54090,82868
19,54533,71892
19,54978,67675
19,55422,61333
19,55867,53641
19,56310,51572
19,56755,48775
19,57198,46166
19,57643,42891
19,58088,38372
19,58532,39774
19,58977,36507
19,59420,36068
19,59865,34502
19,60308,31603
19,60753,31734
19,61197,32120
19,61642,29838
19,62085,28782
19,62530,28877
19,62973,27193
19,63418,27295
19,63862,27486
19,64307,27907
19,64750,25360
19,65195,27884
19,65638,25082
19,66083,25395
19,66527,24293
19,66972,25093
19,67415,22274
19,67860,24784
19,68303,23440
19,68748,23343
19,69192,23673
19,69637,22992
19,70082,24166
19,70525,23753
19,70970,22916
19,71413,22313
19,71858,22236
19,72302,22452
19,72747,21879
19,73190,22115
19,73635,21856
19,74078,22608
19,74523,21977
19,74967,20724
19,75412,21905
19,75855,20052
19,76300,21372
19,76743,20358
19,77188,21410
19,77632,22454
19,78077,20793
19,78520,20382
19,78965,19445
19,79408,22210
19,79853,21112
19,80297,21275
19,80742,20115
19,81185,20065
19,81630,22033
19,82073,20409
19,82518,21575
19,82963,21159
19,83407,21173
19,83852,21509
19,84295,23220
19,84740,21243
19,85183,21219
19,85628,21636
19,86072,21390
19,86517,21228
19,86960,21934
19,87405,20722
19,87848,21215
19,88293,22174
19,88737,20282
19,89182,20827
19,89625,20120
19,90070,21029
19,90513,20794
19,90958,20421
19,91402,18854
19,91847,20389
19,92290,20067
19,92735,20203
19,93178,20944
19,93623,20475
19,94067,21200
19,94512,19918
19,94957,20284
19,95400,20428
19,95845,19578
19,96288,20876
19,96733,20913
19,97177,21341
19,97622,20252
19,98065,19741
19,98510,20927
19,98953,20876
19,99398,19796
19,99842,19039
20,00287,20240
20,00730,20952
20,01175,21327
20,01618,21395
20,02063,21893
20,02507,22121
20,02952,21947
20,03395,22564
20,03840,21563
20,04283,22408
20,04728,21663
20,05172,23433
20,05617,21271
20,06060,21406
20,06505,20406
20,06950,22415
20,07393,19969
