D:\MassHunter\GCMS\1\data\Amal\Constant flow\120C\120C_1ml-min_10C-min_3.D Mon Sep 16 18:12:46 2024
Start of data points
5,19068,221717
5,19480,216618
5,19892,214969
5,20305,201226
5,20717,204947
5,21128,197626
5,21542,191380
5,21953,188778
5,22365,183284
5,22778,182858
5,23190,177204
5,23602,182634
5,24015,197255
5,24427,228435
5,24838,291749
5,25252,406408
5,25663,553597
5,26075,728309
5,26488,892885
5,26900,1007866
5,27312,1081452
5,27725,1096283
5,28137,1090019
5,28548,1055657
5,28960,1009167
5,29373,975647
5,29785,934097
5,30197,887108
5,30610,851689
5,31022,810217
5,31433,775542
5,31847,745672
5,32258,702267
5,32670,678491
5,33083,646170
5,33495,615143
5,33907,590014
5,34320,562520
5,34732,543381
5,35143,514288
5,35557,490074
5,35968,474348
5,36380,450369
5,36793,427118
5,37205,411660
5,37617,392275
5,38028,371139
5,38442,358747
5,38853,341756
5,39265,325471
5,39678,310434
5,40090,300745
5,40502,288287
5,40915,265842
5,41327,253425
5,41738,245154
5,42152,228613
5,42563,214692
5,42975,200076
5,43388,190175
5,43800,180172
5,44212,176250
5,44625,165037
5,45037,155441
5,45448,148543
5,45862,142395
5,46273,136132
5,46685,128187
5,47097,124447
5,47510,122662
5,47922,116588
5,48333,113474
5,48747,107787
5,49158,104676
5,49570,103710
5,49983,104115
5,50395,99924
5,50807,96579
5,51220,92868
5,51632,90527
5,52043,87946
5,52457,90990
5,52868,86507
5,53280,88096
5,53693,84781
5,54105,83900
5,54517,83243
5,54930,81024
5,55342,80361
5,55753,77122
5,56165,76997
5,56578,79139
5,56990,77521
5,57402,75617
5,57815,79934
5,58227,76831
5,58638,74674
5,59052,73458
5,59463,74436
5,59875,72337
5,60288,72259
5,60700,73363
5,61112,72405
5,61525,72390
5,61937,72521
5,62348,72986
5,62762,71994
5,63173,72931
5,63585,73804
5,63998,74588
5,64410,73608
5,64822,72230
5,65233,72832
5,65647,70749
5,66058,71072
5,66470,68961
5,66883,72733
5,67295,71901
5,67707,68814
5,68120,69261
5,68532,67131
5,68943,68153
5,69357,67447
5,69768,68955
5,70180,66132
5,70593,67037
5,71005,66843
5,71417,66574
5,71830,66068
5,72242,65818
5,72653,66987
5,73067,64060
5,73478,62652
5,73890,63115
5,74303,61791
5,74715,63374
5,75127,62315
5,75538,60939
5,75952,62360
5,76363,62085
5,76775,60177
5,77188,61433
5,77600,61482
5,78012,60774
5,78425,63355
5,78837,60313
5,79248,59295
5,79662,57932
5,80073,59429
5,80485,58072
5,80898,60703
5,81310,60418
5,81722,57244
5,82135,58149
5,82547,59667
5,82958,56350
5,83372,60986
5,83783,56669
5,84195,59344
5,84607,60069
5,85020,59554
5,85432,60779
5,85843,61762
5,86257,61856
5,86668,61061
5,87080,60140
5,87493,61501
5,87905,59726
5,88317,57489
5,88730,57815
5,89142,58786
5,89553,56549
5,89967,56378
5,90378,56264
5,90790,56201
5,91203,54706
5,91615,55181
5,92027,54426
5,92440,54264
5,92852,54522
5,93263,55590
5,93675,53277
5,94088,52087
5,94500,53324
5,94912,53230
5,95325,52784
5,95737,51960
5,96148,54694
5,96562,51673
5,96973,49549
5,97385,52405
5,97798,52023
5,98210,51507
5,98622,52191
5,99035,50915
5,99447,52637
5,99858,51084
6,00272,51780
6,00683,52018
6,01095,50414
6,01508,48195
6,01920,50851
6,02332,50389
6,02743,50662
6,03157,48761
6,03568,49238
6,03980,50290
6,04393,47097
6,04805,49543
6,05217,49889
6,05630,50855
6,06042,51028
6,06453,53206
6,06867,66596
6,07278,98516
6,07690,159714
6,08103,272107
6,08515,442942
6,08927,652844
6,09340,904682
6,09752,1124826
6,10163,1312899
6,10577,1421607
6,10988,1462446
6,11400,1462809
6,11812,1427632
6,12225,1370931
6,12637,1303900
6,13048,1226596
6,13462,1147715
6,13873,1081118
6,14285,1012219
6,14698,969632
6,15110,889036
6,15522,824779
6,15935,768174
6,16347,725821
6,16758,672852
6,17172,624438
6,17583,578024
6,17995,535708
6,18408,494355
6,18820,459851
6,19232,423696
6,19645,383303
6,20057,348492
6,20468,317013
6,20880,287519
6,21293,256661
6,21705,236797
6,22117,210668
6,22530,190805
6,22942,170758
6,23353,151838
6,23767,142138
6,24178,126832
6,24590,113519
6,25003,105420
6,25415,96941
6,25827,92064
6,26240,85722
6,26652,78522
6,27063,75515
6,27477,73112
6,27888,65446
6,28300,64965
6,28713,62120
6,29125,59695
6,29537,57864
6,29948,58024
6,30362,52803
6,30773,50396
6,31185,53054
6,31598,51548
6,32010,49252
6,32422,48961
6,32835,46927
6,33247,49086
6,33658,46781
6,34072,45204
6,34483,46118
6,34895,47010
6,35308,46342
6,35720,44060
6,36132,43335
6,36545,44713
6,36957,43445
6,37368,41919
6,37782,41729
6,38193,40354
6,38605,41555
6,39017,41768
6,39430,40447
6,39842,39550
6,40253,40824
6,40667,39099
6,41078,39666
6,41490,40854
6,41903,39640
6,42315,38995
6,42727,40187
6,43140,37885
6,43552,38541
6,43963,39409
6,44377,39095
6,44788,38717
6,45200,37434
6,45613,38228
6,46025,38423
6,46437,38192
6,46850,36140
6,47262,37577
6,47673,36389
6,48085,37664
6,48498,36933
6,48910,36595
6,49322,37577
6,49735,36320
6,50147,36695
6,50558,35761
6,50972,35184
6,51383,37779
6,51795,35546
6,52208,34555
6,52620,35064
6,53032,35352
6,53445,34016
6,53857,34994
6,54268,35115
6,54682,36526
6,55093,34050
6,55505,34298
6,55918,33216
6,56330,33530
6,56742,32925
6,57153,34945
6,57567,32443
6,57978,33347
6,58390,34935
6,58803,34138
6,59215,38034
6,59627,40803
6,60040,52479
6,60452,75770
6,60863,124084
6,61277,192163
6,61688,300733
6,62100,434407
6,62513,571853
6,62925,690897
6,63337,800370
6,63750,853552
6,64162,875193
6,64573,869640
6,64987,839866
6,65398,796669
6,65810,749185
6,66222,698516
6,66635,655571
6,67047,592519
6,67458,549046
6,67872,504896
6,68283,466035
6,68695,424964
6,69108,387865
6,69520,356360
6,69932,324681
6,70345,288198
6,70757,260562
6,71168,233517
6,71582,210992
6,71993,179757
6,72405,163034
6,72818,141177
6,73230,127411
6,73642,113797
6,74055,101507
6,74467,92101
6,74878,80957
6,75290,73360
6,75703,69827
6,76115,65473
6,76527,59276
6,76940,58468
6,77352,53507
6,77763,49671
6,78177,48235
6,78588,45283
6,79000,45398
6,79413,41909
6,79825,40474
6,80237,39428
6,80650,38439
6,81062,38327
6,81473,38194
6,81887,35873
6,82298,36356
6,82710,38450
6,83123,38011
6,83535,37589
6,83947,37367
6,84358,38989
6,84772,37247
6,85183,38043
6,85595,36699
6,86008,33986
6,86420,36692
6,86832,36468
6,87245,35124
6,87657,34390
6,88068,34184
6,88482,32298
6,88893,35424
6,89305,32504
6,89718,34131
6,90130,35292
6,90542,34036
6,90955,33002
6,91367,33239
6,91778,33688
6,92192,33719
6,92603,32883
6,93015,33532
6,93427,33878
6,93840,33611
6,94252,31830
6,94663,32233
6,95077,31463
6,95488,32195
6,95900,31828
6,96313,29343
6,96725,30802
6,97137,29326
6,97550,28730
6,97962,28693
6,98373,29260
6,98787,27836
6,99198,25997
6,99610,26007
7,00023,27781
7,00435,26165
7,00847,28063
7,01260,26639
7,01672,26670
7,02083,26091
7,02495,26529
7,02908,26375
7,03320,25790
7,03732,26166
7,04145,26591
7,04557,25106
7,04968,24710
7,05382,24366
7,05793,23940
7,06205,23942
7,06618,25884
7,07030,25108
7,07442,25039
7,07855,25051
7,08267,25403
7,08678,25894
7,09092,23341
7,09503,24310
7,09915,25797
7,10328,24802
7,10740,25237
7,11152,25124
7,11563,24879
7,11977,25480
7,12388,25952
7,12800,26883
7,13213,24045
7,13625,25235
7,14037,24276
7,14450,25320
7,14862,24580
7,15273,25902
7,15687,26353
7,16098,25851
7,16510,24070
7,16923,23680
7,17335,25782
7,17747,24026
7,18160,30237
7,18572,41461
7,18983,68066
7,19397,123271
7,19808,228005
7,20220,400134
7,20632,657648
7,21045,980820
7,21457,1324640
7,21868,1643452
7,22282,1873226
7,22693,2039598
7,23105,2078629
7,23518,2075397
7,23930,1986537
7,24342,1854973
7,24755,1715570
7,25167,1557513
7,25578,1399939
7,25992,1248652
7,26403,1127493
7,26815,993266
7,27228,878169
7,27640,760739
7,28052,670144
7,28465,563306
7,28877,483933
7,29288,413758
7,29700,344352
7,30113,300519
7,30525,246870
7,30937,210274
7,31350,178749
7,31762,156298
7,32173,134126
7,32587,118397
7,32998,104024
7,33410,92741
7,33823,87489
7,34235,76509
7,34647,69378
7,35060,65102
7,35472,58625
7,35883,55031
7,36297,52532
7,36708,48308
7,37120,47755
7,37533,44295
7,37945,44455
7,38357,43066
7,38770,40543
7,39182,39265
7,39593,38260
7,40005,36099
7,40418,35037
7,40830,35738
7,41242,35210
7,41655,34790
7,42067,32848
7,42478,30982
7,42892,30193
7,43303,30225
7,43715,29855
7,44128,28798
7,44540,28747
7,44952,30035
7,45365,28236
7,45777,28004
7,46188,27545
7,46602,27763
7,47013,27309
7,47425,26513
7,47838,25821
7,48250,26625
7,48662,26595
7,49073,25661
7,49487,25140
7,49898,26311
7,50310,25351
7,50723,23546
7,51135,24038
7,51547,23890
7,51960,25729
7,52372,25735
7,52783,24617
7,53197,23937
7,53608,23406
7,54020,24438
7,54433,23875
7,54845,24292
7,55257,22558
7,55670,23889
7,56082,24125
7,56493,22999
7,56907,21973
7,57318,22024
7,57730,21959
7,58142,21858
7,58555,22547
7,58967,22851
7,59378,22307
7,59792,21703
7,60203,24255
7,60615,21687
7,61028,22758
7,61440,22257
7,61852,20559
7,62265,21482
7,62677,19939
7,63088,20515
7,63502,21785
7,63913,20896
7,64325,20855
7,64738,20874
7,65150,20973
7,65562,21598
7,65975,22692
7,66387,22111
7,66798,22502
7,67210,22437
7,67623,22550
7,68035,22526
7,68447,20525
7,68860,22729
7,69272,21382
7,69683,19812
7,70097,22958
7,70508,21454
7,70920,20303
7,71333,19811
7,71745,20597
7,72157,21019
7,72570,21796
7,72982,20339
7,73393,20082
7,73807,20759
7,74218,21055
7,74630,20762
7,75043,20766
7,75455,21467
7,75867,20011
7,76278,20350
7,76692,19721
7,77103,20416
7,77515,18366
7,77928,20295
7,78340,20338
7,78752,21717
7,79165,22417
7,79577,25227
7,79988,26239
7,80402,27236
7,80813,28195
7,81225,32261
7,81638,37587
7,82050,53037
7,82462,82438
7,82875,141736
7,83287,238484
7,83698,380775
7,84112,559767
7,84523,766193
7,84935,958941
7,85347,1113810
7,85760,1223864
7,86172,1258597
7,86583,1252020
7,86997,1170667
7,87408,1067731
7,87820,954652
7,88233,844535
7,88645,732407
7,89057,622936
7,89470,526274
7,89882,443292
7,90293,375711
7,90707,307363
7,91118,255911
7,91530,213259
7,91943,173700
7,92355,143295
7,92767,124043
7,93180,103986
7,93592,90138
7,94003,78331
7,94415,67986
7,94828,60895
7,95240,56460
7,95652,51791
7,96065,48445
7,96477,43198
7,96888,43076
7,97302,40789
7,97713,36706
7,98125,35734
7,98538,33857
7,98950,32727
7,99362,32228
7,99775,31855
8,00187,30536
8,00598,30019
8,01012,27306
8,01423,27900
8,01835,26948
8,02248,25738
8,02660,25370
8,03072,25671
8,03483,24298
8,03897,23575
8,04308,23285
8,04720,23062
8,05133,23009
8,05545,22555
8,05957,21651
8,06370,21263
8,06782,22241
8,07193,21660
8,07607,21306
8,08018,20879
8,08430,21318
8,08843,21228
8,09255,20684
8,09667,21191
8,10080,20082
8,10492,20987
8,10903,19531
8,11317,19965
8,11728,19064
8,12140,20203
8,12552,20117
8,12965,19475
8,13377,19647
8,13788,18737
8,14202,19000
8,14613,19328
8,15025,19328
8,15438,21220
8,15850,20328
8,16262,21685
8,16675,22521
8,17087,24229
8,17498,24474
8,17912,23967
8,18323,24000
8,18735,23183
8,19148,23898
8,19560,23934
8,19972,23303
8,20385,22163
8,20797,22210
8,21208,21134
8,21620,19090
8,22033,20669
8,22445,19534
8,22857,19947
8,23270,19927
8,23682,17801
8,24093,17706
8,24507,19213
8,24918,17270
8,25330,17893
8,25743,18212
8,26155,16769
8,26567,19077
8,26980,16831
8,27392,17802
8,27803,17248
8,28217,16839
8,28628,18018
8,29040,15849
8,29453,16902
8,29865,17065
8,30277,17209
8,30688,16953
8,31102,18094
8,31513,17293
8,31925,17413
8,32338,18726
8,32750,16862
8,33162,17164
8,33575,17211
8,33987,15476
8,34398,16010
8,34812,16298
8,35223,16483
8,35635,15477
8,36048,16275
8,36460,16339
8,36872,17019
8,37285,16098
8,37697,16874
8,38108,18376
8,38522,17035
8,38933,18703
8,39345,18546
8,39757,20828
8,40170,22941
8,40582,21161
8,40993,23266
8,41407,22527
8,41818,23611
8,42230,23445
8,42643,22748
8,43055,19890
8,43467,20816
8,43880,22256
8,44292,20191
8,44703,19246
8,45117,19369
8,45528,20107
8,45940,19018
8,46353,19804
8,46765,25121
8,47177,41269
8,47590,72630
8,48002,147676
8,48413,284217
8,48825,508410
8,49238,855316
8,49650,1304009
8,50062,1809124
8,50475,2307231
8,50887,2688805
8,51298,2926564
8,51712,2944206
8,52123,2834295
8,52535,2561248
8,52948,2259428
8,53360,1921483
8,53772,1599142
8,54185,1299791
8,54597,1045984
8,55008,834349
8,55422,656652
8,55833,516323
8,56245,415250
8,56658,327604
8,57070,271470
8,57482,221379
8,57893,189678
8,58307,161027
8,58718,140883
8,59130,117374
8,59543,105998
8,59955,96480
8,60367,85046
8,60780,77805
8,61192,73805
8,61603,68189
8,62017,62640
8,62428,57095
8,62840,53032
8,63253,51178
8,63665,50182
8,64077,46437
8,64490,46051
8,64902,43118
8,65313,44288
8,65727,44788
8,66138,45456
8,66550,44376
8,66962,43531
8,67375,41867
8,67787,41431
8,68198,41443
8,68612,38101
8,69023,37817
8,69435,36380
8,69848,32272
8,70260,32777
8,70672,30204
8,71085,29410
8,71497,27893
8,71908,26420
8,72322,25925
8,72733,25792
8,73145,24420
8,73558,24676
8,73970,22302
8,74382,22332
8,74795,22592
8,75207,21605
8,75618,21983
8,76030,22146
8,76443,21882
8,76855,20546
8,77267,20949
8,77680,21066
8,78092,18828
8,78503,19036
8,78917,20181
8,79328,20686
8,79740,20337
8,80153,21401
8,80565,22729
8,80977,22216
8,81390,23571
8,81802,26769
8,82213,28965
8,82627,30121
8,83038,31073
8,83450,30208
8,83863,32594
8,84275,28906
8,84687,29866
8,85098,30129
8,85512,25919
8,85923,25627
8,86335,23550
8,86748,23182
8,87160,22664
8,87572,20697
8,87985,18944
8,88397,20005
8,88808,18361
8,89222,19466
8,89633,19944
8,90045,18974
8,90458,19264
8,90870,20496
8,91282,19475
8,91695,18124
8,92107,18347
8,92518,18208
8,92932,17267
8,93343,17176
8,93755,18844
8,94167,17455
8,94580,17238
8,94992,17031
8,95403,17361
8,95817,19011
8,96228,22618
8,96640,31514
8,97053,50908
8,97465,91324
8,97877,169246
8,98290,291529
8,98702,472727
8,99113,703153
8,99527,953981
8,99938,1171945
9,00350,1355161
9,00763,1439534
9,01175,1428498
9,01587,1340323
9,02000,1201012
9,02412,1036309
9,02823,860568
9,03237,701986
9,03648,561208
9,04060,447282
9,04472,349398
9,04885,274285
9,05297,223567
9,05708,178353
9,06122,151505
9,06533,123436
9,06945,108335
9,07358,91036
9,07770,79669
9,08182,69676
9,08595,63896
9,09007,57794
9,09418,53934
9,09832,49253
9,10243,45889
9,10655,40826
9,11068,40653
9,11480,38468
9,11892,35299
9,12305,34003
9,12717,34174
9,13128,36204
9,13540,46249
9,13953,63332
9,14365,116442
9,14777,208861
9,15190,354817
9,15602,563418
9,16013,836921
9,16427,1119527
9,16838,1378087
9,17250,1567723
9,17663,1645170
9,18075,1628465
9,18487,1499623
9,18900,1309559
9,19312,1083566
9,19723,877085
9,20137,688206
9,20548,534061
9,20960,412354
9,21373,329975
9,21785,252408
9,22197,209672
9,22608,169268
9,23022,137252
9,23433,118348
9,23845,99616
9,24258,88763
9,24670,78844
9,25082,70374
9,25495,64436
9,25907,57414
9,26318,53781
9,26732,49411
9,27143,47011
9,27555,43113
9,27968,41368
9,28380,39243
9,28792,37742
9,29205,35918
9,29617,33947
9,30028,32802
9,30442,32490
9,30853,30071
9,31265,29743
9,31677,28647
9,32090,27636
9,32502,25883
9,32913,26073
9,33327,26349
9,33738,24534
9,34150,23934
9,34563,23827
9,34975,22847
9,35387,21715
9,35800,23646
9,36212,21927
9,36623,21666
9,37037,21450
9,37448,19876
9,37860,20370
9,38273,20312
9,38685,19460
9,39097,18811
9,39510,17836
9,39922,19560
9,40333,17993
9,40745,19078
9,41158,18783
9,41570,17560
9,41982,18097
9,42395,17891
9,42807,17074
9,43218,17197
9,43632,18339
9,44043,18163
9,44455,17126
9,44868,17703
9,45280,17024
9,45692,16949
9,46105,15951
9,46517,17368
9,46928,16307
9,47342,16185
9,47753,15530
9,48165,15314
9,48578,17504
9,48990,16587
9,49402,15996
9,49813,15677
9,50227,14623
9,50638,15620
9,51050,15496
9,51463,16148
9,51875,15701
9,52287,16317
9,52700,15434
9,53112,17015
9,53523,14972
9,53937,15728
9,54348,16157
9,54760,16489
9,55173,16548
9,55585,16126
9,55997,15998
9,56410,16522
9,56822,15767
9,57233,14994
9,57647,16037
9,58058,15775
9,58470,15350
9,58882,14866
9,59295,15622
9,59707,15861
9,60118,14939
9,60532,14916
9,60943,15069
9,61355,15586
9,61768,16188
9,62180,16342
9,62592,17723
9,63005,22419
9,63417,32982
9,63828,56755
9,64242,109734
9,64653,196992
9,65065,358227
9,65478,569955
9,65890,834770
9,66302,1102430
9,66715,1357307
9,67127,1528337
9,67538,1568398
9,67950,1522030
9,68363,1382239
9,68775,1199782
9,69187,991302
9,69600,792993
9,70012,615790
9,70423,479186
9,70837,374571
9,71248,284172
9,71660,232410
9,72073,187846
9,72485,149452
9,72897,126512
9,73310,110631
9,73722,96734
9,74133,80797
9,74547,75508
9,74958,66709
9,75370,59306
9,75783,53902
9,76195,50203
9,76607,48587
9,77018,43629
9,77432,41817
9,77843,39620
9,78255,39274
9,78668,39622
9,79080,46167
9,79492,74916
9,79905,136274
9,80317,277220
9,80728,533058
9,81142,959473
9,81553,1600345
9,81965,2414340
9,82378,3362077
9,82790,4295909
9,83202,5025216
9,83615,5433105
9,84027,5388335
9,84438,4951494
9,84852,4306615
9,85263,3510692
9,85675,2728700
9,86087,2079488
9,86500,1552855
9,86912,1170643
9,87323,904650
9,87737,695979
9,88148,555055
9,88560,455130
9,88973,378099
9,89385,319780
9,89797,269604
9,90210,234099
9,90622,210761
9,91033,182327
9,91447,162868
9,91858,146189
9,92270,134515
9,92683,126625
9,93095,112847
9,93507,102513
9,93920,96921
9,94332,88836
9,94743,84512
9,95155,79231
9,95568,73686
9,95980,67477
9,96392,64003
9,96805,60571
9,97217,61336
9,97628,55904
9,98042,56169
9,98453,52309
9,98865,50261
9,99278,48680
9,99690,47068
10,00102,44441
10,00515,44476
10,00927,42227
10,01338,41114
10,01752,39680
10,02163,38713
10,02575,34422
10,02988,33946
10,03400,36109
10,03812,32339
10,04223,33066
10,04637,31862
10,05048,33136
10,05460,28981
10,05873,29056
10,06285,29653
10,06697,28427
10,07110,27811
10,07522,27317
10,07933,28509
10,08347,26253
10,08758,28445
10,09170,27513
10,09583,27606
10,09995,27146
10,10407,26265
10,10820,24803
10,11232,27894
10,11643,25829
10,12057,23147
10,12468,24545
10,12880,22586
10,13292,21991
10,13705,22398
10,14117,22958
10,14528,21358
10,14942,22158
10,15353,20976
10,15765,20920
10,16178,21117
10,16590,21830
10,17002,22491
10,17415,23180
10,17827,23019
10,18238,23981
10,18652,22466
10,19063,22226
10,19475,21719
10,19888,24828
10,20300,30594
10,20712,42495
10,21125,77034
10,21537,142194
10,21948,262749
10,22360,445826
10,22773,700481
10,23185,1005110
10,23597,1302900
10,24010,1553046
10,24422,1675672
10,24833,1677233
10,25247,1549185
10,25658,1341645
10,26070,1122879
10,26483,891012
10,26895,693499
10,27307,534839
10,27720,411985
10,28132,323688
10,28543,258586
10,28957,206875
10,29368,167944
10,29780,142484
10,30193,119911
10,30605,104687
10,31017,95362
10,31428,90135
10,31842,79789
10,32253,76586
10,32665,73287
10,33078,69353
10,33490,67121
10,33902,58273
10,34315,55471
10,34727,50287
10,35138,48661
10,35552,44456
10,35963,44055
10,36375,38965
10,36788,37484
10,37200,35607
10,37612,33974
10,38025,33860
10,38437,32036
10,38848,30058
10,39262,30005
10,39673,29121
10,40085,29136
10,40497,30221
10,40910,31020
10,41322,33954
10,41733,31573
10,42147,34697
10,42558,39661
10,42970,38851
10,43383,41054
10,43795,45034
10,44207,52470
10,44620,70876
10,45032,115872
10,45443,203350
10,45857,365416
10,46268,597424
10,46680,926268
10,47093,1280908
10,47505,1629085
10,47917,1850873
10,48330,1941810
10,48742,1887845
10,49153,1676833
10,49565,1404507
10,49978,1130893
10,50390,875495
10,50802,681806
10,51215,522727
10,51627,398859
10,52038,316078
10,52452,251528
10,52863,207160
10,53275,167833
10,53688,146371
10,54100,126808
10,54512,111753
10,54925,97978
10,55337,86736
10,55748,79788
10,56162,71192
10,56573,69757
10,56985,60051
10,57398,56469
10,57810,56023
10,58222,52736
10,58633,48305
10,59047,46110
10,59458,45447
10,59870,44422
10,60283,41059
10,60695,39611
10,61107,39334
10,61520,37360
10,61932,35851
10,62343,35495
10,62757,33390
10,63168,30707
10,63580,31588
10,63993,29750
10,64405,30336
10,64817,28637
10,65230,28118
10,65642,28391
10,66053,27519
10,66467,26844
10,66878,26496
10,67290,26176
10,67703,25485
10,68115,24832
10,68527,26817
10,68938,26684
10,69352,27504
10,69763,26245
10,70175,24893
10,70588,25376
10,71000,23039
10,71412,23907
10,71825,25355
10,72237,24239
10,72648,22948
10,73062,23703
10,73473,21798
10,73885,20892
10,74298,22399
10,74710,22680
10,75122,20527
10,75535,20074
10,75947,20994
10,76358,21095
10,76772,20639
10,77183,20055
10,77595,18646
10,78007,19130
10,78420,19625
10,78832,19511
10,79243,18337
10,79657,19561
10,80068,18744
10,80480,19053
10,80893,18447
10,81305,20082
10,81717,17413
10,82130,18456
10,82542,17892
10,82953,17822
10,83367,20006
10,83778,20280
10,84190,23437
10,84603,31381
10,85015,46704
10,85427,83649
10,85840,165415
10,86252,303912
10,86663,519376
10,87075,816409
10,87488,1143794
10,87900,1470594
10,88312,1711443
10,88725,1838615
10,89137,1803840
10,89548,1638014
10,89962,1406333
10,90373,1137923
10,90785,890541
10,91198,686798
10,91610,535255
10,92022,415348
10,92435,331155
10,92847,263388
10,93258,211699
10,93672,179224
10,94083,148839
10,94495,128959
10,94908,114310
10,95320,101717
10,95732,91046
10,96143,81283
10,96557,73696
10,96968,70057
10,97380,61793
10,97793,61230
10,98205,57983
10,98617,51417
10,99030,47744
10,99442,48269
10,99853,44480
11,00267,42778
11,00678,41143
11,01090,38640
11,01503,35618
11,01915,37563
11,02327,34931
11,02740,35342
11,03152,32939
11,03563,32005
11,03977,31457
11,04388,30997
11,04800,29634
11,05212,30116
11,05625,27452
11,06037,29187
11,06448,29286
11,06862,29679
11,07273,37310
11,07685,60016
11,08098,106064
11,08510,204529
11,08922,413607
11,09335,755620
11,09747,1246079
11,10158,1894960
11,10572,2653734
11,10983,3395218
11,11395,3958524
11,11808,4228373
11,12220,4158164
11,12632,3798985
11,13045,3218404
11,13457,2538175
11,13868,1966468
11,14280,1477594
11,14693,1117530
11,15105,859211
11,15517,677013
11,15930,535626
11,16342,440363
11,16753,370000
11,17167,323199
11,17578,285185
11,17990,260475
11,18403,231690
11,18815,211898
11,19227,196163
11,19640,178222
11,20052,162707
11,20463,144793
11,20877,131514
11,21288,122882
11,21700,109903
11,22113,102895
11,22525,95669
11,22937,88546
11,23348,82117
11,23762,78542
11,24173,70455
11,24585,71025
11,24998,65214
11,25410,62675
11,25822,60300
11,26235,57272
11,26647,54476
11,27058,54560
11,27472,51229
11,27883,51000
11,28295,48136
11,28708,48607
11,29120,45883
11,29532,49772
11,29945,51041
11,30357,64660
11,30768,93918
11,31182,152537
11,31593,267312
11,32005,466034
11,32417,738552
11,32830,1093349
11,33242,1450998
11,33653,1746854
11,34067,1924270
11,34478,1966645
11,34890,1876432
11,35303,1651847
11,35715,1371138
11,36127,1105544
11,36540,867492
11,36952,674066
11,37363,526463
11,37777,415220
11,38188,330736
11,38600,272847
11,39013,228689
11,39425,197508
11,39837,170993
11,40250,146714
11,40662,133138
11,41073,122016
11,41485,111765
11,41898,113470
11,42310,130866
11,42722,178940
11,43135,291031
11,43547,515405
11,43958,885125
11,44372,1429451
11,44783,2104380
11,45195,2845813
11,45608,3502295
11,46020,3924470
11,46432,4033864
11,46845,3828313
11,47257,3383406
11,47668,2795380
11,48082,2217581
11,48493,1704795
11,48905,1305294
11,49318,999774
11,49730,783525
11,50142,625401
11,50553,504372
11,50967,421635
11,51378,353817
11,51790,306419
11,52203,263530
11,52615,232871
11,53027,207914
11,53440,189962
11,53852,168801
11,54263,157194
11,54677,142166
11,55088,128256
11,55500,123371
11,55913,113698
11,56325,105238
11,56737,101458
11,57150,94335
11,57562,91199
11,57973,83216
11,58387,80924
11,58798,78674
11,59210,73172
11,59622,72076
11,60035,68628
11,60447,63297
11,60858,59903
11,61272,60182
11,61683,59113
11,62095,56776
11,62508,56780
11,62920,53767
11,63332,50268
11,63745,51255
11,64157,49026
11,64568,49797
11,64982,47775
11,65393,43411
11,65805,46113
11,66218,47766
11,66630,55194
11,67042,77051
11,67455,118930
11,67867,215116
11,68278,376808
11,68690,630552
11,69103,965842
11,69515,1371312
11,69927,1806962
11,70340,2247579
11,70752,2655218
11,71163,3100304
11,71577,3581095
11,71988,4114073
11,72400,4608684
11,72813,4901043
11,73225,4914326
11,73637,4625196
11,74050,3990871
11,74462,3283922
11,74873,2585378
11,75287,1995450
11,75698,1526213
11,76110,1185711
11,76523,927423
11,76935,741040
11,77347,610989
11,77758,517081
11,78172,433519
11,78583,375976
11,78995,329779
11,79408,289605
11,79820,264558
11,80232,237501
11,80645,213693
11,81057,193866
11,81468,183084
11,81882,168721
11,82293,159323
11,82705,145751
11,83118,138385
11,83530,130503
11,83942,124698
11,84355,115797
11,84767,113160
11,85178,108377
11,85592,100587
11,86003,99494
11,86415,94511
11,86827,90787
11,87240,86113
11,87652,88017
11,88063,83253
11,88477,80138
11,88888,81258
11,89300,77381
11,89713,73149
11,90125,70582
11,90537,70300
11,90950,67074
11,91362,65759
11,91773,64519
11,92187,61580
11,92598,57239
11,93010,59825
11,93423,59516
11,93835,68751
11,94247,95274
11,94660,140970
11,95072,235190
11,95483,408865
11,95895,642987
11,96308,948715
11,96720,1274528
11,97132,1552164
11,97545,1702544
11,97957,1728599
11,98368,1624978
11,98782,1440109
11,99193,1198453
11,99605,965608
12,00018,763407
12,00430,597080
12,00842,473834
12,01255,379313
12,01667,310301
12,02078,253949
12,02492,220691
12,02903,184233
12,03315,164317
12,03728,147925
12,04140,131220
12,04552,120738
12,04963,111058
12,05377,101678
12,05788,98556
12,06200,90723
12,06613,86008
12,07025,83969
12,07437,78267
12,07850,74903
12,08262,69808
12,08673,67031
12,09087,61901
12,09498,62660
12,09910,61314
12,10323,57426
12,10735,57236
12,11147,56219
12,11560,56777
12,11972,53350
12,12383,52115
12,12797,49086
12,13208,52487
12,13620,49922
12,14032,48265
12,14445,47125
12,14857,47806
12,15268,46152
12,15682,45011
12,16093,45638
12,16505,44629
12,16918,45472
12,17330,44350
12,17742,44342
12,18155,43199
12,18567,43128
12,18978,41382
12,19392,41262
12,19803,40856
12,20215,39985
12,20628,39900
12,21040,41590
12,21452,38850
12,21865,38579
12,22277,38411
12,22688,39901
12,23100,36067
12,23513,36206
12,23925,37652
12,24337,40861
12,24750,39468
12,25162,39361
12,25573,40919
12,25987,38407
12,26398,38540
12,26810,36419
12,27223,37845
12,27635,40352
12,28047,46376
12,28460,59613
12,28872,99157
12,29283,180790
12,29697,353788
12,30108,656134
12,30520,1142926
12,30933,1829413
12,31345,2681787
12,31757,3675701
12,32170,4603012
12,32582,5362717
12,32993,5708908
12,33405,5649674
12,33818,5253301
12,34230,4634772
12,34642,3923392
12,35055,3250966
12,35467,2630135
12,35878,2104600
12,36292,1673666
12,36703,1323542
12,37115,1057625
12,37528,861504
12,37940,712902
12,38352,590155
12,38765,501968
12,39177,429869
12,39588,377187
12,40002,334812
12,40413,302204
12,40825,271776
12,41238,247653
12,41650,226135
12,42062,206760
12,42473,192851
12,42887,178829
12,43298,171349
12,43710,157446
12,44123,149269
12,44535,141844
12,44947,135138
12,45360,129877
12,45772,118983
12,46183,113088
12,46597,110467
12,47008,108008
12,47420,104198
12,47833,96660
12,48245,97204
12,48657,91082
12,49070,89463
12,49482,83668
12,49893,82045
12,50307,81091
12,50718,80057
12,51130,76011
12,51542,78961
12,51955,76024
12,52367,78276
12,52778,87331
12,53192,103579
12,53603,143405
12,54015,217576
12,54428,348010
12,54840,546003
12,55252,787196
12,55665,1071686
12,56077,1330565
12,56488,1508442
12,56902,1563044
12,57313,1496412
12,57725,1342208
12,58138,1128071
12,58550,918100
12,58962,734101
12,59375,583955
12,59787,459330
12,60198,372642
12,60610,306082
12,61023,271055
12,61435,251066
12,61847,279437
12,62260,343876
12,62672,495232
12,63083,730455
12,63497,1071456
12,63908,1490521
12,64320,1881801
12,64733,2165974
12,65145,2260543
12,65557,2189905
12,65970,1976688
12,66382,1691387
12,66793,1391649
12,67207,1122043
12,67618,885132
12,68030,707906
12,68443,574910
12,68855,465640
12,69267,395077
12,69678,341604
12,70092,295209
12,70503,257495
12,70915,233170
12,71328,210143
12,71740,195763
12,72152,175831
12,72565,162771
12,72977,148755
12,73388,138701
12,73802,133620
12,74213,124270
12,74625,115385
12,75038,113606
12,75450,108442
12,75862,103318
12,76275,104269
12,76687,93619
12,77098,93188
12,77512,85323
12,77923,86802
12,78335,82093
12,78747,80580
12,79160,78537
12,79572,78778
12,79983,74121
12,80397,71314
12,80808,72487
12,81220,69975
12,81633,69071
12,82045,68285
12,82457,65924
12,82870,62765
12,83282,66144
12,83693,63361
12,84107,63077
12,84518,62895
12,84930,58796
12,85343,64861
12,85755,73626
12,86167,94274
12,86580,143032
12,86992,238563
12,87403,423373
12,87815,721928
12,88228,1117545
12,88640,1566897
12,89052,2014195
12,89465,2345980
12,89877,2502493
12,90288,2419372
12,90702,2143002
12,91113,1810876
12,91525,1463777
12,91938,1166575
12,92350,917364
12,92762,739548
12,93175,599087
12,93587,501551
12,93998,416429
12,94412,364583
12,94823,314428
12,95235,280722
12,95648,247040
12,96060,226788
12,96472,208110
12,96883,187615
12,97297,176915
12,97708,163322
12,98120,152694
12,98533,143425
12,98945,135872
12,99357,125902
12,99770,124832
13,00182,119771
13,00593,112957
13,01007,111440
13,01418,107073
13,01830,107397
13,02243,103749
13,02655,97536
13,03067,94746
13,03480,89752
13,03892,86882
13,04303,86604
13,04717,85304
13,05128,83091
13,05540,79746
13,05952,78490
13,06365,78475
13,06777,76548
13,07188,73312
13,07602,71392
13,08013,71884
13,08425,68196
13,08838,67563
13,09250,66632
13,09662,68576
13,10075,72677
13,10487,82374
13,10898,111576
13,11312,173795
13,11723,284486
13,12135,474417
13,12548,744189
13,12960,1082483
13,13372,1427659
13,13785,1705405
13,14197,1864786
13,14608,1858651
13,15020,1726070
13,15433,1530964
13,15845,1267380
13,16257,1038272
13,16670,829110
13,17082,657798
13,17493,544009
13,17907,438566
13,18318,373401
13,18730,319817
13,19143,263607
13,19555,237434
13,19967,210116
13,20380,189786
13,20792,176629
13,21203,161735
13,21617,148206
13,22028,141417
13,22440,132176
13,22853,124439
13,23265,116228
13,23677,113260
13,24088,104286
13,24502,105499
13,24913,101703
13,25325,95935
13,25738,87418
13,26150,92017
13,26562,87727
13,26975,83659
13,27387,85344
13,27798,80997
13,28212,81013
13,28623,77298
13,29035,78133
13,29448,72121
13,29860,71042
13,30272,70536
13,30685,69019
13,31097,65394
13,31508,64708
13,31922,65673
13,32333,64021
13,32745,62574
13,33157,59799
13,33570,59026
13,33982,62656
13,34393,60641
13,34807,59663
13,35218,59333
13,35630,57789
13,36043,57474
13,36455,57318
13,36867,57146
13,37280,57071
13,37692,58983
13,38103,60136
13,38517,60314
13,38928,53675
13,39340,57600
13,39753,55849
13,40165,52981
13,40577,54655
13,40990,56503
13,41402,56022
13,41813,62129
13,42225,71381
13,42638,99637
13,43050,151645
13,43462,257610
13,43875,456374
13,44287,781427
13,44698,1229835
13,45112,1890561
13,45523,2643214
13,45935,3472348
13,46348,4210302
13,46760,4779534
13,47172,5044685
13,47585,4979391
13,47997,4608881
13,48408,4137640
13,48822,3749635
13,49233,3423250
13,49645,3162260
13,50058,2949079
13,50470,2718151
13,50882,2429082
13,51293,2109950
13,51707,1805934
13,52118,1521948
13,52530,1266584
13,52943,1059503
13,53355,886016
13,53767,743899
13,54180,642597
13,54592,562673
13,55003,496137
13,55417,446698
13,55828,401064
13,56240,371150
13,56653,337027
13,57065,310961
13,57477,287978
13,57890,268723
13,58302,256352
13,58713,237809
13,59127,224966
13,59538,214873
13,59950,199102
13,60362,190438
13,60775,183844
13,61187,179015
13,61598,167977
13,62012,161589
13,62423,156691
13,62835,151858
13,63248,144532
13,63660,142429
13,64072,135971
13,64485,137307
13,64897,132049
13,65308,131967
13,65722,123310
13,66133,124332
13,66545,120722
13,66958,121228
13,67370,120396
13,67782,127616
13,68195,139768
13,68607,167566
13,69018,226585
13,69430,333373
13,69843,500678
13,70255,719592
13,70667,986811
13,71080,1244365
13,71492,1465286
13,71903,1600532
13,72317,1635664
13,72728,1567404
13,73140,1395982
13,73553,1218886
13,73965,1045670
13,74377,913801
13,74790,837211
13,75202,851244
13,75613,952922
13,76027,1178332
13,76438,1493135
13,76850,1898809
13,77263,2376926
13,77675,2814447
13,78087,3186240
13,78498,3412875
13,78912,3468561
13,79323,3298525
13,79735,3014734
13,80148,2661850
13,80560,2251767
13,80972,1876282
13,81385,1552987
13,81797,1291237
13,82208,1064541
13,82622,907900
13,83033,774346
13,83445,674988
13,83858,589917
13,84270,525159
13,84682,469760
13,85095,426509
13,85507,393479
13,85918,363674
13,86332,336003
13,86743,314562
13,87155,294131
13,87567,275218
13,87980,258287
13,88392,244288
13,88803,226150
13,89217,215633
13,89628,204740
13,90040,194761
13,90453,186825
13,90865,179895
13,91277,173472
13,91690,162763
13,92102,159786
13,92513,153566
13,92927,145711
13,93338,141217
13,93750,139659
13,94163,135106
13,94575,130439
13,94987,126518
13,95400,123714
13,95812,121884
13,96223,119844
13,96637,114561
13,97048,113688
13,97460,112463
13,97872,106750
13,98285,108145
13,98697,114252
13,99108,125001
13,99522,151582
13,99933,203649
14,00345,296953
14,00758,453588
14,01170,684595
14,01582,1008851
14,01995,1383610
14,02407,1765219
14,02818,2087203
14,03232,2281085
14,03643,2290371
14,04055,2161556
14,04468,1936035
14,04880,1662473
14,05292,1401007
14,05705,1165983
14,06117,981103
14,06528,831630
14,06940,701230
14,07353,609439
14,07765,528061
14,08177,477119
14,08590,421841
14,09002,387475
14,09413,352861
14,09827,323439
14,10238,298670
14,10650,274420
14,11063,261475
14,11475,244638
14,11887,226419
14,12300,221559
14,12712,206643
14,13123,194853
14,13537,185661
14,13948,184253
14,14360,172270
14,14773,168726
14,15185,163812
14,15597,158590
14,16008,155835
14,16422,152992
14,16833,151534
14,17245,146632
14,17658,145315
14,18070,139213
14,18482,134643
14,18895,130688
14,19307,125276
14,19718,123045
14,20132,120391
14,20543,120277
14,20955,113086
14,21368,109148
14,21780,106610
14,22192,107007
14,22605,104613
14,23017,99757
14,23428,98284
14,23842,100552
14,24253,95902
14,24665,100078
14,25077,98026
14,25490,103889
14,25902,117393
14,26313,143267
14,26727,192266
14,27138,274202
14,27550,419065
14,27963,618691
14,28375,882632
14,28787,1163234
14,29200,1427358
14,29612,1624772
14,30023,1739160
14,30437,1732605
14,30848,1655787
14,31260,1506261
14,31673,1314670
14,32085,1129892
14,32497,959705
14,32910,810309
14,33322,685565
14,33733,582690
14,34145,502934
14,34558,447543
14,34970,397709
14,35382,358566
14,35795,323498
14,36207,300789
14,36618,296611
14,37032,301746
14,37443,339356
14,37855,398913
14,38268,501608
14,38680,630530
14,39092,795793
14,39505,965881
14,39917,1118625
14,40328,1221606
14,40742,1274577
14,41153,1250288
14,41565,1177713
14,41978,1072302
14,42390,941909
14,42802,821510
14,43213,701553
14,43627,600590
14,44038,519274
14,44450,445134
14,44863,389840
14,45275,341171
14,45687,303736
14,46100,273490
14,46512,251672
14,46923,225534
14,47337,212429
14,47748,195218
14,48160,189841
14,48573,175196
14,48985,165046
14,49397,157974
14,49810,151307
14,50222,142657
14,50633,139374
14,51047,135930
14,51458,126561
14,51870,126080
14,52282,118907
14,52695,116359
14,53107,116627
14,53518,111413
14,53932,109957
14,54343,106607
14,54755,105752
14,55168,104389
14,55580,102446
14,55992,99862
14,56405,100042
14,56817,98651
14,57228,105659
14,57642,114617
14,58053,135197
14,58465,172574
14,58878,233911
14,59290,352322
14,59702,535509
14,60115,791884
14,60527,1174334
14,60938,1666212
14,61350,2230109
14,61763,2858278
14,62175,3420808
14,62587,3888857
14,63000,4154218
14,63412,4121810
14,63823,3883636
14,64237,3444417
14,64648,2945116
14,65060,2496805
14,65473,2079271
14,65885,1741896
14,66297,1468303
14,66710,1257988
14,67122,1084834
14,67533,947621
14,67947,832832
14,68358,744617
14,68770,667812
14,69183,614986
14,69595,556820
14,70007,515265
14,70418,476358
14,70832,444774
14,71243,409678
14,71655,390099
14,72068,365334
14,72480,343406
14,72892,317751
14,73305,308345
14,73717,291007
14,74128,277544
14,74542,267299
14,74953,252347
14,75365,243403
14,75778,233020
14,76190,221907
14,76602,215089
14,77015,210540
14,77427,203528
14,77838,197122
14,78252,187410
14,78663,182505
14,79075,183259
14,79487,174144
14,79900,167352
14,80312,160180
14,80723,159319
14,81137,157085
14,81548,151526
14,81960,149052
14,82373,144726
14,82785,139808
14,83197,137085
14,83610,140391
14,84022,134913
14,84433,129831
14,84847,127914
14,85258,126505
14,85670,120861
14,86083,121190
14,86495,117656
14,86907,113887
14,87320,115891
14,87732,113452
14,88143,111511
14,88555,111481
14,88968,111961
14,89380,111023
14,89792,105640
14,90205,103725
14,90617,104027
14,91028,103878
14,91442,102400
14,91853,102452
14,92265,105426
14,92678,111541
14,93090,126304
14,93502,148126
14,93915,191878
14,94327,267245
14,94738,378022
14,95152,532003
14,95563,744343
14,95975,996380
14,96388,1264257
14,96800,1505806
14,97212,1691667
14,97623,1791641
14,98037,1802228
14,98448,1740757
14,98860,1616259
14,99273,1462903
14,99685,1282295
15,00097,1108933
15,00510,968170
15,00922,836519
15,01333,735337
15,01747,649907
15,02158,574270
15,02570,517318
15,02983,470488
15,03395,426735
15,03807,389713
15,04220,363147
15,04632,336611
15,05043,308918
15,05457,293448
15,05868,276285
15,06280,257101
15,06692,246430
15,07105,239262
15,07517,227167
15,07928,212617
15,08342,204644
15,08753,202760
15,09165,191075
15,09578,185566
15,09990,175968
15,10402,166487
15,10815,162912
15,11227,157591
15,11638,156247
15,12052,152313
15,12463,145385
15,12875,143339
15,13288,139929
15,13700,140868
15,14112,135162
15,14525,131254
15,14937,127943
15,15348,125441
15,15760,123043
15,16173,122785
15,16585,121219
15,16997,113556
15,17410,113793
15,17822,112788
15,18233,111171
15,18647,109070
15,19058,105652
15,19470,103040
15,19883,103162
15,20295,102869
15,20707,98630
15,21120,100326
15,21532,97250
15,21943,98126
15,22357,95015
15,22768,94375
15,23180,95617
15,23593,92516
15,24005,95173
15,24417,91398
15,24828,91024
15,25242,89452
15,25653,84040
15,26065,84390
15,26478,87563
15,26890,85795
15,27302,86155
15,27715,81558
15,28127,84615
15,28538,82050
15,28952,80606
15,29363,81790
15,29775,82899
15,30188,82746
15,30600,83329
15,31012,82845
15,31425,83384
15,31837,80902
15,32248,82300
15,32662,82002
15,33073,81147
15,33485,80319
15,33897,79655
15,34310,77935
15,34722,73161
15,35133,74526
15,35547,72641
15,35958,76728
15,36370,70270
15,36783,72018
15,37195,70019
15,37607,71665
15,38020,68967
15,38432,69855
15,38843,72768
15,39257,69270
15,39668,68108
15,40080,67600
15,40493,68327
15,40905,64697
15,41317,67502
15,41730,67854
15,42142,71001
15,42553,70741
15,42965,68934
15,43378,75245
15,43790,74197
15,44202,85060
15,44615,91280
15,45027,100497
15,45438,108934
15,45852,116748
15,46263,126542
15,46675,132379
15,47088,135448
15,47500,136951
15,47912,137175
15,48325,128030
15,48737,121483
15,49148,117810
15,49562,109486
15,49973,100398
15,50385,98968
15,50798,89929
15,51210,85714
15,51622,84060
15,52033,78971
15,52447,77471
15,52858,74164
15,53270,75468
15,53683,74060
15,54095,69861
15,54507,69880
15,54920,71393
15,55332,68742
15,55743,66848
15,56157,68713
15,56568,66623
15,56980,66236
15,57393,66094
15,57805,64534
15,58217,62411
15,58630,63575
15,59042,62409
15,59453,63843
15,59867,60177
15,60278,58942
15,60690,61288
15,61103,59755
15,61515,58562
15,61927,60075
15,62338,60679
15,62752,60176
15,63163,59341
15,63575,57862
15,63988,60371
15,64400,59057
15,64812,58952
15,65225,59855
15,65637,60816
15,66048,59747
15,66462,62033
15,66873,58111
15,67285,60281
15,67698,56785
15,68110,57218
15,68522,55364
15,68935,59447
15,69347,53759
15,69758,57554
15,70172,54339
15,70583,55614
15,70995,54307
15,71407,56452
15,71820,54633
15,72232,58299
15,72643,56525
15,73057,55660
15,73468,57105
15,73880,55352
15,74293,54864
15,74705,56189
15,75117,55791
15,75530,55812
15,75942,57040
15,76353,57614
15,76767,55266
15,77178,56051
15,77590,57115
15,78003,56139
15,78415,56543
15,78827,54596
15,79240,55326
15,79652,55093
15,80063,54410
15,80475,54620
15,80888,53424
15,81300,56827
15,81712,54381
15,82125,53996
15,82537,56420
15,82948,58625
15,83362,51619
15,83773,56207
15,84185,54762
15,84598,55640
15,85010,53397
15,85422,53593
15,85835,53486
15,86247,54109
15,86658,52496
15,87072,53741
15,87483,53440
15,87895,53124
15,88308,54207
15,88720,51086
15,89132,53621
15,89543,53218
15,89957,54282
15,90368,54567
15,90780,54294
15,91193,51388
15,91605,51994
15,92017,52702
15,92430,53182
15,92842,54324
15,93253,54586
15,93667,53567
15,94078,55091
15,94490,51888
15,94903,51187
15,95315,55682
15,95727,52921
15,96140,52225
15,96552,53459
15,96963,56809
15,97377,53003
15,97788,55478
15,98200,53671
15,98612,53765
15,99025,53948
15,99437,56249
15,99848,58930
16,00262,63660
16,00673,72368
16,01085,86468
16,01498,111499
16,01910,149297
16,02322,202043
16,02735,268052
16,03147,349759
16,03558,441723
16,03972,529569
16,04383,623072
16,04795,695899
16,05208,746998
16,05620,779290
16,06032,777129
16,06445,751590
16,06857,708249
16,07268,658299
16,07680,592963
16,08093,533233
16,08505,480448
16,08917,432008
16,09330,386158
16,09742,353638
16,10153,317725
16,10567,284198
16,10978,260902
16,11390,240359
16,11803,222253
16,12215,202599
16,12627,186905
16,13040,176160
16,13452,167729
16,13863,155064
16,14277,149424
16,14688,143375
16,15100,136130
16,15513,131582
16,15925,124613
16,16337,121271
16,16748,114021
16,17162,109007
16,17573,107147
16,17985,107126
16,18398,102031
16,18810,99674
16,19222,96580
16,19635,95946
16,20047,93992
16,20458,90680
16,20872,91811
16,21283,84172
16,21695,85521
16,22108,81815
16,22520,81146
16,22932,80203
16,23345,80027
16,23757,76983
16,24168,76973
16,24582,76846
16,24993,77013
16,25405,73861
16,25817,75272
16,26230,74599
16,26642,71504
16,27053,71329
16,27467,69602
16,27878,71189
16,28290,71704
16,28703,69128
16,29115,68080
16,29527,68321
16,29940,66108
16,30352,68950
16,30763,66176
16,31177,63301
16,31588,64552
16,32000,64110
16,32413,63417
16,32825,61872
16,33237,63875
16,33650,65054
16,34062,63883
16,34473,60791
16,34885,63711
16,35298,63015
16,35710,60675
16,36122,59936
16,36535,65900
16,36947,60776
16,37358,58484
16,37772,60062
16,38183,59249
16,38595,57748
16,39008,60113
16,39420,57936
16,39832,60489
16,40245,59863
16,40657,55768
16,41068,57874
16,41482,58372
16,41893,56210
16,42305,56908
16,42718,56937
16,43130,55046
16,43542,56822
16,43953,58146
16,44367,54145
16,44778,55980
16,45190,54862
16,45603,54477
16,46015,54471
16,46427,54750
16,46840,55741
16,47252,54783
16,47663,54446
16,48077,55710
16,48488,56396
16,48900,53551
16,49313,52214
16,49725,54683
16,50137,53164
16,50550,53432
16,50962,57569
16,51373,51023
16,51787,53378
16,52198,52747
16,52610,52960
16,53022,51612
16,53435,53390
16,53847,52460
16,54258,53598
16,54672,52578
16,55083,53418
16,55495,52632
16,55908,52104
16,56320,51522
16,56732,53273
16,57145,51386
16,57557,53109
16,57968,53207
16,58382,53530
16,58793,54105
16,59205,51877
16,59618,51736
16,60030,53227
16,60442,52055
16,60855,52134
16,61267,53049
16,61678,53855
16,62090,53099
16,62503,51808
16,62915,51371
16,63327,51441
16,63740,50279
16,64152,51743
16,64563,48017
16,64977,52012
16,65388,51926
16,65800,50811
16,66213,51700
16,66625,52660
16,67037,50601
16,67450,49455
16,67862,50131
16,68273,51671
16,68687,51833
16,69098,53512
16,69510,55320
16,69923,50577
16,70335,53627
16,70747,50657
16,71158,51339
16,71572,53803
16,71983,54374
16,72395,52345
16,72808,52064
16,73220,52610
16,73632,53075
16,74045,51647
16,74457,52802
16,74868,51018
16,75282,53115
16,75693,52538
16,76105,52168
16,76518,50243
16,76930,51204
16,77342,48887
16,77755,50052
16,78167,52014
16,78578,52027
16,78992,51373
16,79403,51258
16,79815,54991
16,80227,50996
16,80640,48759
16,81052,50906
16,81463,51510
16,81877,50635
16,82288,47692
