D:\MassHunter\GCMS\1\data\Amal\Constant flow\140C\140C_1ml-min_3C-min_3.D Fri Sep 13 16:25:27 2024
Start of data points
4,84083	5154889
4,84495	4891562
4,84908	4674100
4,85320	4383601
4,85732	4214982
4,86145	3926501
4,86557	3739854
4,86968	3521603
4,87382	3339538
4,87793	3254162
4,88205	3008638
4,88617	2863605
4,89030	2723946
4,89442	2589399
4,89853	2444970
4,90267	2332037
4,90678	2243643
4,91090	2122689
4,91503	1995993
4,91915	1933433
4,92327	1794523
4,92740	1694627
4,93152	1619117
4,93563	1535252
4,93977	1469288
4,94388	1395898
4,94800	1349812
4,95213	1266890
4,95625	1211689
4,96037	1149377
4,96450	1096604
4,96862	1036727
4,97273	994207
4,97687	942595
4,98098	897074
4,98510	864099
4,98922	825766
4,99335	804056
4,99747	757570
5,00158	739953
5,00572	694104
5,00983	670432
5,01395	637552
5,01808	612504
5,02220	586082
5,02632	565757
5,03045	543142
5,03457	527749
5,03868	502367
5,04282	481014
5,04693	468125
5,05105	452371
5,05518	440588
5,05930	421793
5,06342	413148
5,06755	397006
5,07167	403172
5,07578	423909
5,07990	469335
5,08403	554164
5,08815	666297
5,09227	794120
5,09640	901757
5,10052	993152
5,10463	1042152
5,10877	1056940
5,11288	1041830
5,11700	1035148
5,12113	1007751
5,12525	971241
5,12937	942901
5,13350	914952
5,13762	884097
5,14173	840966
5,14587	822539
5,14998	792286
5,15410	764863
5,15823	740092
5,16235	720800
5,16647	692565
5,17058	670274
5,17472	639320
5,17883	628010
5,18295	608262
5,18708	590683
5,19120	566421
5,19532	554587
5,19945	533563
5,20357	517648
5,20768	496095
5,21182	480104
5,21593	465604
5,22005	453584
5,22418	438283
5,22830	421539
5,23242	413087
5,23655	396239
5,24067	379615
5,24478	371668
5,24892	360994
5,25303	354240
5,25715	335832
5,26127	326837
5,26540	314362
5,26952	300095
5,27363	287897
5,27777	275768
5,28188	264331
5,28600	254631
5,29013	239805
5,29425	233845
5,29837	224242
5,30250	214303
5,30662	212630
5,31073	199326
5,31487	192923
5,31898	183014
5,32310	180798
5,32723	168745
5,33135	166169
5,33547	160332
5,33960	156105
5,34372	153628
5,34783	149836
5,35195	143825
5,35608	142577
5,36020	134439
5,36432	135997
5,36845	134223
5,37257	127671
5,37668	127716
5,38082	121551
5,38493	120121
5,38905	116022
5,39318	115313
5,39730	117264
5,40142	111823
5,40555	110824
5,40967	108944
5,41378	108617
5,41792	107137
5,42203	107847
5,42615	106316
5,43028	105013
5,43440	100707
5,43852	105193
5,44263	102684
5,44677	102477
5,45088	99186
5,45500	95834
5,45913	100827
5,46325	99806
5,46737	97707
5,47150	99053
5,47562	98693
5,47973	96422
5,48387	96381
5,48798	94812
5,49210	96048
5,49623	93491
5,50035	93215
5,50447	95390
5,50860	92096
5,51272	93712
5,51683	91033
5,52097	89626
5,52508	90520
5,52920	88328
5,53332	88989
5,53745	92579
5,54157	88505
5,54568	88299
5,54982	91060
5,55393	84727
5,55805	87143
5,56218	83979
5,56630	86844
5,57042	86783
5,57455	84004
5,57867	83505
5,58278	83664
5,58692	87016
5,59103	83072
5,59515	85510
5,59928	83588
5,60340	81912
5,60752	82057
5,61165	81512
5,61577	82792
5,61988	81039
5,62400	78613
5,62813	80705
5,63225	80493
5,63637	80537
5,64050	79051
5,64462	76258
5,64873	79065
5,65287	78793
5,65698	79191
5,66110	77454
5,66523	77829
5,66935	75496
5,67347	77513
5,67760	77986
5,68172	77333
5,68583	74179
5,68997	75388
5,69408	76186
5,69820	74305
5,70233	74584
5,70645	72507
5,71057	74088
5,71468	75198
5,71882	75082
5,72293	75512
5,72705	73909
5,73118	71814
5,73530	76196
5,73942	73912
5,74355	76553
5,74767	75042
5,75178	72710
5,75592	75607
5,76003	74725
5,76415	72860
5,76828	72322
5,77240	72552
5,77652	72195
5,78065	72301
5,78477	71254
5,78888	73502
5,79302	70669
5,79713	71778
5,80125	69941
5,80537	73138
5,80950	70758
5,81362	69737
5,81773	70067
5,82187	68483
5,82598	66936
5,83010	70261
5,83423	68810
5,83835	69997
5,84247	69097
5,84660	66357
5,85072	69114
5,85483	67910
5,85897	69195
5,86308	67016
5,86720	67713
5,87133	69550
5,87545	67190
5,87957	66582
5,88370	66529
5,88782	65544
5,89193	66180
5,89605	65564
5,90018	64431
5,90430	66919
5,90842	65155
5,91255	65290
5,91667	65442
5,92078	66005
5,92492	66160
5,92903	66496
5,93315	64449
5,93728	62071
5,94140	63885
5,94552	65266
5,94965	64238
5,95377	66239
5,95788	67735
5,96202	79616
5,96613	97969
5,97025	130797
5,97438	181522
5,97850	259301
5,98262	366840
5,98673	485076
5,99087	617866
5,99498	750613
5,99910	855184
6,00323	937005
6,00735	980537
6,01147	1008532
6,01560	1023513
6,01972	1016643
6,02383	1003544
6,02797	971424
6,03208	946403
6,03620	919672
6,04033	888609
6,04445	866662
6,04857	820545
6,05270	800419
6,05682	779334
6,06093	750387
6,06507	727326
6,06918	697291
6,07330	664082
6,07742	635010
6,08155	618575
6,08567	595863
6,08978	570839
6,09392	557573
6,09803	538229
6,10215	505246
6,10628	490233
6,11040	461491
6,11452	450958
6,11865	429693
6,12277	412016
6,12688	395363
6,13102	377155
6,13513	363796
6,13925	343674
6,14338	330305
6,14750	312931
6,15162	295824
6,15575	279982
6,15987	263836
6,16398	247621
6,16810	234474
6,17223	218697
6,17635	205276
6,18047	190912
6,18460	182895
6,18872	170249
6,19283	160921
6,19697	151051
6,20108	144272
6,20520	134173
6,20933	129890
6,21345	122848
6,21757	118617
6,22170	111299
6,22582	108570
6,22993	103533
6,23407	96252
6,23818	96410
6,24230	92265
6,24643	87820
6,25055	84257
6,25467	80532
6,25878	78878
6,26292	77701
6,26703	75275
6,27115	74044
6,27528	70742
6,27940	71607
6,28352	70581
6,28765	69361
6,29177	66647
6,29588	63535
6,30002	62324
6,30413	64411
6,30825	62590
6,31238	61311
6,31650	61051
6,32062	60773
6,32475	61446
6,32887	56235
6,33298	58169
6,33712	56647
6,34123	56126
6,34535	53963
6,34947	53246
6,35360	54606
6,35772	51265
6,36183	52667
6,36597	52968
6,37008	51619
6,37420	51931
6,37833	52487
6,38245	49978
6,38657	49643
6,39070	50524
6,39482	49585
6,39893	46997
6,40307	50107
6,40718	50176
6,41130	48829
6,41543	48523
6,41955	48503
6,42367	49664
6,42780	48873
6,43192	48254
6,43603	47368
6,44015	47967
6,44428	46989
6,44840	48018
6,45252	48380
6,45665	48087
6,46077	45236
6,46488	47165
6,46902	46332
6,47313	47173
6,47725	47701
6,48138	45804
6,48550	44828
6,48962	43770
6,49375	45438
6,49787	46595
6,50198	46504
6,50612	45297
6,51023	43179
6,51435	46145
6,51848	46432
6,52260	46338
6,52672	44849
6,53083	45006
6,53497	45944
6,53908	43051
6,54320	45034
6,54733	44766
6,55145	43630
6,55557	42788
6,55970	43056
6,56382	44544
6,56793	40791
6,57207	43012
6,57618	43584
6,58030	41075
6,58443	43451
6,58855	43099
6,59267	41268
6,59680	42372
6,60092	41997
6,60503	42326
6,60917	42739
6,61328	41522
6,61740	41792
6,62153	43221
6,62565	43518
6,62977	46754
6,63388	53108
6,63802	61045
6,64213	76079
6,64625	101728
6,65038	133761
6,65450	180628
6,65862	234655
6,66275	291728
6,66687	347778
6,67098	413150
6,67512	458854
6,67923	491827
6,68335	523756
6,68748	547036
6,69160	546281
6,69572	552599
6,69985	540327
6,70397	528148
6,70808	519683
6,71222	512796
6,71633	501158
6,72045	482565
6,72457	465368
6,72870	447392
6,73282	432273
6,73693	410749
6,74107	398984
6,74518	385030
6,74930	372332
6,75343	356325
6,75755	344035
6,76167	329355
6,76580	317972
6,76992	303605
6,77403	287476
6,77817	276192
6,78228	267143
6,78640	253350
6,79053	243521
6,79465	228787
6,79877	220808
6,80290	214532
6,80702	200880
6,81113	189486
6,81525	179453
6,81938	169507
6,82350	160525
6,82762	149516
6,83175	142476
6,83587	132213
6,83998	127283
6,84412	119345
6,84823	110230
6,85235	105119
6,85648	97476
6,86060	93627
6,86472	88422
6,86885	82589
6,87297	81251
6,87708	75336
6,88122	71520
6,88533	69548
6,88945	67387
6,89358	64339
6,89770	61723
6,90182	60629
6,90593	58389
6,91007	56608
6,91418	53456
6,91830	54078
6,92243	52571
6,92655	52163
6,93067	50617
6,93480	46333
6,93892	48332
6,94303	49547
6,94717	47157
6,95128	46028
6,95540	47782
6,95953	45353
6,96365	45141
6,96777	44540
6,97190	47230
6,97602	43315
6,98013	45628
6,98427	42887
6,98838	43612
6,99250	40675
6,99662	42080
7,00075	42478
7,00487	42249
7,00898	39516
7,01312	41374
7,01723	39963
7,02135	39731
7,02548	40640
7,02960	38203
7,03372	40305
7,03785	38904
7,04197	39614
7,04608	42870
7,05022	40339
7,05433	39392
7,05845	38434
7,06258	39576
7,06670	38203
7,07082	41118
7,07495	40582
7,07907	38255
7,08318	36964
7,08730	38591
7,09143	38076
7,09555	36357
7,09967	36939
7,10380	38048
7,10792	36374
7,11203	36788
7,11617	34954
7,12028	35278
7,12440	35436
7,12853	34726
7,13265	36228
7,13677	34825
7,14090	34159
7,14502	34386
7,14913	35229
7,15327	35759
7,15738	34804
7,16150	35137
7,16563	31707
7,16975	34375
7,17387	32335
7,17798	32924
7,18212	34162
7,18623	33891
7,19035	32920
7,19448	32108
7,19860	33769
7,20272	32333
7,20685	31390
7,21097	31009
7,21508	33634
7,21922	30873
7,22333	31296
7,22745	31846
7,23158	31982
7,23570	33075
7,23982	31233
7,24395	32665
7,24807	31143
7,25218	31976
7,25632	30694
7,26043	31728
7,26455	31245
7,26867	29322
7,27280	30093
7,27692	29884
7,28103	31326
7,28517	31752
7,28928	31066
7,29340	30873
7,29753	30027
7,30165	30320
7,30577	30347
7,30990	30577
7,31402	30245
7,31813	28879
7,32227	30279
7,32638	28896
7,33050	28672
7,33463	30248
7,33875	30455
7,34287	30311
7,34700	29679
7,35112	31688
7,35523	30938
7,35935	29461
7,36348	30424
7,36760	28985
7,37172	30887
7,37585	30416
7,37997	30437
7,38408	30485
7,38822	28579
7,39233	29385
7,39645	29128
7,40058	28356
7,40470	29606
7,40882	29769
7,41295	29293
7,41707	30237
7,42118	29172
7,42532	29028
7,42943	29518
7,43355	29906
7,43768	28900
7,44180	27391
7,44592	27866
7,45003	29403
7,45417	29800
7,45828	28048
7,46240	27957
7,46653	30438
7,47065	28185
7,47477	29982
7,47890	32274
7,48302	33117
7,48713	41190
7,49127	54241
7,49538	77721
7,49950	107920
7,50363	154083
7,50775	219645
7,51187	301492
7,51600	405148
7,52012	522683
7,52423	635801
7,52837	757905
7,53248	863171
7,53660	958541
7,54072	1033625
7,54485	1091275
7,54897	1125012
7,55308	1143222
7,55722	1141934
7,56133	1135701
7,56545	1114337
7,56958	1094770
7,57370	1068457
7,57782	1040634
7,58195	1011158
7,58607	975158
7,59018	932377
7,59432	894599
7,59843	867507
7,60255	822564
7,60668	786679
7,61080	755125
7,61492	720401
7,61905	688885
7,62317	650014
7,62728	628366
7,63140	587275
7,63553	559145
7,63965	531641
7,64377	506077
7,64790	468067
7,65202	439921
7,65613	415475
7,66027	385969
7,66438	357133
7,66850	334950
7,67263	311322
7,67675	291447
7,68087	266252
7,68500	248062
7,68912	222973
7,69323	211148
7,69737	192568
7,70148	179300
7,70560	165455
7,70973	154658
7,71385	142307
7,71797	130177
7,72208	123051
7,72622	114811
7,73033	108674
7,73445	102000
7,73858	95650
7,74270	88693
7,74682	84174
7,75095	81336
7,75507	77892
7,75918	73420
7,76332	69148
7,76743	67144
7,77155	63985
7,77568	59681
7,77980	57671
7,78392	57895
7,78805	53590
7,79217	53432
7,79628	50004
7,80042	49926
7,80453	47849
7,80865	42842
7,81277	45474
7,81690	45288
7,82102	44834
7,82513	43997
7,82927	41794
7,83338	41017
7,83750	41239
7,84163	39098
7,84575	39252
7,84987	36422
7,85400	37154
7,85812	35936
7,86223	36108
7,86637	36296
7,87048	36561
7,87460	34219
7,87873	34900
7,88285	35248
7,88697	34068
7,89110	34204
7,89522	31915
7,89933	32434
7,90345	32568
7,90758	30605
7,91170	32421
7,91582	31174
7,91995	32626
7,92407	31269
7,92818	30859
7,93232	30451
7,93643	30550
7,94055	32049
7,94468	31847
7,94880	29561
7,95292	30856
7,95705	29233
7,96117	29264
7,96528	28361
7,96942	26873
7,97353	29153
7,97765	28828
7,98178	27831
7,98590	27570
7,99002	28368
7,99413	29571
7,99827	27513
8,00238	27719
8,00650	28260
8,01063	28687
8,01475	27289
8,01887	28345
8,02300	27538
8,02712	27010
8,03123	26896
8,03537	26691
8,03948	24795
8,04360	26669
8,04773	24636
8,05185	26125
8,05597	27579
8,06010	27518
8,06422	25619
8,06833	25515
8,07247	26517
8,07658	25297
8,08070	25207
8,08482	25904
8,08895	24535
8,09307	26694
8,09718	25262
8,10132	23646
8,10543	24835
8,10955	24659
8,11368	25774
8,11780	25599
8,12192	25200
8,12605	24686
8,13017	25364
8,13428	23401
8,13842	24484
8,14253	22968
8,14665	22777
8,15078	24286
8,15490	24360
8,15902	24213
8,16315	22964
8,16727	24559
8,17138	23223
8,17550	23538
8,17963	22949
8,18375	22944
8,18787	22651
8,19200	23326
8,19612	22824
8,20023	24183
8,20437	23095
8,20848	24305
8,21260	22879
8,21673	23658
8,22085	22240
8,22497	24690
8,22910	23418
8,23322	23400
8,23733	22407
8,24147	22244
8,24558	22856
8,24970	22585
8,25383	22416
8,25795	24936
8,26207	23218
8,26620	23050
8,27032	22639
8,27443	21884
8,27855	23370
8,28268	22613
8,28680	21733
8,29092	22716
8,29505	23348
8,29917	22211
8,30328	22191
8,30742	22866
8,31153	21831
8,31565	22549
8,31978	21879
8,32390	21263
8,32802	23001
8,33215	22778
8,33627	20833
8,34038	21257
8,34452	21416
8,34863	22902
8,35275	21754
8,35688	22421
8,36100	22290
8,36512	22393
8,36923	22111
8,37337	23382
8,37748	23783
8,38160	23763
8,38573	23791
8,38985	23936
8,39397	25547
8,39810	24316
8,40222	24459
8,40633	25752
8,41047	25832
8,41458	26365
8,41870	25340
8,42283	25128
8,42695	25610
8,43107	26400
8,43520	26218
8,43932	26576
8,44343	25217
8,44757	25461
8,45168	26087
8,45580	26414
8,45992	24831
8,46405	24856
8,46817	25903
8,47228	25322
8,47642	25127
8,48053	23912
8,48465	24372
8,48878	25389
8,49290	23208
8,49702	23349
8,50115	23562
8,50527	23900
8,50938	23155
8,51352	23563
8,51763	24943
8,52175	23488
8,52588	24092
8,53000	24067
8,53412	25825
8,53825	26324
8,54237	28365
8,54648	34261
8,55060	44319
8,55473	55432
8,55885	72823
8,56297	97650
8,56710	132638
8,57122	172408
8,57533	221734
8,57947	274612
8,58358	329282
8,58770	386482
8,59183	444751
8,59595	490269
8,60007	530771
8,60420	575703
8,60832	599286
8,61243	622288
8,61657	620722
8,62068	624906
8,62480	618213
8,62893	609813
8,63305	596436
8,63717	587239
8,64128	568347
8,64542	543540
8,64953	526693
8,65365	512105
8,65778	488206
8,66190	469235
8,66602	441812
8,67015	421961
8,67427	400285
8,67838	378369
8,68252	356203
8,68663	336347
8,69075	315088
8,69488	294166
8,69900	276976
8,70312	254688
8,70725	234939
8,71137	224297
8,71548	205586
8,71962	186062
8,72373	175238
8,72785	159549
8,73197	149897
8,73610	137141
8,74022	126548
8,74433	114807
8,74847	107206
8,75258	99889
8,75670	94657
8,76083	88359
8,76495	83716
8,76907	75474
8,77320	70611
8,77732	67804
8,78143	61379
8,78557	59083
8,78968	55817
8,79380	54484
8,79793	50921
8,80205	47130
8,80617	48119
8,81030	43461
8,81442	42372
8,81853	41791
8,82265	38009
8,82678	39907
8,83090	36986
8,83502	36290
8,83915	34703
8,84327	33617
8,84738	34046
8,85152	33160
8,85563	31241
8,85975	31045
8,86388	31985
8,86800	29421
8,87212	29463
8,87625	29302
8,88037	27422
8,88448	27073
8,88862	27718
8,89273	27062
8,89685	25801
8,90098	27998
8,90510	26600
8,90922	24813
8,91333	25978
8,91747	24602
8,92158	24685
8,92570	25242
8,92983	24893
8,93395	23654
8,93807	23206
8,94220	23757
8,94632	22218
8,95043	22225
8,95457	22588
8,95868	22664
8,96280	22997
8,96693	22582
8,97105	20902
8,97517	20652
8,97930	21962
8,98342	20895
8,98753	20789
8,99167	20289
8,99578	20787
8,99990	20720
9,00402	20593
9,00815	20482
9,01227	21384
9,01638	20036
9,02052	20334
9,02463	19224
9,02875	20540
9,03288	19557
9,03700	20545
9,04112	19600
9,04525	19627
9,04937	19525
9,05348	19051
9,05762	19192
9,06173	17957
9,06585	19450
9,06998	19888
9,07410	19235
9,07822	18912
9,08235	19325
9,08647	18546
9,09058	18493
9,09470	19413
9,09883	17825
9,10295	19171
9,10707	19693
9,11120	18850
9,11532	18366
9,11943	18494
9,12357	18550
9,12768	17523
9,13180	18184
9,13593	17471
9,14005	18529
9,14417	17275
9,14830	17897
9,15242	18525
9,15653	17793
9,16067	17224
9,16478	17433
9,16890	17509
9,17303	20185
9,17715	19809
9,18127	19297
9,18538	19206
9,18952	19106
9,19363	19252
9,19775	19100
9,20188	20281
9,20600	19482
9,21012	20696
9,21425	19932
9,21837	20478
9,22248	20066
9,22662	20011
9,23073	19433
9,23485	18830
9,23898	20125
9,24310	18297
9,24722	19046
9,25135	19384
9,25547	18750
9,25958	19447
9,26372	18934
9,26783	18672
9,27195	19103
9,27607	18528
9,28020	19096
9,28432	19699
9,28843	18522
9,29257	17105
9,29668	19023
9,30080	18243
9,30493	16263
9,30905	17355
9,31317	17358
9,31730	17926
9,32142	17680
9,32553	16883
9,32967	17419
9,33378	16449
9,33790	16795
9,34203	15798
9,34615	16790
9,35027	16059
9,35440	16114
9,35852	15571
9,36263	16920
9,36675	15930
9,37088	15421
9,37500	15997
9,37912	16343
9,38325	15321
9,38737	16633
9,39148	16341
9,39562	15999
9,39973	14412
9,40385	14784
9,40798	16053
9,41210	15565
9,41622	15318
9,42035	15357
9,42447	16554
9,42858	15952
9,43272	16265
9,43683	15770
9,44095	15009
9,44508	15885
9,44920	15330
9,45332	15962
9,45743	15112
9,46157	15062
9,46568	16160
9,46980	16045
9,47393	15945
9,47805	16394
9,48217	16921
9,48630	16444
9,49042	17540
9,49453	16787
9,49867	17440
9,50278	17796
9,50690	18182
9,51103	18591
9,51515	19134
9,51927	17951
9,52340	18545
9,52752	17920
9,53163	18332
9,53577	18132
9,53988	16999
9,54400	18740
9,54812	16696
9,55225	18808
9,55637	18390
9,56048	17471
9,56462	18578
9,56873	17643
9,57285	17555
9,57698	18482
9,58110	17420
9,58522	16458
9,58935	17857
9,59347	17141
9,59758	17045
9,60172	17146
9,60583	16889
9,60995	16977
9,61408	16370
9,61820	15832
9,62232	17399
9,62645	17315
9,63057	16032
9,63468	17021
9,63880	15594
9,64293	15453
9,64705	14970
9,65117	15020
9,65530	15394
9,65942	15526
9,66353	15992
9,66767	16314
9,67178	14894
9,67590	15083
9,68003	17278
9,68415	15457
9,68827	15214
9,69240	13906
9,69652	13908
9,70063	16087
9,70477	15062
9,70888	14852
9,71300	13852
9,71713	14696
9,72125	16068
9,72537	14462
9,72948	16430
9,73362	16134
9,73773	14392
9,74185	14371
9,74598	15404
9,75010	14334
9,75422	14085
9,75835	14941
9,76247	14161
9,76658	14354
9,77072	15378
9,77483	14712
9,77895	14318
9,78308	16167
9,78720	16821
9,79132	17793
9,79545	21393
9,79957	27454
9,80368	37744
9,80782	51498
9,81193	73886
9,81605	105282
9,82018	146045
9,82430	201536
9,82842	276315
9,83253	356477
9,83667	460457
9,84078	574111
9,84490	695344
9,84903	806647
9,85315	933711
9,85727	1041958
9,86140	1130520
9,86552	1220982
9,86963	1276429
9,87377	1327442
9,87788	1362487
9,88200	1383352
9,88613	1371154
9,89025	1363897
9,89437	1326393
9,89850	1294432
9,90262	1263962
9,90673	1221604
9,91087	1153756
9,91498	1111924
9,91910	1057948
9,92322	990138
9,92735	946111
9,93147	889750
9,93558	832683
9,93972	765181
9,94383	715930
9,94795	659734
9,95208	614838
9,95620	561227
9,96032	518116
9,96445	473740
9,96857	431654
9,97268	393564
9,97682	359923
9,98093	326932
9,98505	301741
9,98918	274290
9,99330	248351
9,99742	228457
10,00155	212679
10,00567	195802
10,00978	180516
10,01390	165699
10,01803	153855
10,02215	138857
10,02627	131163
10,03040	120914
10,03452	114313
10,03863	106969
10,04277	101123
10,04688	94196
10,05100	87628
10,05513	83927
10,05925	81535
10,06337	76312
10,06750	71942
10,07162	68128
10,07573	66059
10,07987	63576
10,08398	59724
10,08810	57379
10,09223	54827
10,09635	52739
10,10047	51229
10,10458	48313
10,10872	45587
10,11283	45228
10,11695	43865
10,12108	41057
10,12520	40424
10,12932	40642
10,13345	38806
10,13757	36219
10,14168	36527
10,14582	34148
10,14993	33827
10,15405	34622
10,15818	32853
10,16230	31976
10,16642	31057
10,17055	31216
10,17467	29346
10,17878	30204
10,18292	29244
10,18703	27495
10,19115	28834
10,19527	28513
10,19940	27017
10,20352	26127
10,20763	28056
10,21177	25597
10,21588	25935
10,22000	26497
10,22413	26203
10,22825	26702
10,23237	25760
10,23650	26879
10,24062	26702
10,24473	26027
10,24887	26455
10,25298	24860
10,25710	25571
10,26123	25901
10,26535	23727
10,26947	26000
10,27360	24558
10,27772	26552
10,28183	24594
10,28595	23758
10,29008	24087
10,29420	21640
10,29832	22658
10,30245	22566
10,30657	23227
10,31068	21550
10,31482	22327
10,31893	21438
10,32305	19855
10,32718	21849
10,33130	20423
10,33542	21156
10,33955	19636
10,34367	21117
10,34778	19488
10,35192	18779
10,35603	17855
10,36015	18866
10,36428	18954
10,36840	18087
10,37252	18928
10,37663	17289
10,38077	17539
10,38488	18157
10,38900	15871
10,39313	17286
10,39725	17971
10,40137	17034
10,40550	15305
10,40962	16758
10,41373	15995
10,41787	16547
10,42198	15577
10,42610	16390
10,43023	15392
10,43435	15439
10,43847	14782
10,44260	15563
10,44672	15835
10,45083	14611
10,45497	15865
10,45908	14089
10,46320	15121
10,46732	13834
10,47145	15097
10,47557	14205
10,47968	14548
10,48382	14842
10,48793	15047
10,49205	16003
10,49618	15985
10,50030	15881
10,50442	15109
10,50855	14250
10,51267	14826
10,51678	14566
10,52092	14609
10,52503	14581
10,52915	15254
10,53328	16751
10,53740	15652
10,54152	15762
10,54565	14468
10,54977	14893
10,55388	14786
10,55800	14201
10,56213	16628
10,56625	15493
10,57037	15590
10,57450	15194
10,57862	14926
10,58273	15523
10,58687	15984
10,59098	16607
10,59510	16053
10,59923	14581
10,60335	15162
10,60747	15540
10,61160	14135
10,61572	14989
10,61983	15109
10,62397	13962
10,62808	14110
10,63220	13511
10,63633	13792
10,64045	13769
10,64457	14612
10,64868	13335
10,65282	14950
10,65693	12620
10,66105	14301
10,66518	13812
10,66930	14287
10,67342	12768
10,67755	13428
10,68167	12793
10,68578	14607
10,68992	14489
10,69403	13389
10,69815	12683
10,70228	13779
10,70640	13892
10,71052	13286
10,71465	12590
10,71877	13199
10,72288	11827
10,72702	11679
10,73113	13177
10,73525	13402
10,73937	13185
10,74350	12504
10,74762	12749
10,75173	11385
10,75587	12802
10,75998	12838
10,76410	11549
10,76823	11616
10,77235	12404
10,77647	11669
10,78060	11954
10,78472	12470
10,78883	11772
10,79297	12167
10,79708	11954
10,80120	11701
10,80533	13216
10,80945	12535
10,81357	13451
10,81770	16937
10,82182	18244
10,82593	22554
10,83005	29716
10,83418	37874
10,83830	53556
10,84242	70966
10,84655	92914
10,85067	119507
10,85478	153548
10,85892	196600
10,86303	242345
10,86715	292614
10,87128	346754
10,87540	396080
10,87952	452935
10,88365	495091
10,88777	537792
10,89188	580852
10,89602	613237
10,90013	629536
10,90425	643915
10,90838	649604
10,91250	649212
10,91662	638097
10,92073	628550
10,92487	619808
10,92898	590668
10,93310	563824
10,93723	541380
10,94135	519791
10,94547	487360
10,94960	460680
10,95372	432089
10,95783	402441
10,96197	375480
10,96608	351463
10,97020	319184
10,97433	297209
10,97845	281028
10,98257	253081
10,98670	234146
10,99082	212210
10,99493	197115
10,99907	180639
11,00318	163919
11,00730	150444
11,01142	139963
11,01555	127487
11,01967	118383
11,02378	109679
11,02792	100738
11,03203	92829
11,03615	86791
11,04028	83512
11,04440	77526
11,04852	71561
11,05265	64714
11,05677	62188
11,06088	59840
11,06502	56225
11,06913	51843
11,07325	51514
11,07738	45421
11,08150	44190
11,08562	43611
11,08975	39779
11,09387	41355
11,09798	39119
11,10210	36661
11,10623	35683
11,11035	35164
11,11447	33453
11,11860	30368
11,12272	31574
11,12683	27617
11,13097	28885
11,13508	30272
11,13920	26292
11,14333	25485
11,14745	26295
11,15157	26287
11,15570	25121
11,15982	24135
11,16393	23564
11,16807	22987
11,17218	22534
11,17630	22121
11,18043	21482
11,18455	20785
11,18867	21536
11,19278	20242
11,19692	19123
11,20103	18580
11,20515	20202
11,20928	18711
11,21340	19289
11,21752	19068
11,22165	17138
11,22577	16652
11,22988	19217
11,23402	20129
11,23813	22153
11,24225	24365
11,24638	29374
11,25050	38587
11,25462	51607
11,25875	68154
11,26287	90758
11,26698	118859
11,27112	157997
11,27523	199891
11,27935	246079
11,28347	301556
11,28760	362107
11,29172	417727
11,29583	482681
11,29997	536723
11,30408	585904
11,30820	628511
11,31233	675713
11,31645	701131
11,32057	721821
11,32470	736968
11,32882	744508
11,33293	738693
11,33707	727305
11,34118	700983
11,34530	684463
11,34943	662898
11,35355	629215
11,35767	594193
11,36180	565287
11,36592	530013
11,37003	492987
11,37415	460834
11,37828	423519
11,38240	393131
11,38652	363773
11,39065	330627
11,39477	296638
11,39888	275496
11,40302	252311
11,40713	226048
11,41125	207211
11,41538	187817
11,41950	171113
11,42362	154659
11,42775	141907
11,43187	131371
11,43598	119568
11,44012	110226
11,44423	101382
11,44835	94411
11,45248	87212
11,45660	81423
11,46072	74923
11,46485	69979
11,46897	66262
11,47308	61360
11,47720	58603
11,48133	55412
11,48545	53412
11,48957	50520
11,49370	49106
11,49782	43426
11,50193	43637
11,50607	41905
11,51018	39408
11,51430	38357
11,51843	36862
11,52255	33509
11,52667	33095
11,53080	33141
11,53492	32385
11,53903	32362
11,54317	29112
11,54728	30603
11,55140	27735
11,55553	28811
11,55965	25135
11,56377	27480
11,56788	24849
11,57202	25137
11,57613	24430
11,58025	23700
11,58438	22479
11,58850	23193
11,59262	22173
11,59675	21248
11,60087	21042
11,60498	21589
11,60912	21134
11,61323	19879
11,61735	21089
11,62148	20173
11,62560	18536
11,62972	18064
11,63385	18027
11,63797	17749
11,64208	18581
11,64622	18575
11,65033	18216
11,65445	17147
11,65857	16213
11,66270	15858
11,66682	15366
11,67093	16352
11,67507	16095
11,67918	16323
11,68330	16461
11,68743	15218
11,69155	14268
11,69567	14334
11,69980	14856
11,70392	12971
11,70803	14455
11,71217	14816
11,71628	14512
11,72040	14569
11,72453	14666
11,72865	13697
11,73277	12340
11,73690	12894
11,74102	13995
11,74513	12343
11,74925	13066
11,75338	12866
11,75750	12966
11,76162	12429
11,76575	12724
11,76987	13350
11,77398	12229
11,77812	12154
11,78223	13368
11,78635	13081
11,79048	12964
11,79460	11287
11,79872	12797
11,80285	12755
11,80697	10609
11,81108	11945
11,81522	12169
11,81933	11591
11,82345	11527
11,82758	10844
11,83170	11349
11,83582	12132
11,83993	11603
11,84407	10871
11,84818	10568
11,85230	12443
11,85643	11336
11,86055	11463
11,86467	12533
11,86880	11260
11,87292	11429
11,87703	12335
11,88117	11282
11,88528	11156
11,88940	11296
11,89353	10322
11,89765	11885
11,90177	10841
11,90590	10874
11,91002	11155
11,91413	11933
11,91827	10882
11,92238	10948
11,92650	10965
11,93062	11486
11,93475	10261
11,93887	10036
11,94298	11678
11,94712	10723
11,95123	10918
11,95535	10121
11,95948	10353
11,96360	10836
11,96772	10913
11,97185	10402
11,97597	10684
11,98008	11240
11,98422	11295
11,98833	11671
11,99245	10645
11,99658	10662
12,00070	9943
12,00482	11297
12,00895	10509
12,01307	10939
12,01718	10519
12,02130	10473
12,02543	11184
12,02955	11172
12,03367	9759
12,03780	10999
12,04192	9986
12,04603	10193
12,05017	10695
12,05428	10577
12,05840	10393
12,06253	9393
12,06665	10966
12,07077	11563
12,07490	11071
12,07902	10071
12,08313	11473
12,08727	10416
12,09138	11120
12,09550	10044
12,09963	10772
12,10375	8785
12,10787	11420
12,11198	11211
12,11612	10661
12,12023	10674
12,12435	9395
12,12848	10275
12,13260	10448
12,13672	10733
12,14085	9254
12,14497	10050
12,14908	9609
12,15322	10310
12,15733	10962
12,16145	9565
12,16558	9790
12,16970	9962
12,17382	9484
12,17795	10166
12,18207	9852
12,18618	8728
12,19032	8549
12,19443	9121
12,19855	9504
12,20267	9004
12,20680	9494
12,21092	10062
12,21503	8950
12,21917	10035
12,22328	9029
12,22740	10067
12,23153	10474
12,23565	10379
12,23977	9497
12,24390	8600
12,24802	9972
12,25213	10308
12,25627	9308
12,26038	9402
12,26450	9283
12,26863	11336
12,27275	10007
12,27687	8790
12,28100	9629
12,28512	9594
12,28923	9681
12,29335	9644
12,29748	9575
12,30160	10265
12,30572	9864
12,30985	9724
12,31397	10308
12,31808	9026
12,32222	8993
12,32633	9286
12,33045	9384
12,33458	9180
12,33870	9474
12,34282	8505
12,34695	9049
12,35107	10215
12,35518	9340
12,35932	10603
12,36343	10087
12,36755	11284
12,37168	10781
12,37580	13920
12,37992	17117
12,38403	22185
12,38817	28032
12,39228	37315
12,39640	51065
12,40053	67536
12,40465	89197
12,40877	121172
12,41290	154724
12,41702	197127
12,42113	243261
12,42527	298336
12,42938	353170
12,43350	407515
12,43763	461293
12,44175	516118
12,44587	562156
12,45000	609794
12,45412	648102
12,45823	672732
12,46237	696983
12,46648	706283
12,47060	704883
12,47472	692203
12,47885	686380
12,48297	669582
12,48708	644533
12,49122	609862
12,49533	582357
12,49945	546323
12,50358	512185
12,50770	484230
12,51182	441411
12,51595	410041
12,52007	376499
12,52418	349635
12,52832	312642
12,53243	287853
12,53655	263406
12,54068	240735
12,54480	221170
12,54892	198570
12,55305	178803
12,55717	163956
12,56128	148307
12,56540	137497
12,56953	125197
12,57365	114070
12,57777	105297
12,58190	100600
12,58602	91904
12,59013	85048
12,59427	80686
12,59838	75617
12,60250	67783
12,60663	63355
12,61075	60748
12,61487	57028
12,61900	54439
12,62312	50170
12,62723	47893
12,63137	49192
12,63548	45056
12,63960	42393
12,64373	39942
12,64785	38270
12,65197	38612
12,65608	36496
12,66022	33749
12,66433	32331
12,66845	31900
12,67258	30838
12,67670	28402
12,68082	27268
12,68495	30122
12,68907	26303
12,69318	25460
12,69732	26209
12,70143	23528
12,70555	23254
12,70968	22791
12,71380	22508
12,71792	22867
12,72205	21027
12,72617	20881
12,73028	19861
12,73442	18984
12,73853	20492
12,74265	18118
12,74677	18275
12,75090	17561
12,75502	18322
12,75913	17465
12,76327	17908
12,76738	17022
12,77150	16341
12,77563	15850
12,77975	15196
12,78387	16808
12,78800	15730
12,79212	16002
12,79623	15353
12,80037	15439
12,80448	14470
12,80860	14872
12,81273	15163
12,81685	16813
12,82097	17882
12,82510	19450
12,82922	24230
12,83333	31080
12,83745	41297
12,84158	57646
12,84570	84861
12,84982	113736
12,85395	159653
12,85807	219351
12,86218	299510
12,86632	394409
12,87043	505488
12,87455	637207
12,87868	800383
12,88280	969362
12,88692	1141304
12,89105	1333404
12,89517	1520425
12,89928	1706650
12,90342	1873456
12,90753	2049257
12,91165	2190913
12,91578	2306938
12,91990	2390635
12,92402	2448026
12,92813	2479657
12,93227	2460091
12,93638	2429099
12,94050	2358379
12,94463	2281873
12,94875	2169117
12,95287	2043113
12,95700	1912883
12,96112	1763703
12,96523	1624610
12,96937	1479845
12,97348	1350862
12,97760	1225064
12,98173	1131659
12,98585	1013140
12,98997	914816
12,99410	813523
12,99822	733998
13,00233	662121
13,00647	604285
13,01058	546092
13,01470	491570
13,01883	450354
13,02295	415783
13,02707	375019
13,03118	343469
13,03532	317324
13,03943	291654
13,04355	268959
13,04768	247681
13,05180	232892
13,05592	217517
13,06005	203984
13,06417	189975
13,06828	177390
13,07242	163868
13,07653	158737
13,08065	150536
13,08478	140978
13,08890	134117
13,09302	126409
13,09715	117854
13,10127	112585
13,10538	110895
13,10952	99507
13,11363	95217
13,11775	94446
13,12187	89643
13,12600	86437
13,13012	81682
13,13423	76325
13,13837	76370
13,14248	73885
13,14660	72513
13,15073	67392
13,15485	64545
13,15897	62977
13,16310	60536
13,16722	60075
13,17133	57249
13,17547	54508
13,17958	53302
13,18370	49748
13,18783	50942
13,19195	48144
13,19607	45601
13,20020	46568
13,20432	45099
13,20843	40686
13,21255	41915
13,21668	39845
13,22080	38630
13,22492	38225
13,22905	37794
13,23317	35792
13,23728	36148
13,24142	35120
13,24553	34064
13,24965	31944
13,25378	32785
13,25790	32319
13,26202	29775
13,26615	30806
13,27027	30388
13,27438	28904
13,27852	28838
13,28263	27373
13,28675	26673
13,29088	26209
13,29500	24524
13,29912	25433
13,30323	24899
13,30737	23548
13,31148	24908
13,31560	22865
13,31973	23136
13,32385	22894
13,32797	23186
13,33210	23110
13,33622	21093
13,34033	21059
13,34447	21595
13,34858	20672
13,35270	18942
13,35683	18676
13,36095	18948
13,36507	18899
13,36920	19330
13,37332	18246
13,37743	17629
13,38157	16800
13,38568	18285
13,38980	16318
13,39392	16100
13,39805	17047
13,40217	17122
13,40628	16958
13,41042	15569
13,41453	15133
13,41865	16070
13,42278	15733
13,42690	15460
13,43102	14843
13,43515	15155
13,43927	16928
13,44338	14375
13,44752	15168
13,45163	14416
13,45575	14908
13,45988	14747
13,46400	13339
13,46812	13519
13,47225	13685
13,47637	13016
13,48048	12574
13,48460	13691
13,48873	13826
13,49285	13076
13,49697	12446
13,50110	11722
13,50522	12640
13,50933	12564
13,51347	12124
13,51758	13319
13,52170	11935
13,52583	13307
13,52995	13839
13,53407	12766
13,53820	11726
13,54232	12455
13,54643	12261
13,55057	13803
13,55468	12606
13,55880	13063
13,56293	12493
13,56705	13653
13,57117	11908
13,57528	12827
13,57942	12368
13,58353	11630
13,58765	12881
13,59178	10818
13,59590	10941
13,60002	10974
13,60415	11239
13,60827	11527
13,61238	11765
13,61652	12580
13,62063	11783
13,62475	11469
13,62888	11364
13,63300	10306
13,63712	11565
13,64125	9970
13,64537	11041
13,64948	10188
13,65362	10430
13,65773	10358
13,66185	10924
13,66597	10194
13,67010	10366
13,67422	9632
13,67833	10519
13,68247	10389
13,68658	9886
13,69070	9985
13,69483	9141
13,69895	9355
13,70307	9937
13,70720	9656
13,71132	9993
13,71543	10933
13,71957	10260
13,72368	9977
13,72780	9371
13,73193	10758
13,73605	11663
13,74017	10992
13,74430	10955
13,74842	10772
13,75253	9844
13,75665	10296
13,76078	9961
13,76490	10363
13,76902	10014
13,77315	11360
13,77727	10292
13,78138	11176
13,78552	10661
13,78963	10065
13,79375	11618
13,79788	11904
13,80200	11692
13,80612	12805
13,81025	12765
13,81437	13311
13,81848	14612
13,82262	16124
13,82673	17678
13,83085	20230
13,83498	24284
13,83910	32022
13,84322	38609
13,84733	51360
13,85147	66302
13,85558	87796
13,85970	112108
13,86383	146036
13,86795	185751
13,87207	228420
13,87620	283363
13,88032	333322
13,88443	390429
13,88857	449830
13,89268	506794
13,89680	568011
13,90093	614298
13,90505	666337
13,90917	696815
13,91330	723354
13,91742	744801
13,92153	751645
13,92567	751001
13,92978	739256
13,93390	728982
13,93802	695976
13,94215	658889
13,94627	630877
13,95038	597212
13,95452	555111
13,95863	513283
13,96275	477584
13,96688	436847
13,97100	395778
13,97512	361790
13,97925	327414
13,98337	299733
13,98748	271797
13,99162	247542
13,99573	224898
13,99985	202946
14,00398	184115
14,00810	168206
14,01222	151670
14,01635	141783
14,02047	129901
14,02458	122868
14,02870	113928
14,03283	105110
14,03695	97188
14,04107	92055
14,04520	84143
14,04932	80264
14,05343	76309
14,05757	72683
14,06168	63770
14,06580	62588
14,06993	58425
14,07405	55965
14,07817	54944
14,08230	51689
14,08642	48391
14,09053	47501
14,09467	44812
14,09878	45023
14,10290	44642
14,10703	40635
14,11115	41247
14,11527	39273
14,11938	38835
14,12352	37739
14,12763	37356
14,13175	36006
14,13588	33777
14,14000	32139
14,14412	32362
14,14825	31230
14,15237	31582
14,15648	28628
14,16062	30264
14,16473	28436
14,16885	29563
14,17298	26274
14,17710	26324
14,18122	26071
14,18535	25576
14,18947	25335
14,19358	22679
14,19772	22430
14,20183	21138
14,20595	21977
14,21007	22708
14,21420	18703
14,21832	19501
14,22243	20849
14,22657	18582
14,23068	17477
14,23480	19027
14,23893	18266
14,24305	17514
14,24717	15606
14,25130	16373
14,25542	16627
14,25953	15162
14,26367	15495
14,26778	14306
14,27190	15004
14,27603	15466
14,28015	14019
14,28427	14375
14,28840	14421
14,29252	13703
14,29663	13696
14,30075	14242
14,30488	13126
14,30900	12838
14,31312	11515
14,31725	13246
14,32137	11859
14,32548	12357
14,32962	10656
14,33373	11659
14,33785	11733
14,34198	12134
14,34610	11507
14,35022	10605
14,35435	11576
14,35847	12177
14,36258	12011
14,36672	11532
14,37083	11397
14,37495	10987
14,37908	12043
14,38320	10739
14,38732	9582
14,39143	10677
14,39557	10028
14,39968	10565
14,40380	10220
14,40793	10237
14,41205	11406
14,41617	11016
14,42030	10460
14,42442	10403
14,42853	10736
14,43267	9129
14,43678	10401
14,44090	9318
14,44503	9975
14,44915	9278
14,45327	9363
14,45740	9179
14,46152	9921
14,46563	8394
14,46977	9948
14,47388	9037
14,47800	9187
14,48212	9389
14,48625	9345
14,49037	9421
14,49448	8919
14,49862	9105
14,50273	9242
14,50685	9514
14,51098	8684
14,51510	10071
14,51922	9722
14,52335	9806
14,52747	10625
14,53158	10421
14,53572	12200
14,53983	15020
14,54395	18420
14,54808	22909
14,55220	30296
14,55632	40983
14,56045	57368
14,56457	77796
14,56868	104685
14,57280	138365
14,57693	177216
14,58105	224821
14,58517	277981
14,58930	338586
14,59342	405096
14,59753	474563
14,60167	545800
14,60578	614836
14,60990	668846
14,61403	725977
14,61815	787636
14,62227	821752
14,62640	835688
14,63052	852807
14,63463	858869
14,63877	847651
14,64288	831249
14,64700	800014
14,65113	767344
14,65525	725556
14,65937	670788
14,66350	629904
14,66762	572633
14,67173	536854
14,67585	483507
14,67998	441714
14,68410	397858
14,68822	362573
14,69235	329163
14,69647	293829
14,70058	269964
14,70472	245690
14,70883	220668
14,71295	202839
14,71708	184119
14,72120	166143
14,72532	153937
14,72945	142742
14,73357	126212
14,73768	121991
14,74182	110301
14,74593	100649
14,75005	95438
14,75418	90042
14,75830	82318
14,76242	77373
14,76653	72408
14,77067	67802
14,77478	64859
14,77890	62431
14,78303	59899
14,78715	56241
14,79127	53842
14,79540	51092
14,79952	49508
14,80363	44770
14,80777	45086
14,81188	43182
14,81600	40911
14,82013	38605
14,82425	37778
14,82837	37498
14,83250	36270
14,83662	33315
14,84073	31855
14,84487	32418
14,84898	32834
14,85310	29207
14,85722	28205
14,86135	28342
14,86547	27551
14,86958	26442
14,87372	25918
14,87783	24634
14,88195	23678
14,88608	24422
14,89020	21463
14,89432	22047
14,89845	21811
14,90257	22199
14,90668	20841
14,91082	19757
14,91493	20382
14,91905	19295
14,92318	19623
14,92730	18912
14,93142	18714
14,93555	17304
14,93967	17075
14,94378	17296
14,94790	17740
14,95203	16631
14,95615	17048
14,96027	16813
14,96440	15666
14,96852	15650
14,97263	14072
14,97677	14798
14,98088	15497
14,98500	14751
14,98913	14648
14,99325	13911
14,99737	13180
15,00150	13249
15,00562	12683
15,00973	12981
15,01387	12344
15,01798	11660
15,02210	12738
15,02623	12727
15,03035	11383
15,03447	12801
15,03858	11797
15,04272	11693
15,04683	11464
15,05095	11139
15,05508	12811
15,05920	11682
15,06332	10045
15,06745	11568
15,07157	11763
15,07568	9382
15,07982	11000
15,08393	11592
15,08805	10181
15,09218	10166
15,09630	10690
15,10042	9448
15,10455	11204
15,10867	9837
15,11278	9959
15,11692	10317
15,12103	8986
15,12515	10013
15,12927	9434
15,13340	8616
15,13752	8900
15,14163	9777
15,14577	9262
15,14988	10141
15,15400	8345
15,15813	9315
15,16225	8779
15,16637	9055
15,17050	8616
15,17462	8107
15,17873	8877
15,18287	8161
15,18698	8637
15,19110	8565
15,19523	8516
15,19935	9215
15,20347	8041
15,20760	9207
15,21172	9239
15,21583	7670
15,21995	8627
15,22408	8928
15,22820	8197
15,23232	9263
15,23645	8393
15,24057	9407
15,24468	8386
15,24882	7435
15,25293	9239
15,25705	8798
15,26118	8205
15,26530	9065
15,26942	8223
15,27355	8271
15,27767	8071
15,28178	8472
15,28592	8576
15,29003	8028
15,29415	7416
15,29828	8798
15,30240	8769
15,30652	8206
15,31063	7920
15,31477	8382
15,31888	9280
15,32300	8153
15,32713	8260
15,33125	8209
15,33537	7526
15,33950	7338
15,34362	7540
15,34773	8358
15,35187	7969
15,35598	8287
15,36010	9534
15,36423	7947
15,36835	6593
15,37247	7831
15,37660	7689
15,38072	7785
15,38483	7598
15,38897	9451
15,39308	6516
15,39720	8716
15,40132	8120
15,40545	7101
15,40957	6850
15,41368	7852
15,41782	8049
15,42193	7635
15,42605	7230
15,43018	7489
15,43430	7123
15,43842	6575
15,44255	7147
15,44667	6535
15,45078	6751
15,45492	6539
15,45903	7519
15,46315	6718
15,46728	7338
15,47140	6863
15,47552	7179
15,47965	7601
15,48377	7157
15,48788	7353
15,49200	7361
15,49613	6708
15,50025	6753
15,50437	7311
15,50850	7639
15,51262	6257
15,51673	6389
15,52087	7114
15,52498	6851
15,52910	6803
15,53323	7219
15,53735	6637
15,54147	6753
15,54560	6591
15,54972	7025
15,55383	6569
15,55797	7836
15,56208	7989
15,56620	8490
15,57033	8981
15,57445	9294
15,57857	10264
15,58268	11026
15,58682	16598
15,59093	22362
15,59505	27253
15,59918	40883
15,60330	51641
15,60742	71025
15,61155	93474
15,61567	125983
15,61978	159739
15,62392	208686
15,62803	255371
15,63215	309088
15,63628	369572
15,64040	428198
15,64452	502191
15,64865	558220
15,65277	628478
15,65688	680327
15,66102	727404
15,66513	764032
15,66925	796151
15,67337	805279
15,67750	808810
15,68162	802604
15,68573	780036
15,68987	758512
15,69398	720558
15,69810	698019
15,70223	658293
15,70635	600430
15,71047	557823
15,71460	512676
15,71872	471370
15,72283	433082
15,72697	397045
15,73108	356387
15,73520	326049
15,73933	293435
15,74345	270732
15,74757	248357
15,75170	223519
15,75582	202520
15,75993	188429
15,76405	170524
15,76818	157490
15,77230	146702
15,77642	137478
15,78055	125975
15,78467	118730
15,78878	112890
15,79292	105204
15,79703	100520
15,80115	96180
15,80528	90956
15,80940	86464
15,81352	82104
15,81765	79327
15,82177	76347
15,82588	73174
15,83002	70075
15,83413	64610
15,83825	64781
15,84238	63625
15,84650	59667
15,85062	55729
15,85473	54391
15,85887	52856
15,86298	49388
15,86710	46775
15,87123	44493
15,87535	41910
15,87947	42040
15,88360	39286
15,88772	38011
15,89183	35494
15,89597	33105
15,90008	33444
15,90420	31571
15,90833	31479
15,91245	29041
15,91657	29375
15,92070	28778
15,92482	28411
15,92893	27835
15,93307	24474
15,93718	24458
15,94130	22836
15,94542	22364
15,94955	21748
15,95367	21183
15,95778	22670
15,96192	20323
15,96603	21076
15,97015	19291
15,97428	19057
15,97840	18376
15,98252	18022
15,98665	17493
15,99077	17445
15,99488	17628
15,99902	15814
16,00313	15136
16,00725	14043
16,01138	15642
16,01550	15757
16,01962	13227
16,02375	14477
16,02787	15281
16,03198	14333
16,03610	14591
16,04023	13513
16,04435	14281
16,04847	12363
16,05260	13190
16,05672	11912
16,06083	12523
16,06497	14097
16,06908	12104
16,07320	10615
16,07733	11623
16,08145	11299
16,08557	11906
16,08970	9905
16,09382	11985
16,09793	11843
16,10207	10707
16,10618	10590
16,11030	11203
16,11443	11914
16,11855	11106
16,12267	11798
16,12678	9988
16,13092	9450
16,13503	9493
16,13915	10461
16,14328	9799
16,14740	10563
16,15152	9535
16,15565	9704
16,15977	10271
16,16388	9469
16,16802	8882
16,17213	9571
16,17625	9198
16,18038	8838
16,18450	9693
16,18862	8378
16,19275	9236
16,19687	9797
16,20098	9158
16,20512	9583
16,20923	8980
16,21335	9391
16,21747	9007
16,22160	9629
16,22572	9484
16,22983	9384
16,23397	9064
16,23808	10119
16,24220	10549
16,24633	8949
16,25045	8834
16,25457	7761
16,25870	8708
16,26282	8668
16,26693	9583
16,27107	9170
16,27518	8747
16,27930	8387
16,28343	8367
16,28755	9758
16,29167	9600
16,29580	8117
16,29992	9034
16,30403	9326
16,30817	10847
16,31228	11654
16,31640	14569
16,32052	17742
16,32465	22621
16,32877	33239
16,33288	45754
16,33702	64045
16,34113	86022
16,34525	116464
16,34938	159169
16,35350	215430
16,35762	276739
16,36175	360284
16,36587	454094
16,36998	551717
16,37412	667537
16,37823	794951
16,38235	927633
16,38648	1068687
16,39060	1226032
16,39472	1359665
16,39885	1493379
16,40297	1626129
16,40708	1744803
16,41120	1839386
16,41533	1879733
16,41945	1898104
16,42357	1902356
16,42770	1877316
16,43182	1811349
16,43593	1737412
16,44007	1640471
16,44418	1532354
16,44830	1429172
16,45243	1313671
16,45655	1187479
16,46067	1081633
16,46480	979841
16,46892	887579
16,47303	807951
16,47717	724009
16,48128	651026
16,48540	584881
16,48953	538248
16,49365	480693
16,49777	437999
16,50188	402432
16,50602	372574
16,51013	335776
16,51425	311184
16,51838	279481
16,52250	262295
16,52662	243268
16,53075	227628
16,53487	211207
16,53898	196508
16,54312	184540
16,54723	170330
16,55135	159423
16,55548	149143
16,55960	142780
16,56372	132983
16,56785	124848
16,57197	118234
16,57608	113770
16,58022	106736
16,58433	101838
16,58845	97023
16,59257	92079
16,59670	90554
16,60082	86924
16,60493	79004
16,60907	78928
16,61318	72796
16,61730	69788
16,62143	68951
16,62555	63536
16,62967	63518
16,63380	57764
16,63792	57335
16,64203	56317
16,64617	54384
16,65028	50607
16,65440	50188
16,65853	49165
16,66265	46036
16,66677	47084
16,67090	43150
16,67502	43609
16,67913	42067
16,68325	39576
16,68738	39336
16,69150	35816
16,69562	34549
16,69975	35843
16,70387	34142
16,70798	33829
16,71212	32503
16,71623	33151
16,72035	32208
16,72448	30933
16,72860	29291
16,73272	27851
16,73685	27796
16,74097	27700
16,74508	24650
16,74922	26009
16,75333	24182
16,75745	24350
16,76158	25231
16,76570	23364
16,76982	23891
16,77393	23169
16,77807	21144
16,78218	20785
16,78630	21978
16,79043	20926
16,79455	20320
16,79867	20059
16,80280	18869
16,80692	19045
16,81103	18860
16,81517	19036
16,81928	17047
16,82340	18178
16,82753	17017
16,83165	16948
16,83577	16874
16,83990	16911
16,84402	17758
16,84813	16552
16,85227	15497
16,85638	15829
16,86050	15125
16,86462	15307
16,86875	15071
16,87287	15111
16,87698	13794
16,88112	14375
16,88523	14054
16,88935	11699
16,89348	14119
16,89760	13728
16,90172	12402
16,90585	14181
16,90997	13053
16,91408	11615
16,91822	14391
16,92233	13899
16,92645	14319
16,93058	16900
16,93470	18117
16,93882	21692
16,94295	26536
16,94707	32427
16,95118	41625
16,95530	57462
16,95943	76683
16,96355	95256
16,96767	130324
16,97180	165843
16,97592	211261
16,98003	265645
16,98417	318291
16,98828	382738
16,99240	451592
16,99653	517146
17,00065	586714
17,00477	648454
17,00890	719587
17,01302	764731
17,01713	807026
17,02127	847748
17,02538	867812
17,02950	867146
17,03363	867555
17,03775	843060
17,04187	817261
17,04598	785547
17,05012	745035
17,05423	705851
17,05835	664481
17,06248	604853
17,06660	565314
17,07072	517556
17,07485	465409
17,07897	427090
17,08308	391604
17,08722	355643
17,09133	320750
17,09545	289592
17,09958	267949
17,10370	239591
17,10782	220083
17,11195	199476
17,11607	186672
17,12018	171356
17,12432	159866
17,12843	145986
17,13255	135555
17,13667	126775
17,14080	118475
17,14492	111632
17,14903	100946
17,15317	96681
17,15728	88151
17,16140	85403
17,16553	79076
17,16965	76240
17,17377	72961
17,17790	68202
17,18202	66160
17,18613	62068
17,19027	60892
17,19438	55232
17,19850	53583
17,20263	49235
17,20675	50057
17,21087	48358
17,21500	48259
17,21912	44169
17,22323	44247
17,22735	42870
17,23148	47320
17,23560	49230
17,23972	55947
17,24385	62283
17,24797	74731
17,25208	91562
17,25622	115527
17,26033	147292
17,26445	190345
17,26858	239939
17,27270	303494
17,27682	383404
17,28095	465264
17,28507	571056
17,28918	688819
17,29332	813113
17,29743	958384
17,30155	1093874
17,30568	1225614
17,30980	1353215
17,31392	1492249
17,31803	1596940
17,32217	1687405
17,32628	1744356
17,33040	1795102
17,33453	1804874
17,33865	1783593
17,34277	1734225
17,34690	1695747
17,35102	1612200
17,35513	1529852
17,35927	1413670
17,36338	1323764
17,36750	1198104
17,37163	1099032
17,37575	1012190
17,37987	913319
17,38400	832320
17,38812	752910
17,39223	685918
17,39637	618452
17,40048	558349
17,40460	513913
17,40872	464449
17,41285	419545
17,41697	390627
17,42108	360112
17,42522	330397
17,42933	307077
17,43345	277888
17,43758	261862
17,44170	243932
17,44582	225503
17,44995	212730
17,45407	195776
17,45818	184480
17,46232	175720
17,46643	162583
17,47055	157198
17,47468	145335
17,47880	142322
17,48292	133056
17,48705	127491
17,49117	118239
17,49528	112994
17,49940	106655
17,50353	103821
17,50765	99094
17,51177	91195
17,51590	90398
17,52002	87390
17,52413	82796
17,52827	77244
17,53238	77180
17,53650	74136
17,54063	69170
17,54475	66505
17,54887	64095
17,55300	62588
17,55712	59508
17,56123	59196
17,56537	55671
17,56948	56955
17,57360	53273
17,57773	50552
17,58185	49627
17,58597	48370
17,59008	45803
17,59422	44461
17,59833	43230
17,60245	40846
17,60658	41549
17,61070	40208
17,61482	39897
17,61895	36701
17,62307	38446
17,62718	38610
17,63132	34798
17,63543	33206
17,63955	33554
17,64368	31791
17,64780	31520
17,65192	32281
17,65605	30877
17,66017	29183
17,66428	28979
17,66842	27386
17,67253	27402
17,67665	27731
17,68077	26911
17,68490	25379
17,68902	24298
17,69313	25253
17,69727	26311
17,70138	24807
17,70550	23799
17,70963	24804
17,71375	21884
17,71787	21491
17,72200	22013
17,72612	23038
17,73023	19265
17,73437	21306
17,73848	21231
17,74260	20175
17,74673	20084
17,75085	19900
17,75497	19823
17,75910	19344
17,76322	18497
17,76733	19744
17,77145	18004
17,77558	19161
17,77970	18982
17,78382	18355
17,78795	17953
17,79207	17804
17,79618	17772
17,80032	16662
17,80443	17293
17,80855	15886
17,81268	15463
17,81680	17002
17,82092	16685
17,82505	15627
17,82917	15261
17,83328	14614
17,83742	15305
17,84153	15254
17,84565	13877
17,84978	14673
17,85390	15537
17,85802	13585
17,86213	14522
17,86627	12607
17,87038	14799
17,87450	12404
17,87863	12716
17,88275	12193
17,88687	12365
17,89100	11549
17,89512	12400
17,89923	13126
17,90337	11298
17,90748	13249
17,91160	12228
17,91573	10812
17,91985	11454
17,92397	13372
17,92810	11664
17,93222	11582
17,93633	11911
17,94047	12471
17,94458	12573
17,94870	11611
17,95282	11940
17,95695	12267
17,96107	13158
17,96518	12509
17,96932	11918
17,97343	11326
17,97755	11791
17,98168	12613
17,98580	12199
17,98992	12677
17,99405	11652
17,99817	13898
18,00228	14790
18,00642	17583
18,01053	19646
18,01465	24933
18,01878	33111
18,02290	44194
18,02702	55154
18,03115	73493
18,03527	95961
18,03938	122241
18,04352	158639
18,04763	201875
18,05175	246835
18,05587	305024
18,06000	359775
18,06412	419390
18,06823	482098
18,07237	545220
18,07648	605885
18,08060	655634
18,08473	710209
18,08885	740792
18,09297	763571
18,09710	779189
18,10122	778914
18,10533	759443
18,10947	748550
18,11358	718675
18,11770	686488
18,12183	643119
18,12595	613376
18,13007	564276
18,13420	528209
18,13832	486531
18,14243	453399
18,14655	425446
18,15068	402858
18,15480	385715
18,15892	368582
18,16305	373513
18,16717	383418
18,17128	409698
18,17542	442608
18,17953	492813
18,18365	556604
18,18778	634078
18,19190	723939
18,19602	823256
18,20015	952500
18,20427	1070317
18,20838	1205910
18,21252	1349406
18,21663	1477820
18,22075	1607092
18,22488	1713938
18,22900	1814716
18,23312	1904938
18,23723	1957292
18,24137	1961591
18,24548	1947273
18,24960	1918237
18,25373	1858768
18,25785	1757528
18,26197	1658547
18,26610	1545566
18,27022	1437104
18,27433	1308309
18,27847	1199802
18,28258	1088113
18,28670	984926
18,29083	884427
18,29495	807888
18,29907	731402
18,30320	652609
18,30732	592577
18,31143	540404
18,31557	498293
18,31968	454785
18,32380	417768
18,32792	388562
18,33205	356011
18,33617	329169
18,34028	302632
18,34442	284941
18,34853	267365
18,35265	245789
18,35678	232259
18,36090	217338
18,36502	202549
18,36915	194172
18,37327	182289
18,37738	172027
18,38152	162876
18,38563	152795
18,38975	147648
18,39388	138492
18,39800	133555
18,40212	127830
18,40625	121882
18,41037	115956
18,41448	113453
18,41860	105896
18,42273	103804
18,42685	98088
18,43097	92806
18,43510	89163
18,43922	87301
18,44333	83114
18,44747	82134
18,45158	76929
18,45570	76303
18,45983	71162
18,46395	68346
18,46807	67094
18,47220	65634
18,47632	66246
18,48043	61475
18,48457	59342
18,48868	54991
18,49280	55648
18,49693	53295
18,50105	49463
18,50517	52228
18,50928	47680
18,51342	47749
18,51753	44605
18,52165	47413
18,52578	45342
18,52990	44065
18,53402	41858
18,53815	40976
18,54227	38806
18,54638	40048
18,55052	37964
18,55463	39245
18,55875	35596
18,56288	33941
18,56700	35669
18,57112	35113
18,57525	31749
18,57937	31174
18,58348	31978
18,58762	32220
18,59173	31470
18,59585	30615
18,59997	31576
18,60410	29743
18,60822	28022
18,61233	27888
18,61647	27614
18,62058	26212
18,62470	28166
18,62883	28058
18,63295	26203
18,63707	25930
18,64120	25568
18,64532	25559
18,64943	25126
18,65357	23840
18,65768	23906
18,66180	23035
18,66593	22551
18,67005	20595
18,67417	21725
18,67830	20639
18,68242	19426
18,68653	21496
18,69065	19137
18,69478	21505
18,69890	20973
18,70302	23223
18,70715	26698
18,71127	28316
18,71538	35661
18,71952	43687
18,72363	54352
18,72775	69729
18,73188	82983
18,73600	111387
18,74012	141507
18,74425	173635
18,74837	220584
18,75248	268737
18,75662	319765
18,76073	368384
18,76485	427627
18,76898	487603
18,77310	547515
18,77722	602890
18,78133	647629
18,78547	684913
18,78958	719981
18,79370	736343
18,79783	744848
18,80195	742245
18,80607	733773
18,81020	713126
18,81432	690562
18,81843	668594
18,82257	626509
18,82668	583613
18,83080	543536
18,83493	502342
18,83905	465483
18,84317	426139
18,84730	390203
18,85142	348970
18,85553	325657
18,85967	296242
18,86378	272432
18,86790	249745
18,87202	224124
18,87615	205902
18,88027	191405
18,88438	178124
18,88852	163227
18,89263	150439
18,89675	138942
18,90088	132065
18,90500	121858
18,90912	111523
18,91325	104223
18,91737	99782
18,92148	94942
18,92562	87089
18,92973	83169
18,93385	78405
18,93798	73832
18,94210	67749
18,94622	66215
18,95035	62942
18,95447	60903
18,95858	55723
18,96270	55792
18,96683	52506
18,97095	49985
18,97507	48309
18,97920	46772
18,98332	45565
18,98743	43528
18,99157	40679
18,99568	38917
18,99980	38905
19,00393	37191
19,00805	38198
19,01217	36478
19,01630	33394
19,02042	33240
19,02453	32129
19,02867	31087
19,03278	28850
19,03690	30710
19,04103	29637
19,04515	27305
19,04927	26337
19,05338	25458
19,05752	25738
19,06163	24862
19,06575	25855
19,06988	25012
19,07400	24356
19,07812	22018
19,08225	21936
19,08637	21224
19,09048	22140
19,09462	22322
19,09873	21322
19,10285	21960
19,10698	19394
19,11110	19770
19,11522	20992
19,11935	20537
19,12347	20431
19,12758	18931
19,13172	18473
19,13583	18084
19,13995	19246
19,14407	18530
19,14820	16165
19,15232	16271
19,15643	17781
19,16057	19057
19,16468	16644
19,16880	16420
19,17293	15817
19,17705	17134
19,18117	15772
19,18530	15437
19,18942	14648
19,19353	14432
19,19767	15795
19,20178	14722
19,20590	14934
19,21003	14343
19,21415	13654
19,21827	14443
19,22240	12724
19,22652	11920
19,23063	12733
19,23475	12862
19,23888	12152
19,24300	11595
19,24712	11427
19,25125	12004
19,25537	13274
19,25948	12097
19,26362	13366
19,26773	11387
19,27185	9948
19,27598	11571
19,28010	11987
19,28422	12137
19,28835	11112
19,29247	12105
19,29658	11851
19,30072	11766
19,30483	11679
19,30895	11232
19,31308	10873
19,31720	11799
19,32132	10540
19,32543	10050
19,32957	11623
19,33368	9814
19,33780	9657
19,34193	11269
19,34605	9336
19,35017	10527
19,35430	10794
19,35842	8703
19,36253	9574
19,36667	9273
19,37078	9566
19,37490	9825
19,37903	9936
19,38315	8952
19,38727	8945
19,39140	9405
19,39552	9473
19,39963	8976
19,40377	9283
19,40788	8016
19,41200	7416
19,41612	8544
19,42025	9863
19,42437	9858
19,42848	8683
19,43262	7916
19,43673	8059
19,44085	9848
19,44498	9952
19,44910	7913
19,45322	8678
19,45735	8143
19,46147	7287
19,46558	8209
19,46972	7916
19,47383	7837
19,47795	8439
19,48208	7964
19,48620	7646
19,49032	6758
19,49445	7988
19,49857	7621
19,50268	7869
19,50680	6996
19,51093	8557
19,51505	8394
19,51917	7680
19,52330	8817
19,52742	7610
19,53153	8604
19,53567	8086
19,53978	6635
19,54390	7105
19,54803	7365
19,55215	9020
19,55627	7684
19,56040	7927
19,56452	7351
19,56863	6999
19,57277	7353
19,57688	7717
19,58100	7256
19,58513	9337
19,58925	7519
19,59337	7315
19,59750	8086
19,60162	7454
19,60573	8621
19,60985	6734
19,61398	7121
19,61810	8047
19,62222	6745
19,62635	5909
19,63047	7101
19,63458	7147
19,63872	5930
19,64283	7909
19,64695	7686
19,65108	7238
19,65520	7395
19,65932	7421
19,66345	7911
19,66757	7062
19,67168	8076
19,67582	6849
19,67993	7359
19,68405	6486
19,68818	8117
19,69230	7197
19,69642	6337
19,70053	7371
19,70467	6808
19,70878	6704
19,71290	6733
19,71703	6862
19,72115	7070
19,72527	7822
19,72940	7742
19,73352	8026
19,73763	8279
19,74177	10697
19,74588	12278
19,75000	13229
19,75413	17954
19,75825	23197
19,76237	26817
19,76650	38192
19,77062	51824
19,77473	69973
19,77887	87504
19,78298	112497
19,78710	146680
19,79122	180808
19,79535	222325
19,79947	271803
19,80358	325687
19,80772	372391
19,81183	420385
19,81595	484285
19,82008	521028
19,82420	566347
19,82832	592933
19,83245	635196
19,83657	645567
19,84068	647591
19,84482	653254
19,84893	641599
19,85305	617005
19,85718	606799
19,86130	576226
19,86542	548491
19,86955	511918
19,87367	483339
19,87778	445924
19,88190	411838
19,88603	374421
19,89015	348272
19,89427	313525
19,89840	288945
19,90252	263412
19,90663	242113
19,91077	216213
19,91488	200107
19,91900	183639
19,92313	170549
19,92725	157090
19,93137	143186
19,93550	133448
19,93962	122171
19,94373	114481
19,94787	106343
19,95198	99964
19,95610	96147
19,96023	89820
19,96435	87187
19,96847	89520
19,97258	85969
19,97672	92776
19,98083	97864
19,98495	109176
19,98908	124731
19,99320	147573
19,99732	175754
20,00145	218257
20,00557	267813
20,00968	328633
20,01382	392981
20,01793	474540
20,02205	585826
20,02618	683144
20,03030	813813
20,03442	944534
20,03855	1086639
20,04267	1235965
20,04678	1384492
20,05092	1551968
20,05503	1687729
20,05915	1831990
20,06327	1926453
20,06740	2037046
20,07152	2095179
20,07563	2124627
20,07977	2116911
20,08388	2056065
20,08800	1993881
20,09213	1899219
20,09625	1765545
20,10037	1641668
20,10450	1525120
20,10862	1392677
20,11273	1275281
20,11687	1148979
20,12098	1039347
20,12510	953586
20,12923	856830
20,13335	776232
20,13747	704856
20,14160	639885
20,14572	580099
20,14983	534221
20,15395	492777
20,15808	453201
20,16220	419643
20,16632	380948
20,17045	353001
20,17457	322531
20,17868	307911
20,18282	284827
20,18693	267888
20,19105	253964
20,19518	236917
20,19930	218734
20,20342	207395
20,20755	199441
20,21167	185248
20,21578	178558
20,21992	162807
20,22403	158188
20,22815	151915
20,23228	145685
20,23640	137670
20,24052	132356
20,24463	122881
20,24877	116511
20,25288	114002
20,25700	109288
20,26113	104095
20,26525	98233
20,26937	96594
20,27350	92857
20,27762	87482
20,28173	85305
20,28587	80569
20,28998	81536
20,29410	76641
20,29823	75064
20,30235	72783
20,30647	70254
20,31060	67211
20,31472	65658
20,31883	64496
20,32297	59022
20,32708	58873
20,33120	60202
20,33532	55924
20,33945	54299
20,34357	51277
20,34768	49413
20,35182	49194
20,35593	47362
20,36005	47164
20,36418	44773
20,36830	43331
20,37242	43465
20,37655	41696
20,38067	41158
20,38478	39508
20,38892	40446
20,39303	36799
20,39715	36784
20,40128	34222
20,40540	34642
20,40952	34570
20,41365	32657
20,41777	32597
20,42188	32072
20,42600	33655
20,43013	33426
20,43425	32602
20,43837	35134
20,44250	32499
20,44662	39268
20,45073	41682
20,45487	48722
20,45898	59989
20,46310	70922
20,46723	85520
20,47135	106871
20,47547	132961
20,47960	162870
20,48372	197916
20,48783	238917
20,49197	279714
20,49608	338109
20,50020	376753
20,50433	437570
20,50845	473045
20,51257	524555
20,51668	560690
20,52082	595612
20,52493	633312
20,52905	647340
20,53318	654359
20,53730	652856
20,54142	644090
20,54555	614904
20,54967	595013
20,55378	563336
20,55792	546880
20,56203	508544
20,56615	476785
20,57028	438387
20,57440	405205
20,57852	374367
20,58265	341630
20,58677	312668
20,59088	286779
20,59502	266787
20,59913	242525
20,60325	221016
20,60737	203402
20,61150	186795
20,61562	171313
20,61973	158199
20,62387	148998
20,62798	134983
20,63210	131801
20,63623	120488
20,64035	114746
20,64447	105653
20,64860	97152
20,65272	96886
20,65683	89185
20,66097	84406
20,66508	78813
20,66920	76924
20,67333	73383
20,67745	70210
20,68157	65192
20,68570	61996
20,68982	60838
20,69393	58215
20,69805	55825
20,70218	52574
20,70630	50254
20,71042	48927
20,71455	48480
20,71867	45664
20,72278	44190
20,72692	43245
20,73103	42749
20,73515	37605
20,73928	39695
20,74340	37424
20,74752	36682
20,75165	34832
20,75577	34519
20,75988	34766
20,76402	32024
20,76813	29914
20,77225	28641
20,77638	28723
20,78050	27245
20,78462	25798
20,78873	29048
20,79287	25624
20,79698	25097
20,80110	25695
20,80523	24005
20,80935	25427
20,81347	23025
20,81760	22808
20,82172	21830
20,82583	22133
20,82997	20860
20,83408	21927
20,83820	20762
20,84233	19751
20,84645	20254
20,85057	20073
20,85470	18783
20,85882	19708
20,86293	19304
20,86707	19871
20,87118	20598
20,87530	22559
20,87942	24409
20,88355	27430
20,88767	34697
20,89178	39285
20,89592	51340
20,90003	61892
20,90415	78761
20,90828	104542
20,91240	130739
20,91652	168994
20,92065	213374
20,92477	265425
20,92888	322554
20,93302	387949
20,93713	451904
20,94125	532965
20,94538	612351
20,94950	681130
20,95362	745166
20,95775	817187
20,96187	859230
20,96598	893401
20,97010	920393
20,97423	927695
20,97835	931377
20,98247	906561
20,98660	890104
20,99072	842977
20,99483	809500
20,99897	764992
21,00308	713096
21,00720	652814
21,01133	602053
21,01545	554195
21,01957	515496
21,02370	463674
21,02782	432898
21,03193	386146
21,03607	354509
21,04018	321375
21,04430	296003
21,04843	274739
21,05255	250533
21,05667	229675
21,06078	211106
21,06492	200432
21,06903	183253
21,07315	173939
21,07728	160128
21,08140	149354
21,08552	144354
21,08965	134740
21,09377	125666
21,09788	116280
21,10202	108698
21,10613	102718
21,11025	101179
21,11438	93559
21,11850	88665
21,12262	82213
21,12675	80646
21,13087	76534
21,13498	73139
21,13912	68551
21,14323	69337
21,14735	63956
21,15148	62309
21,15560	63213
21,15972	60266
21,16383	53681
21,16797	52490
21,17208	50179
21,17620	49427
21,18033	45939
21,18445	46072
21,18857	43382
21,19270	42227
21,19682	41099
21,20093	41930
21,20507	37938
21,20918	38010
21,21330	35802
21,21743	34178
21,22155	34004
21,22567	33135
21,22980	33153
21,23392	31661
21,23803	31215
21,24217	30751
21,24628	28548
21,25040	30250
21,25452	26161
21,25865	26073
21,26277	26533
21,26688	26600
21,27102	23283
21,27513	24323
21,27925	23656
21,28338	22214
21,28750	22499
21,29162	23458
21,29575	22274
21,29987	21030
21,30398	21039
21,30812	21760
21,31223	21020
21,31635	19025
21,32048	19346
21,32460	17710
21,32872	16689
21,33285	19090
21,33697	18484
21,34108	17803
21,34520	17728
21,34933	17069
21,35345	16937
21,35757	17004
21,36170	17143
21,36582	15569
21,36993	15967
21,37407	15677
21,37818	15080
21,38230	16624
21,38643	14478
21,39055	14851
21,39467	14724
21,39880	14800
21,40292	14181
21,40703	13798
21,41117	12741
21,41528	14762
21,41940	12812
21,42353	13291
21,42765	12485
21,43177	13150
21,43588	10550
21,44002	13211
21,44413	12143
21,44825	11718
21,45238	11854
21,45650	11464
21,46062	12848
21,46475	12649
21,46887	11346
21,47298	12383
21,47712	11262
21,48123	11250
21,48535	11089
21,48948	10586
21,49360	12299
21,49772	11918
21,50185	11159
21,50597	10621
21,51008	10913
21,51422	10928
21,51833	11094
21,52245	10378
21,52657	11143
21,53070	11395
21,53482	11389
21,53893	10798
21,54307	9783
21,54718	10475
21,55130	9581
21,55543	9623
21,55955	10565
21,56367	9288
21,56780	10008
21,57192	9637
21,57603	9190
21,58017	10624
21,58428	10241
21,58840	10933
21,59253	10654
21,59665	9395
21,60077	10983
21,60490	9320
21,60902	8263
21,61313	9916
21,61725	9776
21,62138	9517
21,62550	8832
21,62962	9406
21,63375	9483
21,63787	9863
21,64198	8870
21,64612	8860
21,65023	10524
21,65435	10569
21,65848	9078
21,66260	8466
21,66672	10455
21,67085	9204
21,67497	8908
21,67908	9647
21,68322	9461
21,68733	9980
21,69145	9274
21,69558	9806
21,69970	8496
21,70382	8623
21,70793	8504
21,71207	8575
21,71618	8648
21,72030	8184
21,72443	9890
21,72855	10141
21,73267	9370
21,73680	8268
21,74092	8248
21,74503	8807
21,74917	9847
21,75328	8735
21,75740	10024
21,76153	9701
21,76565	9454
21,76977	11072
21,77390	9656
21,77802	10377
21,78213	12695
21,78627	13297
21,79038	13824
21,79450	19377
21,79862	21939
21,80275	28451
21,80687	39606
21,81098	49360
21,81512	66462
21,81923	88873
21,82335	114969
21,82748	150701
21,83160	199354
21,83572	247355
21,83985	307945
21,84397	372452
21,84808	457026
21,85222	531792
21,85633	612704
21,86045	700347
21,86458	784977
21,86870	866317
21,87282	934618
21,87695	987759
21,88107	1034366
21,88518	1038582
21,88930	1046552
21,89343	1030708
21,89755	995403
21,90167	962581
21,90580	912498
21,90992	851985
21,91403	791720
21,91817	732026
21,92228	672953
21,92640	611707
21,93053	564013
21,93465	513613
21,93877	465369
21,94290	429816
21,94702	397743
21,95113	358500
21,95527	325339
21,95938	299350
21,96350	278220
21,96763	252699
21,97175	232246
21,97587	215205
21,97998	203514
21,98412	189431
21,98823	174988
21,99235	163927
21,99648	155201
22,00060	147336
22,00472	137004
22,00885	128887
22,01297	121453
22,01708	115391
22,02122	107448
22,02533	103844
22,02945	98969
22,03358	90878
22,03770	91488
22,04182	82993
22,04595	83241
22,05007	78598
22,05418	74723
22,05832	72127
22,06243	67839
22,06655	67718
22,07067	63975
22,07480	64120
22,07892	59596
22,08303	58339
22,08717	55986
22,09128	53524
22,09540	51631
22,09953	49528
22,10365	49828
22,10777	45597
22,11190	45164
22,11602	43286
22,12013	41850
22,12427	41429
22,12838	40403
22,13250	38739
22,13663	37360
22,14075	34354
22,14487	34991
22,14900	34516
22,15312	33869
22,15723	31487
22,16135	30602
22,16548	29402
22,16960	28945
22,17372	28354
22,17785	28242
22,18197	27144
22,18608	26147
22,19022	26365
22,19433	25728
22,19845	23672
22,20258	24929
22,20670	23440
22,21082	22878
22,21495	22869
22,21907	22871
22,22318	21209
22,22732	23601
22,23143	21930
22,23555	20681
22,23968	22491
22,24380	19994
22,24792	19194
22,25203	19565
22,25617	20663
22,26028	19607
22,26440	17932
22,26853	19320
22,27265	17198
22,27677	17511
22,28090	17093
22,28502	17064
22,28913	16254
22,29327	16911
22,29738	16045
22,30150	16475
22,30563	15170
22,30975	16521
22,31387	16710
22,31800	15105
22,32212	15764
22,32623	15570
22,33037	15132
22,33448	14514
22,33860	15057
22,34272	16001
22,34685	18395
22,35097	16142
22,35508	20924
22,35922	22872
22,36333	29712
22,36745	34256
22,37158	42767
22,37570	55086
22,37982	70006
22,38395	90233
22,38807	114583
22,39218	151648
22,39632	186632
22,40043	231882
22,40455	285318
22,40868	337107
22,41280	403200
22,41692	464091
22,42105	534997
22,42517	587362
22,42928	642865
22,43340	679467
22,43753	730622
22,44165	765578
22,44577	784427
22,44990	780031
22,45402	782415
22,45813	770560
22,46227	748254
22,46638	719943
22,47050	677820
22,47463	643153
22,47875	601480
22,48287	554638
22,48700	513838
22,49112	473410
22,49523	433548
22,49937	396746
22,50348	367649
22,50760	338539
22,51173	311681
22,51585	279063
22,51997	261045
22,52408	238633
22,52822	226008
22,53233	200676
22,53645	187795
22,54058	174688
22,54470	161617
22,54882	154753
22,55295	138326
22,55707	133501
22,56118	125619
22,56532	114960
22,56943	111269
22,57355	104077
22,57768	98788
22,58180	93046
22,58592	89348
22,59005	82199
22,59417	78248
22,59828	76264
22,60242	70333
22,60653	66604
22,61065	64260
22,61477	62813
22,61890	60664
22,62302	57492
22,62713	53932
22,63127	55209
22,63538	49381
22,63950	50311
22,64363	48025
22,64775	44572
22,65187	46407
22,65600	41590
22,66012	41940
22,66423	40221
22,66837	38502
22,67248	38599
22,67660	35832
22,68073	35778
22,68485	34675
22,68897	35034
22,69310	31487
22,69722	32201
22,70133	30971
22,70547	29347
22,70958	29449
22,71370	29647
22,71782	28036
22,72195	26026
22,72607	27250
22,73018	26164
22,73432	25152
22,73843	23734
22,74255	23886
22,74668	22684
22,75080	22366
22,75492	21810
22,75905	23732
22,76317	23049
22,76728	21988
22,77142	21016
22,77553	20521
22,77965	19641
22,78378	20008
22,78790	19168
22,79202	18818
22,79615	17885
22,80027	18176
22,80438	18215
22,80850	18945
22,81263	18665
22,81675	17014
22,82087	18296
22,82500	15913
22,82912	17030
22,83323	16602
22,83737	16095
22,84148	16742
22,84560	16484
22,84973	15783
22,85385	14623
22,85797	15544
22,86210	17248
22,86622	14743
22,87033	17774
22,87447	16229
22,87858	17332
22,88270	14935
22,88683	15796
22,89095	15712
22,89507	15789
22,89918	16505
22,90332	15910
22,90743	15303
22,91155	15529
22,91568	15005
22,91980	15413
22,92392	15814
22,92805	15590
22,93217	15991
22,93628	14387
22,94042	12604
22,94453	13144
22,94865	13302
22,95278	13281
22,95690	12737
22,96102	12667
22,96515	11427
22,96927	12312
22,97338	12873
22,97752	12584
22,98163	12732
22,98575	11467
22,98987	10961
22,99400	11117
22,99812	10145
23,00223	10995
23,00637	10997
23,01048	11202
23,01460	11678
23,01873	10368
23,02285	11394
23,02697	11557
23,03110	10675
23,03522	11334
23,03933	10409
23,04347	10297
23,04758	10701
23,05170	9809
23,05583	9329
23,05995	10576
23,06407	9419
23,06820	10413
23,07232	9278
23,07643	8631
23,08055	10927
23,08468	8334
23,08880	9737
23,09292	8380
23,09705	11228
23,10117	11220
23,10528	9369
23,10942	9433
23,11353	10222
23,11765	9868
23,12178	9772
23,12590	9803
23,13002	9575
23,13415	9742
23,13827	8828
23,14238	10002
23,14652	9225
23,15063	9881
23,15475	9156
23,15888	9691
23,16300	9892
23,16712	10207
23,17123	10076
23,17537	9122
23,17948	9238
23,18360	10439
23,18773	10657
23,19185	8936
23,19597	9365
23,20010	9530
23,20422	9872
23,20833	9209
23,21247	9254
23,21658	8408
23,22070	8734
23,22483	8842
23,22895	9321
23,23307	9126
23,23720	8950
23,24132	9706
23,24543	9691
23,24957	9989
23,25368	8412
23,25780	7921
23,26192	9208
23,26605	9886
23,27017	9082
23,27428	9431
23,27842	7888
23,28253	8411
23,28665	8153
23,29078	7507
23,29490	7767
23,29902	8535
23,30315	7832
23,30727	7528
23,31138	7111
23,31552	8978
23,31963	7985
23,32375	8736
23,32788	8494
23,33200	8212
23,33612	7874
23,34025	7881
23,34437	8035
23,34848	9210
23,35260	8728
23,35673	8666
23,36085	10512
23,36497	9209
23,36910	10634
23,37322	11194
23,37733	13889
23,38147	15450
23,38558	20044
23,38970	24365
23,39383	32081
23,39795	40559
23,40207	54202
23,40620	72666
23,41032	92700
23,41443	115565
23,41857	153670
23,42268	190658
23,42680	237023
23,43093	282337
23,43505	332061
23,43917	391133
23,44328	440741
23,44742	485804
23,45153	540629
23,45565	581944
23,45978	617616
23,46390	653807
23,46802	660792
23,47215	670536
23,47627	672507
23,48038	663496
23,48452	651950
23,48863	625015
23,49275	603076
23,49688	566441
23,50100	526814
23,50512	500341
23,50925	453853
23,51337	422382
23,51748	392450
23,52162	361923
23,52573	332351
23,52985	309131
23,53397	283502
23,53810	255448
23,54222	240563
23,54633	222152
23,55047	201105
23,55458	186620
23,55870	174007
23,56283	165237
23,56695	151111
23,57107	141731
23,57520	137945
23,57932	126599
23,58343	122029
23,58757	121944
23,59168	120081
23,59580	120051
23,59993	127766
23,60405	134356
23,60817	148275
23,61230	167904
23,61642	192985
23,62053	221401
23,62465	264455
23,62878	314255
23,63290	377731
23,63702	446804
23,64115	533697
23,64527	620599
23,64938	730570
23,65352	840743
23,65763	960905
23,66175	1101818
23,66588	1234503
23,67000	1369990
23,67412	1512664
23,67825	1663692
23,68237	1798669
23,68648	1930820
23,69062	2028525
23,69473	2093228
23,69885	2133867
23,70298	2143104
23,70710	2134675
23,71122	2073600
23,71533	2004622
23,71947	1888601
23,72358	1773186
23,72770	1639028
23,73183	1520156
23,73595	1374748
23,74007	1263683
23,74420	1156764
23,74832	1053048
23,75243	957675
23,75657	874680
23,76068	795762
23,76480	723742
23,76893	667911
23,77305	620107
23,77717	571571
23,78130	525436
23,78542	491988
23,78953	457333
23,79367	423923
23,79778	393893
23,80190	370815
23,80602	346656
23,81015	327842
23,81427	307273
23,81838	288515
23,82252	273461
23,82663	258805
23,83075	244065
23,83488	232322
23,83900	225234
23,84312	210326
23,84725	198092
23,85137	189827
23,85548	182309
23,85962	178665
23,86373	166709
23,86785	160120
23,87198	155528
23,87610	141823
23,88022	140984
23,88435	134357
23,88847	130602
23,89258	124733
23,89670	120222
23,90083	117180
23,90495	114787
23,90907	107075
23,91320	105460
23,91732	99293
23,92143	99590
23,92557	93800
23,92968	90147
23,93380	88417
23,93793	86360
23,94205	82237
23,94617	79777
23,95030	79908
23,95442	76121
23,95853	76127
23,96267	71069
23,96678	71259
23,97090	66531
23,97503	66618
23,97915	64594
23,98327	65331
23,98738	60652
23,99152	58266
23,99563	58138
23,99975	57062
24,00388	55264
24,00800	54874
24,01212	54099
24,01625	52238
24,02037	50619
24,02448	48954
24,02862	47735
24,03273	48020
24,03685	47489
24,04098	46266
24,04510	44093
24,04922	44308
24,05335	42578
24,05747	44685
24,06158	45328
24,06572	47930
24,06983	50926
24,07395	54263
24,07807	61253
24,08220	71250
24,08632	85239
24,09043	102557
24,09457	122859
24,09868	146358
24,10280	174603
24,10693	216842
24,11105	256293
24,11517	304066
24,11930	358802
24,12342	410763
24,12753	467775
24,13167	525220
24,13578	583962
24,13990	641761
24,14403	689664
24,14815	728096
24,15227	767780
24,15640	791091
24,16052	820532
24,16463	836571
24,16875	857927
24,17288	874834
24,17700	877230
24,18112	890047
24,18525	900123
24,18937	908033
24,19348	907670
24,19762	932008
24,20173	930766
24,20585	937065
24,20998	939216
24,21410	937787
24,21822	933394
24,22235	917666
24,22647	891209
24,23058	875782
24,23472	842166
24,23883	814802
24,24295	787880
24,24708	740450
24,25120	700258
24,25532	656129
24,25943	612663
24,26357	571870
24,26768	532295
24,27180	493372
24,27593	457077
24,28005	421481
24,28417	387386
24,28830	364127
24,29242	336702
24,29653	310948
24,30067	291272
24,30478	270018
24,30890	250985
24,31303	237900
24,31715	222688
24,32127	206306
24,32540	195628
24,32952	184527
24,33363	176595
24,33777	162532
24,34188	150402
24,34600	146433
24,35013	136459
24,35425	133023
24,35837	125103
24,36248	117082
24,36662	109131
24,37073	108169
24,37485	105099
24,37898	98117
24,38310	99410
24,38722	90917
24,39135	87353
24,39547	84436
24,39958	81166
24,40372	79362
24,40783	76205
24,41195	72711
24,41608	69784
24,42020	67101
24,42432	63259
24,42845	64903
24,43257	62692
24,43668	60698
24,44082	60028
24,44493	56117
24,44905	55239
24,45317	51450
24,45730	53909
24,46142	50650
24,46553	55005
24,46967	54679
24,47378	53692
24,47790	59090
24,48203	62732
24,48615	70800
24,49027	79632
24,49440	94313
24,49852	108732
24,50263	129634
24,50677	157567
24,51088	192344
24,51500	231254
24,51913	279167
24,52325	339793
24,52737	409640
24,53150	468395
24,53562	545579
24,53973	622068
24,54385	687108
24,54798	768888
24,55210	827887
24,55622	881732
24,56035	927111
24,56447	963930
24,56858	979103
24,57272	970255
24,57683	956155
24,58095	943718
24,58508	910860
24,58920	862690
24,59332	824721
24,59745	775383
24,60157	719189
24,60568	667745
24,60982	619183
24,61393	571271
24,61805	535262
24,62218	489030
24,62630	452488
24,63042	416109
24,63453	380774
24,63867	354437
24,64278	329787
24,64690	305947
24,65103	283960
24,65515	265523
24,65927	248952
24,66340	232239
24,66752	219777
24,67163	204463
24,67577	191217
24,67988	183060
24,68400	170562
24,68813	164222
24,69225	157121
24,69637	146840
24,70050	140480
24,70462	139482
24,70873	129612
24,71287	126876
24,71698	117553
24,72110	117361
24,72522	111104
24,72935	108073
24,73347	101268
24,73758	102252
24,74172	96568
24,74583	91645
24,74995	87187
24,75408	86617
24,75820	81390
24,76232	82348
24,76645	77638
24,77057	73536
24,77468	70070
24,77882	69862
24,78293	69265
24,78705	66044
24,79118	63692
24,79530	59740
24,79942	59096
24,80355	59162
24,80767	58578
24,81178	54446
24,81590	49928
24,82003	49592
24,82415	48182
24,82827	48209
24,83240	46568
24,83652	44523
24,84063	43586
24,84477	42357
24,84888	40976
24,85300	41451
24,85713	41682
24,86125	40159
24,86537	36342
24,86950	36971
24,87362	36404
24,87773	36073
24,88187	35092
24,88598	34342
24,89010	33392
24,89423	32092
24,89835	32680
24,90247	33309
24,90658	31554
24,91072	30292
24,91483	31204
24,91895	29267
24,92308	30268
24,92720	27310
24,93132	30199
24,93545	27414
24,93957	27123
24,94368	27332
24,94782	25395
24,95193	26296
24,95605	26840
24,96018	26365
24,96430	26261
24,96842	25856
24,97255	25635
24,97667	24654
24,98078	24920
24,98492	22680
24,98903	23897
24,99315	23544
24,99727	23101
25,00140	24757
25,00552	23463
25,00963	22797
25,01377	22509
25,01788	21812
25,02200	20792
25,02613	22560
25,03025	19839
25,03437	21439
25,03850	21390
25,04262	20156
25,04673	20747
25,05087	19378
25,05498	19077
25,05910	18389
25,06323	19895
25,06735	18589
25,07147	18954
25,07560	18124
25,07972	18889
25,08383	18988
25,08795	19218
25,09208	17892
25,09620	16558
25,10032	17860
25,10445	17382
25,10857	16108
25,11268	17780
25,11682	15545
25,12093	17036
25,12505	17378
25,12918	17064
25,13330	15813
25,13742	14960
25,14155	15920
25,14567	15422
25,14978	16979
25,15392	16126
25,15803	16904
25,16215	16835
25,16628	15561
25,17040	14999
25,17452	15774
25,17863	15093
25,18277	14634
25,18688	15389
25,19100	15235
25,19513	14486
25,19925	14563
25,20337	15425
25,20750	16122
25,21162	13598
25,21573	15078
25,21987	14562
25,22398	15444
25,22810	14234
25,23223	14493
25,23635	15328
25,24047	14403
25,24460	13803
25,24872	12914
25,25283	14646
25,25697	14828
25,26108	15131
25,26520	14181
25,26932	15349
25,27345	13300
25,27757	15305
25,28168	14607
25,28582	14793
25,28993	14169
25,29405	15872
25,29818	13233
25,30230	13675
25,30642	13879
25,31055	14038
25,31467	13238
25,31878	13618
25,32292	14293
25,32703	14900
25,33115	15692
25,33528	16094
25,33940	17590
25,34352	21830
25,34765	22516
25,35177	28620
25,35588	33401
25,36000	41361
25,36413	54014
25,36825	68400
25,37237	85651
25,37650	107733
25,38062	135673
25,38473	180778
25,38887	226073
25,39298	283148
25,39710	338870
25,40123	407466
25,40535	480451
25,40947	557231
25,41360	638370
25,41772	704733
25,42183	781543
25,42597	851139
25,43008	920881
25,43420	975992
25,43833	1007874
25,44245	1021556
25,44657	1022221
25,45068	1008861
25,45482	972241
25,45893	937160
25,46305	890438
25,46718	838584
25,47130	787097
25,47542	727719
25,47955	671179
25,48367	617861
25,48778	566274
25,49192	523076
25,49603	479992
25,50015	440220
25,50428	411155
25,50840	375660
25,51252	348152
25,51665	321704
25,52077	297283
25,52488	282121
25,52902	261065
25,53313	241023
25,53725	229812
25,54137	216914
25,54550	200935
25,54962	187476
25,55373	177351
25,55787	172463
25,56198	157634
25,56610	151173
25,57023	142683
25,57435	135980
25,57847	131168
25,58260	126268
25,58672	119795
25,59083	115790
25,59497	109800
25,59908	106636
25,60320	100788
25,60733	95199
25,61145	91992
25,61557	93545
25,61970	88173
25,62382	86103
25,62793	82926
25,63205	76285
25,63618	76126
25,64030	72274
25,64442	70194
25,64855	68388
25,65267	64354
25,65678	66489
25,66092	61263
25,66503	61690
25,66915	58401
25,67328	59361
25,67740	54604
25,68152	54601
25,68565	51252
25,68977	48352
25,69388	49100
25,69802	46839
25,70213	48972
25,70625	46497
25,71038	45785
25,71450	42699
25,71862	44368
25,72273	42522
25,72687	40520
25,73098	39180
25,73510	39042
25,73923	36108
25,74335	37699
25,74747	35453
25,75160	36622
25,75572	34852
25,75983	35083
25,76397	33929
25,76808	33598
25,77220	35108
25,77633	33683
25,78045	31789
25,78457	30990
25,78870	30440
25,79282	31622
25,79693	29475
25,80107	29337
25,80518	28369
25,80930	29235
25,81342	29044
25,81755	27683
25,82167	27570
25,82578	26225
25,82992	28095
25,83403	25201
25,83815	27135
25,84228	25496
25,84640	26192
25,85052	25245
25,85465	24769
25,85877	23602
25,86288	24111
25,86702	23078
25,87113	23464
25,87525	23315
25,87938	25968
25,88350	26612
25,88762	28724
25,89175	31600
25,89587	36050
25,89998	39746
25,90410	50101
25,90823	62804
25,91235	76487
25,91647	96134
25,92060	123543
25,92472	160971
25,92883	203891
25,93297	258477
25,93708	328880
25,94120	395009
25,94533	479063
25,94945	578994
25,95357	668068
25,95770	767452
25,96182	873879
25,96593	973225
25,97007	1077759
25,97418	1159044
25,97830	1241744
25,98243	1313137
25,98655	1337251
25,99067	1368060
25,99478	1378886
25,99892	1361158
26,00303	1342120
26,00715	1315802
26,01128	1247557
26,01540	1198672
26,01952	1142008
26,02365	1059242
26,02777	992074
26,03188	925505
26,03602	862277
26,04013	794116
26,04425	739334
26,04838	672491
26,05250	621173
26,05662	570208
26,06075	540512
26,06487	483925
26,06898	453164
26,07312	419493
26,07723	385265
26,08135	358534
26,08548	332298
26,08960	316293
26,09372	293685
26,09783	278242
26,10197	256799
26,10608	242344
26,11020	228383
26,11433	214471
26,11845	201879
26,12257	195691
26,12670	187434
26,13082	175403
26,13493	161632
26,13907	160574
26,14318	149911
26,14730	143308
26,15143	138894
26,15555	131194
26,15967	129251
26,16380	119162
26,16792	116798
26,17203	108742
26,17617	108046
26,18028	101317
26,18440	99378
26,18852	98003
26,19265	92922
26,19677	88957
26,20088	82742
26,20502	83517
26,20913	79742
26,21325	79489
26,21738	73678
26,22150	73798
26,22562	70143
26,22975	68000
26,23387	68899
26,23798	64632
26,24212	61862
26,24623	61118
26,25035	61070
26,25448	58285
26,25860	55172
26,26272	54995
26,26685	52346
26,27097	51293
26,27508	51967
26,27920	49272
26,28333	49412
26,28745	47031
26,29157	44867
26,29570	44889
26,29982	43587
26,30393	44082
26,30807	42715
26,31218	41197
26,31630	38788
26,32043	39780
26,32455	39293
26,32867	37222
26,33280	37158
26,33692	37474
26,34103	35544
26,34517	37158
26,34928	33707
26,35340	33480
26,35753	33318
26,36165	32930
26,36577	33107
26,36988	32428
26,37402	31162
26,37813	30692
26,38225	33048
26,38638	31063
26,39050	29933
26,39462	28364
26,39875	28717
26,40287	29173
26,40698	26727
26,41112	28205
26,41523	28628
26,41935	26928
26,42348	25626
26,42760	24781
26,43172	26817
26,43585	26393
26,43997	25814
26,44408	25849
26,44822	24044
26,45233	24669
26,45645	23836
26,46057	24333
26,46470	22048
26,46882	22661
26,47293	23163
26,47707	24081
26,48118	23059
26,48530	23162
26,48943	22631
26,49355	21247
26,49767	21911
26,50180	22439
26,50592	21837
26,51003	21821
26,51417	21428
26,51828	20509
26,52240	22029
26,52653	21557
26,53065	22099
26,53477	22541
26,53890	22262
26,54302	20699
26,54713	21742
26,55125	20760
26,55538	20779
26,55950	20553
26,56362	19929
26,56775	20085
26,57187	18794
26,57598	18310
26,58012	18944
26,58423	18932
26,58835	18677
26,59248	18938
26,59660	19279
26,60072	16299
26,60485	18922
26,60897	18731
26,61308	17711
26,61722	16200
26,62133	16033
26,62545	16996
26,62958	17614
26,63370	16304
26,63782	16876
26,64193	15766
26,64607	17010
26,65018	17124
26,65430	16729
26,65843	14773
26,66255	15701
26,66667	16382
26,67080	14888
26,67492	15881
26,67903	16214
26,68317	16138
26,68728	15869
26,69140	15764
26,69553	15123
26,69965	14308
26,70377	14089
26,70790	15247
26,71202	14205
26,71613	13981
26,72027	13924
26,72438	14154
26,72850	14308
26,73262	14522
26,73675	15173
26,74087	15163
26,74498	15989
26,74912	14571
26,75323	12805
26,75735	14378
26,76148	14084
26,76560	15317
26,76972	13816
26,77385	12303
26,77797	14108
26,78208	13859
26,78622	13855
26,79033	14324
26,79445	14023
26,79858	13792
26,80270	13303
26,80682	14440
26,81095	15655
26,81507	14672
26,81918	14485
26,82330	14284
26,82743	14266
26,83155	14020
26,83567	14263
26,83980	13156
26,84392	13776
26,84803	15505
26,85217	14181
26,85628	15228
26,86040	15714
26,86453	14214
26,86865	14213
26,87277	13949
26,87690	14441
26,88102	14952
26,88513	14073
26,88927	13369
26,89338	15040
26,89750	14685
26,90163	14303
26,90575	14549
26,90987	14265
26,91398	14432
26,91812	14956
26,92223	15175
26,92635	16842
26,93048	14393
26,93460	14950
26,93872	15027
26,94285	15105
26,94697	14402
26,95108	14783
26,95522	14939
26,95933	13135
26,96345	14866
26,96758	15610
26,97170	14375
26,97582	13907
26,97995	13684
26,98407	13240
26,98818	14881
26,99232	13095
26,99643	14776
27,00055	12452
27,00467	14022
27,00880	14166
27,01292	12290
27,01703	13161
27,02117	13462
27,02528	12024
27,02940	13173
27,03353	13324
27,03765	13290
27,04177	13204
27,04590	13132
27,05002	13275
27,05413	14406
27,05827	14680
27,06238	15600
27,06650	18337
27,07063	20139
27,07475	24139
27,07887	29003
27,08300	35118
27,08712	44514
27,09123	54545
27,09535	69731
27,09948	90667
27,10360	112597
27,10772	143386
27,11185	183569
27,11597	234247
27,12008	285837
27,12422	351159
27,12833	429970
27,13245	510472
27,13658	601699
27,14070	704521
27,14482	805845
27,14895	918828
27,15307	1048245
27,15718	1167930
27,16132	1296827
27,16543	1427555
27,16955	1541912
27,17368	1665149
27,17780	1790631
27,18192	1867608
27,18603	1943581
27,19017	1959835
27,19428	1954225
27,19840	1929283
27,20253	1886740
27,20665	1805538
27,21077	1718362
27,21490	1603079
27,21902	1494927
27,22313	1373736
27,22727	1252119
27,23138	1157890
27,23550	1066043
27,23963	967407
27,24375	896974
27,24787	816352
27,25200	757399
27,25612	700289
27,26023	640318
27,26437	591509
27,26848	552581
27,27260	513016
27,27672	481884
27,28085	446653
27,28497	417041
27,28908	393836
27,29322	370040
27,29733	346004
27,30145	327215
27,30558	314268
27,30970	290112
27,31382	278573
27,31795	260525
27,32207	251945
27,32618	234149
27,33032	231124
27,33443	219123
27,33855	210909
27,34268	199638
27,34680	191319
27,35092	181035
27,35505	171512
27,35917	169922
27,36328	162692
27,36740	154220
27,37153	149680
27,37565	147364
27,37977	140243
27,38390	134480
27,38802	128908
27,39213	123997
27,39627	119307
27,40038	121842
27,40450	117674
27,40863	113436
27,41275	107501
27,41687	104739
27,42100	102215
27,42512	98477
27,42923	93080
27,43337	91598
27,43748	90798
27,44160	88639
27,44573	82951
27,44985	81339
27,45397	79606
27,45808	78570
27,46222	77288
27,46633	74925
27,47045	72563
27,47458	71383
27,47870	69102
27,48282	66242
27,48695	66540
27,49107	65958
27,49518	61171
27,49932	62030
27,50343	61045
27,50755	58728
27,51168	58005
27,51580	57669
27,51992	54227
27,52405	55088
27,52817	52034
27,53228	51622
27,53642	50862
27,54053	50992
27,54465	46618
27,54878	48611
27,55290	48141
27,55702	45382
27,56113	45836
27,56527	46315
27,56938	46086
27,57350	45183
27,57763	41269
27,58175	41579
27,58587	40561
27,59000	41862
27,59412	39384
27,59823	38508
27,60237	40005
27,60648	38253
27,61060	37446
27,61473	38494
27,61885	34971
27,62297	36072
27,62710	36938
27,63122	36119
27,63533	34992
27,63947	34301
27,64358	34472
27,64770	31678
27,65182	31444
27,65595	34351
27,66007	30756
27,66418	32335
27,66832	30602
27,67243	29775
27,67655	31657
27,68068	31700
27,68480	31285
27,68892	29941
27,69305	29854
27,69717	28896
27,70128	28377
27,70542	28032
27,70953	27660
27,71365	26542
27,71778	27378
27,72190	26924
27,72602	27766
27,73015	26827
27,73427	27120
27,73838	24517
27,74250	25054
27,74663	24046
27,75075	25336
27,75487	25601
27,75900	25071
27,76312	25745
27,76723	22975
27,77137	25616
27,77548	24804
27,77960	24050
27,78373	24455
27,78785	23234
27,79197	25610
27,79610	22651
27,80022	25594
27,80433	21407
27,80847	23855
27,81258	23805
27,81670	20533
27,82083	23131
27,82495	23685
27,82907	20301
27,83318	21560
27,83732	22073
27,84143	22467
27,84555	22663
27,84968	21868
27,85380	20253
27,85792	21012
27,86205	20533
27,86617	20371
27,87028	21120
27,87442	20253
27,87853	19561
27,88265	20361
27,88678	20859
27,89090	20257
27,89502	20623
27,89915	21476
27,90327	21222
27,90738	21209
27,91152	23555
27,91563	25290
27,91975	25508
27,92387	28694
27,92800	32142
27,93212	37866
27,93623	46270
27,94037	55452
27,94448	67115
27,94860	87840
27,95273	106601
27,95685	135129
27,96097	166250
27,96510	203829
27,96922	244863
27,97333	300705
27,97747	352922
27,98158	419465
27,98570	484302
27,98983	556296
27,99395	626198
27,99807	699422
28,00220	754550
28,00632	817757
28,01043	854723
28,01455	888477
28,01868	916671
28,02280	919380
28,02692	916727
28,03105	901081
28,03517	869649
28,03928	830150
28,04342	789164
28,04753	751097
28,05165	696401
28,05578	654303
28,05990	614490
28,06402	578558
28,06815	533857
28,07227	503336
28,07638	475976
28,08052	437406
28,08463	413990
28,08875	389267
28,09288	366056
28,09700	347655
28,10112	327109
28,10523	311831
28,10937	295359
28,11348	279634
28,11760	271106
28,12173	253535
28,12585	237152
28,12997	233414
28,13410	213993
28,13822	204762
28,14233	193747
28,14647	184210
28,15058	174267
28,15470	165933
28,15883	161461
28,16295	152979
28,16707	146247
28,17120	141166
28,17532	134541
28,17943	126487
28,18357	122204
28,18768	116817
28,19180	113313
28,19592	110085
28,20005	104572
28,20417	98810
28,20828	95417
28,21242	93994
28,21653	89090
28,22065	85069
28,22478	83215
28,22890	83669
28,23302	79866
28,23715	76482
28,24127	74675
28,24538	71134
28,24952	70629
28,25363	72053
28,25775	61573
28,26188	62972
28,26600	62030
28,27012	63722
28,27425	60060
28,27837	57510
28,28248	57498
28,28660	56393
28,29073	54105
28,29485	54621
28,29897	53006
28,30310	51597
28,30722	48633
28,31133	49501
28,31547	49881
28,31958	46613
28,32370	48066
28,32783	47423
28,33195	45102
28,33607	44628
28,34020	42482
28,34432	41773
28,34843	42199
28,35257	41787
28,35668	40762
28,36080	40486
28,36493	39808
28,36905	37257
28,37317	35195
28,37728	35927
28,38142	34976
28,38553	36343
28,38965	34416
28,39378	34616
28,39790	33067
28,40202	33480
28,40615	32769
28,41027	32079
28,41438	30111
28,41852	31000
28,42263	31850
28,42675	29854
28,43088	27978
28,43500	29520
28,43912	30010
28,44325	29668
28,44737	28335
28,45148	26914
28,45562	28680
28,45973	24889
28,46385	26445
28,46797	25079
28,47210	25469
28,47622	25572
28,48033	25869
28,48447	25153
28,48858	23823
28,49270	24967
28,49683	25372
28,50095	24370
28,50507	25978
28,50920	25697
28,51332	24693
28,51743	24081
28,52157	21360
28,52568	23352
28,52980	25103
28,53393	21478
28,53805	22855
28,54217	24568
28,54630	22107
28,55042	21369
28,55453	22017
28,55865	20493
28,56278	21837
28,56690	20526
28,57102	21348
28,57515	22236
28,57927	19252
28,58338	19125
28,58752	20776
28,59163	20114
28,59575	20440
28,59988	21033
28,60400	20167
28,60812	20961
28,61225	18009
28,61637	19034
28,62048	22152
28,62462	18481
28,62873	18412
28,63285	20196
28,63698	19359
28,64110	19117
28,64522	19817
28,64933	19433
28,65347	20223
28,65758	20014
28,66170	20246
28,66583	18776
28,66995	19816
28,67407	18913
28,67820	18205
28,68232	20132
28,68643	19303
28,69057	19972
28,69468	19131
28,69880	18802
28,70293	18063
28,70705	19310
28,71117	20651
28,71530	17947
28,71942	18566
28,72353	19093
28,72767	18552
28,73178	18127
28,73590	18322
28,74002	18416
28,74415	17205
28,74827	19318
28,75238	16920
28,75652	17888
28,76063	17817
28,76475	17270
28,76888	17132
28,77300	20055
28,77712	17002
28,78125	17014
28,78537	17708
28,78948	16962
28,79362	18656
28,79773	17258
28,80185	19543
28,80598	18438
28,81010	19945
28,81422	17797
28,81835	18619
28,82247	18364
28,82658	18006
28,83070	19106
28,83483	17334
28,83895	17639
28,84307	18332
28,84720	17212
28,85132	16835
28,85543	18076
28,85957	17952
28,86368	18139
28,86780	16513
28,87193	17799
28,87605	18616
28,88017	17402
28,88430	17268
28,88842	18409
28,89253	17907
28,89667	16058
28,90078	16678
28,90490	16920
28,90903	17413
28,91315	16874
28,91727	18366
28,92138	15548
28,92552	17536
28,92963	16179
28,93375	16231
28,93788	15416
28,94200	16539
28,94612	16327
28,95025	15620
28,95437	17483
28,95848	16825
28,96262	15866
28,96673	14421
28,97085	16439
28,97498	17059
28,97910	15161
28,98322	15538
28,98735	15180
28,99147	15173
28,99558	15211
28,99972	15676
29,00383	14404
29,00795	15800
29,01207	14667
29,01620	14148
29,02032	14453
29,02443	16074
29,02857	16284
29,03268	13974
29,03680	15668
29,04093	14472
29,04505	14385
29,04917	13902
29,05330	14370
29,05742	13959
29,06153	13119
29,06567	13954
29,06978	15736
29,07390	13245
29,07803	14852
29,08215	15812
29,08627	13572
29,09040	12667
29,09452	14212
29,09863	11920
29,10275	14207
29,10688	14312
29,11100	14946
29,11512	14286
29,11925	12910
29,12337	12640
29,12748	13598
29,13162	13504
29,13573	14219
29,13985	14148
29,14398	13822
29,14810	12923
29,15222	13539
29,15635	12733
29,16047	13207
29,16458	14898
29,16872	13596
29,17283	13110
29,17695	15619
29,18108	13237
29,18520	15367
29,18932	14426
29,19345	13271
29,19757	11730
29,20168	14198
29,20580	12026
29,20993	11836
29,21405	13322
29,21817	12853
29,22230	12201
29,22642	12936
29,23053	13341
29,23467	12887
29,23878	13694
29,24290	11413
29,24703	12414
29,25115	11965
29,25527	14071
29,25940	13135
29,26352	12224
29,26763	13102
29,27177	12152
29,27588	14059
29,28000	12557
29,28413	13172
29,28825	12327
29,29237	13006
29,29648	13893
29,30062	12466
29,30473	13092
29,30885	13292
29,31298	13148
29,31710	13503
29,32122	12587
29,32535	13210
29,32947	13830
29,33358	12587
29,33772	13727
29,34183	13270
29,34595	12567
29,35008	13190
29,35420	13127
29,35832	12418
29,36245	12390
29,36657	13631
29,37068	14340
29,37482	15231
29,37893	12043
29,38305	12460
29,38717	13046
29,39130	13102
29,39542	13322
29,39953	14015
29,40367	14691
29,40778	12360
29,41190	12774
29,41603	12553
29,42015	12758
29,42427	12615
29,42840	13798
29,43252	12899
29,43663	13943
29,44077	12029
29,44488	13555
29,44900	13143
29,45313	13954
29,45725	13997
29,46137	13768
29,46550	13536
29,46962	13531
29,47373	11596
29,47785	12697
29,48198	12276
29,48610	12794
29,49022	13546
29,49435	12352
29,49847	13129
29,50258	12772
29,50672	11644
29,51083	12463
29,51495	12766
29,51908	12237
29,52320	12486
29,52732	12689
29,53145	13377
29,53557	12675
29,53968	12769
29,54382	11930
29,54793	12860
29,55205	11550
29,55618	12240
29,56030	11936
29,56442	12936
29,56853	11914
29,57267	13042
29,57678	12906
29,58090	14338
29,58503	11662
29,58915	14423
29,59327	12831
29,59740	13821
29,60152	12032
29,60563	13130
29,60977	11893
29,61388	13096
29,61800	13578
29,62213	12751
29,62625	12835
29,63037	12366
29,63450	12994
29,63862	12862
29,64273	12224
29,64687	11970
29,65098	13920
29,65510	12073
29,65922	13073
29,66335	13002
29,66747	11727
29,67158	13227
29,67572	12328
29,67983	13735
29,68395	12798
29,68808	13643
29,69220	12110
29,69632	13334
29,70045	10651
29,70457	12911
29,70868	13042
29,71282	12369
29,71693	11483
29,72105	12088
29,72518	11383
29,72930	12028
29,73342	13042
29,73755	14270
29,74167	12883
29,74578	10475
29,74990	12687
29,75403	13153
29,75815	13429
29,76227	13080
29,76640	13542
29,77052	11898
29,77463	12954
29,77877	12997
29,78288	12592
29,78700	11719
29,79113	12603
29,79525	12505
29,79937	14092
29,80350	14179
29,80762	13574
29,81173	13614
29,81587	11999
29,81998	12237
29,82410	12053
29,82823	12867
29,83235	13188
29,83647	13483
29,84058	11759
29,84472	13542
29,84883	13263
29,85295	12722
29,85708	12708
29,86120	14783
29,86532	14880
29,86945	13554
29,87357	12075
29,87768	13424
29,88182	13375
29,88593	13797
29,89005	14171
29,89418	13866
29,89830	13856
29,90242	11941
29,90655	13040
29,91067	13552
29,91478	14226
29,91892	11874
29,92303	13317
29,92715	14013
29,93127	12900
29,93540	12090
29,93952	13142
29,94363	13668
29,94777	13475
29,95188	12090
29,95600	13205
29,96013	12866
29,96425	12447
29,96837	13067
29,97250	11573
29,97662	13372
29,98073	11526
29,98487	12924
29,98898	12476
29,99310	13060
29,99723	14517
30,00135	11859
30,00547	11253
30,00960	13686
30,01372	10794
30,01783	13433
30,02195	12074
30,02608	11660
30,03020	13220
30,03432	12156
30,03845	12486
30,04257	11250
30,04668	11294
30,05082	13028
30,05493	13931
30,05905	11460
30,06318	11694
30,06730	12170
30,07142	12741
30,07555	13458
30,07967	12656
30,08378	12086
30,08792	13181
30,09203	12364
30,09615	12829
30,10028	12623
30,10440	11672
30,10852	12348
30,11263	12959
30,11677	12574
30,12088	13049
30,12500	12682
30,12913	12657
30,13325	15358
30,13737	15176
30,14150	14857
30,14562	18453
30,14973	21834
30,15387	25788
30,15798	28839
30,16210	37943
30,16623	46338
30,17035	57896
30,17447	73047
30,17860	87080
30,18272	109073
30,18683	131161
30,19097	162244
30,19508	192210
30,19920	231433
30,20332	264199
30,20745	303743
30,21157	334425
30,21568	370475
30,21982	398536
30,22393	421629
30,22805	446878
30,23218	455228
30,23630	475384
30,24042	464099
30,24455	469587
30,24867	460859
30,25278	445528
30,25692	438378
30,26103	409033
30,26515	396406
30,26928	381371
30,27340	355005
30,27752	327838
30,28165	314270
30,28577	288138
30,28988	270058
30,29400	252240
30,29813	231741
30,30225	217273
30,30637	202288
30,31050	188452
30,31462	177191
30,31873	164872
30,32287	154393
30,32698	146245
30,33110	130542
30,33523	129484
30,33935	122165
30,34347	113073
30,34760	108392
30,35172	103190
30,35583	94794
30,35997	94365
30,36408	87913
30,36820	81454
30,37233	79967
30,37645	77345
30,38057	72874
30,38468	69745
30,38882	69087
30,39293	64331
30,39705	62228
30,40118	58414
30,40530	58280
30,40942	55477
30,41355	53940
30,41767	52754
30,42178	51362
30,42592	48884
30,43003	46656
30,43415	44939
30,43828	42918
30,44240	43502
30,44652	42824
30,45065	41524
30,45477	39091
30,45888	38903
30,46302	39234
30,46713	37652
30,47125	36360
30,47537	36538
30,47950	34426
30,48362	33337
30,48773	33033
30,49187	31532
30,49598	32411
30,50010	32134
30,50423	32540
30,50835	30569
30,51247	29934
30,51660	27993
30,52072	27922
30,52483	27571
30,52897	29536
30,53308	28333
30,53720	27465
30,54133	26608
30,54545	25324
30,54957	25587
30,55370	25751
30,55782	24330
30,56193	24910
30,56605	24367
30,57018	24201
30,57430	23328
30,57842	22970
30,58255	22473
30,58667	24305
30,59078	22360
30,59492	23328
30,59903	23160
30,60315	22188
30,60728	22364
30,61140	22126
30,61552	21845
30,61965	21358
30,62377	20475
30,62788	20325
30,63202	21598
30,63613	20099
30,64025	19884
30,64438	19564
30,64850	19872
30,65262	19358
30,65673	20235
30,66087	18748
30,66498	17738
30,66910	19082
30,67323	18570
30,67735	18941
30,68147	20110
30,68560	18132
30,68972	19480
30,69383	18064
30,69797	17896
30,70208	18481
30,70620	20238
30,71033	18592
30,71445	18794
30,71857	17978
30,72270	19888
30,72682	17907
30,73093	17307
30,73507	17031
30,73918	18828
30,74330	17891
30,74743	19556
30,75155	16957
30,75567	17406
30,75978	18611
30,76392	17845
30,76803	16870
30,77215	18589
30,77628	17445
30,78040	15619
30,78452	16958
30,78865	17031
30,79277	17282
30,79688	17007
30,80102	16801
30,80513	17985
30,80925	17409
30,81338	17390
30,81750	17831
30,82162	15652
30,82575	16363
30,82987	15863
30,83398	15904
30,83812	17179
30,84223	16700
30,84635	16650
