D:\MassHunter\GCMS\1\data\Amal\Constant flow\80C\80C_1ml-min_5C-min_1.D Tue Aug 06 13:58:21 2024
Start of data points
6,24098,19420
6,24512,20033
6,24923,19302
6,25335,19761
6,25748,19569
6,26160,20758
6,26572,21566
6,26985,21900
6,27397,22410
6,27808,22367
6,28222,23111
6,28633,22169
6,29045,23041
6,29457,23034
6,29870,21355
6,30282,23754
6,30693,23338
6,31107,24116
6,31518,24162
6,31930,22374
6,32343,22564
6,32755,22578
6,33167,22193
6,33580,20194
6,33992,22182
6,34403,20727
6,34817,21893
6,35228,20712
6,35640,20841
6,36053,20751
6,36465,20604
6,36877,19237
6,37290,20872
6,37702,19950
6,38113,19401
6,38525,18847
6,38938,19621
6,39350,18327
6,39762,19162
6,40175,18638
6,40587,17739
6,40998,18946
6,41412,18680
6,41823,18239
6,42235,17499
6,42648,17097
6,43060,17554
6,43472,18032
6,43885,16640
6,44297,18427
6,44708,17476
6,45122,17695
6,45533,15404
6,45945,15955
6,46358,16360
6,46770,16349
6,47182,15592
6,47593,14758
6,48007,16202
6,48418,14880
6,48830,15669
6,49243,15957
6,49655,16346
6,50067,14768
6,50480,14593
6,50892,13923
6,51303,15917
6,51717,15147
6,52128,14772
6,52540,14741
6,52953,16406
6,53365,14682
6,53777,14936
6,54190,15893
6,54602,14470
6,55013,15441
6,55427,14739
6,55838,13998
6,56250,15343
6,56662,13419
6,57075,14638
6,57487,14143
6,57898,14431
6,58312,14960
6,58723,14070
6,59135,14097
6,59548,15504
6,59960,14326
6,60372,14763
6,60785,13669
6,61197,13815
6,61608,13809
6,62022,14244
6,62433,13348
6,62845,13521
6,63258,14962
6,63670,14382
6,64082,15372
6,64495,15111
6,64907,14302
6,65318,13337
6,65730,14035
6,66143,13744
6,66555,13692
6,66967,13085
6,67380,13702
6,67792,12988
6,68203,13695
6,68617,13811
6,69028,13277
6,69440,12586
6,69853,13807
6,70265,12778
6,70677,13771
6,71090,11947
6,71502,12239
6,71913,12736
6,72327,13078
6,72738,12845
6,73150,13777
6,73563,13099
6,73975,16525
6,74387,18009
6,74798,21902
6,75212,29909
6,75623,42224
6,76035,59006
6,76448,79279
6,76860,105065
6,77272,136110
6,77685,172666
6,78097,209361
6,78508,247038
6,78922,282451
6,79333,299086
6,79745,315874
6,80158,336717
6,80570,337362
6,80982,333241
6,81395,327639
6,81807,325536
6,82218,316599
6,82632,309185
6,83043,295249
6,83455,285097
6,83868,267917
6,84280,257653
6,84692,243160
6,85103,228859
6,85517,219664
6,85928,201468
6,86340,192834
6,86753,187957
6,87165,174567
6,87577,163984
6,87990,157151
6,88402,147560
6,88813,141893
6,89227,136097
6,89638,128165
6,90050,118962
6,90463,110798
6,90875,102894
6,91287,96376
6,91700,90503
6,92112,82126
6,92523,80080
6,92937,73869
6,93348,70074
6,93760,63241
6,94172,59636
6,94585,56201
6,94997,49237
6,95408,47824
6,95822,43992
6,96233,42827
6,96645,39095
6,97058,35306
6,97470,34610
6,97882,30907
6,98295,29970
6,98707,28217
6,99118,25499
6,99532,24401
6,99943,24775
7,00355,21720
7,00768,20211
7,01180,19583
7,01592,18633
7,02005,17580
7,02417,17996
7,02828,17516
7,03240,16077
7,03653,15986
7,04065,15996
7,04477,14788
7,04890,15010
7,05302,15063
7,05713,14538
7,06127,15184
7,06538,14616
7,06950,14438
7,07363,14358
7,07775,13662
7,08187,15113
7,08600,13805
7,09012,13148
7,09423,13092
7,09837,13405
7,10248,13085
7,10660,13226
7,11073,12641
7,11485,11980
7,11897,12543
7,12308,11753
7,12722,10996
7,13133,12433
7,13545,11681
7,13958,11333
7,14370,10862
7,14782,10441
7,15195,9887
7,15607,11151
7,16018,10720
7,16432,9602
7,16843,10617
7,17255,10046
7,17668,9207
7,18080,9668
7,18492,9360
7,18905,9273
7,19317,9266
7,19728,9192
7,20142,9013
7,20553,8814
7,20965,9073
7,21377,9224
7,21790,9503
7,22202,8973
7,22613,9079
7,23027,9760
7,23438,9304
7,23850,8254
7,24263,8574
7,24675,9546
7,25087,9647
7,25500,8622
7,25912,9073
7,26323,7714
7,26737,8819
7,27148,9019
7,27560,9197
7,27973,8656
7,28385,8509
7,28797,8772
7,29210,8817
7,29622,8092
7,30033,9415
7,30445,9132
7,30858,8657
7,31270,8593
7,31682,8555
7,32095,8514
7,32507,8154
7,32918,8262
7,33332,8857
7,33743,7936
7,34155,7835
7,34568,8825
7,34980,8179
7,35392,7495
7,35805,8159
7,36217,8088
7,36628,7919
7,37042,8463
7,37453,8209
7,37865,8198
7,38278,8457
7,38690,7461
7,39102,7739
7,39513,8099
7,39927,7246
7,40338,7986
7,40750,7476
7,41163,7630
7,41575,7541
7,41987,7604
7,42400,7124
7,42812,8253
7,43223,8497
7,43637,7394
7,44048,7110
7,44460,8049
7,44873,7864
7,45285,8332
7,45697,8586
7,46110,7398
7,46522,7434
7,46933,7613
7,47347,7297
7,47758,7048
7,48170,6756
7,48582,6672
7,48995,6884
7,49407,7599
7,49818,7979
7,50232,7613
7,50643,7515
7,51055,7495
7,51468,8072
7,51880,7523
7,52292,7491
7,52705,7521
7,53117,7058
7,53528,7215
7,53942,7051
7,54353,7302
7,54765,7109
7,55178,7395
7,55590,6856
7,56002,7638
7,56415,6624
7,56827,7946
7,57238,8133
7,57650,7622
7,58063,7304
7,58475,6990
7,58887,7012
7,59300,6590
7,59712,7473
7,60123,7317
7,60537,6933
7,60948,6890
7,61360,7470
7,61773,6636
7,62185,6539
7,62597,7445
7,63010,7002
7,63422,7211
7,63833,7953
7,64247,7866
7,64658,6701
7,65070,7047
7,65483,6921
7,65895,6602
7,66307,6777
7,66718,7201
7,67132,6438
7,67543,6674
7,67955,6713
7,68368,6996
7,68780,6557
7,69192,6775
7,69605,6912
7,70017,7207
7,70428,6867
7,70842,6199
7,71253,6924
7,71665,7153
7,72078,7214
7,72490,6397
7,72902,6778
7,73315,6331
7,73727,7141
7,74138,6429
7,74552,6461
7,74963,6860
7,75375,6943
7,75787,6411
7,76200,6677
7,76612,6335
7,77023,6148
7,77437,6309
7,77848,6739
7,78260,5799
7,78673,6020
7,79085,5871
7,79497,6348
7,79910,6080
7,80322,5914
7,80733,6446
7,81147,6248
7,81558,5598
7,81970,6736
7,82383,6725
7,82795,6479
7,83207,6337
7,83620,5585
7,84032,6299
7,84443,6875
7,84855,6346
7,85268,6349
7,85680,6678
7,86092,6601
7,86505,6606
7,86917,5883
7,87328,6280
7,87742,6106
7,88153,6514
7,88565,6176
7,88978,6073
7,89390,6217
7,89802,5909
7,90215,5930
7,90627,6733
7,91038,6350
7,91452,6635
7,91863,5868
7,92275,5829
7,92688,6457
7,93100,6176
7,93512,5875
7,93923,6022
7,94337,6531
7,94748,5786
7,95160,6186
7,95573,6102
7,95985,5448
7,96397,5829
7,96810,6423
7,97222,5722
7,97633,6152
7,98047,5776
7,98458,5455
7,98870,5871
7,99283,6073
7,99695,6069
8,00107,6204
8,00520,5866
8,00932,5796
8,01343,4994
8,01757,6030
8,02168,5996
8,02580,6128
8,02992,5883
8,03405,5809
8,03817,5621
8,04228,5607
8,04642,6008
8,05053,5892
8,05465,6262
8,05878,4920
8,06290,4861
8,06702,5832
8,07115,5574
8,07527,5043
8,07938,6155
8,08352,6053
8,08763,6199
8,09175,5327
8,09588,5100
8,10000,5131
8,10412,5880
8,10825,5412
8,11237,6066
8,11648,5246
8,12060,5257
8,12473,5410
8,12885,5610
8,13297,5491
8,13710,5818
8,14122,5829
8,14533,5319
8,14947,4818
8,15358,5570
8,15770,5664
8,16183,5400
8,16595,5554
8,17007,5408
8,17420,5140
8,17832,5134
8,18243,4868
8,18657,5769
8,19068,5489
8,19480,5279
8,19893,5423
8,20305,5206
8,20717,5322
8,21128,5343
8,21542,5815
8,21953,5773
8,22365,5387
8,22778,5557
8,23190,5647
8,23602,5289
8,24015,5659
8,24427,5406
8,24838,4699
8,25252,4908
8,25663,5491
8,26075,5528
8,26488,5093
8,26900,5369
8,27312,4911
8,27725,5771
8,28137,5773
8,28548,5250
8,28962,5396
8,29373,5184
8,29785,5655
8,30197,5254
8,30610,6319
8,31022,5713
8,31433,5346
8,31847,5387
8,32258,4658
8,32670,5110
8,33083,5098
8,33495,5180
8,33907,5666
8,34320,5399
8,34732,5235
8,35143,5658
8,35557,5594
8,35968,5131
8,36380,5368
8,36793,5954
8,37205,5011
8,37617,5026
8,38030,5470
8,38442,5456
8,38853,5345
8,39265,5542
8,39678,5952
8,40090,5120
8,40502,5543
8,40915,5450
8,41327,5466
8,41738,5447
8,42152,5150
8,42563,6055
8,42975,5712
8,43388,5821
8,43800,6174
8,44212,5553
8,44625,4823
8,45037,6393
8,45448,5152
8,45862,5202
8,46273,5437
8,46685,5225
8,47098,5352
8,47510,4560
8,47922,4784
8,48335,5034
8,48747,5389
8,49158,5894
8,49570,4927
8,49983,4802
8,50395,5110
8,50807,4664
8,51220,4578
8,51632,4532
8,52043,4717
8,52457,5132
8,52868,4465
8,53280,4838
8,53693,4747
8,54105,5068
8,54517,4566
8,54930,4704
8,55342,5205
8,55753,4993
8,56167,4780
8,56578,5505
8,56990,4687
8,57403,4844
8,57815,4805
8,58227,4625
8,58638,4497
8,59052,4330
8,59463,4500
8,59875,5072
8,60288,5127
8,60700,4495
8,61112,4291
8,61525,5271
8,61937,5033
8,62348,4328
8,62762,5109
8,63173,4314
8,63585,4802
8,63998,4603
8,64410,4933
8,64822,4938
8,65235,4388
8,65647,4997
8,66058,4842
8,66472,4845
8,66883,4819
8,67295,5198
8,67707,4351
8,68120,4716
8,68532,5514
8,68943,5717
8,69357,4359
8,69768,4717
8,70180,4399
8,70593,4793
8,71005,5144
8,71417,4522
8,71830,4106
8,72242,4637
8,72653,4460
8,73067,4507
8,73478,4536
8,73890,3974
8,74303,5041
8,74715,4236
8,75127,4871
8,75540,5084
8,75952,4574
8,76363,5288
8,76775,4097
8,77188,4326
8,77600,5032
8,78012,4056
8,78425,4276
8,78837,4284
8,79248,4193
8,79662,3885
8,80073,4127
8,80485,4631
8,80898,5009
8,81310,4114
8,81722,4645
8,82135,4389
8,82547,4210
8,82958,4479
8,83372,4905
8,83783,3791
8,84195,4421
8,84608,4611
8,85020,4515
8,85432,4342
8,85843,3894
8,86257,3977
8,86668,3980
8,87080,4213
8,87493,4107
8,87905,4385
8,88317,3663
8,88730,4205
8,89142,4526
8,89553,4324
8,89967,4883
8,90378,4573
8,90790,3852
8,91203,4894
8,91615,4795
8,92027,4422
8,92440,3931
8,92852,4484
8,93263,4004
8,93677,4265
8,94088,4166
8,94500,4439
8,94912,4817
8,95325,3980
8,95737,4157
8,96148,4156
8,96562,4224
8,96973,4426
8,97385,4275
8,97798,4203
8,98210,4166
8,98622,4035
8,99035,4538
8,99447,3814
8,99858,4306
9,00272,4575
9,00683,4217
9,01095,4366
9,01508,4850
9,01920,4432
9,02332,4282
9,02745,4405
9,03157,4359
9,03568,3591
9,03980,4748
9,04393,4272
9,04805,5308
9,05217,6461
9,05630,7557
9,06042,9805
9,06453,13204
9,06867,18653
9,07278,25376
9,07690,32153
9,08103,40351
9,08515,51906
9,08927,63371
9,09340,74025
9,09752,84571
9,10163,94553
9,10577,100393
9,10988,104309
9,11400,108393
9,11813,108288
9,12225,108530
9,12637,105417
9,13048,103873
9,13462,93146
9,13873,90887
9,14285,80607
9,14698,79740
9,15110,71696
9,15522,65365
9,15935,59903
9,16347,55361
9,16758,48421
9,17172,44902
9,17583,38324
9,17995,34715
9,18408,30584
9,18820,28777
9,19232,25501
9,19645,22298
9,20057,22746
9,20468,19256
9,20882,16903
9,21293,14816
9,21705,14285
9,22117,11985
9,22530,11883
9,22942,10324
9,23353,9573
9,23767,8910
9,24178,9328
9,24590,7895
9,25003,7129
9,25415,6900
9,25827,7722
9,26240,6912
9,26652,6092
9,27063,5992
9,27477,6425
9,27888,5488
9,28300,5345
9,28713,6239
9,29125,5990
9,29537,4837
9,29950,4466
9,30362,5475
9,30773,5537
9,31185,4994
9,31598,4978
9,32010,4653
9,32422,4852
9,32835,4166
9,33247,5483
9,33658,4755
9,34072,3919
9,34483,3995
9,34895,4483
9,35308,3663
9,35720,4446
9,36132,4951
9,36545,4262
9,36957,4315
9,37368,3955
9,37782,4099
9,38193,3920
9,38605,4290
9,39018,3961
9,39430,3963
9,39842,3487
9,40253,4386
9,40667,3608
9,41078,3787
9,41490,4589
9,41903,3821
9,42315,3538
9,42727,3661
9,43140,3811
9,43552,3999
9,43963,3935
9,44377,4061
9,44788,3529
9,45200,3861
9,45613,3518
9,46025,3318
9,46437,4184
9,46850,4073
9,47262,3870
9,47673,3266
9,48087,3821
9,48498,3355
9,48910,3655
9,49322,3621
9,49735,3289
9,50147,3936
9,50558,3958
9,50972,3482
9,51383,4070
9,51795,3789
9,52208,3419
9,52620,3861
9,53032,2594
9,53445,3528
9,53857,3552
9,54268,3229
9,54682,3138
9,55093,3803
9,55505,3552
9,55918,3644
9,56330,3744
9,56742,3913
9,57155,3509
9,57567,3542
9,57978,3505
9,58390,3213
9,58803,4088
9,59215,3488
9,59627,3654
9,60040,3617
9,60452,3698
9,60863,3337
9,61277,3775
9,61688,3280
9,62100,3671
9,62513,3130
9,62925,3336
9,63337,3339
9,63750,3494
9,64162,3453
9,64573,2869
9,64987,3247
9,65398,3396
9,65810,2903
9,66223,3456
9,66635,3270
9,67047,3322
9,67458,2797
9,67872,3640
9,68283,3415
9,68695,3323
9,69108,3479
9,69520,3155
9,69932,3374
9,70345,3218
9,70757,3419
9,71168,3419
9,71582,3456
9,71993,3516
9,72405,3630
9,72818,3510
9,73230,3789
9,73642,3336
9,74055,3763
9,74467,3147
9,74878,3887
9,75292,3394
9,75703,2997
9,76115,3209
9,76527,3279
9,76940,3808
9,77352,3183
9,77763,3185
9,78177,3179
9,78588,3131
9,79000,3778
9,79413,3767
9,79825,3413
9,80237,3340
9,80650,4022
9,81062,2911
9,81473,3375
9,81887,3665
9,82298,3118
9,82710,3404
9,83123,3179
9,83535,3456
9,83947,3580
9,84360,3358
9,84772,3394
9,85183,3344
9,85595,3099
9,86008,3512
9,86420,3355
9,86832,3146
9,87245,2980
9,87657,3182
9,88068,2794
9,88482,3608
9,88893,3004
9,89305,3463
9,89718,2878
9,90130,2435
9,90542,2792
9,90955,3796
9,91367,3077
9,91778,3280
9,92192,2987
9,92603,2947
9,93015,3077
9,93428,2539
9,93840,3217
9,94252,2877
9,94663,2968
9,95077,3036
9,95488,2807
9,95900,2889
9,96313,3068
9,96725,3052
9,97137,3283
9,97550,3110
9,97962,2843
9,98373,2844
9,98787,2757
9,99198,2376
9,99610,2835
10,00023,3068
10,00435,2595
10,00847,3380
10,01260,3184
10,01672,3275
10,02083,3154
10,02497,3191
10,02908,3002
10,03320,2895
10,03732,3231
10,04145,3007
10,04557,2997
10,04968,3007
10,05382,3484
10,05793,3358
10,06205,3426
10,06618,2639
10,07030,3643
10,07442,4377
10,07855,4313
10,08267,4962
10,08678,4549
10,09092,4735
10,09503,5124
10,09915,5040
10,10328,4584
10,10740,4329
10,11152,4668
10,11565,4120
10,11977,3826
10,12388,3943
10,12802,3391
10,13213,3354
10,13625,3080
10,14037,3395
10,14450,2940
10,14862,3070
10,15273,2861
10,15687,3027
10,16098,2744
10,16510,2815
10,16923,3141
10,17335,2461
10,17747,2855
10,18160,3075
10,18572,3181
10,18983,3166
10,19397,3163
10,19808,2397
10,20220,2636
10,20633,2650
10,21045,3486
10,21457,3026
10,21870,2687
10,22282,2852
10,22693,2987
10,23105,2965
10,23518,2416
10,23930,2742
10,24342,3405
10,24755,2535
10,25167,2701
10,25578,3409
10,25992,2650
10,26403,2710
10,26815,2748
10,27228,2704
10,27640,2868
10,28052,2784
10,28465,2498
10,28877,2638
10,29288,2985
10,29702,2492
10,30113,3271
10,30525,2782
10,30938,3231
10,31350,2629
10,31762,2823
10,32173,2989
10,32587,3173
10,32998,2998
10,33410,2956
10,33823,2816
10,34235,2954
10,34647,3003
10,35060,2545
10,35472,3045
10,35883,2917
10,36297,2736
10,36708,3139
10,37120,3256
10,37533,2785
10,37945,2715
10,38357,2755
10,38770,2749
10,39182,2816
10,39593,2604
10,40007,3125
10,40418,3320
10,40830,2721
10,41242,2749
10,41655,2606
10,42067,2939
10,42478,2849
10,42892,2878
10,43303,2621
10,43715,2843
10,44128,2999
10,44540,3542
10,44952,2532
10,45365,2759
10,45777,2573
10,46188,2916
10,46602,2842
10,47013,3009
10,47425,2657
10,47838,3560
10,48250,2608
10,48662,2974
10,49075,2764
10,49487,2615
10,49898,2636
10,50310,2576
10,50723,2969
10,51135,2618
10,51547,2710
10,51960,2949
10,52372,2715
10,52783,2439
10,53197,3149
10,53608,2633
10,54020,2551
10,54433,2655
10,54845,2730
10,55257,2552
10,55670,2640
10,56082,2879
10,56493,2670
10,56907,3053
10,57318,2257
10,57730,3099
10,58143,2418
10,58555,2797
10,58967,2537
10,59378,2411
10,59792,2887
10,60203,2444
10,60615,2854
10,61028,2986
10,61440,3010
10,61852,2561
10,62265,3610
10,62677,2965
10,63088,2639
10,63502,3055
10,63913,3199
10,64325,3083
10,64738,3183
10,65150,3688
10,65562,3454
10,65975,3666
10,66387,3310
10,66798,4137
10,67212,3742
10,67623,3558
10,68035,4354
10,68447,4391
10,68860,4416
10,69272,4442
10,69683,4989
10,70097,4480
10,70508,4950
10,70920,4400
10,71333,3949
10,71745,4160
10,72157,4255
10,72570,3660
10,72982,3952
10,73393,4087
10,73807,3235
10,74218,3439
10,74630,3175
10,75043,3559
10,75455,2421
10,75867,3634
10,76280,3020
10,76692,2878
10,77103,2705
10,77515,3131
10,77928,2911
10,78340,2490
10,78752,2385
10,79165,2619
10,79577,2682
10,79988,2597
10,80402,2429
10,80813,2737
10,81225,2174
10,81638,2634
10,82050,2738
10,82462,2799
10,82875,2860
10,83287,2854
10,83698,2142
10,84112,2622
10,84523,2687
10,84935,2104
10,85348,2946
10,85760,2778
10,86172,2680
10,86583,2286
10,86997,2484
10,87408,2494
10,87820,2184
10,88233,2141
10,88645,2432
10,89057,2385
10,89470,2090
10,89882,2416
10,90293,2518
10,90707,2751
10,91118,2610
10,91530,2439
10,91943,2109
10,92355,2587
10,92767,2326
10,93180,2213
10,93592,2450
10,94003,2481
10,94417,2339
10,94828,2665
10,95240,2556
10,95652,2584
10,96065,2648
10,96477,2617
10,96888,1860
10,97302,2641
10,97713,2426
10,98125,2637
10,98538,2560
10,98950,2381
10,99362,2213
10,99775,2394
11,00187,2259
11,00598,2656
11,01012,2445
11,01423,2622
11,01835,2239
11,02248,2225
11,02660,2696
11,03072,2401
11,03485,2413
11,03897,2846
11,04308,2165
11,04720,2599
11,05133,2873
11,05545,2460
11,05957,2418
11,06370,2103
11,06782,2700
11,07193,2950
11,07607,2770
11,08018,2596
11,08430,3205
11,08843,3170
11,09255,2900
11,09667,3392
11,10080,2636
11,10492,2473
11,10903,2811
11,11317,3089
11,11728,3093
11,12140,2519
11,12553,2486
11,12965,2440
11,13377,1941
11,13788,2558
11,14202,2314
11,14613,2766
11,15025,2193
11,15438,2420
11,15850,2830
11,16262,2170
11,16675,2226
11,17087,2012
11,17498,2026
11,17912,2622
11,18323,2430
11,18735,2549
11,19148,2732
11,19560,2268
11,19972,2390
11,20385,2517
11,20797,2572
11,21208,2438
11,21622,2822
11,22033,2620
11,22445,2196
11,22857,2540
11,23270,2041
11,23682,1908
11,24093,2223
11,24507,1871
11,24918,2536
11,25330,2542
11,25743,2086
11,26155,2026
11,26567,2092
11,26980,1929
11,27392,2140
11,27803,2079
11,28217,2255
11,28628,2336
11,29040,1976
11,29453,2434
11,29865,2207
11,30277,2619
11,30690,2060
11,31102,2265
11,31513,2073
11,31925,2067
11,32338,2366
11,32750,2328
11,33162,2333
11,33575,2474
11,33987,1950
11,34398,2409
11,34812,2689
11,35223,2271
11,35635,2055
11,36048,2171
11,36460,2540
11,36872,2405
11,37285,2414
11,37697,2238
11,38108,1900
11,38522,2461
11,38933,1961
11,39345,2261
11,39758,2036
11,40170,2425
11,40582,2125
11,40993,1982
11,41407,2215
11,41818,2024
11,42230,2489
11,42643,2135
11,43055,2610
11,43467,2265
11,43880,1849
11,44292,2319
11,44703,2457
11,45117,2668
11,45528,2204
11,45940,2283
11,46353,2475
11,46765,2065
11,47177,2358
11,47590,2296
11,48002,2286
11,48413,2481
11,48827,2461
11,49238,2573
11,49650,2261
11,50062,3178
11,50475,2625
11,50887,2389
11,51298,2545
11,51712,2389
11,52123,2002
11,52535,2837
11,52948,2436
11,53360,2663
11,53772,2189
11,54185,2686
11,54597,2343
11,55008,1967
11,55422,2354
11,55833,2724
11,56245,2227
11,56658,2956
11,57070,2553
11,57482,2165
11,57895,1882
11,58307,1968
11,58718,2507
11,59130,2653
11,59543,2441
11,59955,2080
11,60367,2053
11,60780,2343
11,61192,2204
11,61603,2138
11,62017,2303
11,62428,2271
11,62840,1920
11,63253,2211
11,63665,2105
11,64077,2339
11,64490,2018
11,64902,2483
11,65313,2276
11,65727,2210
11,66138,2288
11,66550,2147
11,66963,2201
11,67375,1904
11,67787,2337
11,68198,2325
11,68612,2562
11,69023,2700
11,69435,2373
11,69848,1807
11,70260,1836
11,70672,1858
11,71085,1764
11,71497,1820
11,71908,2185
11,72322,1886
11,72733,2249
11,73145,2167
11,73558,2049
11,73970,2401
11,74382,2183
11,74795,2207
11,75207,1980
11,75618,2281
11,76032,2200
11,76443,1940
11,76855,1938
11,77268,2342
11,77680,2297
11,78092,2217
11,78503,2296
11,78917,2446
11,79328,2356
11,79740,2030
11,80153,2463
11,80565,2060
11,80977,1771
11,81390,2388
11,81802,2335
11,82213,1778
11,82627,2249
11,83038,2188
11,83450,2770
11,83863,2852
11,84275,2364
11,84687,2489
11,85100,2596
11,85512,2439
11,85923,2748
11,86337,2445
11,86748,2522
11,87160,2287
11,87572,2406
11,87985,2020
11,88397,2532
11,88808,2842
11,89222,2406
11,89633,2017
11,90045,1680
11,90458,2318
11,90870,2283
11,91282,2509
11,91695,2620
11,92107,2495
11,92518,2228
11,92932,1943
11,93343,2441
11,93755,2402
11,94168,2192
11,94580,2223
11,94992,1889
11,95405,1731
11,95817,2377
11,96228,1807
11,96640,2064
11,97053,1835
11,97465,2194
11,97877,1996
11,98290,1855
11,98702,2199
11,99113,2015
11,99527,2276
11,99938,2165
12,00350,2547
12,00763,1987
12,01175,2119
12,01587,1768
12,02000,1880
12,02412,2500
12,02823,1980
12,03237,2483
12,03648,1766
12,04060,1960
12,04473,1677
12,04885,2124
12,05297,2368
12,05708,2073
12,06122,2006
12,06533,1909
12,06945,2316
12,07358,1802
12,07770,2096
12,08182,2185
12,08595,2186
12,09007,1715
12,09418,2476
12,09832,2437
12,10243,2126
12,10655,1866
12,11068,2706
12,11480,2019
12,11892,2072
12,12305,1858
12,12717,2031
12,13128,2298
12,13542,1998
12,13953,2253
12,14365,2078
12,14777,2147
12,15190,2174
12,15602,2130
12,16013,1978
12,16427,2018
12,16838,2144
12,17250,1684
12,17663,1980
12,18075,2153
12,18487,3304
12,18900,4634
12,19312,6955
12,19723,9194
12,20137,15944
12,20548,28380
12,20960,41136
12,21373,63691
12,21785,92343
12,22197,129074
12,22610,174676
12,23022,222718
12,23433,286229
12,23845,348995
12,24258,402381
12,24670,456036
12,25082,499480
12,25495,534549
12,25907,545853
12,26318,547375
12,26732,540491
12,27143,506848
12,27555,474120
12,27968,432330
12,28380,386323
12,28792,348309
12,29205,302949
12,29617,260700
12,30028,227429
12,30442,192565
12,30853,165119
12,31265,138759
12,31678,118773
12,32090,103772
12,32502,87614
12,32913,74975
12,33327,64880
12,33738,56318
12,34150,52110
12,34563,45145
12,34975,40865
12,35387,37603
12,35800,32355
12,36212,28031
12,36623,25899
12,37037,23599
12,37448,21835
12,37860,20014
12,38273,18920
12,38685,17613
12,39097,16362
12,39510,16452
12,39922,13389
12,40333,14965
12,40747,13084
12,41158,11536
12,41570,11105
12,41982,10197
12,42395,10816
12,42807,9404
12,43218,9056
12,43632,9264
12,44043,8570
12,44455,7186
12,44868,6983
12,45280,7223
12,45692,7715
12,46105,6541
12,46517,6371
12,46928,6113
12,47342,5926
12,47753,5430
12,48165,5935
12,48578,6484
12,48990,5348
12,49402,5422
12,49815,4736
12,50227,5395
12,50638,4679
12,51050,5188
12,51463,4712
12,51875,4865
12,52287,4656
12,52700,3640
12,53112,4835
12,53523,4127
12,53937,3990
12,54348,4469
12,54760,3895
12,55173,3786
12,55585,3664
12,55997,3401
12,56410,3661
12,56822,3201
12,57233,3122
12,57647,3836
12,58058,3007
12,58470,3523
12,58883,3492
12,59295,3515
12,59707,3365
12,60118,3845
12,60532,3117
12,60943,3386
12,61355,3428
12,61768,2953
12,62180,2592
12,62592,2976
12,63005,2525
12,63417,2666
12,63828,2139
12,64242,2024
12,64653,2800
12,65065,1908
12,65478,2538
12,65890,2506
12,66302,2640
12,66715,2594
12,67127,2208
12,67538,2624
12,67952,2609
12,68363,2385
12,68775,2286
12,69187,2435
12,69600,2280
12,70012,2382
12,70423,2873
12,70837,2400
12,71248,1617
12,71660,2448
12,72073,2193
12,72485,2676
12,72897,2340
12,73310,2299
12,73722,2964
12,74133,2065
12,74547,2610
12,74958,1941
12,75370,1915
12,75783,2211
12,76195,2427
12,76607,2278
12,77020,2091
12,77432,1996
12,77843,2414
12,78255,1665
12,78668,2039
12,79080,1896
12,79492,2098
12,79905,1728
12,80317,2346
12,80728,1747
12,81142,2511
12,81553,2312
12,81965,2442
12,82378,1625
12,82790,1586
12,83202,2020
12,83615,1902
12,84027,2061
12,84438,1955
12,84852,1619
12,85263,1569
12,85675,2056
12,86088,1983
12,86500,2367
12,86912,2320
12,87323,1906
12,87737,1835
12,88148,2368
12,88560,2158
12,88973,2186
12,89385,2466
12,89797,1950
12,90210,2345
12,90622,1491
12,91033,1877
12,91447,2291
12,91858,2070
12,92270,1411
12,92683,2998
12,93095,2283
12,93507,2377
12,93920,2243
12,94332,2183
12,94743,1827
12,95157,2109
12,95568,1905
12,95980,2015
12,96392,1906
12,96805,2069
12,97217,1969
12,97628,2050
12,98042,1724
12,98453,1628
12,98865,2214
12,99278,2400
12,99690,1605
13,00102,1776
13,00515,1443
13,00927,1979
13,01338,1889
13,01752,1679
13,02163,2244
13,02575,1980
13,02988,2195
13,03400,2563
13,03812,1440
13,04225,1433
13,04637,2161
13,05048,1759
13,05460,1711
13,05873,1749
13,06285,1858
13,06697,2079
13,07110,2100
13,07522,2627
13,07933,1759
13,08347,2035
13,08758,1715
13,09170,1812
13,09583,1913
13,09995,1783
13,10407,1983
13,10820,2054
13,11232,1818
13,11643,1899
13,12057,2346
13,12468,1885
13,12880,1842
13,13293,2064
13,13705,2118
13,14117,1842
13,14528,2069
13,14942,1730
13,15353,1952
13,15765,1793
13,16178,1977
13,16590,1912
13,17002,1809
13,17415,1772
13,17827,1768
13,18238,1995
13,18652,1835
13,19063,2124
13,19475,1992
13,19888,1859
13,20300,1666
13,20712,1733
13,21125,1852
13,21537,2246
13,21948,1822
13,22362,1860
13,22773,1772
13,23185,1921
13,23597,1740
13,24010,1494
13,24422,1814
13,24833,1977
13,25247,1550
13,25658,1867
13,26070,1553
13,26483,1368
13,26895,1654
13,27307,1857
13,27720,1734
13,28132,2007
13,28543,1709
13,28957,1668
13,29368,1803
13,29780,1597
13,30193,2147
13,30605,1586
13,31017,2232
13,31430,1469
13,31842,1424
13,32253,1963
13,32667,1698
13,33078,1522
13,33490,1529
13,33902,1974
13,34315,1607
13,34727,1389
13,35138,1385
13,35552,1399
13,35963,1993
13,36375,2022
13,36788,1909
13,37200,1801
13,37612,1560
13,38025,1457
13,38437,2076
13,38848,1651
13,39262,1792
13,39673,1780
13,40085,1491
13,40498,1848
13,40910,1333
13,41322,1720
13,41735,1626
13,42147,1515
13,42558,1820
13,42970,1818
13,43383,1501
13,43795,1871
13,44207,1834
13,44620,1737
13,45032,1846
13,45443,1714
13,45857,1725
13,46268,2367
13,46680,2081
13,47093,1558
13,47505,1781
13,47917,1577
13,48330,1808
13,48742,1271
13,49153,1998
13,49567,1450
13,49978,1851
13,50390,1925
13,50803,1776
13,51215,1966
13,51627,1738
13,52038,1892
13,52452,1617
13,52863,1750
13,53275,1975
13,53688,1945
13,54100,1691
13,54512,1742
13,54925,1689
13,55337,1598
13,55748,1615
13,56162,1338
13,56573,2101
13,56985,2328
13,57398,1748
13,57810,1376
13,58222,2192
13,58635,2586
13,59047,2659
13,59458,3188
13,59872,3785
13,60283,3378
13,60695,3564
13,61107,3952
13,61520,3735
13,61932,3077
13,62343,2726
13,62757,2143
13,63168,1656
13,63580,2215
13,63993,1861
13,64405,1430
13,64817,1926
13,65230,1939
13,65642,1711
13,66053,1285
13,66467,1649
13,66878,1708
13,67290,2892
13,67703,2477
13,68115,3062
13,68527,3120
13,68940,3535
13,69352,3849
13,69763,3234
13,70175,3825
13,70588,3776
13,71000,4147
13,71412,4370
13,71825,4068
13,72237,4151
13,72648,4185
13,73062,3966
13,73473,3429
13,73885,3067
13,74298,2893
13,74710,3413
13,75122,3154
13,75535,3201
13,75947,3127
13,76358,2451
13,76772,1836
13,77183,1599
13,77595,1801
13,78008,1908
13,78420,2127
13,78832,2113
13,79243,1444
13,79657,1584
13,80068,2076
13,80480,1909
13,80893,1441
13,81305,1462
13,81717,2117
13,82130,1400
13,82542,1926
13,82953,1545
13,83367,1783
13,83778,1556
13,84190,1606
13,84603,1905
13,85015,1914
13,85427,1654
13,85840,2750
13,86252,3192
13,86663,3974
13,87077,7298
13,87488,10880
13,87900,15636
13,88312,23298
13,88725,36075
13,89137,54791
13,89548,79638
13,89962,110235
13,90373,141775
13,90785,182830
13,91198,221236
13,91610,259467
13,92022,296672
13,92435,324905
13,92847,337910
13,93258,352970
13,93672,351420
13,94083,332773
13,94495,316421
13,94908,291630
13,95320,258580
13,95732,231601
13,96145,200431
13,96557,169136
13,96968,143924
13,97380,122791
13,97793,100923
13,98205,89455
13,98617,72972
13,99030,65087
13,99442,54345
13,99853,46217
14,00267,40377
14,00678,36529
14,01090,31371
14,01503,26110
14,01915,25535
14,02327,22576
14,02740,19776
14,03152,17346
14,03563,15812
14,03977,14214
14,04388,14118
14,04800,12740
14,05213,11953
14,05625,10629
14,06037,10311
14,06448,10347
14,06862,9634
14,07273,8997
14,07685,8816
14,08098,8602
14,08510,6607
14,08922,6155
14,09335,6516
14,09747,6789
14,10158,6370
14,10572,6109
14,10983,4796
14,11395,4980
14,11808,4680
14,12220,4806
14,12632,4683
14,13045,4059
14,13457,3478
14,13868,4486
14,14282,4082
14,14693,3755
14,15105,4129
14,15517,4488
14,15930,3153
14,16342,3852
14,16753,3137
14,17167,2925
14,17578,3211
14,17990,2722
14,18403,3276
14,18815,3187
14,19227,3028
14,19640,1983
14,20052,2405
14,20463,2419
14,20877,3180
14,21288,2692
14,21700,2447
14,22113,2834
14,22525,2315
14,22937,2953
14,23350,1205
14,23762,2442
14,24173,2419
14,24585,1814
14,24998,2229
14,25410,2696
14,25822,2081
14,26235,2218
14,26647,2203
14,27058,2394
14,27472,1967
14,27883,2473
14,28295,2070
14,28708,2149
14,29120,2274
14,29532,1595
14,29945,2054
14,30357,2185
14,30768,1761
14,31182,2025
14,31593,1766
14,32005,2197
14,32418,1602
14,32830,1875
14,33242,2129
14,33653,1816
14,34067,1412
14,34478,1728
14,34890,1950
14,35303,1455
14,35715,1449
14,36127,1468
14,36540,2126
14,36952,2014
14,37363,2420
14,37777,2404
14,38188,1615
14,38600,1536
14,39013,1425
14,39425,1508
14,39837,2303
14,40250,1791
14,40662,1402
14,41073,1163
14,41487,1781
14,41898,1693
14,42310,1534
14,42722,1337
14,43135,1545
14,43547,1575
14,43958,1492
14,44372,1421
14,44783,1805
14,45195,1520
14,45608,1886
14,46020,1644
14,46432,1959
14,46845,1922
14,47257,1356
14,47668,1835
14,48082,1509
14,48493,1475
14,48905,1729
14,49318,1583
14,49730,1215
14,50142,1106
14,50555,1243
14,50967,1840
14,51378,1509
14,51790,1577
14,52203,1839
14,52615,1569
14,53027,1601
14,53440,1477
14,53852,1638
14,54263,1343
14,54677,1508
14,55088,1168
14,55500,1559
14,55913,1552
14,56325,1610
14,56737,1724
14,57150,2476
14,57562,2333
14,57973,2229
14,58387,2271
14,58798,2751
14,59210,2150
14,59623,2642
14,60035,2641
14,60447,2660
14,60858,2232
14,61272,1787
14,61683,1924
14,62095,2247
14,62508,1539
14,62920,1980
14,63332,1750
14,63745,2030
14,64157,1971
14,64568,1236
14,64982,1868
14,65393,1558
14,65805,1986
14,66218,1665
14,66630,1516
14,67042,1598
14,67455,1143
14,67867,1665
14,68278,1724
14,68692,1270
14,69103,1840
14,69515,1807
14,69927,1850
14,70340,1567
14,70752,1290
14,71163,1730
14,71577,1536
14,71988,1653
14,72400,1466
14,72813,1569
14,73225,1839
14,73637,1502
14,74050,1681
14,74462,1708
14,74873,1219
14,75287,1698
14,75698,1726
14,76110,1291
14,76523,1566
14,76935,1382
14,77347,1549
14,77760,2031
14,78172,1547
14,78583,1210
14,78995,1536
14,79408,1561
14,79820,1334
14,80232,1192
14,80645,1551
14,81057,1476
14,81468,1285
14,81882,1321
14,82293,1489
14,82705,2080
14,83118,1748
14,83530,1283
14,83942,1611
14,84355,1587
14,84767,1699
14,85178,1501
14,85592,1382
14,86003,1591
14,86415,2004
14,86828,1749
14,87240,940
14,87652,1736
14,88063,1386
14,88477,1446
14,88888,1178
14,89300,1222
14,89713,1461
14,90125,1954
14,90537,1415
14,90950,1273
14,91362,1403
14,91773,1207
14,92187,1361
14,92598,1624
14,93010,1627
14,93423,1256
14,93835,1484
14,94247,1667
14,94660,1262
14,95072,1584
14,95483,1104
14,95897,1448
14,96308,1056
14,96720,1450
14,97133,1354
14,97545,1574
14,97957,1329
14,98368,1751
14,98782,1454
14,99193,1122
14,99605,1660
15,00018,1312
15,00430,1163
15,00842,1104
15,01255,1229
15,01667,1454
15,02078,1620
15,02492,1569
15,02903,1554
15,03315,1539
15,03728,1509
15,04140,1679
15,04552,1345
15,04965,1362
15,05377,1775
15,05788,1662
15,06202,1204
15,06613,1483
15,07025,1321
15,07437,1138
15,07850,1622
15,08262,1101
15,08673,1176
15,09087,1256
15,09498,1752
15,09910,1855
15,10323,1467
15,10735,1626
15,11147,1580
15,11560,1785
15,11972,1256
15,12383,1506
15,12797,1359
15,13208,1435
15,13620,1711
15,14033,1846
15,14445,1978
15,14857,1907
15,15270,1126
15,15682,1857
15,16093,1551
15,16505,1539
15,16918,1726
15,17330,1286
15,17742,1582
15,18155,1756
15,18567,1404
15,18978,1185
15,19392,1597
15,19803,1390
15,20215,1920
15,20628,1360
15,21040,1252
15,21452,1397
15,21865,1444
15,22277,1794
15,22688,1608
15,23102,984
15,23513,2012
15,23925,1563
15,24338,1362
15,24750,1387
15,25162,1228
15,25573,938
15,25987,1390
15,26398,1285
15,26810,1181
15,27223,1779
15,27635,1502
15,28047,965
15,28460,1130
15,28872,1541
15,29283,1069
15,29697,1270
15,30108,1157
15,30520,1311
15,30933,1558
15,31345,1265
15,31757,1173
15,32170,927
15,32582,1460
15,32993,1536
15,33407,1641
15,33818,1368
15,34230,1137
15,34642,1115
15,35055,1196
15,35467,1969
15,35878,1517
15,36292,1281
15,36703,1462
15,37115,1293
15,37528,1145
15,37940,956
15,38352,1489
15,38765,1180
15,39177,1547
15,39588,1262
15,40002,762
15,40413,1240
15,40825,1448
15,41238,1555
15,41650,1264
15,42062,1415
15,42475,931
15,42887,1162
15,43298,1613
15,43710,1275
15,44123,1450
15,44535,1086
15,44947,1476
15,45360,1846
15,45772,1398
15,46183,1356
15,46597,1331
15,47008,1582
15,47420,1343
15,47833,1458
15,48245,1592
15,48657,1245
15,49070,1362
15,49482,1335
15,49893,963
15,50307,1505
15,50718,1249
15,51130,1109
15,51543,1522
15,51955,2043
15,52367,2098
15,52778,4077
15,53192,6255
15,53603,10663
15,54015,17654
15,54428,32458
15,54840,52272
15,55252,81863
15,55665,124118
15,56077,184094
15,56488,250914
15,56902,340380
15,57313,429950
15,57725,528914
15,58138,619281
15,58550,715661
15,58962,782267
15,59375,825838
15,59787,837387
15,60198,838048
15,60612,795074
15,61023,744915
15,61435,666565
15,61847,594127
15,62260,517248
15,62672,446692
15,63083,373107
15,63497,309513
15,63908,259990
15,64320,213169
15,64733,180770
15,65145,150977
15,65557,133459
15,65970,111599
15,66382,97408
15,66793,84170
15,67207,72939
15,67618,63900
15,68030,54664
15,68443,50797
15,68855,43138
15,69267,38859
15,69680,34629
15,70092,31551
15,70503,29228
15,70915,27423
15,71328,23224
15,71740,23645
15,72152,20955
15,72565,18587
15,72977,17971
15,73388,18344
15,73802,15190
15,74213,13402
15,74625,14595
15,75038,12692
15,75450,11553
15,75862,11741
15,76275,10150
15,76687,10279
15,77098,10127
15,77512,9559
15,77923,8645
15,78335,8094
15,78748,7977
15,79160,7306
15,79572,7033
15,79983,6986
15,80397,7078
15,80808,7542
15,81220,6782
15,81633,5798
15,82045,5033
15,82457,5498
15,82870,4578
15,83282,4668
15,83693,5241
15,84107,4952
15,84518,4495
15,84930,4368
15,85343,4466
15,85755,4135
15,86167,4173
15,86580,3480
15,86992,2892
15,87403,3626
15,87817,4099
15,88228,3407
15,88640,3591
15,89052,3289
15,89465,2810
15,89877,3268
15,90288,3022
15,90702,3237
15,91113,3137
15,91525,2684
15,91938,2790
15,92350,2772
15,92762,2767
15,93175,2533
15,93587,2829
15,93998,2829
15,94412,2258
15,94823,2330
15,95235,2500
15,95648,2799
15,96060,2410
15,96472,2042
15,96885,1992
15,97297,2085
15,97708,2259
15,98120,2034
15,98533,2182
15,98945,2252
15,99357,2157
15,99770,1881
16,00182,1809
16,00593,2489
16,01007,1551
16,01418,2164
16,01830,1981
16,02243,1940
16,02655,2201
16,03067,1899
16,03480,2279
16,03892,2093
16,04303,2256
16,04717,2315
16,05128,2616
16,05540,1942
16,05953,1870
16,06365,2435
16,06777,2904
16,07188,2890
16,07602,2404
16,08013,2741
16,08425,2133
16,08838,2424
16,09250,2603
16,09662,2944
16,10075,2997
16,10487,3218
16,10898,4573
16,11312,4873
16,11723,5584
16,12135,5549
16,12548,6003
16,12960,6092
16,13372,7341
16,13785,6869
16,14197,7633
16,14608,7009
16,15022,7492
16,15433,6534
16,15845,5368
16,16257,5747
16,16670,5323
16,17082,4874
16,17493,4583
16,17907,4911
16,18318,4917
16,18730,3897
16,19143,3750
16,19555,3421
16,19967,3128
16,20380,3676
16,20792,3292
16,21203,2553
16,21617,3089
16,22028,2469
16,22440,1474
16,22853,1380
16,23265,2141
16,23677,1607
16,24090,1869
16,24502,1809
16,24913,1659
16,25325,1194
16,25738,1898
16,26150,1231
16,26562,1296
16,26975,1695
16,27387,1310
16,27798,1228
16,28212,1529
16,28623,1473
16,29035,1707
16,29448,1166
16,29860,1133
16,30272,1505
16,30685,1689
16,31097,1252
16,31508,1013
16,31922,1371
16,32333,1210
16,32745,1495
16,33158,1074
16,33570,1154
16,33982,1401
16,34393,900
16,34807,1040
16,35218,1101
16,35630,1549
16,36043,1668
16,36455,1310
16,36867,1079
16,37280,862
16,37692,1152
16,38103,1202
16,38517,1331
16,38928,1013
16,39340,1313
16,39753,1197
16,40165,1268
16,40577,1335
16,40990,1676
16,41402,1236
16,41813,1694
16,42227,1049
16,42638,1217
16,43050,1029
16,43462,626
16,43875,1155
16,44287,870
16,44698,813
16,45112,1326
16,45523,945
16,45935,1113
16,46348,1301
16,46760,916
16,47172,1443
16,47585,953
16,47997,952
16,48408,1370
16,48822,1183
16,49233,986
16,49645,875
16,50058,1442
16,50470,1407
16,50882,1285
16,51295,1164
16,51707,820
16,52118,850
16,52530,845
16,52943,610
16,53355,1302
16,53767,1406
16,54180,1150
16,54592,1136
16,55003,1240
16,55417,914
16,55828,972
16,56240,1216
16,56653,1291
16,57065,1455
16,57477,1240
16,57890,808
16,58302,822
16,58713,1116
16,59127,1153
16,59538,1062
16,59950,816
16,60363,1238
16,60775,823
16,61187,1225
16,61600,678
16,62012,1093
16,62423,777
16,62835,1229
16,63248,823
16,63660,1484
16,64072,871
16,64485,915
16,64897,1039
16,65308,1053
16,65722,1036
16,66133,695
16,66545,1061
16,66958,1091
16,67370,1101
16,67782,1160
16,68195,968
16,68607,1085
16,69018,1126
16,69432,1082
16,69843,1005
16,70255,851
16,70668,1135
16,71080,1369
16,71492,1017
16,71903,753
16,72317,1072
16,72728,915
16,73140,820
16,73553,1197
16,73965,1213
16,74377,1258
16,74790,883
16,75202,974
16,75613,705
16,76027,730
16,76438,1395
16,76850,736
16,77263,1035
16,77675,666
16,78087,964
16,78500,895
16,78912,1005
16,79323,1229
16,79737,848
16,80148,717
16,80560,790
16,80972,1053
16,81385,1068
16,81797,1086
16,82208,770
16,82622,557
16,83033,1019
16,83445,930
16,83858,1026
16,84270,954
16,84682,1022
16,85095,1081
16,85507,1001
16,85918,1046
16,86332,1290
16,86743,1335
16,87155,916
16,87568,1147
16,87980,1002
16,88392,1310
16,88805,719
16,89217,1169
16,89628,1087
16,90040,959
16,90453,993
16,90865,491
16,91277,1191
16,91690,1079
16,92102,1066
16,92513,941
16,92927,1120
16,93338,1056
16,93750,959
16,94163,1137
16,94575,1162
16,94987,1284
16,95400,960
16,95812,1028
16,96223,1426
16,96637,1419
16,97048,2155
16,97460,2498
16,97873,2499
16,98285,2687
16,98697,2757
16,99108,2009
16,99522,1666
16,99933,1473
17,00345,935
17,00758,1064
17,01170,1036
17,01582,928
17,01995,860
17,02407,1024
17,02818,883
17,03232,767
17,03643,906
17,04055,1066
17,04468,943
17,04880,1007
17,05292,645
17,05705,862
17,06117,1271
17,06528,1031
17,06942,1121
17,07353,1042
17,07765,907
17,08177,944
17,08590,706
17,09002,783
17,09413,882
17,09827,1075
17,10238,876
17,10650,1083
17,11063,1174
17,11475,1141
17,11887,1102
17,12300,1086
17,12712,697
17,13123,782
17,13537,973
17,13948,659
17,14360,1088
17,14773,1051
17,15185,1565
17,15597,2339
17,16010,4532
17,16422,8710
17,16833,13778
17,17245,25537
17,17658,40684
17,18070,63243
17,18482,94227
17,18895,134188
17,19307,181609
17,19718,237770
17,20132,290397
17,20543,348663
17,20955,395553
17,21368,429437
17,21780,448409
17,22192,462390
17,22605,455897
17,23017,434917
17,23428,394206
17,23842,355449
17,24253,317679
17,24665,275541
17,25078,227642
17,25490,192623
17,25902,164379
17,26313,136420
17,26727,111710
17,27138,92350
17,27550,80323
17,27963,68577
17,28375,56670
17,28787,47186
17,29200,41126
17,29612,36311
17,30023,33456
17,30437,27331
17,30848,24149
17,31260,21946
17,31673,19982
17,32085,16676
17,32497,16861
17,32910,14799
17,33322,14463
17,33733,11538
17,34147,11137
17,34558,10885
17,34970,10000
17,35382,8575
17,35795,8174
17,36207,7267
17,36618,8036
17,37032,6723
17,37443,5976
17,37855,5737
17,38268,5353
17,38680,4954
17,39092,5197
17,39505,4556
17,39917,4362
17,40328,4496
17,40742,4215
17,41153,4322
17,41565,3729
17,41978,3575
17,42390,2599
17,42802,2956
17,43215,3694
17,43627,3333
17,44038,2327
17,44450,2845
17,44863,2692
17,45275,2296
17,45687,2330
17,46100,2764
17,46512,2560
17,46923,1726
17,47337,2267
17,47748,2500
17,48160,2429
17,48573,2370
17,48985,1709
17,49397,2084
17,49810,1901
17,50222,1995
17,50633,2118
17,51047,1667
17,51458,1757
17,51870,2093
17,52283,1383
17,52695,1814
17,53107,1052
17,53518,1686
17,53932,1862
17,54343,1130
17,54755,1694
17,55168,1725
17,55580,1180
17,55992,1056
17,56405,1386
17,56817,1698
17,57228,1594
17,57642,1347
17,58053,1182
17,58465,1158
17,58878,1215
17,59290,1318
17,59702,852
17,60115,1350
17,60527,675
17,60938,1166
17,61352,1225
17,61763,930
17,62175,1287
17,62587,1088
17,63000,1809
17,63412,1119
17,63823,988
17,64237,1330
17,64648,1048
17,65060,639
17,65473,1420
17,65885,1000
17,66297,1093
17,66710,1382
17,67122,1207
17,67533,1013
17,67947,640
17,68358,942
17,68770,1506
17,69183,907
17,69595,1005
17,70007,870
17,70420,907
17,70832,751
17,71243,813
17,71655,1175
17,72068,1058
17,72480,526
17,72892,1094
17,73305,592
17,73717,591
17,74128,1045
17,74542,807
17,74953,763
17,75365,563
17,75778,1030
17,76190,572
17,76602,882
17,77015,1001
17,77427,401
17,77838,910
17,78252,1044
17,78663,1029
17,79075,689
17,79488,552
17,79900,733
17,80312,865
17,80723,616
17,81137,1097
17,81548,1242
17,81960,730
17,82373,654
17,82785,626
17,83197,1049
17,83610,682
17,84022,798
17,84433,709
17,84847,1042
17,85258,530
17,85670,589
17,86083,821
17,86495,606
17,86907,786
17,87320,908
17,87732,764
17,88143,1257
17,88557,878
17,88968,1524
17,89380,1319
17,89792,1252
17,90205,1628
17,90617,1334
17,91028,1990
17,91442,1841
17,91853,1306
17,92265,1545
17,92678,1345
17,93090,1805
17,93502,1504
17,93915,1019
17,94327,1542
17,94738,1346
17,95152,550
17,95563,1015
17,95975,896
17,96388,1135
17,96800,905
17,97212,1095
17,97625,1389
17,98037,793
17,98448,1135
17,98860,709
17,99273,1733
17,99685,1242
18,00097,1547
18,00510,1481
18,00922,1720
18,01333,1808
18,01747,1795
18,02158,1638
18,02570,1724
18,02983,2038
18,03395,2171
18,03807,2328
18,04220,1360
18,04632,1503
18,05043,991
18,05457,1166
18,05868,1461
18,06280,1008
18,06693,1117
18,07105,1300
18,07517,789
18,07928,916
18,08342,635
18,08753,1179
18,09165,425
18,09578,669
18,09990,811
18,10402,443
18,10815,541
18,11227,620
18,11638,523
18,12052,642
18,12463,590
18,12875,449
18,13288,999
18,13700,493
18,14112,696
18,14525,703
18,14937,839
18,15348,1022
18,15762,612
18,16173,814
18,16585,1006
18,16997,364
18,17410,402
18,17822,762
18,18233,579
18,18647,653
18,19058,840
18,19470,558
18,19883,870
18,20295,654
18,20707,624
18,21120,864
18,21532,485
18,21943,830
18,22357,498
18,22768,751
18,23180,995
18,23593,304
18,24005,879
18,24417,602
18,24830,302
18,25242,388
18,25653,464
18,26067,683
18,26478,747
18,26890,1096
18,27302,734
18,27715,875
18,28127,851
18,28538,589
18,28952,848
18,29363,857
18,29775,447
18,30188,768
18,30600,388
18,31012,909
18,31425,204
18,31837,891
18,32248,637
18,32662,558
18,33073,827
18,33485,611
18,33898,470
18,34310,903
18,34722,579
18,35135,404
18,35547,765
18,35958,475
18,36370,668
18,36783,561
18,37195,952
18,37607,287
18,38020,938
18,38432,575
18,38843,793
18,39257,688
18,39668,760
18,40080,519
18,40493,993
18,40905,928
18,41317,1227
18,41730,948
18,42142,914
18,42553,1464
18,42967,1154
18,43378,1340
18,43790,2151
18,44203,1631
18,44615,1842
18,45027,2540
18,45438,2799
18,45852,2386
18,46263,3258
18,46675,3098
18,47088,2754
18,47500,2255
18,47912,2776
18,48325,2146
18,48737,1785
18,49148,1522
18,49562,1173
18,49973,1173
18,50385,1603
18,50798,1456
18,51210,1178
18,51622,1401
18,52035,834
18,52447,1397
18,52858,1065
18,53272,495
18,53683,948
18,54095,1202
18,54507,806
18,54920,664
18,55332,534
18,55743,726
18,56157,1120
18,56568,761
18,56980,934
18,57393,509
18,57805,366
18,58217,527
18,58630,1019
18,59042,907
18,59453,631
18,59867,971
18,60278,870
18,60690,642
18,61103,359
18,61515,1421
18,61927,1831
18,62340,2047
18,62752,2519
18,63163,2954
18,63575,2944
18,63988,3407
18,64400,3358
18,64812,4271
18,65225,4284
18,65637,4137
18,66048,4110
18,66462,4212
18,66873,3903
18,67285,4250
18,67698,2755
18,68110,2245
18,68522,2661
18,68935,2092
18,69347,1587
18,69758,1616
18,70172,1106
18,70583,904
18,70995,1555
18,71408,1685
18,71820,1928
18,72232,2257
18,72643,3871
18,73057,7078
18,73468,13427
18,73880,23552
18,74293,40327
18,74705,66579
18,75117,110737
18,75530,164293
18,75942,237241
18,76353,333442
18,76767,442962
18,77178,557125
18,77590,682755
18,78003,799634
18,78415,900083
18,78827,982680
18,79240,1023571
18,79652,1042465
18,80063,1004317
18,80477,941919
18,80888,874131
18,81300,763024
18,81712,663329
18,82125,561258
18,82537,464406
18,82948,391585
18,83362,320960
18,83773,260593
18,84185,216814
18,84598,180654
18,85010,149942
18,85422,125388
18,85835,107668
18,86247,89840
18,86658,77639
18,87072,66763
18,87483,60685
18,87895,53787
18,88308,47199
18,88720,44268
18,89132,39736
18,89545,35351
18,89957,30911
18,90368,28333
18,90780,26799
18,91193,24578
18,91605,23067
18,92017,20325
18,92430,18622
18,92842,16998
18,93253,15307
18,93667,14395
18,94078,14194
18,94490,13646
18,94903,12196
18,95315,11650
18,95727,12059
18,96140,10270
18,96552,9949
18,96963,9846
18,97377,8968
18,97788,7523
18,98200,7267
18,98613,6586
18,99025,7144
18,99437,5759
18,99848,6505
19,00262,4173
19,00673,5724
19,01085,4785
19,01498,4803
19,01910,4097
19,02322,4466
19,02735,4185
19,03147,4515
19,03558,4172
19,03972,3997
19,04383,3722
19,04795,3935
19,05208,3753
19,05620,3611
19,06032,3394
19,06445,2420
19,06857,3344
19,07268,2801
19,07682,2981
19,08093,3100
19,08505,2366
19,08917,2793
19,09330,1603
19,09742,2152
19,10153,1425
19,10567,2263
19,10978,2568
19,11390,2650
19,11803,1245
19,12215,1602
19,12627,2082
19,13040,1757
19,13452,1938
19,13863,1456
19,14277,1800
19,14688,1465
19,15100,1006
19,15513,1763
19,15925,1180
19,16337,660
19,16750,1279
19,17162,1090
19,17573,1682
19,17985,1336
19,18398,894
19,18810,1651
19,19222,866
19,19635,1316
19,20047,1015
19,20458,891
19,20872,1235
19,21283,1254
19,21695,1156
19,22108,552
19,22520,1072
19,22932,795
19,23345,1054
19,23757,911
19,24168,760
19,24582,1025
19,24993,1228
19,25405,554
19,25818,610
19,26230,672
19,26642,1184
19,27053,788
19,27467,829
19,27878,508
19,28290,890
19,28703,621
19,29115,665
19,29527,1111
19,29940,700
19,30352,695
19,30763,1174
19,31177,1090
19,31588,703
19,32000,667
19,32413,601
19,32825,745
19,33237,874
19,33650,651
19,34062,616
19,34473,198
19,34887,685
19,35298,711
19,35710,346
19,36122,944
19,36535,821
19,36947,827
19,37358,611
19,37772,646
19,38183,861
19,38595,615
19,39008,718
19,39420,615
19,39832,536
19,40245,613
19,40657,406
19,41068,268
19,41482,621
19,41893,554
19,42305,0
19,42718,427
19,43130,725
19,43542,522
19,43955,348
19,44367,423
19,44778,646
19,45190,622
19,45603,433
19,46015,659
19,46427,406
19,46840,438
19,47252,0
19,47663,852
19,48077,216
19,48488,808
19,48900,413
19,49313,513
19,49725,275
19,50137,724
19,50550,490
19,50962,637
19,51373,681
19,51787,526
19,52198,801
19,52610,708
19,53023,724
19,53435,857
19,53847,902
19,54258,972
19,54672,1221
19,55083,1241
19,55495,1081
19,55908,1252
19,56320,1264
19,56732,1614
19,57145,1569
19,57557,741
19,57968,1034
19,58382,1492
19,58793,523
19,59205,1326
19,59618,722
19,60030,1157
19,60442,580
19,60855,751
19,61267,703
19,61678,624
19,62092,734
19,62503,776
19,62915,576
19,63327,475
19,63740,296
19,64152,261
19,64563,829
19,64977,668
19,65388,517
19,65800,790
19,66213,634
19,66625,511
19,67037,807
19,67450,730
19,67862,385
19,68273,616
19,68687,514
19,69098,710
19,69510,276
19,69923,674
19,70335,874
19,70747,674
19,71160,527
19,71572,595
19,71983,401
19,72395,648
19,72808,371
19,73220,691
19,73632,1224
19,74045,393
19,74457,554
19,74868,726
19,75282,789
19,75693,1240
19,76105,2600
19,76518,4729
19,76930,11726
19,77342,18918
19,77755,32107
19,78167,54282
19,78578,81735
19,78992,119747
19,79403,165106
19,79815,216574
19,80228,270893
19,80640,333039
19,81052,378245
19,81463,424788
19,81877,447938
19,82288,460623
19,82700,473313
19,83113,448208
19,83525,419754
19,83937,387006
19,84350,343367
19,84762,296164
19,85173,253078
19,85587,213422
19,85998,182297
19,86410,150164
19,86823,125010
19,87235,104762
19,87647,87306
19,88060,73600
19,88472,63326
19,88883,51157
19,89297,46260
19,89708,38821
19,90120,34768
19,90533,28710
19,90945,24401
19,91357,23346
19,91768,21249
19,92182,18019
19,92593,16545
19,93005,14765
19,93418,13117
19,93830,12662
19,94242,11224
19,94655,9417
19,95067,9121
19,95478,8722
19,95892,7338
19,96303,8022
19,96715,7295
19,97128,7010
19,97540,5840
19,97952,5924
19,98365,5061
19,98777,4519
19,99188,4077
19,99602,4710
20,00013,4794
20,00425,3734
20,00837,3129
20,01250,3590
20,01662,3261
20,02073,3639
20,02487,2236
20,02898,2851
20,03310,2439
20,03723,2470
20,04135,2580
20,04547,2814
20,04960,2917
20,05372,3574
20,05783,4439
20,06197,4129
20,06608,3278
20,07020,2280
20,07433,2929
20,07845,2299
20,08257,1270
20,08670,1529
20,09082,1103
20,09493,1353
20,09905,965
20,10318,1085
20,10730,923
20,11142,949
20,11555,799
20,11967,1160
20,12378,1401
20,12792,652
20,13203,1126
20,13615,740
20,14028,1091
20,14440,971
20,14852,638
20,15265,522
20,15677,623
20,16088,562
20,16502,854
20,16913,599
20,17325,828
20,17738,435
20,18150,415
20,18562,552
20,18973,831
20,19387,876
20,19798,904
20,20210,755
20,20623,884
20,21035,594
20,21447,913
20,21860,922
20,22272,534
20,22683,708
20,23097,1648
20,23508,2874
20,23920,3998
20,24333,7216
20,24745,13988
20,25157,24164
20,25570,40896
20,25982,63269
20,26393,96170
20,26807,138796
20,27218,192612
20,27630,253404
20,28042,315508
20,28455,387355
20,28867,441595
20,29278,501247
20,29692,522412
20,30103,534936
20,30515,528757
20,30928,502302
20,31340,467861
20,31752,414242
20,32165,363644
20,32577,309590
20,32988,263741
20,33402,217904
20,33813,177175
20,34225,148565
20,34638,119600
20,35050,100112
20,35462,83778
20,35875,70415
20,36287,58734
20,36698,50034
20,37110,42511
20,37523,36571
20,37935,34516
20,38347,28632
20,38760,25169
20,39172,23152
20,39583,20326
20,39997,18673
20,40408,15973
20,40820,14765
20,41233,13339
20,41645,12150
20,42057,11301
20,42470,10190
20,42882,9373
20,43293,9100
20,43707,7686
20,44118,7262
20,44530,7544
20,44943,6159
20,45355,6355
20,45767,5327
20,46178,4804
20,46592,5102
20,47003,4833
20,47415,4202
20,47828,4957
20,48240,4166
20,48652,3987
20,49065,4145
20,49477,3189
20,49888,2561
20,50302,2726
20,50713,3312
20,51125,3390
20,51538,3484
20,51950,2618
20,52362,2934
20,52775,2789
20,53187,3244
20,53598,2743
20,54012,2816
20,54423,2982
20,54835,2166
20,55247,2779
20,55660,2132
20,56072,2484
20,56483,2073
20,56897,2675
20,57308,1617
20,57720,1752
20,58133,2096
20,58545,1566
20,58957,1534
20,59370,1223
20,59782,1373
20,60193,1401
20,60607,1319
20,61018,1249
20,61430,1258
20,61843,1048
20,62255,1488
20,62667,604
20,63080,1285
20,63492,1047
20,63903,860
20,64315,1091
20,64728,1134
20,65140,1018
20,65552,966
20,65965,560
20,66377,863
20,66788,1415
20,67202,867
20,67613,655
20,68025,1129
20,68438,787
20,68850,733
20,69262,660
20,69675,182
20,70087,541
20,70498,400
20,70912,847
20,71323,237
20,71735,725
20,72148,808
20,72560,760
20,72972,714
20,73383,809
20,73797,358
20,74208,155
20,74620,734
20,75033,1150
20,75445,672
20,75857,515
20,76270,664
20,76682,898
20,77093,634
20,77507,562
20,77918,542
20,78330,729
20,78743,391
20,79155,158
20,79567,622
20,79980,402
20,80392,800
20,80803,581
20,81217,385
20,81628,440
20,82040,522
20,82452,647
20,82865,508
20,83277,469
20,83688,385
20,84102,649
20,84513,762
20,84925,344
20,85338,526
20,85750,379
20,86162,378
20,86575,965
20,86987,391
20,87398,789
20,87812,155
20,88223,624
20,88635,164
20,89048,490
20,89460,418
20,89872,239
20,90285,866
20,90697,433
20,91108,355
20,91520,269
20,91933,591
20,92345,566
20,92757,357
20,93170,307
20,93582,336
20,93993,573
20,94407,579
20,94818,692
20,95230,783
20,95643,0
20,96055,644
20,96467,548
20,96880,0
20,97292,315
20,97703,711
20,98117,415
20,98528,475
20,98940,592
20,99353,366
20,99765,573
21,00177,351
21,00588,385
21,01002,394
21,01413,582
21,01825,278
21,02238,538
21,02650,552
21,03062,657
21,03475,469
21,03887,621
21,04298,744
21,04712,964
21,05123,523
21,05535,933
21,05948,583
21,06360,403
21,06772,903
21,07185,616
21,07597,1028
21,08008,814
21,08422,960
21,08833,597
21,09245,782
21,09657,1116
21,10070,694
21,10482,1436
21,10893,877
21,11307,320
21,11718,492
21,12130,217
21,12543,842
21,12955,990
21,13367,399
21,13780,512
21,14192,729
21,14603,416
21,15017,1032
21,15428,446
21,15840,500
21,16253,180
21,16665,396
21,17077,622
21,17490,353
21,17902,376
21,18313,749
21,18725,427
21,19138,422
21,19550,0
21,19962,325
21,20375,503
21,20787,332
21,21198,169
21,21612,359
21,22023,0
21,22435,651
21,22848,349
21,23260,735
21,23672,491
21,24085,1165
21,24497,1710
21,24908,4806
21,25322,9217
21,25733,16165
21,26145,30481
21,26558,50480
21,26970,78411
21,27382,112435
21,27793,161450
21,28207,215753
21,28618,275128
21,29030,338414
21,29443,397361
21,29855,440958
21,30267,486613
21,30680,503991
21,31092,507533
21,31503,485511
21,31917,452221
21,32328,417818
21,32740,372425
21,33153,326876
21,33565,279677
21,33977,232357
21,34390,195743
21,34802,161472
21,35213,134547
21,35627,114926
21,36038,92050
21,36450,78478
21,36862,63966
21,37275,55975
21,37687,47668
21,38098,39302
21,38512,31239
21,38923,31626
21,39335,26344
21,39748,24710
21,40160,19485
21,40572,19051
21,40985,16275
21,41397,15121
21,41808,14649
21,42222,11737
21,42633,11512
21,43045,10904
21,43458,9700
21,43870,8979
21,44282,7779
21,44695,7617
21,45107,6975
21,45518,6046
21,45932,6217
21,46343,4527
21,46755,4597
21,47167,4950
21,47580,4201
21,47992,3899
21,48403,3626
21,48817,3664
21,49228,2460
21,49640,3887
21,50053,3190
21,50465,1960
21,50877,1954
21,51290,2323
21,51702,2361
21,52113,1742
21,52527,1950
21,52938,2313
21,53350,1668
21,53763,1898
21,54175,2172
21,54587,834
21,55000,1340
21,55412,1396
21,55823,1187
21,56235,1542
21,56648,1310
21,57060,821
21,57472,947
21,57885,869
21,58297,1023
21,58708,720
21,59122,971
21,59533,751
21,59945,1276
21,60358,797
21,60770,1247
21,61182,377
21,61595,1032
21,62007,988
21,62418,718
21,62832,564
21,63243,623
21,63655,1125
21,64068,751
21,64480,756
21,64892,827
21,65303,783
21,65717,770
21,66128,930
21,66540,971
21,66953,1176
21,67365,1105
21,67777,1850
21,68190,2810
21,68602,5933
21,69013,12338
21,69427,22473
21,69838,38760
21,70250,66488
21,70663,102758
21,71075,160069
21,71487,237682
21,71900,343476
21,72312,464180
21,72723,613691
21,73137,776406
21,73548,960184
21,73960,1137314
21,74372,1327444
21,74785,1481492
21,75197,1635554
21,75608,1689526
21,76022,1707882
21,76433,1684038
21,76845,1593151
21,77258,1423469
21,77670,1252553
21,78082,1060021
21,78495,885838
21,78907,722849
21,79318,587071
21,79732,474908
21,80143,385048
21,80555,321644
21,80968,264128
21,81380,215617
21,81792,191454
21,82205,155752
21,82617,138615
21,83028,117362
21,83440,103298
21,83853,91796
21,84265,81709
21,84677,71988
21,85090,64696
21,85502,58637
21,85913,54295
21,86327,50595
21,86738,43923
21,87150,41484
21,87563,38309
21,87975,34474
21,88387,33016
21,88800,29699
21,89212,27072
21,89623,25619
21,90037,24257
21,90448,22790
21,90860,20449
21,91273,19321
21,91685,19299
21,92097,18019
21,92508,16754
21,92922,16374
21,93333,14694
21,93745,13903
21,94158,13579
21,94570,12128
21,94982,11971
21,95395,10609
21,95807,9874
21,96218,9828
21,96632,9015
21,97043,8560
21,97455,7657
21,97868,6976
21,98280,6746
21,98692,7602
21,99105,7619
21,99517,6543
21,99928,5893
22,00342,5398
22,00753,5135
22,01165,5154
22,01577,5432
22,01990,5549
22,02402,4857
22,02813,4383
22,03227,3411
22,03638,4106
22,04050,4286
22,04463,3704
22,04875,3983
22,05287,2978
22,05700,3756
22,06112,3667
22,06523,2417
22,06937,3020
22,07348,2584
22,07760,2460
22,08173,3195
22,08585,3102
22,08997,1677
22,09410,1747
22,09822,2552
22,10233,2865
22,10645,2698
22,11058,1983
22,11470,1878
22,11882,1685
22,12295,1933
22,12707,1725
22,13118,1194
22,13532,1854
22,13943,1873
22,14355,1936
22,14768,1606
22,15180,1126
22,15592,1617
22,16005,1161
22,16417,1427
22,16828,1348
22,17242,1635
22,17653,1898
22,18065,1858
22,18478,1086
22,18890,1446
22,19302,1136
22,19713,1049
22,20127,881
22,20538,746
22,20950,1089
22,21363,1154
22,21775,1046
22,22187,1013
22,22600,1520
22,23012,869
22,23423,1121
22,23837,1433
22,24248,1183
22,24660,938
22,25073,1276
22,25485,1367
22,25897,908
22,26310,1565
22,26722,1528
22,27133,1731
22,27547,2129
22,27958,2332
22,28370,2953
22,28782,3525
22,29195,4250
22,29607,5602
22,30018,5815
22,30432,5720
22,30843,7394
22,31255,7217
22,31668,7277
22,32080,7636
22,32492,6645
22,32905,6613
22,33317,6873
22,33728,5468
22,34142,5344
22,34553,4931
22,34965,4642
22,35378,4213
22,35790,3039
22,36202,2366
22,36615,2182
22,37027,2225
22,37438,2162
22,37850,1813
22,38263,1711
22,38675,1911
22,39087,2340
22,39500,1326
22,39912,1495
22,40323,1357
22,40737,1247
22,41148,1316
22,41560,2293
22,41973,1466
22,42385,1314
22,42797,1709
22,43210,1219
22,43622,1142
22,44033,1154
22,44447,1399
22,44858,750
22,45270,941
22,45683,626
22,46095,1172
22,46507,690
22,46918,1344
22,47332,1358
22,47743,1332
22,48155,3323
22,48568,6168
22,48980,11014
22,49392,19179
22,49805,32411
22,50217,58844
22,50628,87066
22,51042,122760
22,51453,173148
22,51865,232755
22,52278,293013
22,52690,357610
22,53102,420495
22,53515,468152
22,53927,496244
22,54338,509914
22,54752,513840
22,55163,496989
22,55575,460734
22,55987,420797
22,56400,371453
22,56812,325674
22,57223,270811
22,57637,222505
22,58048,189704
22,58460,159022
22,58873,133455
22,59285,111974
22,59697,87981
22,60110,78372
22,60522,64855
22,60933,54837
22,61347,48471
22,61758,40520
22,62170,35484
22,62583,31409
22,62995,29449
22,63407,23150
22,63820,21982
22,64232,19726
22,64643,18562
22,65055,15486
22,65468,14678
22,65880,13467
22,66292,11539
22,66705,11745
22,67117,9753
22,67528,10573
22,67942,10173
22,68353,8294
22,68765,6904
22,69178,6795
22,69590,7624
22,70002,6734
22,70415,7254
22,70827,7545
22,71238,7155
22,71652,7456
22,72063,6741
22,72475,5697
22,72888,6606
22,73300,5909
22,73712,6165
22,74123,6166
22,74537,5069
22,74948,3887
22,75360,4686
22,75773,3932
22,76185,2983
22,76597,3428
22,77010,2860
22,77422,2636
22,77833,2158
22,78247,2142
22,78658,2858
22,79070,1757
22,79483,2257
22,79895,1492
22,80307,1677
22,80720,1784
22,81132,1424
22,81543,1699
22,81957,1092
22,82368,1549
22,82780,1670
22,83192,1620
22,83605,881
22,84017,1269
22,84428,1268
22,84842,941
22,85253,1298
22,85665,1237
22,86078,1615
22,86490,1553
22,86902,1151
22,87315,1207
22,87727,837
22,88138,1256
22,88552,1785
22,88963,1505
22,89375,1709
22,89788,1502
22,90200,1075
22,90612,1068
22,91025,1052
22,91437,1667
22,91848,1079
22,92260,834
22,92673,1051
22,93085,1063
22,93497,2180
22,93910,1631
22,94322,3035
22,94733,3208
22,95147,3004
22,95558,2738
22,95970,2636
22,96383,2246
22,96795,1396
22,97207,811
22,97620,875
22,98032,681
22,98443,968
22,98857,447
22,99268,670
22,99680,587
23,00093,387
23,00505,661
23,00917,799
23,01330,411
23,01742,536
23,02153,321
23,02565,692
23,02978,983
23,03390,600
23,03802,664
23,04215,556
23,04627,656
23,05038,339
23,05452,796
23,05863,483
23,06275,1089
23,06688,1639
23,07100,2697
23,07512,4774
23,07925,10509
23,08337,19729
23,08748,33140
23,09162,54417
23,09573,87774
23,09985,125756
23,10398,175362
23,10810,236480
23,11222,309013
23,11633,379598
23,12047,448577
23,12458,512400
23,12870,553767
23,13283,583819
23,13695,587184
23,14107,573221
23,14520,533215
23,14932,487751
23,15343,431450
23,15757,376325
23,16168,320364
23,16580,264166
23,16993,219371
23,17405,176270
23,17817,146679
23,18230,119991
23,18642,102703
23,19053,86994
23,19467,71543
23,19878,59979
23,20290,52210
23,20702,45227
23,21115,38173
23,21527,36025
23,21938,30360
23,22352,27141
23,22763,25376
23,23175,24376
23,23588,22417
23,24000,19326
23,24412,17696
23,24825,15714
23,25237,13699
23,25648,13754
23,26062,12075
23,26473,11534
23,26885,8895
23,27298,9023
23,27710,8947
23,28122,8453
23,28535,6546
23,28947,7148
23,29358,6637
23,29770,5930
23,30183,5510
23,30595,4950
23,31007,4683
23,31420,4236
23,31832,5793
23,32243,4542
23,32657,4809
23,33068,4468
23,33480,3711
23,33893,3594
23,34305,2609
23,34717,3337
23,35130,2910
23,35542,2548
23,35953,2439
23,36367,1866
23,36778,1814
23,37190,2043
23,37603,2051
23,38015,1480
23,38427,2163
23,38838,1459
23,39252,2516
23,39663,1678
23,40075,2498
23,40488,2397
23,40900,1626
23,41312,1434
23,41725,2140
23,42137,1920
23,42548,1456
23,42962,1028
23,43373,1490
23,43785,1641
23,44198,1355
23,44610,1102
23,45022,1303
23,45435,1361
23,45847,1162
23,46258,1589
23,46672,1179
23,47083,771
23,47495,1207
23,47907,1214
23,48320,843
23,48732,581
23,49143,823
23,49557,812
23,49968,579
23,50380,950
23,50793,1138
23,51205,729
23,51617,1390
23,52030,766
23,52442,936
23,52853,983
23,53267,1763
23,53678,991
23,54090,1077
23,54503,1110
23,54915,363
23,55327,1308
23,55740,1233
23,56152,1520
23,56563,959
23,56975,638
23,57388,887
23,57800,1151
23,58212,340
23,58625,814
23,59037,1328
23,59448,423
23,59862,1246
23,60273,1145
23,60685,924
23,61098,956
23,61510,1086
23,61922,894
23,62335,1296
23,62747,675
23,63158,977
23,63572,542
23,63983,361
23,64395,642
23,64808,667
23,65220,1015
23,65632,540
23,66043,954
23,66457,922
23,66868,719
23,67280,851
23,67693,684
23,68105,707
23,68517,843
23,68930,591
23,69342,675
23,69753,908
23,70167,751
23,70578,738
23,70990,446
23,71403,1030
23,71815,575
23,72227,510
23,72640,910
23,73052,1101
23,73463,385
23,73877,532
23,74288,516
23,74700,955
23,75112,420
23,75525,595
23,75937,497
23,76348,450
23,76762,895
23,77173,385
23,77585,575
23,77998,327
23,78410,804
23,78822,536
23,79235,562
23,79647,337
23,80058,815
23,80472,393
23,80883,312
23,81295,218
23,81708,847
23,82120,682
23,82532,556
23,82945,1223
23,83357,972
23,83768,1705
23,84180,1857
23,84593,3891
23,85005,6828
23,85417,14062
23,85830,23911
23,86242,40664
23,86653,65818
23,87067,102431
23,87478,147802
23,87890,199096
23,88303,263580
23,88715,322728
23,89127,389534
23,89540,453110
23,89952,512862
23,90363,549752
23,90777,566900
23,91188,558050
23,91600,533593
23,92013,509105
23,92425,455270
23,92837,402973
23,93248,349299
23,93662,303022
23,94073,250417
23,94485,209691
23,94898,175670
23,95310,147472
23,95722,125558
23,96135,106249
23,96547,91708
23,96958,77874
23,97372,66638
23,97783,58151
23,98195,49883
23,98608,45367
23,99020,41173
23,99432,32589
23,99845,30456
24,00257,27267
24,00668,24706
24,01082,21593
24,01493,21064
24,01905,17200
24,02317,15164
24,02730,13927
24,03142,12465
24,03553,12005
24,03967,10993
24,04378,10329
24,04790,9418
24,05203,8264
24,05615,8183
24,06027,8334
24,06440,5738
24,06852,5824
24,07263,5919
24,07677,5732
24,08088,6727
24,08500,3828
24,08913,4996
24,09325,4500
24,09737,3278
24,10150,2743
24,10562,3868
24,10973,4140
24,11385,2864
24,11798,3193
24,12210,3038
24,12622,3324
24,13035,2920
24,13447,2302
24,13858,3110
24,14272,2678
24,14683,2897
24,15095,2014
24,15508,2246
24,15920,2135
24,16332,1795
24,16745,765
24,17157,1834
24,17568,1515
24,17982,1226
24,18393,1614
24,18805,1270
24,19218,1986
24,19630,1494
24,20042,1095
24,20453,2196
24,20867,1664
24,21278,1647
24,21690,1467
24,22103,1371
24,22515,1150
24,22927,1200
24,23340,954
24,23752,725
24,24163,1184
24,24577,883
24,24988,738
24,25400,792
24,25813,1057
24,26225,936
24,26637,501
24,27050,745
24,27462,747
24,27873,1019
24,28287,790
24,28698,508
24,29110,1482
24,29522,1090
24,29935,455
24,30347,783
24,30758,802
24,31172,678
24,31583,933
24,31995,1018
24,32408,518
24,32820,766
24,33232,647
24,33645,1147
24,34057,1337
24,34468,595
24,34882,916
24,35293,1062
24,35705,1350
24,36118,1210
24,36530,860
24,36942,1044
24,37355,1063
24,37767,1027
24,38178,1069
24,38590,629
24,39003,590
24,39415,1149
24,39827,1990
24,40240,3435
24,40652,5798
24,41063,10442
24,41477,20053
24,41888,35155
24,42300,58654
24,42713,92360
24,43125,138409
24,43537,205436
24,43950,284579
24,44362,381530
24,44773,498574
24,45187,633986
24,45598,779277
24,46010,913194
24,46423,1054132
24,46835,1169948
24,47247,1243180
24,47658,1300141
24,48072,1285711
24,48483,1217398
24,48895,1122371
24,49308,1002423
24,49720,866385
24,50132,728256
24,50545,609979
24,50957,490066
24,51368,405939
24,51782,328676
24,52193,268470
24,52605,221233
24,53018,184560
24,53430,153939
24,53842,133049
24,54255,112399
24,54667,97044
24,55078,86610
24,55492,75960
24,55903,69639
24,56315,59915
24,56728,55190
24,57140,49416
24,57552,45991
24,57963,41185
24,58377,37217
24,58788,34968
24,59200,31674
24,59613,29514
24,60025,26712
24,60437,23552
24,60850,23616
24,61262,21670
24,61673,20523
24,62087,18407
24,62498,17602
24,62910,17313
24,63323,15446
24,63735,14864
24,64147,11870
24,64560,12454
24,64972,12755
24,65383,10886
24,65797,10891
24,66208,10044
24,66620,11272
24,67032,8945
24,67445,8676
24,67857,8791
24,68268,7508
24,68682,7750
24,69093,7383
24,69505,7280
24,69918,7260
24,70330,5902
24,70742,5374
24,71155,5573
24,71567,4526
24,71978,4849
24,72392,4650
24,72803,4220
24,73215,4365
24,73628,4588
24,74040,3834
24,74452,4148
24,74865,3365
24,75277,3948
24,75688,2954
24,76100,2762
24,76513,2600
24,76925,2619
24,77337,2923
24,77750,2675
24,78162,2362
24,78573,2918
24,78987,2874
24,79398,2563
24,79810,2566
24,80223,1987
24,80635,2187
24,81047,1561
24,81460,1683
24,81872,2889
24,82283,2346
24,82697,2823
24,83108,4311
24,83520,6689
24,83933,11274
24,84345,19671
24,84757,32356
24,85168,48368
24,85582,73609
24,85993,110237
24,86405,156551
24,86818,212186
24,87230,275109
24,87642,336994
24,88055,405153
24,88467,475284
24,88878,521070
24,89292,572147
24,89703,589670
24,90115,580736
24,90528,563169
24,90940,516049
24,91352,478008
24,91765,424636
24,92177,361804
24,92588,307429
24,93002,264118
24,93413,217452
24,93825,183546
24,94237,150202
24,94650,122946
24,95062,103408
24,95473,89233
24,95887,76344
24,96298,63979
24,96710,54130
24,97123,48645
24,97535,41713
24,97947,37886
24,98360,32222
24,98772,28255
24,99183,25700
24,99597,23127
25,00008,20845
25,00420,19841
25,00833,17724
25,01245,17609
25,01657,14521
25,02070,12341
25,02482,12701
25,02893,12623
25,03305,10680
25,03718,12213
25,04130,12378
25,04542,16503
25,04955,21781
25,05367,29628
25,05778,43474
25,06192,69237
25,06603,101481
25,07015,148159
25,07428,214568
25,07840,290237
25,08252,392775
25,08665,499102
25,09077,626602
25,09488,759222
25,09902,887132
25,10313,1002447
25,10725,1100242
25,11138,1161221
25,11550,1188070
25,11962,1169144
25,12373,1093272
25,12787,1002622
25,13198,886151
25,13610,758444
25,14023,647909
25,14435,536514
25,14847,445951
25,15260,363254
25,15672,300133
25,16083,253568
25,16497,208041
25,16908,176964
25,17320,149003
25,17733,129656
25,18145,110405
25,18557,99088
25,18970,85606
25,19382,75474
25,19793,67977
25,20207,60318
25,20618,54041
25,21030,51442
25,21442,48334
25,21855,40926
25,22267,38738
25,22678,35941
25,23092,32060
25,23503,30724
25,23915,26579
25,24328,27017
25,24740,25608
25,25152,21273
25,25565,21632
25,25977,19985
25,26388,18656
25,26802,15796
25,27213,16793
25,27625,15267
25,28038,14776
25,28450,13686
25,28862,13538
25,29275,11764
25,29687,11735
25,30098,11121
25,30510,9380
25,30923,9872
25,31335,8707
25,31747,9238
25,32160,8331
25,32572,8857
25,32983,7335
25,33397,6985
25,33808,6007
25,34220,6820
25,34633,6565
25,35045,6046
25,35457,6043
25,35870,6446
25,36282,5903
25,36693,4376
25,37107,5054
25,37518,5324
25,37930,5021
25,38343,4379
25,38755,4560
25,39167,3295
25,39578,4593
25,39992,3436
25,40403,3526
25,40815,4134
25,41228,4126
25,41640,2795
25,42052,2787
25,42465,3305
25,42877,3759
25,43288,3671
25,43702,4505
25,44113,3784
25,44525,4443
25,44938,3416
25,45350,4000
25,45762,3592
25,46175,3192
25,46587,3584
25,46998,3551
25,47412,4218
25,47823,3397
25,48235,2944
25,48647,3532
25,49060,2718
25,49472,2923
25,49883,2796
25,50297,2699
25,50708,3017
25,51120,2785
25,51533,2124
25,51945,1849
25,52357,2528
25,52770,2165
25,53182,1834
25,53593,1951
25,54007,1653
25,54418,2360
25,54830,1753
25,55243,2236
25,55655,2642
25,56067,1649
25,56480,2230
25,56892,2703
25,57303,4881
25,57715,7038
25,58128,11255
25,58540,18845
25,58952,32275
25,59365,52980
25,59777,80914
25,60188,120087
25,60602,172353
25,61013,226011
25,61425,289119
25,61838,355738
25,62250,414661
25,62662,465205
25,63075,515106
25,63487,530675
25,63898,544375
25,64312,522742
25,64723,491500
25,65135,439341
25,65548,391760
25,65960,337157
25,66372,291439
25,66783,243101
25,67197,202342
25,67608,170733
25,68020,138177
25,68433,119232
25,68845,98353
25,69257,81614
25,69670,69041
25,70082,62491
25,70493,55320
25,70907,46187
25,71318,42455
25,71730,36861
25,72143,33954
25,72555,32575
25,72967,28483
25,73380,27358
25,73792,25913
25,74203,23802
25,74617,20190
25,75028,18812
25,75440,19561
25,75852,17622
25,76265,14348
25,76677,13639
25,77088,14056
25,77502,11793
25,77913,11924
25,78325,10263
25,78738,9182
25,79150,8930
25,79562,8103
25,79975,8216
25,80387,6868
25,80798,6238
25,81212,6653
25,81623,6032
25,82035,5586
25,82448,5697
25,82860,4952
25,83272,5371
25,83685,4574
25,84097,4635
25,84508,4735
25,84920,3731
25,85333,4343
25,85745,4202
25,86157,4389
25,86570,3586
25,86982,3961
25,87393,3603
25,87807,4113
25,88218,3390
25,88630,4134
25,89043,3540
25,89455,3665
25,89867,4143
25,90280,2658
25,90692,2950
25,91103,2791
25,91517,3288
25,91928,2921
25,92340,2132
25,92753,2266
25,93165,2066
25,93577,1865
25,93988,2190
25,94402,2333
25,94813,2256
25,95225,2756
25,95638,2619
25,96050,3115
25,96462,2124
25,96875,1935
25,97287,2164
25,97698,2743
25,98112,1962
25,98523,2537
25,98935,2875
25,99348,3029
25,99760,3547
26,00172,3202
26,00585,3197
26,00997,3869
26,01408,3222
26,01822,3022
26,02233,2815
26,02645,3120
26,03057,1872
26,03470,2749
26,03882,2319
26,04293,2380
26,04707,2113
26,05118,2937
26,05530,2244
26,05943,4587
26,06355,5563
26,06767,9105
26,07180,16627
26,07592,27215
26,08003,44159
26,08417,69769
26,08828,104840
26,09240,148884
26,09653,196113
26,10065,258267
26,10477,317063
26,10890,377213
26,11302,432695
26,11713,482182
26,12125,502805
26,12538,510177
26,12950,504659
26,13362,473758
26,13775,433024
26,14187,391210
26,14598,339967
26,15012,294372
26,15423,244229
26,15835,207764
26,16248,170324
26,16660,141221
26,17072,117724
26,17485,99066
26,17897,80938
26,18308,71756
26,18722,58802
26,19133,50306
26,19545,44778
26,19958,39979
26,20370,34253
26,20782,31728
26,21195,27341
26,21607,25115
26,22018,23693
26,22430,19798
26,22843,19127
26,23255,16785
26,23667,15197
26,24080,13833
26,24492,13420
26,24903,13104
26,25317,11721
26,25728,9920
26,26140,11060
26,26553,9896
26,26965,9258
26,27377,7839
26,27790,7598
26,28202,6488
26,28613,6946
26,29027,6865
26,29438,6256
26,29850,5443
26,30263,7222
26,30675,4889
26,31087,5022
26,31498,5031
26,31912,4506
26,32323,4773
26,32735,4640
26,33148,4300
26,33560,4121
26,33972,3985
26,34385,4747
26,34797,4088
26,35208,4130
26,35622,3669
26,36033,3389
26,36445,4052
26,36858,3517
26,37270,3888
26,37682,3194
26,38095,3279
26,38507,2932
26,38918,2958
26,39332,2509
26,39743,2933
26,40155,2019
26,40567,2492
26,40980,2375
26,41392,2472
26,41803,2105
26,42217,2636
26,42628,1704
26,43040,1959
26,43453,2086
26,43865,1837
26,44277,1227
26,44690,2302
26,45102,1026
26,45513,2171
26,45927,1115
26,46338,1682
26,46750,1332
26,47163,1582
26,47575,1101
26,47987,1194
26,48400,1455
26,48812,1676
26,49223,1381
26,49635,1133
26,50048,962
26,50460,1433
26,50872,1245
26,51285,1248
26,51697,1139
26,52108,797
26,52522,1588
26,52933,1498
26,53345,1476
26,53758,1734
26,54170,1364
26,54582,1941
26,54995,932
26,55407,830
26,55818,1250
26,56232,1833
26,56643,1716
26,57055,1436
26,57468,983
26,57880,1213
26,58292,1119
26,58703,1146
26,59117,1118
26,59528,749
26,59940,1072
26,60353,958
26,60765,765
26,61177,1128
26,61590,1677
26,62002,1406
26,62413,1053
26,62827,1178
26,63238,505
26,63650,949
26,64063,997
26,64475,796
26,64887,595
26,65300,947
26,65712,1775
26,66123,988
26,66537,1600
26,66948,1112
26,67360,1293
26,67772,665
26,68185,1442
26,68597,1127
26,69008,703
26,69422,1151
26,69833,1223
26,70245,1268
26,70658,1466
26,71070,1207
26,71482,1000
26,71895,1938
26,72307,1487
26,72718,1007
26,73132,999
26,73543,1122
26,73955,1017
26,74368,319
26,74780,1853
26,75192,896
26,75605,899
26,76017,1579
26,76428,2162
26,76840,2580
26,77253,4283
26,77665,7501
26,78077,15211
26,78490,23430
26,78902,40144
26,79313,61772
26,79727,88494
26,80138,128006
26,80550,169520
26,80963,223623
26,81375,277989
26,81787,333336
26,82200,375959
26,82612,413297
26,83023,443753
26,83437,446027
26,83848,439821
26,84260,416206
26,84673,391711
26,85085,346377
26,85497,310526
26,85908,262588
26,86322,225494
26,86733,198698
26,87145,167536
26,87558,142828
26,87970,122136
26,88382,105972
26,88795,92198
26,89207,80872
26,89618,73216
26,90032,67211
26,90443,66514
26,90855,70328
26,91268,78689
26,91680,92356
26,92092,117122
26,92505,159584
26,92917,213059
26,93328,284394
26,93742,374581
26,94153,469868
26,94565,595033
26,94977,733298
26,95390,872730
26,95802,1009658
26,96213,1153677
26,96627,1269942
26,97038,1346591
26,97450,1366823
26,97863,1340187
26,98275,1288261
26,98687,1177107
26,99100,1047394
26,99512,896465
26,99923,755669
27,00337,620479
27,00748,507399
27,01160,412557
27,01573,338795
27,01985,284981
27,02397,234704
27,02810,201572
27,03222,172175
27,03633,149163
27,04045,130774
27,04458,113541
27,04870,103388
27,05282,93699
27,05695,82603
27,06107,77102
27,06518,67265
27,06932,61475
27,07343,58429
27,07755,52456
27,08168,49130
27,08580,45887
27,08992,40871
27,09405,39390
27,09817,38143
27,10228,33300
27,10642,32545
27,11053,28623
27,11465,28225
27,11878,26553
27,12290,26011
27,12702,22969
27,13113,23635
27,13527,21190
27,13938,22647
27,14350,18201
27,14763,17625
27,15175,16293
27,15587,15819
27,16000,14122
27,16412,13995
27,16823,14056
27,17237,13709
27,17648,11995
27,18060,10337
27,18473,12623
27,18885,12224
27,19297,10483
27,19710,10278
27,20122,10051
27,20533,9653
27,20947,10016
27,21358,8934
27,21770,8393
27,22182,9017
27,22595,9645
27,23007,10404
27,23418,13722
27,23832,16960
27,24243,26492
27,24655,35980
27,25068,52568
27,25480,80325
27,25892,106189
27,26305,146682
27,26717,194301
27,27128,245733
27,27542,301076
27,27953,344255
27,28365,387710
27,28778,420669
27,29190,431902
27,29602,429668
27,30015,416806
27,30427,387277
27,30838,355315
27,31250,316735
27,31663,269441
27,32075,233379
27,32487,201210
27,32900,169445
27,33312,143464
27,33723,118006
27,34137,103560
27,34548,84763
27,34960,73002
27,35373,61426
27,35785,55233
27,36197,45711
27,36610,43396
27,37022,36668
27,37433,33226
27,37847,30853
27,38258,27569
27,38670,24471
27,39083,22784
27,39495,22199
27,39907,19130
27,40318,17559
27,40732,17070
27,41143,16204
27,41555,14163
27,41968,12898
27,42380,12769
27,42792,11732
27,43205,11139
27,43617,10682
27,44028,9463
27,44442,9648
27,44853,9303
27,45265,7793
27,45678,9040
27,46090,8436
27,46502,7355
27,46915,6548
27,47327,6873
27,47738,6485
27,48152,4658
27,48563,6488
27,48975,6392
27,49387,5707
27,49800,7151
27,50212,10509
27,50623,14181
27,51037,21988
27,51448,31377
27,51860,51892
27,52273,74485
27,52685,109815
27,53097,159889
27,53510,213107
27,53922,274811
27,54333,347931
27,54747,425775
27,55158,486018
27,55570,551523
27,55983,602553
27,56395,628368
27,56807,621157
27,57220,603055
27,57632,554662
27,58043,505798
27,58455,442195
27,58868,387529
27,59280,325718
27,59692,271330
27,60105,227560
27,60517,186878
27,60928,159576
27,61342,136818
27,61753,114601
27,62165,99649
27,62578,85352
27,62990,73232
27,63402,63510
27,63815,61322
27,64227,51309
27,64638,46751
27,65052,41829
27,65463,37980
27,65875,34499
27,66288,33593
27,66700,30730
27,67112,27433
27,67523,25093
27,67937,25419
27,68348,20656
27,68760,20130
27,69173,19768
27,69585,18269
27,69997,17433
27,70410,15741
27,70822,15753
27,71233,15141
27,71647,13456
27,72058,12008
27,72470,13541
27,72883,10992
27,73295,9233
27,73707,9700
27,74120,9744
27,74532,9514
27,74943,8790
27,75357,8355
27,75768,6801
27,76180,6623
27,76592,6843
27,77005,7146
27,77417,6314
27,77828,6205
27,78242,5389
27,78653,5052
27,79065,5742
27,79478,5606
27,79890,4741
27,80302,4308
27,80715,5561
27,81127,4619
27,81538,4460
27,81952,4503
27,82363,4886
27,82775,3881
27,83188,4273
27,83600,4375
27,84012,4721
27,84425,3631
27,84837,3015
27,85248,4236
27,85662,4145
27,86073,4666
27,86485,3124
27,86897,3570
27,87310,3454
27,87722,3699
27,88133,3044
27,88547,2815
27,88958,3070
27,89370,3414
27,89783,3723
27,90195,3496
27,90607,3090
27,91020,3160
27,91432,4181
27,91843,2849
27,92257,3085
27,92668,2706
27,93080,2757
27,93493,2611
27,93905,3232
27,94317,2916
27,94730,2187
27,95142,2891
27,95553,2412
27,95965,2992
27,96378,2667
27,96790,2413
27,97202,2306
27,97615,2771
27,98027,2307
27,98438,2953
27,98852,2499
27,99263,2297
27,99675,2900
28,00088,2197
28,00500,2100
28,00912,2319
28,01325,2806
28,01737,1713
28,02148,2526
28,02562,2487
28,02973,2514
28,03385,2653
28,03798,2047
28,04210,1392
28,04622,2736
28,05033,1882
28,05447,2160
28,05858,3157
28,06270,4041
28,06683,4693
28,07095,5851
28,07507,9011
28,07920,15904
28,08332,23848
28,08743,38425
28,09157,61763
28,09568,90248
28,09980,134654
28,10393,189585
28,10805,250975
28,11217,325023
28,11630,409212
28,12042,496163
28,12453,576419
28,12867,625298
28,13278,676171
28,13690,690921
28,14102,695119
28,14515,658282
28,14927,612065
28,15338,537547
28,15752,472348
28,16163,400570
28,16575,331567
28,16988,275720
28,17400,238084
28,17812,197519
28,18225,159830
28,18637,135187
28,19048,118896
28,19462,101161
28,19873,88938
28,20285,77597
28,20698,68679
28,21110,61512
28,21522,54867
28,21935,48747
28,22347,45612
28,22758,42402
28,23170,40304
28,23583,38945
28,23995,35025
28,24407,31842
28,24820,29876
28,25232,28649
28,25643,27515
28,26057,24744
28,26468,23615
28,26880,22093
28,27293,20266
28,27705,19090
28,28117,19344
28,28530,16942
28,28942,16640
28,29353,14853
28,29767,15634
28,30178,13193
28,30590,12284
28,31003,12446
28,31415,11472
28,31827,9103
28,32238,10299
28,32652,10231
28,33063,9467
28,33475,9275
28,33888,8415
28,34300,8864
28,34712,7754
28,35125,7758
28,35537,7209
28,35948,6628
28,36362,6875
28,36773,7907
28,37185,5382
28,37598,6512
28,38010,6498
28,38422,6486
28,38835,6534
28,39247,5736
28,39658,6533
28,40072,5288
28,40483,5334
28,40895,5600
28,41307,5327
28,41720,5430
28,42132,4959
28,42543,4332
28,42957,6010
28,43368,4840
28,43780,4574
28,44193,4090
28,44605,4581
28,45017,4144
28,45430,4935
28,45842,4911
28,46253,6620
28,46667,10404
28,47078,13221
28,47490,21159
28,47903,37579
28,48315,53965
28,48727,82990
28,49140,117141
28,49552,165665
28,49963,219190
28,50375,281087
28,50788,342105
28,51200,409384
28,51612,459406
28,52025,507672
28,52437,524087
28,52848,525605
28,53262,512122
28,53673,488560
28,54085,444971
28,54498,396705
28,54910,349141
28,55322,294817
28,55735,248147
28,56147,209450
28,56558,174069
28,56972,148414
28,57383,127133
28,57795,107992
28,58208,91744
28,58620,78626
28,59032,68463
28,59443,60037
28,59857,51515
28,60268,48021
28,60680,40107
28,61093,36014
28,61505,33676
28,61917,32127
28,62330,29576
28,62742,27937
28,63153,24909
28,63567,20959
28,63978,19931
28,64390,20336
28,64803,19078
28,65215,18046
28,65627,15915
28,66040,17227
28,66452,15446
28,66863,12604
28,67277,13101
28,67688,11968
28,68100,11251
28,68512,11185
28,68925,11650
28,69337,9973
28,69748,9491
28,70162,8753
28,70573,8814
28,70985,8521
28,71398,8457
28,71810,7512
28,72222,7675
28,72635,7359
28,73047,5553
28,73458,5867
28,73872,7621
28,74283,5675
28,74695,5782
28,75108,6660
28,75520,4921
28,75932,6075
28,76345,7075
28,76757,5798
28,77168,4635
28,77580,4297
28,77993,4956
28,78405,5409
28,78817,5296
28,79230,5329
28,79642,5004
28,80053,3838
28,80467,4180
28,80878,4443
28,81290,4347
28,81703,4285
28,82115,4520
28,82527,4109
28,82940,3669
28,83352,3987
28,83763,4003
28,84177,4255
28,84588,4117
28,85000,4056
28,85413,3989
28,85825,3804
28,86237,4155
28,86648,3746
28,87062,3666
28,87473,3567
28,87885,4010
28,88298,4784
28,88710,3356
28,89122,4734
28,89535,4906
28,89947,4681
28,90358,4675
28,90772,4209
28,91183,4775
28,91595,4457
28,92008,3575
28,92420,3875
28,92832,5143
28,93245,3351
28,93657,3574
28,94068,3945
28,94482,3858
28,94893,3496
28,95305,2549
28,95717,3036
28,96130,3720
28,96542,3004
28,96953,3619
28,97367,4252
28,97778,4394
28,98190,3744
28,98603,4022
28,99015,5112
28,99427,4936
28,99840,4492
29,00252,5359
29,00663,5547
29,01077,5273
29,01488,4908
29,01900,5627
29,02313,4916
29,02725,4535
29,03137,5061
29,03550,5812
29,03962,5183
29,04373,5182
29,04785,3626
29,05198,4511
29,05610,3286
29,06022,3567
29,06435,3859
29,06847,3637
29,07258,3479
29,07672,2628
29,08083,2561
29,08495,3733
29,08908,3536
29,09320,2190
29,09732,3083
29,10145,3215
29,10557,2777
29,10968,2554
29,11382,2729
29,11793,3022
29,12205,4056
29,12618,4693
29,13030,7232
29,13442,11030
29,13853,18402
29,14267,27467
29,14678,42265
29,15090,65014
29,15503,95019
29,15915,133829
29,16327,175419
29,16740,228943
29,17152,288517
29,17563,345822
29,17977,393750
29,18388,437120
29,18800,452721
29,19213,465045
29,19625,459071
29,20037,445439
29,20450,414137
29,20862,375815
29,21273,338284
29,21687,299985
29,22098,275344
29,22510,256509
29,22922,245340
29,23335,257631
29,23747,278941
29,24158,319882
29,24572,376427
29,24983,460282
29,25395,544904
29,25808,654448
29,26220,778460
29,26632,901733
29,27045,1038558
29,27457,1174294
29,27868,1281804
29,28282,1381616
29,28693,1428260
29,29105,1442203
29,29518,1380577
29,29930,1283279
29,30342,1138287
29,30755,968493
29,31167,835162
29,31578,689605
29,31990,571503
29,32403,480436
29,32815,399818
29,33227,339350
29,33640,285358
29,34052,244015
29,34463,214546
29,34877,192774
29,35288,167605
29,35700,151644
29,36113,135335
29,36525,122099
29,36937,109317
29,37350,101476
29,37762,94022
29,38173,83040
29,38587,78006
29,38998,74934
29,39410,68299
29,39823,65875
29,40235,56917
29,40647,56581
29,41058,50249
29,41472,50859
29,41883,47141
29,42295,43029
29,42708,40016
29,43120,40381
29,43532,36017
29,43945,36066
29,44357,33262
29,44768,33410
29,45182,31376
29,45593,29449
29,46005,28394
29,46418,26103
29,46830,26707
29,47242,23579
29,47655,24010
29,48067,23745
29,48478,22147
29,48892,22713
29,49303,21215
29,49715,21686
29,50128,20262
29,50540,20283
29,50952,20488
29,51363,20801
29,51777,20436
29,52188,19763
29,52600,21518
29,53013,19367
29,53425,18447
29,53837,18711
29,54250,18492
29,54662,19762
29,55073,18970
29,55487,19135
29,55898,21160
29,56310,25120
29,56723,30556
29,57135,41644
29,57547,56288
29,57960,80854
29,58372,111682
29,58783,150865
29,59197,195352
29,59608,264382
29,60020,314143
29,60432,370059
29,60845,423058
29,61257,461719
29,61668,480185
29,62082,486538
29,62493,474723
29,62905,457782
29,63318,433594
29,63730,402932
29,64142,384772
29,64555,371884
29,64967,366953
29,65378,371899
29,65792,393882
29,66203,416792
29,66615,434173
29,67028,465220
29,67440,483022
29,67852,486799
29,68265,474132
29,68677,462026
29,69088,436843
29,69500,406551
29,69913,369967
29,70325,327085
29,70737,285126
29,71150,251689
29,71562,213608
29,71973,180410
29,72387,155031
29,72798,133806
29,73210,113027
29,73623,101666
29,74035,85127
29,74447,79191
29,74860,70035
29,75272,61749
29,75683,54289
29,76097,50522
29,76508,46133
29,76920,43818
29,77333,40659
29,77745,40241
29,78157,41600
29,78568,43291
29,78982,49732
29,79393,58382
29,79805,74817
29,80218,98012
29,80630,130725
29,81042,177596
29,81455,233416
29,81867,305410
29,82278,378261
29,82692,455820
29,83103,518445
29,83515,588462
29,83928,634671
29,84340,660472
29,84752,655481
29,85165,633380
29,85577,592408
29,85988,539283
29,86402,472804
29,86813,411248
29,87225,350204
29,87637,304388
29,88050,255605
29,88462,222373
29,88873,185778
29,89287,159826
29,89698,141140
29,90110,123011
29,90523,107240
29,90935,95738
29,91347,86248
29,91760,79321
29,92172,68609
29,92583,64189
29,92997,54691
29,93408,54277
29,93820,50272
29,94233,49185
29,94645,45039
29,95057,41126
29,95470,39879
29,95882,36878
29,96293,36059
29,96705,32914
29,97118,31130
29,97530,29389
29,97942,27777
29,98355,26389
29,98767,24445
29,99178,22555
29,99592,23342
30,00003,21434
30,00415,20689
30,00828,19739
30,01240,18920
30,01652,18262
30,02065,16634
30,02477,17453
30,02888,15154
30,03302,15824
30,03713,16234
30,04125,16134
30,04538,15140
30,04950,15368
30,05362,14279
30,05773,14530
30,06187,14042
30,06598,12832
30,07010,13555
30,07423,12633
30,07835,13200
30,08247,13393
30,08660,10279
30,09072,11635
30,09483,10669
30,09897,9804
30,10308,10719
30,10720,10059
30,11133,10067
30,11545,9462
30,11957,8975
30,12370,9202
30,12782,9677
30,13193,8726
30,13607,7906
30,14018,7336
30,14430,8761
30,14842,8377
30,15255,8189
30,15667,7496
30,16078,7322
30,16492,6971
30,16903,7625
30,17315,7335
30,17728,6448
30,18140,6885
30,18552,7686
30,18965,6802
30,19377,8372
30,19788,6797
30,20202,7270
30,20613,6879
30,21025,5731
30,21438,5507
30,21850,6240
30,22262,6285
30,22675,5801
30,23087,4542
30,23498,6304
30,23910,6027
30,24323,5959
30,24735,6184
30,25147,6553
30,25560,6440
30,25972,7166
30,26383,7593
30,26797,6320
30,27208,7545
30,27620,7348
30,28033,6929
30,28445,8381
30,28857,8056
30,29270,9153
30,29682,12967
30,30093,16175
30,30507,22920
30,30918,33356
30,31330,48912
30,31743,71792
30,32155,103434
30,32567,143319
30,32978,200364
30,33392,265387
30,33803,338093
30,34215,420344
30,34628,497645
30,35040,578877
30,35452,647060
30,35865,694821
30,36277,713611
30,36688,701725
30,37102,677258
30,37513,614047
30,37925,545583
30,38338,483002
30,38750,410429
30,39162,347710
30,39575,296136
30,39987,250857
30,40398,213090
30,40812,183238
30,41223,157756
30,41635,140187
30,42047,124554
30,42460,105456
30,42872,97788
30,43283,87426
30,43697,75932
30,44108,70389
30,44520,66363
30,44933,59514
30,45345,56870
30,45757,52261
30,46170,49490
30,46582,46301
30,46993,41594
30,47407,39165
30,47818,37484
30,48230,35397
30,48643,31366
30,49055,30837
30,49467,29709
30,49880,29738
30,50292,28028
30,50703,25968
30,51115,25591
30,51528,23579
30,51940,22374
30,52352,21870
30,52765,20999
30,53177,21649
30,53588,20568
30,54002,19954
30,54413,18581
30,54825,18813
30,55238,15956
30,55650,16700
30,56062,14903
30,56475,15097
30,56887,14650
30,57298,14287
30,57712,12214
30,58123,14397
30,58535,11376
30,58948,12879
30,59360,12619
30,59772,12850
30,60183,11652
30,60597,12114
30,61008,11777
30,61420,11315
30,61833,12426
30,62245,11794
30,62657,9940
30,63070,9988
30,63482,9062
30,63893,9670
30,64307,9624
30,64718,10822
30,65130,10949
30,65543,11362
30,65955,12220
30,66367,12683
30,66780,12930
30,67192,12996
30,67603,12952
30,68017,11140
30,68428,13770
30,68840,17010
30,69252,18960
30,69665,28195
30,70077,40345
30,70488,58021
30,70902,82901
30,71313,116019
30,71725,166333
30,72138,216229
30,72550,276514
30,72962,340773
30,73375,410849
30,73787,471366
30,74198,523822
30,74612,552856
30,75023,575688
30,75435,592112
30,75848,583859
30,76260,565233
30,76672,552881
30,77085,538051
30,77497,527941
30,77908,529006
30,78320,523521
30,78733,532875
30,79145,532724
30,79557,513966
30,79970,491832
30,80382,468552
30,80793,439594
30,81207,411325
30,81618,366557
30,82030,325625
30,82443,285627
30,82855,243482
30,83267,213395
30,83680,182128
30,84092,157884
30,84503,139679
30,84917,119889
30,85328,105612
30,85740,93526
30,86153,83292
30,86565,75851
30,86977,68728
30,87388,60886
30,87802,60137
30,88213,52455
30,88625,46900
30,89038,46636
30,89450,43317
30,89862,40932
30,90275,36293
30,90687,35657
30,91098,32106
30,91512,31285
30,91923,30077
30,92335,27240
30,92748,26149
30,93160,22714
30,93572,25056
30,93985,23979
30,94397,23564
30,94808,21686
30,95222,20245
30,95633,20127
30,96045,18205
30,96457,19367
30,96870,17121
30,97282,18148
30,97693,16163
30,98107,14911
30,98518,15384
30,98930,15427
30,99343,16388
30,99755,15469
31,00167,14379
31,00580,13665
31,00992,13872
31,01403,12972
31,01817,14227
31,02228,12590
31,02640,11295
31,03053,11726
31,03465,11863
31,03877,12285
31,04290,11263
31,04702,11187
31,05113,10345
31,05527,11251
31,05938,9841
31,06350,10805
31,06762,9835
31,07175,10623
31,07587,9106
31,07998,9327
31,08412,10849
31,08823,9950
31,09235,9990
31,09648,10800
31,10060,9908
31,10472,10102
31,10885,9080
31,11297,8627
31,11708,9077
31,12122,9060
31,12533,8164
31,12945,8677
31,13358,8158
31,13770,9329
31,14182,9925
31,14595,8800
31,15007,8882
31,15418,8775
31,15830,8341
31,16243,7645
31,16655,8799
31,17067,7208
31,17480,9119
31,17892,8674
31,18303,7924
31,18717,7511
31,19128,8460
31,19540,7758
31,19953,8630
31,20365,8596
31,20777,8445
31,21190,8270
31,21602,7566
31,22013,8561
31,22427,9144
31,22838,8474
31,23250,6210
31,23663,8536
31,24075,6566
31,24487,8798
31,24898,7393
31,25312,8020
31,25723,7183
31,26135,7364
31,26548,7410
31,26960,7379
31,27372,8276
31,27785,7154
31,28197,7569
31,28608,8230
31,29022,8283
31,29433,7523
31,29845,7208
31,30258,8030
31,30670,8333
31,31082,6456
31,31495,7802
31,31907,7011
31,32318,6778
31,32732,6743
31,33143,8313
31,33555,7171
31,33967,7016
31,34380,8286
31,34792,8771
31,35203,10606
31,35617,13080
31,36028,18706
31,36440,26045
31,36853,38705
31,37265,53988
31,37677,75415
31,38090,109161
31,38502,150603
31,38913,208030
31,39327,272619
31,39738,356199
31,40150,440253
31,40563,550670
31,40975,668455
31,41387,797509
31,41800,916472
31,42212,1057700
31,42623,1172555
31,43035,1287772
31,43448,1361664
31,43860,1379166
31,44272,1342952
31,44685,1270859
31,45097,1150926
31,45508,1000900
31,45922,855843
31,46333,723996
31,46745,598152
31,47158,510074
31,47570,431253
31,47982,366825
31,48395,313693
31,48807,272547
31,49218,236943
31,49632,211129
31,50043,188527
31,50455,166152
31,50868,149782
31,51280,143822
31,51692,129447
31,52103,117763
31,52517,107429
31,52928,103124
31,53340,96416
31,53753,87837
31,54165,82987
31,54577,78212
31,54990,72787
31,55402,69794
31,55813,66471
31,56227,65110
31,56638,61947
31,57050,59276
31,57463,54752
31,57875,52224
31,58287,51942
31,58700,47657
31,59112,47492
31,59523,47159
31,59937,41848
31,60348,40544
31,60760,40133
31,61172,38379
31,61585,40304
31,61997,37297
31,62408,34990
31,62822,33831
31,63233,34533
31,63645,32460
31,64058,32372
31,64470,30774
31,64882,30340
31,65295,27965
31,65707,26558
31,66118,26245
31,66532,25968
31,66943,27304
31,67355,23927
31,67768,23556
31,68180,23421
31,68592,22075
31,69005,22454
31,69417,22985
31,69828,23300
31,70240,21571
31,70653,19808
31,71065,20311
31,71477,19331
31,71890,19012
31,72302,18435
31,72713,18633
31,73127,17577
31,73538,16648
31,73950,18481
31,74363,18208
31,74775,17508
31,75187,18813
31,75600,17675
31,76012,16993
31,76423,15921
31,76837,16531
31,77248,15687
31,77660,15512
31,78073,16791
31,78485,16560
31,78897,16590
31,79308,15899
31,79722,17184
31,80133,16105
31,80545,14768
31,80958,14259
31,81370,15538
31,81782,14471
31,82195,13092
31,82607,14475
31,83018,15340
31,83432,13966
31,83843,12594
31,84255,15026
31,84668,12590
31,85080,13346
31,85492,13261
31,85905,13235
31,86317,12330
31,86728,13468
31,87142,12636
31,87553,13349
31,87965,13879
31,88377,12816
31,88790,12607
31,89202,13946
31,89613,14501
31,90027,18468
31,90438,21105
31,90850,27856
31,91263,37694
31,91675,51471
31,92087,74780
31,92500,105484
31,92912,141983
31,93323,189265
31,93737,245430
31,94148,315654
31,94560,386445
31,94973,470514
31,95385,535926
31,95797,594691
31,96210,639282
31,96622,653175
31,97033,649087
31,97445,629180
31,97858,572079
31,98270,521986
31,98682,462983
31,99095,411630
31,99507,346801
31,99918,298839
32,00332,255202
32,00743,222162
32,01155,194813
32,01568,168615
32,01980,153060
32,02392,131112
32,02805,121999
32,03217,106404
32,03628,96372
32,04042,89881
32,04453,81819
32,04865,75627
32,05278,70470
32,05690,66694
32,06102,59600
32,06513,57643
32,06927,55255
32,07338,52495
32,07750,48125
32,08163,45996
32,08575,41348
32,08987,40867
32,09400,41213
32,09812,36991
32,10223,35469
32,10637,33987
32,11048,32726
32,11460,32178
32,11873,30730
32,12285,30633
32,12697,27925
32,13110,27928
32,13522,27148
32,13933,26014
32,14347,25688
32,14758,24247
32,15170,24919
32,15582,23575
32,15995,22257
32,16407,23905
32,16818,23954
32,17232,21400
32,17643,20974
32,18055,19854
32,18468,18371
32,18880,19042
32,19292,18311
32,19705,17685
32,20117,17530
32,20528,17767
32,20942,17770
32,21353,17557
32,21765,19030
32,22178,16209
32,22590,18849
32,23002,19237
32,23415,17415
32,23827,20314
32,24238,18138
32,24650,20779
32,25063,21657
32,25475,20996
32,25887,20568
32,26300,24580
32,26712,23627
32,27123,23766
32,27537,23169
32,27948,22715
32,28360,21635
32,28773,21396
32,29185,20553
32,29597,21766
32,30010,18193
32,30422,18225
32,30833,17965
32,31247,17950
32,31658,17194
32,32070,16061
32,32483,15481
32,32895,15838
32,33307,14212
32,33718,14283
32,34132,14915
32,34543,13988
32,34955,14649
32,35368,13979
32,35780,13981
32,36192,14093
32,36605,13639
32,37017,12595
32,37428,12790
32,37842,12850
32,38253,11658
32,38665,13227
32,39078,14136
32,39490,13959
32,39902,12453
32,40315,13584
32,40727,12541
32,41138,12561
32,41552,12211
32,41963,13762
32,42375,13167
32,42787,12331
32,43200,12471
32,43612,12861
32,44023,13437
32,44437,11860
32,44848,13194
32,45260,11528
32,45673,10945
32,46085,11638
32,46497,12981
32,46910,11742
32,47322,12487
32,47733,13841
32,48147,12004
32,48558,13039
32,48970,14729
32,49383,13276
32,49795,12890
32,50207,13103
32,50620,12488
32,51032,13221
32,51443,11919
32,51855,12445
32,52268,10936
32,52680,12155
32,53092,12398
32,53505,11970
32,53917,14791
32,54328,12930
32,54742,13227
32,55153,12751
32,55565,13284
32,55978,14281
32,56390,13584
32,56802,14085
32,57215,14259
32,57627,14657
32,58038,15524
32,58452,16144
32,58863,16424
32,59275,16611
32,59688,15920
32,60100,14974
32,60512,15694
32,60923,15899
32,61337,16084
32,61748,13216
32,62160,12730
32,62573,14228
32,62985,13232
32,63397,14020
32,63810,12402
32,64222,14003
32,64633,12123
32,65047,12407
32,65458,11070
32,65870,12249
32,66283,10395
32,66695,12158
32,67107,12330
32,67520,10774
32,67932,11063
32,68343,12216
32,68757,11482
32,69168,11126
32,69580,11413
32,69993,10504
32,70405,11005
32,70817,11202
32,71228,11174
32,71642,11497
32,72053,10321
32,72465,11244
32,72878,10390
32,73290,12007
32,73702,10720
32,74115,12525
32,74527,10763
32,74938,11220
32,75352,11828
32,75763,12111
32,76175,11260
32,76588,11707
32,77000,12719
32,77412,11699
32,77825,11623
32,78237,11316
32,78648,11572
32,79062,12141
32,79473,11913
32,79885,10621
32,80297,10598
32,80710,12740
32,81122,12627
32,81533,10579
32,81947,11029
32,82358,11788
32,82770,11160
32,83183,11420
32,83595,11080
32,84007,11572
32,84420,11610
32,84832,11189
32,85243,11951
32,85657,11305
32,86068,11504
32,86480,11151
32,86893,11076
32,87305,12650
32,87717,10769
32,88130,10899
32,88542,11697
32,88953,12419
32,89365,11483
32,89778,14294
32,90190,12009
32,90602,11772
32,91015,11351
32,91427,10884
32,91838,11535
32,92252,10435
32,92663,11225
32,93075,12304
32,93488,11734
32,93900,11419
32,94312,13085
32,94725,11458
32,95137,12007
32,95548,13364
32,95962,12867
32,96373,13173
32,96785,13446
32,97198,13818
32,97610,10983
32,98022,11580
32,98433,11285
32,98847,11805
32,99258,11717
32,99670,10823
33,00083,11099
33,00495,11661
33,00907,11945
33,01320,12280
33,01732,9773
33,02143,11262
33,02557,10836
33,02968,11918
33,03380,10986
33,03793,11215
33,04205,10803
33,04617,10229
33,05030,10147
33,05442,9417
33,05853,11612
33,06267,10072
33,06678,9393
33,07090,8762
33,07502,10792
33,07915,9398
33,08327,10512
33,08738,10783
33,09152,12345
33,09563,10614
33,09975,10185
33,10388,10345
33,10800,9420
33,11212,9524
33,11625,9884
33,12037,9528
33,12448,11256
33,12862,10530
33,13273,10530
33,13685,9915
33,14098,11939
33,14510,10698
33,14922,9950
33,15335,11726
33,15747,10922
33,16158,11426
33,16570,11547
33,16983,11787
33,17395,10235
33,17807,12137
33,18220,10880
33,18632,11393
33,19043,10758
33,19457,11812
33,19868,10637
33,20280,11453
33,20693,11038
33,21105,10691
33,21517,10339
33,21930,10602
33,22342,10918
33,22753,10313
33,23167,10916
33,23578,11027
33,23990,10145
33,24403,9851
33,24815,9347
33,25227,11041
33,25638,9832
33,26052,11805
33,26463,11247
33,26875,12252
33,27288,11317
33,27700,10863
33,28112,12058
33,28525,11308
33,28937,12299
33,29348,10613
33,29762,11609
33,30173,12319
33,30585,11559
33,30998,11230
33,31410,10637
33,31822,11605
33,32235,11727
33,32647,12392
33,33058,11568
33,33472,11227
33,33883,11245
33,34295,11841
33,34707,12139
33,35120,11776
33,35532,13431
33,35943,15458
33,36357,20366
33,36768,28477
33,37180,36004
33,37593,51037
33,38005,68226
33,38417,93479
33,38830,124403
33,39242,155761
33,39653,198337
33,40067,239405
33,40478,272003
33,40890,305103
33,41303,330943
33,41715,334471
33,42127,339424
33,42540,331960
33,42952,316864
33,43363,292816
33,43775,261447
33,44188,233590
33,44600,200133
33,45012,179513
33,45425,153032
33,45837,128792
33,46248,113693
33,46662,95426
33,47073,89089
33,47485,77777
33,47898,72471
33,48310,62670
33,48722,57026
33,49135,52164
33,49547,50103
33,49958,44688
33,50372,40950
33,50783,38216
33,51195,35978
33,51608,34056
33,52020,31433
33,52432,28727
33,52843,28333
33,53257,27491
33,53668,25860
33,54080,25340
33,54493,24506
33,54905,23658
33,55317,23314
33,55730,22394
33,56142,21381
33,56553,20446
33,56967,20681
33,57378,20859
33,57790,19150
33,58203,19248
33,58615,18164
33,59027,17110
33,59440,17518
33,59852,17900
33,60263,17528
33,60677,17576
33,61088,17544
33,61500,16738
33,61912,17238
33,62325,17576
33,62737,16283
33,63148,15809
33,63562,16575
33,63973,14871
33,64385,17279
33,64798,14611
33,65210,17432
33,65622,16601
33,66035,14187
33,66447,14264
33,66858,16105
33,67272,14872
33,67683,15448
33,68095,14292
33,68508,14248
33,68920,13847
33,69332,15210
33,69745,15632
33,70157,14371
33,70568,12561
33,70980,13362
33,71393,15167
33,71805,12244
33,72217,13635
33,72630,12702
33,73042,11580
33,73453,13783
33,73867,12567
33,74278,13353
33,74690,13060
33,75103,12398
33,75515,11812
33,75927,12170
33,76340,11699
33,76752,10991
33,77163,12931
33,77577,12096
33,77988,11696
33,78400,12332
33,78813,11596
33,79225,11646
33,79637,13761
33,80048,12359
33,80462,11594
33,80873,10466
33,81285,12691
33,81698,11357
33,82110,12264
33,82522,13873
33,82935,13024
33,83347,12959
33,83758,11853
33,84172,12047
33,84583,12883
33,84995,13206
33,85408,11270
33,85820,13214
33,86232,13964
33,86645,13720
33,87057,13409
33,87468,13179
33,87882,13006
33,88293,13382
33,88705,12495
33,89117,11804
33,89530,13283
