D:\MassHunter\GCMS\1\data\Amal\Constant flow\150C\150C_1ml-min_5C-min_3.D Thu Sep 12 17:40:04 2024
Start of data points
4,99088	507849
4,99500	484751
4,99913	470999
5,00325	452887
5,00737	433124
5,01150	415994
5,01562	403446
5,01973	388798
5,02385	382141
5,02798	360063
5,03210	347892
5,03622	342578
5,04035	331774
5,04447	317661
5,04858	309176
5,05272	300207
5,05683	296881
5,06095	281496
5,06508	276553
5,06920	268951
5,07332	261138
5,07745	256232
5,08157	243560
5,08568	239278
5,08982	236738
5,09393	226766
5,09805	217935
5,10218	213959
5,10630	211797
5,11042	207872
5,11453	201885
5,11867	197757
5,12278	195903
5,12690	193078
5,13103	183474
5,13515	184849
5,13927	179362
5,14340	175490
5,14752	170030
5,15163	168478
5,15577	168119
5,15988	163497
5,16400	163411
5,16813	161960
5,17225	157620
5,17637	156157
5,18050	157569
5,18462	150327
5,18873	147524
5,19287	151344
5,19698	152577
5,20110	144790
5,20522	144601
5,20935	143504
5,21347	141467
5,21758	138241
5,22172	136574
5,22583	136612
5,22995	134911
5,23408	140776
5,23820	153455
5,24232	184197
5,24645	247687
5,25057	360128
5,25468	524263
5,25882	719861
5,26293	923553
5,26705	1085222
5,27118	1223054
5,27530	1288602
5,27942	1327163
5,28355	1305209
5,28767	1282951
5,29178	1254153
5,29590	1218904
5,30003	1169806
5,30415	1128105
5,30827	1095324
5,31240	1048579
5,31652	1017397
5,32063	986759
5,32477	944935
5,32888	922152
5,33300	888898
5,33713	865747
5,34125	826925
5,34537	806731
5,34950	772203
5,35362	751988
5,35773	730831
5,36187	704027
5,36598	680727
5,37010	646270
5,37423	629535
5,37835	605231
5,38247	584041
5,38660	565008
5,39072	543114
5,39483	525080
5,39895	504278
5,40308	485992
5,40720	466398
5,41132	448750
5,41545	429152
5,41957	405919
5,42368	385338
5,42782	365687
5,43193	348236
5,43605	325044
5,44018	311069
5,44430	290241
5,44842	280894
5,45255	261736
5,45667	248804
5,46078	234148
5,46492	223297
5,46903	216684
5,47315	202830
5,47728	192634
5,48140	185744
5,48552	174788
5,48963	166969
5,49377	164348
5,49788	156244
5,50200	149541
5,50613	142290
5,51025	138337
5,51437	134838
5,51850	130811
5,52262	130829
5,52673	125237
5,53087	123525
5,53498	119612
5,53910	115967
5,54323	115156
5,54735	107580
5,55147	110711
5,55560	107664
5,55972	104575
5,56383	102325
5,56797	101240
5,57208	99746
5,57620	100758
5,58032	101151
5,58445	97373
5,58857	94548
5,59268	96880
5,59682	94762
5,60093	95942
5,60505	94912
5,60918	91718
5,61330	90605
5,61742	93971
5,62155	95233
5,62567	97242
5,62978	110967
5,63392	132161
5,63803	174334
5,64215	240843
5,64628	326698
5,65040	427547
5,65452	525337
5,65865	620026
5,66277	673264
5,66688	718260
5,67100	738784
5,67513	742679
5,67925	735193
5,68337	713779
5,68750	686047
5,69162	673215
5,69573	650599
5,69987	626410
5,70398	604693
5,70810	588643
5,71223	571803
5,71635	548963
5,72047	524980
5,72460	513826
5,72872	490156
5,73283	479557
5,73697	462547
5,74108	447592
5,74520	431930
5,74933	417111
5,75345	398403
5,75757	390869
5,76168	375634
5,76582	358996
5,76993	348927
5,77405	336672
5,77818	322312
5,78230	308428
5,78642	294016
5,79055	283585
5,79467	273503
5,79878	261909
5,80292	250992
5,80703	234839
5,81115	219446
5,81528	209262
5,81940	202726
5,82352	193053
5,82765	180785
5,83177	172718
5,83588	166731
5,84002	152516
5,84413	145844
5,84825	145765
5,85237	135826
5,85650	129395
5,86062	127597
5,86473	116489
5,86887	114050
5,87298	112713
5,87710	105029
5,88123	100313
5,88535	99823
5,88947	100293
5,89360	96411
5,89772	93318
5,90183	92190
5,90597	87130
5,91008	88802
5,91420	87421
5,91833	85875
5,92245	83557
5,92657	85309
5,93070	81254
5,93482	82498
5,93893	80775
5,94305	80535
5,94718	77135
5,95130	75196
5,95542	75672
5,95955	74769
5,96367	75502
5,96778	74626
5,97192	72657
5,97603	73466
5,98015	71891
5,98428	70657
5,98840	71379
5,99252	71697
5,99665	71533
6,00077	73302
6,00488	71971
6,00902	70328
6,01313	70362
6,01725	70930
6,02138	70413
6,02550	69591
6,02962	69678
6,03373	69816
6,03787	70220
6,04198	69297
6,04610	66229
6,05023	67626
6,05435	70377
6,05847	67688
6,06260	69064
6,06672	67385
6,07083	66414
6,07497	68969
6,07908	67307
6,08320	66195
6,08733	67800
6,09145	66179
6,09557	65851
6,09970	65335
6,10382	67965
6,10793	71149
6,11207	79022
6,11618	95024
6,12030	132254
6,12442	198930
6,12855	301695
6,13267	454314
6,13678	635643
6,14092	841097
6,14503	1036074
6,14915	1204971
6,15328	1336075
6,15740	1432446
6,16152	1475878
6,16565	1481229
6,16977	1471681
6,17388	1436682
6,17802	1411152
6,18213	1356493
6,18625	1310918
6,19038	1268167
6,19450	1212319
6,19862	1161204
6,20275	1122980
6,20687	1078830
6,21098	1034316
6,21510	998366
6,21923	958087
6,22335	909485
6,22747	866402
6,23160	840394
6,23572	801884
6,23983	765919
6,24397	723851
6,24808	693914
6,25220	652345
6,25633	628965
6,26045	584759
6,26457	565656
6,26870	533366
6,27282	502974
6,27693	470853
6,28107	437355
6,28518	406437
6,28930	376311
6,29343	352297
6,29755	320777
6,30167	301893
6,30578	275315
6,30992	253830
6,31403	239037
6,31815	219379
6,32228	204221
6,32640	186420
6,33052	174913
6,33465	161657
6,33877	149598
6,34288	139994
6,34702	136232
6,35113	125063
6,35525	117562
6,35938	113124
6,36350	105324
6,36762	101268
6,37175	98155
6,37587	95080
6,37998	88215
6,38412	86021
6,38823	83525
6,39235	80082
6,39647	76074
6,40060	74610
6,40472	68952
6,40883	70594
6,41297	69362
6,41708	67074
6,42120	64800
6,42533	66471
6,42945	62132
6,43357	63181
6,43770	62345
6,44182	61367
6,44593	60195
6,45007	57802
6,45418	58774
6,45830	56655
6,46243	55323
6,46655	58202
6,47067	54319
6,47480	56350
6,47892	54709
6,48303	53584
6,48715	53876
6,49128	51586
6,49540	51296
6,49952	54284
6,50365	52446
6,50777	49970
6,51188	49864
6,51602	52153
6,52013	51237
6,52425	49980
6,52838	51300
6,53250	49909
6,53662	49914
6,54075	49222
6,54487	48339
6,54898	47988
6,55312	48098
6,55723	49895
6,56135	48530
6,56548	47678
6,56960	46390
6,57372	47951
6,57783	47605
6,58197	48550
6,58608	47089
6,59020	47008
6,59433	46547
6,59845	45731
6,60257	46359
6,60670	44593
6,61082	46521
6,61493	45972
6,61907	43694
6,62318	44242
6,62730	44243
6,63143	44240
6,63555	44266
6,63967	46718
6,64380	44978
6,64792	44010
6,65203	45305
6,65617	45193
6,66028	44521
6,66440	43566
6,66852	44866
6,67265	43672
6,67677	42436
6,68088	44729
6,68502	45673
6,68913	46118
6,69325	44384
6,69738	43132
6,70150	44767
6,70562	47946
6,70975	56401
6,71387	72197
6,71798	99670
6,72212	143276
6,72623	204533
6,73035	283367
6,73448	372508
6,73860	481116
6,74272	583137
6,74685	666780
6,75097	734628
6,75508	780140
6,75920	809150
6,76333	814384
6,76745	814591
6,77157	811683
6,77570	790732
6,77982	761494
6,78393	738996
6,78807	709931
6,79218	680909
6,79630	649894
6,80043	627962
6,80455	599892
6,80867	574067
6,81280	548152
6,81692	516714
6,82103	497552
6,82517	476617
6,82928	454421
6,83340	429940
6,83753	412179
6,84165	385797
6,84577	362545
6,84988	344043
6,85402	322054
6,85813	301461
6,86225	274972
6,86638	260994
6,87050	237347
6,87462	221479
6,87875	204237
6,88287	185689
6,88698	175917
6,89112	159725
6,89523	150463
6,89935	136088
6,90348	129241
6,90760	119262
6,91172	110770
6,91585	105969
6,91997	98224
6,92408	93487
6,92822	90961
6,93233	81678
6,93645	80361
6,94057	76013
6,94470	70790
6,94882	68997
6,95293	66585
6,95707	65753
6,96118	64975
6,96530	62014
6,96943	59693
6,97355	57139
6,97767	56868
6,98180	54677
6,98592	55128
6,99003	51197
6,99417	50448
6,99828	48665
7,00240	49466
7,00653	48352
7,01065	48107
7,01477	44841
7,01890	45627
7,02302	45451
7,02713	46176
7,03127	44030
7,03538	44975
7,03950	43663
7,04362	43269
7,04775	42477
7,05187	42539
7,05598	43074
7,06012	42197
7,06423	41363
7,06835	42374
7,07248	43026
7,07660	43170
7,08072	43999
7,08485	42105
7,08897	42123
7,09308	42893
7,09722	41922
7,10133	43244
7,10545	43217
7,10958	41408
7,11370	39720
7,11782	40111
7,12195	42107
7,12607	40330
7,13018	40404
7,13430	41482
7,13843	38121
7,14255	39009
7,14667	41428
7,15080	40123
7,15492	38001
7,15903	38099
7,16317	36788
7,16728	38817
7,17140	37669
7,17553	35293
7,17965	38327
7,18377	36886
7,18790	38008
7,19202	38416
7,19613	35064
7,20027	37029
7,20438	35518
7,20850	37080
7,21263	35181
7,21675	35049
7,22087	34452
7,22498	35520
7,22912	34042
7,23323	36593
7,23735	35210
7,24148	33707
7,24560	33409
7,24972	35407
7,25385	35157
7,25797	34824
7,26208	33785
7,26622	33533
7,27033	33486
7,27445	34472
7,27858	34678
7,28270	33690
7,28682	34605
7,29095	34249
7,29507	34266
7,29918	33396
7,30332	32765
7,30743	32541
7,31155	32734
7,31567	32479
7,31980	34158
7,32392	33119
7,32803	34054
7,33217	32691
7,33628	33667
7,34040	32267
7,34453	33408
7,34865	33404
7,35277	33461
7,35690	34843
7,36102	32292
7,36513	34719
7,36927	33014
7,37338	32661
7,37750	32248
7,38163	30664
7,38575	32804
7,38987	33282
7,39400	31213
7,39812	33268
7,40223	34848
7,40635	38009
7,41048	49461
7,41460	67700
7,41872	101566
7,42285	158144
7,42697	244854
7,43108	366696
7,43522	527726
7,43933	728704
7,44345	935774
7,44758	1146734
7,45170	1347310
7,45582	1510207
7,45995	1631320
7,46407	1711425
7,46818	1750519
7,47232	1766791
7,47643	1758352
7,48055	1715722
7,48468	1693140
7,48880	1644218
7,49292	1585927
7,49703	1516539
7,50117	1448347
7,50528	1382763
7,50940	1299405
7,51353	1217815
7,51765	1160151
7,52177	1099502
7,52590	1015210
7,53002	956305
7,53413	897000
7,53827	839543
7,54238	772678
7,54650	712960
7,55063	663627
7,55475	604004
7,55887	549500
7,56300	493755
7,56712	445055
7,57123	400537
7,57537	357878
7,57948	321050
7,58360	290449
7,58772	254956
7,59185	236086
7,59597	214034
7,60008	191203
7,60422	172942
7,60833	158630
7,61245	144349
7,61658	133726
7,62070	124457
7,62482	112867
7,62895	104999
7,63307	98496
7,63718	94616
7,64132	85751
7,64543	83122
7,64955	77527
7,65368	72952
7,65780	70109
7,66192	67369
7,66605	63002
7,67017	61175
7,67428	60983
7,67840	58118
7,68253	57247
7,68665	53281
7,69077	52885
7,69490	52882
7,69902	51237
7,70313	49965
7,70727	49263
7,71138	49197
7,71550	49589
7,71963	49073
7,72375	50105
7,72787	48589
7,73200	49861
7,73612	48376
7,74023	47280
7,74437	47940
7,74848	45894
7,75260	45858
7,75673	47441
7,76085	44517
7,76497	44626
7,76908	44839
7,77322	42857
7,77733	44002
7,78145	42966
7,78558	40430
7,78970	41525
7,79382	40845
7,79795	40252
7,80207	36947
7,80618	39493
7,81032	37763
7,81443	39129
7,81855	38951
7,82268	38797
7,82680	38938
7,83092	38659
7,83505	35959
7,83917	35678
7,84328	37335
7,84742	36012
7,85153	37409
7,85565	37441
7,85977	38119
7,86390	34430
7,86802	35330
7,87213	34733
7,87627	34664
7,88038	36869
7,88450	35614
7,88863	35159
7,89275	33811
7,89687	32267
7,90100	33416
7,90512	32069
7,90923	35410
7,91337	35022
7,91748	35936
7,92160	35329
7,92573	35538
7,92985	34221
7,93397	35621
7,93810	34796
7,94222	35167
7,94633	36081
7,95045	35603
7,95458	35151
7,95870	35316
7,96282	35019
7,96695	35583
7,97107	35246
7,97518	37679
7,97932	36268
7,98343	38145
7,98755	37980
7,99168	39705
7,99580	41265
7,99992	37651
8,00405	40388
8,00817	41355
8,01228	41798
8,01642	45589
8,02053	50134
8,02465	60813
8,02878	78428
8,03290	110950
8,03702	154897
8,04113	210126
8,04527	281413
8,04938	367371
8,05350	471055
8,05763	567002
8,06175	643838
8,06587	722494
8,07000	794392
8,07412	841524
8,07823	867475
8,08237	886291
8,08648	871386
8,09060	855649
8,09473	835039
8,09885	816485
8,10297	773387
8,10710	747792
8,11122	715774
8,11533	677448
8,11947	636095
8,12358	591175
8,12770	561301
8,13182	522489
8,13595	483092
8,14007	454699
8,14418	418616
8,14832	383134
8,15243	357504
8,15655	319176
8,16068	301107
8,16480	265292
8,16892	239022
8,17305	218175
8,17717	191179
8,18128	175525
8,18542	157285
8,18953	143243
8,19365	129861
8,19778	119301
8,20190	106956
8,20602	100445
8,21015	94138
8,21427	87539
8,21838	93318
8,22250	95513
8,22663	112489
8,23075	143173
8,23487	183295
8,23900	239984
8,24312	324307
8,24723	417915
8,25137	522723
8,25548	633891
8,25960	734728
8,26373	817363
8,26785	895047
8,27197	956851
8,27610	982075
8,28022	995319
8,28433	1000881
8,28847	986678
8,29258	961513
8,29670	925222
8,30083	885956
8,30495	853623
8,30907	811188
8,31318	769268
8,31732	727297
8,32143	674503
8,32555	624931
8,32968	593114
8,33380	544464
8,33792	502518
8,34205	450601
8,34617	412587
8,35028	370702
8,35442	335471
8,35853	297797
8,36265	271118
8,36678	239917
8,37090	216487
8,37502	190055
8,37915	178519
8,38327	156120
8,38738	142744
8,39152	129750
8,39563	118698
8,39975	104651
8,40387	98098
8,40800	92870
8,41212	85893
8,41623	77688
8,42037	72856
8,42448	67053
8,42860	65118
8,43273	62328
8,43685	58708
8,44097	57142
8,44510	53842
8,44922	54972
8,45333	47834
8,45747	49266
8,46158	47790
8,46570	45438
8,46983	45047
8,47395	41045
8,47807	40454
8,48220	40447
8,48632	40102
8,49043	39743
8,49455	38430
8,49868	38658
8,50280	37444
8,50692	35730
8,51105	34816
8,51517	34130
8,51928	34513
8,52342	31390
8,52753	34470
8,53165	33740
8,53578	32969
8,53990	31492
8,54402	32910
8,54815	31835
8,55227	32231
8,55638	30222
8,56052	30816
8,56463	31232
8,56875	29664
8,57288	29716
8,57700	28635
8,58112	30805
8,58525	29087
8,58937	29232
8,59348	27594
8,59760	27741
8,60173	28210
8,60585	27738
8,60997	29360
8,61410	27170
8,61822	28575
8,62233	28101
8,62647	25752
8,63058	26364
8,63470	26844
8,63883	26902
8,64295	26818
8,64707	26963
8,65120	26251
8,65532	25471
8,65943	23903
8,66357	26413
8,66768	23606
8,67180	26546
8,67593	26452
8,68005	25364
8,68417	25485
8,68828	25317
8,69242	25843
8,69653	24949
8,70065	23441
8,70478	25150
8,70890	24113
8,71302	25527
8,71715	23995
8,72127	23729
8,72538	23644
8,72952	23373
8,73363	23965
8,73775	23150
8,74188	25593
8,74600	23269
8,75012	23629
8,75425	22289
8,75837	22616
8,76248	23648
8,76662	22438
8,77073	23838
8,77485	22991
8,77897	23557
8,78310	21102
8,78722	23502
8,79133	23446
8,79547	21681
8,79958	23537
8,80370	21867
8,80783	23086
8,81195	22917
8,81607	21140
8,82020	23947
8,82432	23089
8,82843	21390
8,83257	22505
8,83668	22362
8,84080	22564
8,84493	21767
8,84905	21615
8,85317	22416
8,85730	20283
8,86142	21884
8,86553	21221
8,86965	21959
8,87378	21733
8,87790	22727
8,88202	22962
8,88615	23693
8,89027	25805
8,89438	28581
8,89852	34500
8,90263	45082
8,90675	62396
8,91088	95294
8,91500	135997
8,91912	192038
8,92325	262463
8,92737	350635
8,93148	455678
8,93562	554378
8,93973	658856
8,94385	750649
8,94798	830967
8,95210	903646
8,95622	945091
8,96033	974945
8,96447	980348
8,96858	966567
8,97270	953029
8,97683	913343
8,98095	871435
8,98507	829797
8,98920	784874
8,99332	736672
8,99743	684050
9,00157	630935
9,00568	591967
9,00980	535631
9,01393	485217
9,01805	440260
9,02217	396396
9,02630	356092
9,03042	319268
9,03453	285973
9,03867	255543
9,04278	225758
9,04690	200392
9,05102	178273
9,05515	161844
9,05927	144122
9,06338	128513
9,06752	115904
9,07163	106156
9,07575	99046
9,07988	90363
9,08400	81810
9,08812	77068
9,09225	72129
9,09637	68471
9,10048	66730
9,10462	65023
9,10873	69399
9,11285	80673
9,11698	104664
9,12110	144638
9,12522	216761
9,12935	324841
9,13347	477452
9,13758	676429
9,14170	918975
9,14583	1233943
9,14995	1567186
9,15407	1905497
9,15820	2275596
9,16232	2575924
9,16643	2861747
9,17057	3080813
9,17468	3264920
9,17880	3332756
9,18293	3331016
9,18705	3296229
9,19117	3262968
9,19530	3102648
9,19942	2942268
9,20353	2776441
9,20767	2588918
9,21178	2410505
9,21590	2217979
9,22003	2028940
9,22415	1836775
9,22827	1645955
9,23238	1464243
9,23652	1293476
9,24063	1143628
9,24475	997234
9,24888	873765
9,25300	766546
9,25712	685024
9,26125	594571
9,26537	522773
9,26948	459004
9,27362	405472
9,27773	361961
9,28185	319443
9,28598	290714
9,29010	261473
9,29422	232505
9,29835	213884
9,30247	195398
9,30658	184236
9,31072	169004
9,31483	155666
9,31895	140861
9,32307	136738
9,32720	129001
9,33132	120480
9,33543	114980
9,33957	108409
9,34368	99293
9,34780	97626
9,35193	91520
9,35605	87684
9,36017	85872
9,36430	81650
9,36842	78884
9,37253	76737
9,37667	72518
9,38078	70989
9,38490	66955
9,38903	61920
9,39315	63353
9,39727	61548
9,40140	60023
9,40552	56690
9,40963	55494
9,41375	54128
9,41788	51622
9,42200	51423
9,42612	52212
9,43025	47963
9,43437	47814
9,43848	45763
9,44262	45424
9,44673	44708
9,45085	42011
9,45498	41317
9,45910	41537
9,46322	40965
9,46735	39347
9,47147	38035
9,47558	37081
9,47972	36149
9,48383	37074
9,48795	34623
9,49208	36860
9,49620	34044
9,50032	34626
9,50443	33884
9,50857	32878
9,51268	32320
9,51680	31626
9,52093	31733
9,52505	31764
9,52917	31203
9,53330	30393
9,53742	29044
9,54153	30357
9,54567	32202
9,54978	31161
9,55390	30728
9,55803	30531
9,56215	30140
9,56627	29692
9,57040	28116
9,57452	29731
9,57863	29890
9,58277	29572
9,58688	27592
9,59100	27988
9,59512	27383
9,59925	27434
9,60337	26927
9,60748	27709
9,61162	28787
9,61573	28589
9,61985	26879
9,62398	24743
9,62810	25379
9,63222	24248
9,63635	27342
9,64047	25540
9,64458	24549
9,64872	26211
9,65283	25813
9,65695	25183
9,66108	25335
9,66520	26149
9,66932	26488
9,67345	24621
9,67757	26008
9,68168	24681
9,68580	25463
9,68993	24818
9,69405	27042
9,69817	25075
9,70230	25811
9,70642	27902
9,71053	27245
9,71467	28267
9,71878	31905
9,72290	36999
9,72703	50557
9,73115	67529
9,73527	99696
9,73940	140869
9,74352	198700
9,74763	272802
9,75177	365869
9,75588	470804
9,76000	583784
9,76413	708103
9,76825	801562
9,77237	898002
9,77648	978784
9,78062	1018748
9,78473	1058503
9,78885	1068922
9,79298	1050965
9,79710	1023000
9,80122	988488
9,80535	934047
9,80947	887912
9,81358	825450
9,81772	762596
9,82183	696892
9,82595	629178
9,83008	578644
9,83420	516019
9,83832	452948
9,84245	405006
9,84657	358952
9,85068	316859
9,85482	283540
9,85893	248068
9,86305	215419
9,86717	197490
9,87130	175293
9,87542	152384
9,87953	138898
9,88367	127537
9,88778	116402
9,89190	109118
9,89603	99695
9,90015	94020
9,90427	85931
9,90840	81196
9,91252	77192
9,91663	74075
9,92077	69874
9,92488	64584
9,92900	61902
9,93313	60142
9,93725	57843
9,94137	55118
9,94550	54246
9,94962	51173
9,95373	48761
9,95785	45688
9,96198	44026
9,96610	41870
9,97022	41107
9,97435	39229
9,97847	37690
9,98258	37802
9,98672	38788
9,99083	36429
9,99495	34724
9,99908	34945
10,00320	35445
10,00732	35896
10,01145	34700
10,01557	35138
10,01968	37017
10,02382	36070
10,02793	36252
10,03205	37651
10,03618	37248
10,04030	35966
10,04442	38190
10,04853	35921
10,05267	36941
10,05678	36249
10,06090	36473
10,06503	36360
10,06915	33930
10,07327	37516
10,07740	40036
10,08152	46525
10,08563	58813
10,08977	77708
10,09388	107978
10,09800	150456
10,10213	217853
10,10625	303970
10,11037	403661
10,11450	524274
10,11862	649866
10,12273	788689
10,12687	909737
10,13098	1007606
10,13510	1104406
10,13922	1168937
10,14335	1207386
10,14747	1228063
10,15158	1215301
10,15572	1188491
10,15983	1139332
10,16395	1084896
10,16808	1014773
10,17220	937172
10,17632	858764
10,18045	779571
10,18457	704785
10,18868	622655
10,19282	545804
10,19693	486978
10,20105	424839
10,20518	376016
10,20930	323232
10,21342	285328
10,21755	253178
10,22167	222460
10,22578	192473
10,22992	173464
10,23403	157318
10,23815	141041
10,24227	126673
10,24640	116854
10,25052	105273
10,25463	96556
10,25877	91909
10,26288	84838
10,26700	78366
10,27113	75048
10,27525	67990
10,27937	64916
10,28350	63067
10,28762	59028
10,29173	55400
10,29587	54874
10,29998	52493
10,30410	51297
10,30823	49750
10,31235	45707
10,31647	43872
10,32060	43467
10,32472	40620
10,32883	37932
10,33295	40476
10,33708	37276
10,34120	36329
10,34532	37386
10,34945	34626
10,35357	33630
10,35768	33670
10,36182	34257
10,36593	31685
10,37005	30686
10,37418	30287
10,37830	30889
10,38242	28385
10,38655	29860
10,39067	29511
10,39478	27850
10,39892	27621
10,40303	26481
10,40715	27814
10,41128	27866
10,41540	25382
10,41952	24964
10,42363	26758
10,42777	24994
10,43188	25862
10,43600	26567
10,44013	25492
10,44425	24393
10,44837	25042
10,45250	24071
10,45662	25786
10,46073	22805
10,46487	23422
10,46898	24580
10,47310	23407
10,47723	23060
10,48135	23306
10,48547	23001
10,48960	23179
10,49372	23351
10,49783	22014
10,50197	21379
10,50608	19927
10,51020	21012
10,51432	21137
10,51845	21041
10,52257	20782
10,52668	20818
10,53082	19466
10,53493	20155
10,53905	21185
10,54318	19370
10,54730	20057
10,55142	20575
10,55555	20132
10,55967	20397
10,56378	19336
10,56792	19375
10,57203	22033
10,57615	18846
10,58028	19266
10,58440	19705
10,58852	20564
10,59265	18582
10,59677	20305
10,60088	19865
10,60500	19156
10,60913	18199
10,61325	18856
10,61737	19772
10,62150	17652
10,62562	19107
10,62973	19208
10,63387	18629
10,63798	19124
10,64210	18678
10,64623	18464
10,65035	17738
10,65447	17890
10,65860	17976
10,66272	18657
10,66683	19222
10,67097	18047
10,67508	18438
10,67920	18404
10,68333	18908
10,68745	18813
10,69157	18740
10,69568	18488
10,69982	18961
10,70393	20188
10,70805	19414
10,71218	21979
10,71630	23457
10,72042	28883
10,72455	38804
10,72867	53763
10,73278	80217
10,73692	116297
10,74103	167299
10,74515	240410
10,74928	326950
10,75340	440453
10,75752	554882
10,76165	684505
10,76577	810217
10,76988	921084
10,77402	1035284
10,77813	1114268
10,78225	1171730
10,78637	1193675
10,79050	1201311
10,79462	1188720
10,79873	1140521
10,80287	1080234
10,80698	1014762
10,81110	935806
10,81523	857571
10,81935	775763
10,82347	687968
10,82760	610478
10,83172	537640
10,83583	468715
10,83997	407425
10,84408	359114
10,84820	310961
10,85233	278616
10,85645	242844
10,86057	212882
10,86470	191317
10,86882	167549
10,87293	152878
10,87705	137717
10,88118	125595
10,88530	112263
10,88942	103447
10,89355	96524
10,89767	88349
10,90178	82959
10,90592	78850
10,91003	72843
10,91415	68853
10,91828	64624
10,92240	61646
10,92652	57439
10,93065	56081
10,93477	53202
10,93888	51737
10,94302	46629
10,94713	46345
10,95125	43700
10,95538	42530
10,95950	41581
10,96362	41125
10,96773	39013
10,97187	39671
10,97598	37053
10,98010	37018
10,98423	35662
10,98835	35470
10,99247	32696
10,99660	33874
11,00072	30152
11,00483	31470
11,00897	30022
11,01308	29893
11,01720	30532
11,02133	29610
11,02545	28436
11,02957	28676
11,03370	27356
11,03782	28162
11,04193	26459
11,04607	26620
11,05018	25081
11,05430	24459
11,05842	25756
11,06255	22401
11,06667	24404
11,07078	23217
11,07492	24271
11,07903	23633
11,08315	25338
11,08728	26724
11,09140	31875
11,09552	41908
11,09965	57018
11,10377	85966
11,10788	131540
11,11202	202150
11,11613	303602
11,12025	437790
11,12438	618297
11,12850	844243
11,13262	1097056
11,13675	1365750
11,14087	1654679
11,14498	1939982
11,14910	2207739
11,15323	2462197
11,15735	2636721
11,16147	2775712
11,16560	2829998
11,16972	2824091
11,17383	2756549
11,17797	2636385
11,18208	2466208
11,18620	2267218
11,19033	2041611
11,19445	1822139
11,19857	1609111
11,20270	1407875
11,20682	1211072
11,21093	1046868
11,21507	919680
11,21918	788110
11,22330	686129
11,22743	595585
11,23155	523928
11,23567	458794
11,23978	402827
11,24392	359478
11,24803	317301
11,25215	289032
11,25628	261408
11,26040	239178
11,26452	215561
11,26865	196585
11,27277	183882
11,27688	172035
11,28102	159888
11,28513	150178
11,28925	136188
11,29338	126809
11,29750	121047
11,30162	114749
11,30575	106067
11,30987	101916
11,31398	94522
11,31812	94143
11,32223	86484
11,32635	82807
11,33047	81820
11,33460	75489
11,33872	72007
11,34283	68830
11,34697	66415
11,35108	65619
11,35520	63946
11,35933	59810
11,36345	59438
11,36757	55439
11,37170	55079
11,37582	52868
11,37993	51498
11,38407	50119
11,38818	49445
11,39230	48538
11,39643	45956
11,40055	44840
11,40467	41775
11,40880	41374
11,41292	41974
11,41703	41071
11,42115	39222
11,42528	37427
11,42940	39355
11,43352	37299
11,43765	35433
11,44177	35574
11,44588	34493
11,45002	35629
11,45413	34502
11,45825	33812
11,46238	33715
11,46650	34740
11,47062	36703
11,47475	41167
11,47887	49826
11,48298	65969
11,48712	85604
11,49123	122815
11,49535	178061
11,49948	249525
11,50360	343023
11,50772	458980
11,51183	587298
11,51597	737697
11,52008	869838
11,52420	1009197
11,52833	1128266
11,53245	1220659
11,53657	1286905
11,54070	1333249
11,54482	1347293
11,54893	1320969
11,55307	1275159
11,55718	1208935
11,56130	1119324
11,56543	1025050
11,56955	915825
11,57367	819926
11,57780	721652
11,58192	631741
11,58603	553652
11,59017	485116
11,59428	425917
11,59840	367116
11,60252	321530
11,60665	285924
11,61077	252160
11,61488	226622
11,61902	202129
11,62313	185669
11,62725	164911
11,63138	148053
11,63550	140145
11,63962	123918
11,64375	116255
11,64787	108602
11,65198	99623
11,65612	97482
11,66023	94073
11,66435	91343
11,66848	97714
11,67260	111331
11,67672	132430
11,68085	166990
11,68497	231674
11,68908	316097
11,69320	443738
11,69733	610122
11,70145	815342
11,70557	1049361
11,70970	1322073
11,71382	1598040
11,71793	1888138
11,72207	2177553
11,72618	2389836
11,73030	2578080
11,73443	2680556
11,73855	2756991
11,74267	2739534
11,74680	2673056
11,75092	2511650
11,75503	2340561
11,75917	2134126
11,76328	1926304
11,76740	1705612
11,77153	1491668
11,77565	1298750
11,77977	1134587
11,78390	983401
11,78802	847727
11,79213	728061
11,79625	642205
11,80038	566604
11,80450	501463
11,80862	439813
11,81275	393229
11,81687	350073
11,82098	312947
11,82512	285629
11,82923	260309
11,83335	238004
11,83748	220131
11,84160	202404
11,84572	190990
11,84985	171699
11,85397	161813
11,85808	150044
11,86222	141934
11,86633	136216
11,87045	122556
11,87458	117565
11,87870	112591
11,88282	108364
11,88693	102072
11,89107	97708
11,89518	95653
11,89930	90288
11,90343	86010
11,90755	83730
11,91167	77794
11,91580	76965
11,91992	73222
11,92403	71184
11,92817	68997
11,93228	65143
11,93640	63961
11,94053	59035
11,94465	60099
11,94877	60630
11,95290	55600
11,95702	53408
11,96113	53178
11,96527	48716
11,96938	51438
11,97350	47115
11,97762	47803
11,98175	46536
11,98587	44791
11,98998	44387
11,99412	41897
11,99823	42279
12,00235	39893
12,00648	39554
12,01060	39096
12,01472	39257
12,01885	38520
12,02297	35909
12,02708	36364
12,03122	36176
12,03533	35937
12,03945	33884
12,04358	31430
12,04770	33861
12,05182	32891
12,05595	33197
12,06007	30626
12,06418	30606
12,06830	30860
12,07243	31357
12,07655	30823
12,08067	28967
12,08480	30534
12,08892	30289
12,09303	30692
12,09717	32459
12,10128	37253
12,10540	44137
12,10953	56646
12,11365	79865
12,11777	116961
12,12190	162604
12,12602	229981
12,13013	315561
12,13427	431976
12,13838	552143
12,14250	697977
12,14663	855110
12,15075	1012074
12,15487	1160248
12,15898	1331644
12,16312	1504317
12,16723	1645219
12,17135	1820543
12,17548	2024041
12,17960	2196329
12,18372	2385685
12,18785	2599607
12,19197	2806258
12,19608	2996719
12,20022	3171455
12,20433	3316933
12,20845	3393220
12,21258	3397463
12,21670	3327026
12,22082	3187391
12,22495	2955334
12,22907	2690719
12,23318	2422704
12,23732	2153612
12,24143	1858313
12,24555	1624590
12,24967	1406044
12,25380	1211518
12,25792	1043162
12,26203	900949
12,26617	790478
12,27028	689094
12,27440	615153
12,27853	544882
12,28265	482474
12,28677	433704
12,29090	388702
12,29502	359246
12,29913	320523
12,30327	298725
12,30738	272148
12,31150	254770
12,31563	234690
12,31975	217099
12,32387	206981
12,32800	194419
12,33212	178988
12,33623	167561
12,34035	159143
12,34448	149309
12,34860	141591
12,35272	135721
12,35685	129797
12,36097	123752
12,36508	115520
12,36922	111673
12,37333	106308
12,37745	100320
12,38158	98923
12,38570	94825
12,38982	93065
12,39395	88019
12,39807	88280
12,40218	81669
12,40632	80982
12,41043	80608
12,41455	75009
12,41868	72769
12,42280	69196
12,42692	66659
12,43103	68756
12,43517	65877
12,43928	60187
12,44340	60208
12,44753	57867
12,45165	58730
12,45577	57494
12,45990	57075
12,46402	53390
12,46813	52572
12,47227	48762
12,47638	49409
12,48050	49009
12,48463	49099
12,48875	47360
12,49287	49567
12,49700	47900
12,50112	46000
12,50523	43602
12,50937	42098
12,51348	39977
12,51760	39227
12,52172	41266
12,52585	40832
12,52997	38229
12,53408	38566
12,53822	37669
12,54233	38674
12,54645	38378
12,55058	41134
12,55470	47513
12,55882	59348
12,56295	74954
12,56707	103040
12,57118	140177
12,57532	195616
12,57943	269162
12,58355	364405
12,58768	464417
12,59180	594231
12,59592	722718
12,60005	858671
12,60417	989238
12,60828	1077718
12,61240	1160255
12,61653	1193974
12,62065	1217481
12,62477	1212555
12,62890	1156399
12,63302	1084419
12,63713	997232
12,64127	910854
12,64538	818391
12,64950	723720
12,65363	634859
12,65775	557911
12,66187	488960
12,66600	425105
12,67012	370656
12,67423	326111
12,67837	286777
12,68248	255595
12,68660	223596
12,69073	204669
12,69485	179695
12,69897	163590
12,70308	151894
12,70722	137893
12,71133	126121
12,71545	119220
12,71958	107604
12,72370	100264
12,72782	94129
12,73195	90432
12,73607	82596
12,74018	82961
12,74432	77296
12,74843	73507
12,75255	70494
12,75668	65968
12,76080	66071
12,76492	62033
12,76905	61947
12,77317	59452
12,77728	59354
12,78142	57778
12,78553	55459
12,78965	52691
12,79377	52875
12,79790	51949
12,80202	49574
12,80613	47081
12,81027	46917
12,81438	45103
12,81850	43421
12,82263	41922
12,82675	43674
12,83087	39236
12,83500	38992
12,83912	36536
12,84323	36541
12,84737	36435
12,85148	34817
12,85560	34742
12,85973	34950
12,86385	32899
12,86797	32547
12,87210	32014
12,87622	31247
12,88033	31827
12,88445	30409
12,88858	30770
12,89270	28942
12,89682	29305
12,90095	29763
12,90507	27354
12,90918	28026
12,91332	27144
12,91743	26619
12,92155	25419
12,92568	26127
12,92980	25031
12,93392	24183
12,93805	25009
12,94217	26122
12,94628	25012
12,95042	21494
12,95453	23558
12,95865	21815
12,96278	23763
12,96690	23351
12,97102	24423
12,97513	20975
12,97927	22389
12,98338	22567
12,98750	21074
12,99163	22393
12,99575	20248
12,99987	21348
13,00400	19762
13,00812	20903
13,01223	19634
13,01637	22113
13,02048	21123
13,02460	19852
13,02873	19372
13,03285	20943
13,03697	20141
13,04110	21117
13,04522	20958
13,04933	20648
13,05347	20408
13,05758	19307
13,06170	20355
13,06582	19518
13,06995	20464
13,07407	18320
13,07818	19368
13,08232	18980
13,08643	19929
13,09055	20259
13,09468	19760
13,09880	19148
13,10292	19634
13,10705	18324
13,11117	18230
13,11528	18248
13,11942	19036
13,12353	19705
13,12765	18454
13,13178	19112
13,13590	17545
13,14002	18376
13,14415	18764
13,14827	17644
13,15238	18291
13,15650	17441
13,16063	17515
13,16475	17701
13,16887	18510
13,17300	19274
13,17712	18475
13,18123	21779
13,18537	23097
13,18948	28016
13,19360	38891
13,19773	54163
13,20185	82809
13,20597	126649
13,21010	196143
13,21422	298750
13,21833	433910
13,22247	624291
13,22658	859752
13,23070	1152950
13,23483	1484414
13,23895	1838286
13,24307	2229606
13,24718	2639601
13,25132	3025004
13,25543	3374760
13,25955	3687062
13,26368	3934658
13,26780	4108793
13,27192	4183406
13,27605	4133072
13,28017	3977955
13,28428	3717726
13,28842	3396426
13,29253	3014352
13,29665	2669906
13,30078	2311438
13,30490	1988911
13,30902	1718305
13,31315	1473627
13,31727	1260900
13,32138	1103256
13,32552	954277
13,32963	830993
13,33375	733446
13,33787	657086
13,34200	583977
13,34612	526355
13,35023	472409
13,35437	433322
13,35848	402196
13,36260	360890
13,36673	334215
13,37085	308047
13,37497	283370
13,37910	260938
13,38322	246939
13,38733	228356
13,39147	215157
13,39558	202268
13,39970	190147
13,40383	179811
13,40795	171752
13,41207	160116
13,41620	152758
13,42032	145993
13,42443	137221
13,42857	130720
13,43268	129403
13,43680	121557
13,44092	116680
13,44505	113197
13,44917	111452
13,45328	107237
13,45742	102946
13,46153	105661
13,46565	102046
13,46978	104302
13,47390	104096
13,47802	100699
13,48215	101690
13,48627	100128
13,49038	97547
13,49452	94622
13,49863	88791
13,50275	86968
13,50688	83532
13,51100	80912
13,51512	77466
13,51925	77062
13,52337	72489
13,52748	67822
13,53160	64759
13,53573	65567
13,53985	62331
13,54397	59606
13,54810	58183
13,55222	55706
13,55633	53045
13,56047	52058
13,56458	50008
13,56870	49372
13,57283	47789
13,57695	47350
13,58107	46710
13,58520	47607
13,58932	49009
13,59343	56122
13,59757	61269
13,60168	77236
13,60580	98233
13,60993	130301
13,61405	175891
13,61817	242599
13,62228	315014
13,62642	416756
13,63053	527803
13,63465	648038
13,63878	765637
13,64290	869687
13,64702	961331
13,65115	1030970
13,65527	1067853
13,65938	1082923
13,66352	1069333
13,66763	1022224
13,67175	947993
13,67588	883274
13,68000	796451
13,68412	708144
13,68825	629071
13,69237	550579
13,69648	485295
13,70062	432161
13,70473	377330
13,70885	324729
13,71297	291363
13,71710	256134
13,72122	225902
13,72533	202768
13,72947	182371
13,73358	167158
13,73770	154592
13,74183	138740
13,74595	131507
13,75007	120497
13,75420	114746
13,75832	105012
13,76243	99673
13,76657	93023
13,77068	89738
13,77480	84686
13,77893	85926
13,78305	92567
13,78717	98137
13,79130	117109
13,79542	145386
13,79953	190183
13,80365	251602
13,80778	334310
13,81190	438577
13,81602	574335
13,82015	739662
13,82427	909959
13,82838	1085958
13,83252	1247133
13,83663	1372880
13,84075	1467222
13,84488	1533260
13,84900	1531653
13,85312	1486717
13,85725	1433724
13,86137	1336215
13,86548	1206677
13,86962	1071000
13,87373	957222
13,87785	848842
13,88198	741665
13,88610	649606
13,89022	568066
13,89433	490756
13,89847	433232
13,90258	387917
13,90670	348545
13,91083	311037
13,91495	283061
13,91907	256024
13,92320	231667
13,92732	211147
13,93143	195150
13,93557	180754
13,93968	165231
13,94380	155018
13,94793	146175
13,95205	134299
13,95617	130704
13,96030	121500
13,96442	115199
13,96853	108698
13,97267	103917
13,97678	97899
13,98090	91593
13,98502	90045
13,98915	85797
13,99327	81338
13,99738	78779
14,00152	76868
14,00563	71622
14,00975	69985
14,01388	66438
14,01800	63226
14,02212	62602
14,02625	59902
14,03037	60144
14,03448	58972
14,03862	56532
14,04273	53906
14,04685	51816
14,05098	51074
14,05510	50935
14,05922	48981
14,06335	48249
14,06747	47623
14,07158	47012
14,07570	45675
14,07983	41189
14,08395	42420
14,08807	42358
14,09220	41924
14,09632	39168
14,10043	37203
14,10457	39381
14,10868	39191
14,11280	38477
14,11693	36400
14,12105	37162
14,12517	37418
14,12930	37200
14,13342	34171
14,13753	33235
14,14167	33199
14,14578	34291
14,14990	33074
14,15403	32921
14,15815	33322
14,16227	31507
14,16638	30870
14,17052	30440
14,17463	30576
14,17875	30056
14,18288	29711
14,18700	29612
14,19112	29646
14,19525	29759
14,19937	29740
14,20348	29291
14,20762	27160
14,21173	28830
14,21585	28304
14,21998	27641
14,22410	28705
14,22822	27518
14,23235	26566
14,23647	27128
14,24058	27076
14,24472	27591
14,24883	26848
14,25295	27062
14,25707	27462
14,26120	32953
14,26532	37257
14,26943	46173
14,27357	59191
14,27768	83282
14,28180	125182
14,28593	178869
14,29005	261018
14,29417	369308
14,29830	510564
14,30242	669113
14,30653	852029
14,31067	1023315
14,31478	1226473
14,31890	1411035
14,32303	1557821
14,32715	1641427
14,33127	1682034
14,33540	1669479
14,33952	1599686
14,34363	1498235
14,34775	1357121
14,35188	1208826
14,35600	1075514
14,36012	938870
14,36425	818850
14,36837	712867
14,37248	624360
14,37662	548921
14,38073	480441
14,38485	422255
14,38898	373300
14,39310	344987
14,39722	300028
14,40135	271868
14,40547	254108
14,40958	227937
14,41372	211598
14,41783	194422
14,42195	181759
14,42608	168583
14,43020	157289
14,43432	150589
14,43843	139836
14,44257	130124
14,44668	124279
14,45080	118562
14,45493	112744
14,45905	102929
14,46317	100899
14,46730	95111
14,47142	91631
14,47553	89181
14,47967	85576
14,48378	84479
14,48790	77689
14,49203	75486
14,49615	74507
14,50027	72933
14,50440	71340
14,50852	67492
14,51263	69375
14,51677	65262
14,52088	63574
14,52500	59597
14,52912	59546
14,53325	57994
14,53737	54643
14,54148	52773
14,54562	52337
14,54973	49444
14,55385	49531
14,55798	48495
14,56210	48331
14,56622	47382
14,57035	43519
14,57447	44069
14,57858	43382
14,58272	42847
14,58683	42644
14,59095	41704
14,59508	40887
14,59920	40774
14,60332	41316
14,60745	38706
14,61157	37784
14,61568	38023
14,61980	37446
14,62393	37350
14,62805	34339
14,63217	36818
14,63630	35868
14,64042	33035
14,64453	34926
14,64867	34503
14,65278	34438
14,65690	34176
14,66103	34078
14,66515	36077
14,66927	36160
14,67340	39022
14,67752	40314
14,68163	52976
14,68577	66689
14,68988	89891
14,69400	124401
14,69813	175688
14,70225	250351
14,70637	341222
14,71048	458226
14,71462	597222
14,71873	741916
14,72285	897528
14,72698	1037093
14,73110	1148193
14,73522	1236986
14,73935	1289810
14,74347	1311124
14,74758	1292007
14,75172	1235414
14,75583	1148457
14,75995	1054848
14,76408	952343
14,76820	847221
14,77232	741116
14,77645	658951
14,78057	578986
14,78468	503734
14,78882	447338
14,79293	388921
14,79705	343195
14,80117	313003
14,80530	277853
14,80942	249636
14,81353	226978
14,81767	203125
14,82178	189561
14,82590	174629
14,83003	161238
14,83415	148523
14,83827	138134
14,84240	130529
14,84652	118061
14,85063	113395
14,85477	110030
14,85888	104858
14,86300	95554
14,86713	93857
14,87125	85826
14,87537	84086
14,87950	80146
14,88362	76713
14,88773	72995
14,89185	71241
14,89598	67483
14,90010	64357
14,90422	61969
14,90835	61628
14,91247	58436
14,91658	56085
14,92072	55636
14,92483	54797
14,92895	52737
14,93308	49607
14,93720	49345
14,94132	46789
14,94545	44698
14,94957	47120
14,95368	44372
14,95782	44787
14,96193	44041
14,96605	40814
14,97018	42036
14,97430	40699
14,97842	40463
14,98253	36864
14,98667	39346
14,99078	36341
14,99490	35888
14,99903	36084
15,00315	34926
15,00727	36205
15,01140	33266
15,01552	32827
15,01963	35372
15,02377	30425
15,02788	33645
15,03200	32595
15,03613	31536
15,04025	31377
15,04437	32503
15,04850	28657
15,05262	29690
15,05673	30864
15,06087	31464
15,06498	29386
15,06910	29437
15,07323	29513
15,07735	28082
15,08147	26521
15,08558	26816
15,08972	28330
15,09383	28261
15,09795	28056
15,10208	26617
15,10620	27710
15,11032	27845
15,11445	27181
15,11857	26737
15,12268	26665
15,12682	25615
15,13093	25795
15,13505	26753
15,13918	25992
15,14330	25603
15,14742	24420
15,15155	26746
15,15567	27088
15,15978	26309
15,16392	27856
15,16803	27708
15,17215	27098
15,17627	25883
15,18040	26693
15,18452	26070
15,18863	26096
15,19277	25552
15,19688	25646
15,20100	25502
15,20513	24761
15,20925	25232
15,21337	25751
15,21750	25303
15,22162	22654
15,22573	24015
15,22987	22892
15,23398	23590
15,23810	22407
15,24223	22370
15,24635	23745
15,25047	24616
15,25460	22784
15,25872	22922
15,26283	21636
15,26695	22535
15,27108	22608
15,27520	22206
15,27932	20109
15,28345	21358
15,28757	21510
15,29168	22237
15,29582	22484
15,29993	24136
15,30405	27492
15,30818	30322
15,31230	39250
15,31642	53415
15,32055	81486
15,32467	119528
15,32878	188135
15,33292	280353
15,33703	419443
15,34115	610448
15,34528	855358
15,34940	1147689
15,35352	1494351
15,35763	1882525
15,36177	2305491
15,36588	2727054
15,37000	3145331
15,37413	3503931
15,37825	3853751
15,38237	4138609
15,38650	4341032
15,39062	4402514
15,39473	4357691
15,39887	4186917
15,40298	3871884
15,40710	3536701
15,41123	3165612
15,41535	2765271
15,41947	2398541
15,42360	2088271
15,42772	1802556
15,43183	1558677
15,43597	1361907
15,44008	1182551
15,44420	1040174
15,44832	925757
15,45245	823038
15,45657	741651
15,46068	674156
15,46482	606910
15,46893	551991
15,47305	510621
15,47718	470044
15,48130	430395
15,48542	403142
15,48955	374809
15,49367	352239
15,49778	324686
15,50192	307981
15,50603	286674
15,51015	269504
15,51428	256682
15,51840	243920
15,52252	229315
15,52665	217808
15,53077	205148
15,53488	199419
15,53900	189651
15,54313	181463
15,54725	172988
15,55137	165697
15,55550	157778
15,55962	148880
15,56373	149872
15,56787	140093
15,57198	136479
15,57610	131422
15,58023	130822
15,58435	123857
15,58847	121084
15,59260	113989
15,59672	108788
15,60083	104952
15,60497	105919
15,60908	102795
15,61320	96424
15,61733	95329
15,62145	87642
15,62557	91004
15,62968	85754
15,63382	85851
15,63793	80777
15,64205	81292
15,64618	78013
15,65030	75750
15,65442	76929
15,65855	73345
15,66267	69825
15,66678	69754
15,67092	64651
15,67503	67514
15,67915	66408
15,68328	68352
15,68740	61975
15,69152	62507
15,69565	62027
15,69977	61610
15,70388	60873
15,70802	66791
15,71213	68876
15,71625	79831
15,72037	96427
15,72450	124041
15,72862	166075
15,73273	214718
15,73687	294048
15,74098	389575
15,74510	498678
15,74923	632734
15,75335	777310
15,75747	895531
15,76160	1022719
15,76572	1117665
15,76983	1190495
15,77397	1220898
15,77808	1218063
15,78220	1186561
15,78633	1139189
15,79045	1066255
15,79457	992927
15,79870	937871
15,80282	879538
15,80693	857382
15,81105	855915
15,81518	869327
15,81930	909929
15,82342	966664
15,82755	1033313
15,83167	1104382
15,83578	1182566
15,83992	1238654
15,84403	1268868
15,84815	1276200
15,85228	1252623
15,85640	1210423
15,86052	1141997
15,86465	1063186
15,86877	976348
15,87288	884405
15,87702	799893
15,88113	715849
15,88525	646992
15,88938	584426
15,89350	537761
15,89762	511156
15,90173	509555
15,90587	514651
15,90998	554862
15,91410	625231
15,91823	711997
15,92235	835734
15,92647	986372
15,93060	1138010
15,93472	1313148
15,93883	1451814
15,94297	1565980
15,94708	1664921
15,95120	1707594
15,95533	1688451
15,95945	1629488
15,96357	1522830
15,96770	1398317
15,97182	1279216
15,97593	1159153
15,98007	1019057
15,98418	909190
15,98830	811290
15,99242	713653
15,99655	633417
16,00067	565139
16,00478	509318
16,00892	460783
16,01303	425609
16,01715	379338
16,02128	354385
16,02540	320788
16,02952	301199
16,03365	276782
16,03777	264771
16,04188	246200
16,04602	233401
16,05013	217708
16,05425	208888
16,05838	196900
16,06250	186362
16,06662	177972
16,07075	167794
16,07487	161549
16,07898	156343
16,08310	148752
16,08723	137233
16,09135	133235
16,09547	130031
16,09960	123138
16,10372	120438
16,10783	115797
16,11197	108966
16,11608	106433
16,12020	101403
16,12433	97197
16,12845	98503
16,13257	92358
16,13670	90523
16,14082	87344
16,14493	86262
16,14907	82548
16,15318	80207
16,15730	76890
16,16143	74828
16,16555	75970
16,16967	72501
16,17378	71858
16,17792	67424
16,18203	65912
16,18615	67943
16,19028	68207
16,19440	64049
16,19852	62901
16,20265	61383
16,20677	61895
16,21088	58722
16,21502	59515
16,21913	58791
16,22325	58738
16,22738	59099
16,23150	57263
16,23562	56936
16,23975	55079
16,24387	53985
16,24798	51860
16,25212	51318
16,25623	52526
16,26035	49648
16,26447	47975
16,26860	47636
16,27272	48617
16,27683	46826
16,28097	46973
16,28508	46622
16,28920	45240
16,29333	44288
16,29745	42711
16,30157	43244
16,30570	42568
16,30982	43987
16,31393	45358
16,31807	44258
16,32218	47041
16,32630	44621
16,33043	46413
16,33455	47299
16,33867	46680
16,34280	47638
16,34692	50376
16,35103	53317
16,35515	62896
16,35928	75730
16,36340	94640
16,36752	126732
16,37165	170104
16,37577	231769
16,37988	312748
16,38402	424884
16,38813	560380
16,39225	710132
16,39638	902706
16,40050	1100626
16,40462	1295451
16,40875	1468447
16,41287	1598318
16,41698	1664457
16,42112	1676011
16,42523	1638792
16,42935	1554072
16,43348	1430973
16,43760	1295002
16,44172	1159928
16,44583	1032429
16,44997	909416
16,45408	798270
16,45820	711329
16,46233	625842
16,46645	558316
16,47057	497700
16,47470	449843
16,47882	405765
16,48293	375918
16,48707	345074
16,49118	314664
16,49530	287161
16,49943	268947
16,50355	249211
16,50767	234711
16,51180	217527
16,51592	200766
16,52003	195975
16,52417	180868
16,52828	173021
16,53240	164741
16,53652	160196
16,54065	152316
16,54477	147729
16,54888	139630
16,55302	136001
16,55713	126998
16,56125	124686
16,56538	121198
16,56950	118492
16,57362	114081
16,57775	112524
16,58187	108823
16,58598	101586
16,59012	100243
16,59423	100945
16,59835	96386
16,60248	95495
16,60660	91081
16,61072	87707
16,61485	86462
16,61897	82611
16,62308	80975
16,62722	78088
16,63133	76780
16,63545	77484
16,63957	75473
16,64370	72449
16,64782	72500
16,65193	68099
16,65607	66550
16,66018	67234
16,66430	63739
16,66843	64211
16,67255	61598
16,67667	60085
16,68080	59943
16,68492	60446
16,68903	56642
16,69317	55261
16,69728	59388
16,70140	56266
16,70553	53020
16,70965	55250
16,71377	51822
16,71790	51962
16,72202	49563
16,72613	50674
16,73025	50454
16,73438	49113
16,73850	47127
16,74262	47341
16,74675	49483
16,75087	47834
16,75498	49955
16,75912	52763
16,76323	61296
16,76735	72432
16,77148	91808
16,77560	121248
16,77972	166335
16,78385	228418
16,78797	310874
16,79208	416459
16,79622	546944
16,80033	691391
16,80445	862084
16,80858	1018129
16,81270	1150510
16,81682	1262092
16,82093	1325281
16,82507	1355318
16,82918	1350870
16,83330	1309374
16,83743	1230599
16,84155	1128887
16,84567	1029513
16,84980	926779
16,85392	844606
16,85803	766285
16,86217	704321
16,86628	679641
16,87040	666758
16,87453	674470
16,87865	704270
16,88277	756820
16,88690	828528
16,89102	901721
16,89513	978779
16,89927	1044733
16,90338	1110531
16,90750	1141210
16,91162	1157329
16,91575	1144683
16,91987	1109693
16,92398	1057705
16,92812	984520
16,93223	913892
16,93635	826400
16,94048	746702
16,94460	664390
16,94872	601750
16,95285	540106
16,95697	475264
16,96108	433543
16,96522	389149
16,96933	350769
16,97345	321496
16,97758	300668
16,98170	265587
16,98582	244424
16,98995	226257
16,99407	214921
16,99818	196914
17,00230	188983
17,00643	176067
17,01055	160611
17,01467	155664
17,01880	147879
17,02292	136987
17,02703	133082
17,03117	127673
17,03528	120446
17,03940	118821
17,04353	112581
17,04765	108216
17,05177	103605
17,05590	98660
17,06002	94443
17,06413	93803
17,06827	91983
17,07238	87840
17,07650	84057
17,08063	82791
17,08475	82318
17,08887	77935
17,09298	73074
17,09712	72895
17,10123	71438
17,10535	69566
17,10948	71314
17,11360	66434
17,11772	66655
17,12185	64293
17,12597	62502
17,13008	62680
17,13422	63128
17,13833	59324
17,14245	57011
17,14658	55725
17,15070	58310
17,15482	54989
17,15895	54698
17,16307	52705
17,16718	53950
17,17132	52423
17,17543	50026
17,17955	51803
17,18367	51033
17,18780	51747
17,19192	49350
17,19603	47655
17,20017	49251
17,20428	46226
17,20840	46577
17,21253	48423
17,21665	48142
17,22077	47119
17,22490	46231
17,22902	45334
17,23313	44937
17,23727	43728
17,24138	43376
17,24550	42405
17,24963	41167
17,25375	40687
17,25787	40403
17,26200	38065
17,26612	41623
17,27023	40610
17,27435	36968
17,27848	41227
17,28260	39055
17,28672	39059
17,29085	37963
17,29497	38380
17,29908	36316
17,30322	38363
17,30733	38442
17,31145	37411
17,31558	36803
17,31970	37382
17,32382	36781
17,32795	36965
17,33207	38709
17,33618	36584
17,34032	35304
17,34443	36639
17,34855	35323
17,35268	37411
17,35680	38888
17,36092	40225
17,36503	41379
17,36917	48678
17,37328	56694
17,37740	63657
17,38153	84620
17,38565	111800
17,38977	148724
17,39390	202075
17,39802	280350
17,40213	376466
17,40627	499197
17,41038	664158
17,41450	866240
17,41863	1106500
17,42275	1359171
17,42687	1651466
17,43100	1956054
17,43512	2293890
17,43923	2595061
17,44337	2859972
17,44748	3081751
17,45160	3218188
17,45572	3222983
17,45985	3116032
17,46397	2917651
17,46808	2669346
17,47222	2388617
17,47633	2105394
17,48045	1850084
17,48458	1620474
17,48870	1421581
17,49282	1244630
17,49695	1099266
17,50107	980252
17,50518	887117
17,50932	791322
17,51343	708396
17,51755	641395
17,52168	585005
17,52580	543657
17,52992	504962
17,53405	466483
17,53817	434198
17,54228	405544
17,54640	381536
17,55053	352669
17,55465	329813
17,55877	314564
17,56290	299928
17,56702	278326
17,57113	268308
17,57527	257324
17,57938	245884
17,58350	231444
17,58763	223640
17,59175	213725
17,59587	200380
17,60000	193855
17,60412	189546
17,60823	186341
17,61237	177149
17,61648	170065
17,62060	160366
17,62473	159761
17,62885	153238
17,63297	144481
17,63708	144441
17,64122	140068
17,64533	131646
17,64945	131419
17,65358	125941
17,65770	122074
17,66182	118175
17,66595	120452
17,67007	111488
17,67418	113473
17,67832	115538
17,68243	107445
17,68655	107976
17,69068	99977
17,69480	99177
17,69892	100770
17,70305	94710
17,70717	93891
17,71128	92486
17,71542	89986
17,71953	90210
17,72365	85718
17,72777	84585
17,73190	84781
17,73602	82238
17,74013	80371
17,74427	81066
17,74838	79817
17,75250	75687
17,75663	75505
17,76075	78005
17,76487	74098
17,76900	74026
17,77312	71637
17,77723	71859
17,78137	72632
17,78548	67142
17,78960	67780
17,79373	67795
17,79785	66017
17,80197	66379
17,80610	65761
17,81022	64322
17,81433	61173
17,81845	61038
17,82258	62318
17,82670	61035
17,83082	59349
17,83495	59358
17,83907	57726
17,84318	58278
17,84732	55606
17,85143	52916
17,85555	56568
17,85968	55615
17,86380	54362
17,86792	55758
17,87205	52031
17,87617	53362
17,88028	51317
17,88442	52514
17,88853	50747
17,89265	50787
17,89678	52047
17,90090	52079
17,90502	50662
17,90913	50402
17,91327	54528
17,91738	59061
17,92150	67410
17,92563	79459
17,92975	93931
17,93387	120271
17,93800	154294
17,94212	209612
17,94623	278342
17,95037	376266
17,95448	482366
17,95860	619492
17,96273	780900
17,96685	942200
17,97097	1109078
17,97510	1250642
17,97922	1359877
17,98333	1449127
17,98747	1479395
17,99158	1472039
17,99570	1410636
17,99982	1345955
18,00395	1242032
18,00807	1128643
18,01218	1016537
18,01632	919914
18,02043	816993
18,02455	737757
18,02868	649232
18,03280	595048
18,03692	533476
18,04105	480900
18,04517	441195
18,04928	411968
18,05342	373505
18,05753	346798
18,06165	323199
18,06578	301236
18,06990	280104
18,07402	265862
18,07815	246110
18,08227	232822
18,08638	221698
18,09050	210126
18,09463	203371
18,09875	188430
18,10287	183100
18,10700	174200
18,11112	166722
18,11523	154103
18,11937	151044
18,12348	147417
18,12760	143926
18,13173	137515
18,13585	132408
18,13997	127319
18,14410	127422
18,14822	121588
18,15233	111736
18,15647	113456
18,16058	109910
18,16470	105193
18,16883	104484
18,17295	100120
18,17707	99460
18,18118	95519
18,18532	92172
18,18943	89434
18,19355	88763
18,19768	88407
18,20180	83228
18,20592	80959
18,21005	80435
18,21417	81355
18,21828	79599
18,22242	79436
18,22653	75585
18,23065	74128
18,23478	76599
18,23890	73285
18,24302	71398
18,24715	71826
18,25127	68559
18,25538	68023
18,25952	66328
18,26363	62845
18,26775	63424
18,27188	65385
18,27600	63069
18,28012	63473
18,28423	63429
18,28837	60719
18,29248	58270
18,29660	59879
18,30073	59045
18,30485	59515
18,30897	59410
18,31310	60675
18,31722	58646
18,32133	60268
18,32547	61073
18,32958	63329
18,33370	67925
18,33783	70077
18,34195	81007
18,34607	80781
18,35020	88402
18,35432	94046
18,35843	105735
18,36257	106803
18,36668	112048
18,37080	120179
18,37492	121578
18,37905	119073
18,38317	118578
18,38728	115367
18,39142	112733
18,39553	112226
18,39965	103751
18,40378	99785
18,40790	92758
18,41202	90435
18,41615	83230
18,42027	77971
18,42438	74753
18,42852	72038
18,43263	65077
18,43675	64291
18,44088	60681
18,44500	60688
18,44912	57902
18,45325	57921
18,45737	55774
18,46148	49680
18,46560	51020
18,46973	51549
18,47385	49587
18,47797	49296
18,48210	49280
18,48622	47489
18,49033	46202
18,49447	43506
18,49858	45547
18,50270	46539
18,50683	44685
18,51095	42792
18,51507	46026
18,51920	44536
18,52332	44619
18,52743	43605
18,53157	42812
18,53568	43564
18,53980	42830
18,54393	43950
18,54805	40881
18,55217	41271
18,55628	42560
18,56042	39428
18,56453	41650
18,56865	40838
18,57278	40936
18,57690	39536
18,58102	40914
18,58515	37701
18,58927	41344
18,59338	42233
18,59752	39156
18,60163	41307
18,60575	39264
18,60988	37659
18,61400	36516
18,61812	40931
18,62225	40966
18,62637	38761
18,63048	40830
18,63462	37871
18,63873	37754
18,64285	41221
18,64697	41077
18,65110	38497
18,65522	39262
18,65933	40752
18,66347	39041
18,66758	38521
18,67170	39111
18,67583	41089
18,67995	36710
18,68407	36205
18,68820	38699
18,69232	37816
18,69643	35786
18,70057	34799
18,70468	35916
18,70880	33986
18,71293	35268
18,71705	36687
18,72117	37816
18,72530	35903
18,72942	35200
18,73353	35195
18,73765	35484
18,74178	35316
18,74590	35200
18,75002	35694
18,75415	35387
18,75827	36191
18,76238	34913
18,76652	34651
18,77063	35358
18,77475	36019
18,77888	32841
18,78300	34165
18,78712	34920
18,79125	36122
18,79537	35776
18,79948	34598
18,80362	35210
18,80773	35663
18,81185	35756
18,81598	33272
18,82010	35027
18,82422	36431
18,82833	35332
18,83247	34378
18,83658	33495
18,84070	32005
18,84483	34458
18,84895	33728
18,85307	34001
18,85720	35931
18,86132	34620
18,86543	33761
18,86957	35174
18,87368	34259
18,87780	33009
18,88193	33795
18,88605	35076
18,89017	35694
18,89430	35537
18,89842	35247
18,90253	37562
18,90667	36122
18,91078	35870
18,91490	36896
18,91902	35889
18,92315	37396
18,92727	37893
18,93138	34648
18,93552	35783
18,93963	35767
18,94375	36434
18,94788	35758
18,95200	35634
18,95612	37556
18,96025	35241
18,96437	36535
18,96848	34326
18,97262	33052
18,97673	35724
18,98085	35012
18,98498	35201
18,98910	34828
18,99322	33660
18,99735	32705
19,00147	34492
19,00558	33054
19,00970	32358
19,01383	33296
19,01795	35141
19,02207	34747
19,02620	33517
19,03032	31858
19,03443	32462
19,03857	35207
19,04268	36022
19,04680	31891
19,05093	33353
19,05505	34188
19,05917	33328
19,06330	33934
19,06742	33662
19,07153	33832
19,07567	33477
19,07978	33376
19,08390	32126
19,08803	32813
19,09215	33458
19,09627	32450
19,10038	34507
19,10452	34845
19,10863	32600
19,11275	34445
19,11688	32073
19,12100	32217
19,12512	35028
19,12925	34412
19,13337	35272
19,13748	33492
19,14162	33943
19,14573	33371
19,14985	33785
19,15398	33875
19,15810	33706
19,16222	33202
19,16635	34250
19,17047	34358
19,17458	33295
19,17872	34699
19,18283	34273
19,18695	34326
19,19107	34226
19,19520	33354
19,19932	35000
19,20343	34223
19,20757	32524
19,21168	35400
19,21580	35598
19,21993	35517
19,22405	34716
19,22817	34144
19,23230	34920
19,23642	33405
19,24053	36205
19,24467	34867
19,24878	32554
19,25290	34018
19,25703	33918
19,26115	32254
19,26527	33138
19,26940	34055
19,27352	34025
19,27763	34891
19,28175	34839
19,28588	34306
19,29000	33641
19,29412	33442
19,29825	33888
19,30237	34676
19,30648	33661
19,31062	34348
19,31473	33705
19,31885	34544
19,32298	35183
19,32710	35624
19,33122	35214
19,33535	33093
19,33947	33716
19,34358	34295
19,34772	34846
19,35183	33498
19,35595	35720
19,36008	34092
19,36420	36212
19,36832	36645
19,37243	36961
19,37657	41533
19,38068	44632
19,38480	49145
19,38893	64570
19,39305	82603
19,39717	110042
19,40130	147387
19,40542	195733
19,40953	257290
19,41367	328048
19,41778	413112
19,42190	498710
19,42603	593164
19,43015	674977
19,43427	745690
19,43840	786156
19,44252	806450
19,44663	812454
19,45077	791000
19,45488	756218
19,45900	713880
19,46312	655133
19,46725	593703
19,47137	542425
19,47548	488730
19,47962	438627
19,48373	393188
19,48785	354978
19,49198	323008
19,49610	288260
19,50022	262948
19,50435	240114
19,50847	217808
19,51258	205616
19,51672	187072
19,52083	175925
19,52495	163829
19,52908	155014
19,53320	147849
19,53732	136017
19,54145	130290
19,54557	121978
19,54968	116939
19,55380	112591
19,55793	105829
19,56205	102217
19,56617	95065
19,57030	93122
19,57442	91191
19,57853	90099
19,58267	86905
19,58678	82914
19,59090	81044
19,59503	77258
19,59915	78638
19,60327	75481
19,60740	72726
19,61152	73464
19,61563	69556
19,61977	69325
19,62388	68176
19,62800	64821
19,63213	60940
19,63625	64907
19,64037	59292
19,64448	58927
19,64862	59255
19,65273	57828
19,65685	57457
19,66098	59975
19,66510	54654
19,66922	54709
19,67335	54621
19,67747	55631
19,68158	53955
19,68572	51011
19,68983	54235
19,69395	51774
19,69808	51802
19,70220	49068
19,70632	50710
19,71045	50641
19,71457	50406
19,71868	49848
19,72282	51418
19,72693	48989
19,73105	46561
19,73517	47967
19,73930	45934
19,74342	46063
19,74753	46544
19,75167	45895
19,75578	46516
19,75990	46711
19,76403	43850
19,76815	46029
19,77227	45587
19,77640	44616
19,78052	44774
19,78463	45159
19,78877	43636
19,79288	44316
19,79700	43808
19,80113	44569
19,80525	44494
19,80937	43232
19,81350	46178
19,81762	44982
19,82173	44793
19,82587	44341
19,82998	42351
19,83410	45375
19,83822	44020
19,84235	46402
19,84647	44186
