D:\MassHunter\GCMS\1\data\Amal\Constant flow\130C\130C_1ml-min_5C-min_2.D Mon Sep 02 17:44:45 2024
Start of data points
5,19087,208468
5,19498,202375
5,19912,199280
5,20323,197965
5,20735,193208
5,21148,194128
5,21560,188407
5,21972,187402
5,22383,184915
5,22797,178882
5,23208,178649
5,23620,175778
5,24033,171986
5,24445,167599
5,24857,164407
5,25270,163587
5,25682,163088
5,26093,173112
5,26507,196944
5,26918,240114
5,27330,313089
5,27743,428413
5,28155,569904
5,28567,703869
5,28980,818904
5,29392,891043
5,29803,940161
5,30217,952143
5,30628,935811
5,31040,893370
5,31452,868439
5,31865,825334
5,32277,799922
5,32688,755803
5,33102,727252
5,33513,701535
5,33925,670270
5,34338,638367
5,34750,618672
5,35162,591312
5,35575,566380
5,35987,541404
5,36398,519992
5,36812,500758
5,37223,479101
5,37635,458105
5,38048,440556
5,38460,421495
5,38872,405510
5,39285,386341
5,39697,375249
5,40108,364537
5,40520,348323
5,40933,329380
5,41345,325785
5,41757,313872
5,42170,300917
5,42582,289351
5,42993,278530
5,43407,270086
5,43818,257323
5,44230,252656
5,44643,246985
5,45055,237652
5,45467,230924
5,45880,221918
5,46292,212485
5,46703,204466
5,47117,195961
5,47528,188076
5,47940,182443
5,48353,175000
5,48765,167897
5,49177,162792
5,49588,158994
5,50002,148217
5,50413,143224
5,50825,139537
5,51238,135544
5,51650,131679
5,52062,123254
5,52475,119832
5,52887,116707
5,53298,115437
5,53712,112550
5,54123,109198
5,54535,107908
5,54948,102114
5,55360,102015
5,55772,99762
5,56185,98866
5,56597,97245
5,57008,97127
5,57422,95201
5,57833,93543
5,58245,93228
5,58657,90822
5,59070,87518
5,59482,89340
5,59893,90419
5,60307,87237
5,60718,86711
5,61130,86629
5,61543,85048
5,61955,84043
5,62367,82066
5,62780,84043
5,63192,82549
5,63603,80930
5,64017,84428
5,64428,80029
5,64840,80203
5,65253,80252
5,65665,80239
5,66077,77347
5,66490,79103
5,66902,80810
5,67313,78805
5,67725,77556
5,68138,80125
5,68550,80156
5,68962,76027
5,69375,77261
5,69787,80840
5,70198,78042
5,70612,74778
5,71023,75692
5,71435,77346
5,71848,75910
5,72260,77726
5,72672,77656
5,73085,76326
5,73497,76841
5,73908,78967
5,74322,74718
5,74733,73570
5,75145,74913
5,75558,72356
5,75970,70426
5,76382,73239
5,76795,73567
5,77207,72764
5,77618,73638
5,78030,72001
5,78443,73143
5,78855,70716
5,79267,72775
5,79680,71074
5,80092,69769
5,80503,70217
5,80917,70782
5,81328,72173
5,81740,68810
5,82153,69514
5,82565,70763
5,82977,70112
5,83390,69507
5,83802,67128
5,84213,67774
5,84627,68464
5,85038,66469
5,85450,65498
5,85863,66528
5,86275,67157
5,86687,65727
5,87098,65130
5,87512,63500
5,87923,66272
5,88335,65642
5,88748,63229
5,89160,64279
5,89572,65966
5,89985,63578
5,90397,63185
5,90808,64239
5,91222,61583
5,91633,65008
5,92045,63532
5,92458,62356
5,92870,62828
5,93282,64732
5,93695,63375
5,94107,62440
5,94518,62802
5,94932,64912
5,95343,63153
5,95755,62076
5,96167,64094
5,96580,63669
5,96992,66492
5,97403,62916
5,97817,66383
5,98228,64325
5,98640,63763
5,99053,63685
5,99465,62705
5,99877,64974
6,00290,63557
6,00702,63769
6,01113,62880
6,01527,63201
6,01938,60401
6,02350,61351
6,02763,58635
6,03175,61855
6,03587,62050
6,04000,59895
6,04412,59708
6,04823,59702
6,05235,59534
6,05648,58277
6,06060,59454
6,06472,60248
6,06885,58773
6,07297,58560
6,07708,58867
6,08122,58572
6,08533,56987
6,08945,55857
6,09358,59991
6,09770,57593
6,10182,58051
6,10595,56915
6,11007,57328
6,11418,56793
6,11832,54772
6,12243,55901
6,12655,55772
6,13068,57188
6,13480,56064
6,13892,55326
6,14303,55549
6,14717,56084
6,15128,55136
6,15540,55284
6,15953,55742
6,16365,54139
6,16777,52628
6,17190,56463
6,17602,53530
6,18013,53031
6,18427,54610
6,18838,54514
6,19250,51742
6,19663,52204
6,20075,54741
6,20487,51903
6,20900,51936
6,21312,54545
6,21723,52889
6,22137,54035
6,22548,54836
6,22960,52064
6,23372,53237
6,23785,50948
6,24197,53085
6,24608,53935
6,25022,58985
6,25433,69133
6,25845,92929
6,26258,130870
6,26670,198556
6,27082,291700
6,27495,415789
6,27907,557914
6,28318,712426
6,28732,855468
6,29143,953725
6,29555,1032277
6,29968,1072235
6,30380,1088544
6,30792,1088497
6,31205,1064020
6,31617,1041364
6,32028,990154
6,32440,956920
6,32853,907879
6,33265,879795
6,33677,829486
6,34090,784878
6,34502,743761
6,34913,711455
6,35327,676454
6,35738,646494
6,36150,615011
6,36563,579810
6,36975,543350
6,37387,516714
6,37800,491443
6,38212,461741
6,38623,435683
6,39037,415660
6,39448,393013
6,39860,376320
6,40273,356959
6,40685,327962
6,41097,312578
6,41508,297457
6,41922,281897
6,42333,261640
6,42745,248372
6,43158,231189
6,43570,216019
6,43982,204516
6,44395,193568
6,44807,175584
6,45218,168119
6,45632,154463
6,46043,145281
6,46455,137928
6,46868,128356
6,47280,118378
6,47692,113519
6,48105,105350
6,48517,98300
6,48928,94093
6,49342,86467
6,49753,85348
6,50165,80322
6,50577,77155
6,50990,73193
6,51402,73182
6,51813,67895
6,52227,67729
6,52638,63974
6,53050,60277
6,53463,59838
6,53875,60548
6,54287,57829
6,54700,56601
6,55112,55386
6,55523,53338
6,55937,51292
6,56348,52975
6,56760,49514
6,57173,51213
6,57585,48305
6,57997,50543
6,58410,47688
6,58822,48071
6,59233,47194
6,59645,46954
6,60058,49167
6,60470,49048
6,60882,47022
6,61295,45192
6,61707,47601
6,62118,44872
6,62532,46088
6,62943,44398
6,63355,45682
6,63768,43473
6,64180,45307
6,64592,43960
6,65005,43831
6,65417,43669
6,65828,43080
6,66242,43323
6,66653,41253
6,67065,42900
6,67478,42428
6,67890,41854
6,68302,41482
6,68713,41881
6,69127,41991
6,69538,41128
6,69950,41068
6,70363,42022
6,70775,41601
6,71187,41337
6,71600,42338
6,72012,40992
6,72423,39805
6,72837,41593
6,73248,42520
6,73660,40915
6,74073,40909
6,74485,39291
6,74897,40884
6,75310,41790
6,75722,41280
6,76133,41571
6,76547,38822
6,76958,39178
6,77370,38981
6,77782,39766
6,78195,40014
6,78607,39161
6,79018,41027
6,79432,37733
6,79843,38307
6,80255,37730
6,80668,39637
6,81080,37623
6,81492,37823
6,81905,37349
6,82317,38840
6,82728,37372
6,83142,36778
6,83553,37030
6,83965,37335
6,84378,37760
6,84790,38158
6,85202,38391
6,85615,38133
6,86027,36599
6,86438,36830
6,86850,36766
6,87263,37599
6,87675,38814
6,88087,36062
6,88500,36300
6,88912,36717
6,89323,37687
6,89737,37116
6,90148,36404
6,90560,35673
6,90973,37571
6,91385,35323
6,91797,35103
6,92210,37010
6,92622,35240
6,93033,35374
6,93447,35329
6,93858,35335
6,94270,37789
6,94683,37351
6,95095,40322
6,95507,44290
6,95918,53540
6,96332,71917
6,96743,98036
6,97155,140813
6,97568,191144
6,97980,253855
6,98392,326941
6,98805,413416
6,99217,484204
6,99628,537941
7,00042,578116
7,00453,607087
7,00865,620662
7,01278,621780
7,01690,609785
7,02102,591710
7,02515,572900
7,02927,542480
7,03338,528681
7,03752,501277
7,04163,472810
7,04575,445707
7,04987,421103
7,05400,399499
7,05812,375127
7,06223,358986
7,06637,339991
7,07048,320869
7,07460,298990
7,07873,283265
7,08285,268514
7,08697,249021
7,09110,238260
7,09522,214376
7,09933,204192
7,10347,196298
7,10758,178310
7,11170,172999
7,11583,160067
7,11995,144759
7,12407,139561
7,12820,126699
7,13232,113594
7,13643,109685
7,14055,100878
7,14468,96047
7,14880,88925
7,15292,82874
7,15705,78596
7,16117,72526
7,16528,70840
7,16942,64157
7,17353,62252
7,17765,60137
7,18178,53732
7,18590,51576
7,19002,50069
7,19415,49708
7,19827,48989
7,20238,45488
7,20652,43323
7,21063,44119
7,21475,41541
7,21888,41568
7,22300,41275
7,22712,39519
7,23123,39582
7,23537,38590
7,23948,36967
7,24360,38117
7,24773,36760
7,25185,36419
7,25597,36694
7,26010,36117
7,26422,36869
7,26833,36243
7,27247,36303
7,27658,33353
7,28070,36330
7,28483,36324
7,28895,34483
7,29307,36821
7,29720,37240
7,30132,36650
7,30543,35202
7,30957,35794
7,31368,35448
7,31780,33640
7,32193,35632
7,32605,36168
7,33017,35625
7,33428,34298
7,33842,35704
7,34253,34433
7,34665,35898
7,35078,34763
7,35490,34286
7,35902,32069
7,36315,33527
7,36727,32215
7,37138,31393
7,37552,31619
7,37963,32943
7,38375,31789
7,38788,31127
7,39200,32044
7,39612,33088
7,40025,30868
7,40437,31400
7,40848,31497
7,41262,29031
7,41673,30689
7,42085,29399
7,42497,29171
7,42910,30661
7,43322,30316
7,43733,29613
7,44147,29493
7,44558,29011
7,44970,29185
7,45383,28533
7,45795,28744
7,46207,28687
7,46620,29240
7,47032,29266
7,47443,27195
7,47857,29316
7,48268,28163
7,48680,29691
7,49093,30026
7,49505,28965
7,49917,29442
7,50330,30404
7,50742,27319
7,51153,27013
7,51565,28190
7,51978,27007
7,52390,27058
7,52802,26744
7,53215,26674
7,53627,27041
7,54038,26373
7,54452,27525
7,54863,26426
7,55275,27360
7,55688,25548
7,56100,26244
7,56512,27022
7,56925,26679
7,57337,25937
7,57748,25630
7,58162,26915
7,58573,27458
7,58985,26000
7,59398,26850
7,59810,26900
7,60222,24613
7,60633,26868
7,61047,25297
7,61458,25156
7,61870,28188
7,62283,26123
7,62695,25628
7,63107,26544
7,63520,25946
7,63932,27337
7,64343,25194
7,64757,24803
7,65168,26925
7,65580,27561
7,65993,25949
7,66405,27021
7,66817,27190
7,67230,26039
7,67642,25679
7,68053,26211
7,68467,24360
7,68878,28009
7,69290,26437
7,69702,25354
7,70115,25125
7,70527,24130
7,70938,26106
7,71352,25703
7,71763,26164
7,72175,27289
7,72588,25635
7,73000,25579
7,73412,25768
7,73825,25985
7,74237,26327
7,74648,24547
7,75062,25353
7,75473,25576
7,75885,25175
7,76298,25065
7,76710,24626
7,77122,24539
7,77535,25105
7,77947,26362
7,78358,26344
7,78770,27017
7,79183,32990
7,79595,41184
7,80007,56928
7,80420,84016
7,80832,134365
7,81243,203095
7,81657,298252
7,82068,426912
7,82480,577245
7,82893,739731
7,83305,911285
7,83717,1059297
7,84130,1172554
7,84542,1278611
7,84953,1332884
7,85367,1371749
7,85778,1360585
7,86190,1337758
7,86603,1296564
7,87015,1248168
7,87427,1197146
7,87838,1131860
7,88252,1080981
7,88663,1017841
7,89075,942758
7,89488,896182
7,89900,824058
7,90312,769389
7,90725,718143
7,91137,668351
7,91548,614758
7,91962,567466
7,92373,524668
7,92785,479134
7,93198,445444
7,93610,396393
7,94022,375493
7,94435,331001
7,94847,300515
7,95258,272298
7,95672,249548
7,96083,225278
7,96495,200307
7,96907,182517
7,97320,164469
7,97732,147835
7,98143,134477
7,98557,120746
7,98968,112504
7,99380,104952
7,99793,93449
8,00205,87584
8,00617,77385
8,01030,73037
8,01442,66794
8,01853,64887
8,02267,61435
8,02678,56180
8,03090,54381
8,03503,52112
8,03915,49021
8,04327,48214
8,04740,46731
8,05152,44375
8,05563,44485
8,05975,42615
8,06388,39493
8,06800,40672
8,07212,38269
8,07625,37079
8,08037,34743
8,08448,36041
8,08862,35851
8,09273,34196
8,09685,31691
8,10098,32388
8,10510,32383
8,10922,30927
8,11335,30594
8,11747,31398
8,12158,30708
8,12572,30885
8,12983,29941
8,13395,29461
8,13808,28267
8,14220,28244
8,14632,28045
8,15043,28428
8,15457,27726
8,15868,25999
8,16280,27304
8,16693,26869
8,17105,25067
8,17517,26442
8,17930,26343
8,18342,25384
8,18753,24875
8,19167,25331
8,19578,26140
8,19990,23764
8,20403,23500
8,20815,24422
8,21227,25819
8,21640,24862
8,22052,25381
8,22463,25146
8,22877,24604
8,23288,22443
8,23700,23489
8,24112,25297
8,24525,24214
8,24937,24086
8,25348,22647
8,25762,24761
8,26173,24389
8,26585,24854
8,26998,22348
8,27410,24344
8,27822,24367
8,28235,22761
8,28647,23517
8,29058,22842
8,29472,22868
8,29883,22890
8,30295,22535
8,30708,22323
8,31120,23698
8,31532,21929
8,31945,21412
8,32357,21489
8,32768,21633
8,33180,22984
8,33593,21905
8,34005,21158
8,34417,22236
8,34830,24013
8,35242,21266
8,35653,22069
8,36067,20136
8,36478,21670
8,36890,21073
8,37303,20665
8,37715,20911
8,38127,21872
8,38540,21779
8,38952,21023
8,39363,20325
8,39777,20897
8,40188,20694
8,40600,21223
8,41013,19198
8,41425,20472
8,41837,20363
8,42248,22120
8,42662,20761
8,43073,21779
8,43485,20506
8,43898,21075
8,44310,21514
8,44722,22626
8,45135,20816
8,45547,20578
8,45958,20147
8,46372,19826
8,46783,20957
8,47195,20422
8,47608,19950
8,48020,19879
8,48432,18981
8,48845,20092
8,49257,20545
8,49668,19863
8,50082,21308
8,50493,20064
8,50905,19875
8,51317,20816
8,51730,19393
8,52142,20125
8,52553,20181
8,52967,19893
8,53378,20772
8,53790,19701
8,54203,20920
8,54615,21192
8,55027,19689
8,55440,18979
8,55852,20525
8,56263,19269
8,56677,18754
8,57088,19231
8,57500,20486
8,57913,20484
8,58325,20146
8,58737,20482
8,59150,20746
8,59562,21167
8,59973,21637
8,60385,22508
8,60798,20982
8,61210,22645
8,61622,21798
8,62035,23450
8,62447,24347
8,62858,22011
8,63272,22533
8,63683,22204
8,64095,23549
8,64508,21731
8,64920,22694
8,65332,22665
8,65745,22246
8,66157,20984
8,66568,21686
8,66982,22067
8,67393,21486
8,67805,21856
8,68218,21706
8,68630,19945
8,69042,21755
8,69453,21039
8,69867,20688
8,70278,20877
8,70690,20233
8,71103,20237
8,71515,19706
8,71927,19288
8,72340,19429
8,72752,19061
8,73163,19811
8,73577,19291
8,73988,19238
8,74400,19278
8,74813,18854
8,75225,19752
8,75637,20624
8,76050,22692
8,76462,25734
8,76873,34307
8,77287,48081
8,77698,70663
8,78110,100629
8,78522,146728
8,78935,206687
8,79347,275044
8,79758,358923
8,80172,447948
8,80583,544133
8,80995,626128
8,81408,694569
8,81820,737377
8,82232,769870
8,82645,781176
8,83057,780698
8,83468,761068
8,83882,738812
8,84293,702335
8,84705,661929
8,85118,628218
8,85530,581952
8,85942,544957
8,86355,503973
8,86767,466587
8,87178,426234
8,87592,383594
8,88003,353308
8,88415,320309
8,88827,287033
8,89240,256570
8,89652,229127
8,90063,208580
8,90477,187073
8,90888,165732
8,91300,147399
8,91713,132393
8,92125,117360
8,92537,106825
8,92950,96082
8,93362,85683
8,93773,76552
8,94187,70675
8,94598,66096
8,95010,60860
8,95423,55703
8,95835,52709
8,96247,49207
8,96660,45149
8,97072,43419
8,97483,39550
8,97895,37098
8,98308,37326
8,98720,34868
8,99132,30828
8,99545,32390
8,99957,32196
9,00368,30031
9,00782,29287
9,01193,28112
9,01605,26762
9,02018,27161
9,02430,26646
9,02842,25746
9,03255,25506
9,03667,24658
9,04078,24083
9,04492,24259
9,04903,23617
9,05315,23744
9,05728,23173
9,06140,22165
9,06552,22243
9,06963,21732
9,07377,21568
9,07788,20819
9,08200,21012
9,08613,20080
9,09025,20630
9,09437,19178
9,09850,20701
9,10262,19489
9,10673,19445
9,11087,21518
9,11498,18518
9,11910,19490
9,12323,19637
9,12735,18984
9,13147,19197
9,13560,20143
9,13972,19377
9,14383,17778
9,14797,18441
9,15208,17059
9,15620,19704
9,16032,18910
9,16445,17769
9,16857,17451
9,17268,16920
9,17682,18595
9,18093,17054
9,18505,18315
9,18918,17565
9,19330,18216
9,19742,18491
9,20155,16768
9,20567,17389
9,20978,17823
9,21392,17013
9,21803,17324
9,22215,17405
9,22628,17865
9,23040,16757
9,23452,16647
9,23865,16552
9,24277,17750
9,24688,17635
9,25100,16552
9,25513,16875
9,25925,17055
9,26337,16366
9,26750,17116
9,27162,16774
9,27573,16276
9,27987,15432
9,28398,16415
9,28810,17734
9,29223,15594
9,29635,16962
9,30047,17892
9,30460,15670
9,30872,18139
9,31283,17581
9,31697,17802
9,32108,18359
9,32520,18440
9,32933,20262
9,33345,18267
9,33757,19032
9,34168,19347
9,34582,19538
9,34993,20175
9,35405,18448
9,35818,19048
9,36230,20045
9,36642,18350
9,37055,20294
9,37467,18627
9,37878,17243
9,38292,17269
9,38703,16751
9,39115,18077
9,39528,17822
9,39940,17901
9,40352,16726
9,40765,18669
9,41177,17699
9,41588,17945
9,42002,17458
9,42413,16574
9,42825,16302
9,43237,16612
9,43650,15810
9,44062,16016
9,44473,15798
9,44887,16404
9,45298,16030
9,45710,16517
9,46123,15386
9,46535,15562
9,46947,17287
9,47360,14467
9,47772,16852
9,48183,14851
9,48597,15231
9,49008,13160
9,49420,15123
9,49833,14718
9,50245,15184
9,50657,14811
9,51070,14510
9,51482,14867
9,51893,15120
9,52305,15208
9,52718,15062
9,53130,14865
9,53542,14183
9,53955,13785
9,54367,14977
9,54778,15942
9,55192,16492
9,55603,14643
9,56015,15546
9,56428,16524
9,56840,17316
9,57252,17446
9,57665,16647
9,58077,16692
9,58488,16573
9,58902,18540
9,59313,19298
9,59725,18665
9,60138,20086
9,60550,19293
9,60962,19105
9,61373,19144
9,61787,18907
9,62198,19322
9,62610,18167
9,63023,18492
9,63435,17866
9,63847,17469
9,64260,18260
9,64672,16737
9,65083,17394
9,65497,19032
9,65908,17991
9,66320,16562
9,66733,17050
9,67145,17347
9,67557,16022
9,67970,15986
9,68382,15348
9,68793,16100
9,69207,15923
9,69618,15489
9,70030,14644
9,70442,16277
9,70855,14615
9,71267,15084
9,71678,15582
9,72092,15469
9,72503,16401
9,72915,14638
9,73328,14411
9,73740,13605
9,74152,15529
9,74565,14732
9,74977,15190
9,75388,15481
9,75802,14470
9,76213,14404
9,76625,13634
9,77038,15153
9,77450,14661
9,77862,14519
9,78275,15387
9,78687,14237
9,79098,13868
9,79510,13941
9,79923,14761
9,80335,14481
9,80747,12706
9,81160,15355
9,81572,13275
9,81983,13764
9,82397,15755
9,82808,16752
9,83220,20312
9,83633,27516
9,84045,39263
9,84457,61959
9,84870,97557
9,85282,154832
9,85693,236672
9,86107,352714
9,86518,491029
9,86930,666182
9,87343,858077
9,87755,1071580
9,88167,1272210
9,88578,1451263
9,88992,1612893
9,89403,1710967
9,89815,1772115
9,90228,1783794
9,90640,1781572
9,91052,1723458
9,91465,1647639
9,91877,1557938
9,92288,1448400
9,92702,1335821
9,93113,1216819
9,93525,1105023
9,93938,998793
9,94350,896824
9,94762,788121
9,95175,703484
9,95587,609917
9,95998,526026
9,96412,461566
9,96823,405328
9,97235,356629
9,97647,305910
9,98060,272528
9,98472,236553
9,98883,203452
9,99297,183524
9,99708,166241
10,00120,152907
10,00533,134360
10,00945,122478
10,01357,106760
10,01770,99993
10,02182,93165
10,02593,88478
10,03007,80147
10,03418,74943
10,03830,68802
10,04243,63415
10,04655,62109
10,05067,60728
10,05480,56701
10,05892,52227
10,06303,46721
10,06715,47386
10,07128,43750
10,07540,40580
10,07952,40084
10,08365,38366
10,08777,37357
10,09188,33955
10,09602,35242
10,10013,31627
10,10425,31064
10,10838,31031
10,11250,29219
10,11662,29341
10,12075,29683
10,12487,27067
10,12898,26495
10,13312,25451
10,13723,26757
10,14135,24435
10,14548,25018
10,14960,23900
10,15372,22331
10,15783,23969
10,16197,22327
10,16608,21730
10,17020,21719
10,17433,22708
10,17845,21114
10,18257,19830
10,18670,21600
10,19082,21157
10,19493,20852
10,19907,19893
10,20318,20936
10,20730,20285
10,21143,21486
10,21555,20990
10,21967,21303
10,22380,20503
10,22792,21332
10,23203,20583
10,23617,21404
10,24028,20655
10,24440,20772
10,24852,19785
10,25265,19755
10,25677,20592
10,26088,19264
10,26502,19139
10,26913,18335
10,27325,18905
10,27738,18007
10,28150,18795
10,28562,17831
10,28975,18262
10,29387,17775
10,29798,15749
10,30212,17923
10,30623,15846
10,31035,14428
10,31448,15704
10,31860,16184
10,32272,15731
10,32685,15139
10,33097,15353
10,33508,15071
10,33922,13636
10,34333,14274
10,34745,15659
10,35157,14659
10,35570,14227
10,35982,14349
10,36393,13100
10,36807,14180
10,37218,14747
10,37630,15091
10,38043,13801
10,38455,13754
10,38867,13584
10,39280,13300
10,39692,13885
10,40103,14653
10,40517,16176
10,40928,14627
10,41340,13561
10,41753,15162
10,42165,14579
10,42577,14281
10,42990,15071
10,43402,14980
10,43813,16661
10,44225,14730
10,44638,15571
10,45050,15680
10,45462,16293
10,45875,16165
10,46287,16912
10,46698,15003
10,47112,16152
10,47523,16907
10,47935,14023
10,48348,15763
10,48760,15031
10,49172,15978
10,49585,15152
10,49997,14858
10,50408,13422
10,50822,14924
10,51233,14828
10,51645,14186
10,52058,12696
10,52470,14420
10,52882,14095
10,53293,12555
10,53707,12795
10,54118,14351
10,54530,14892
10,54943,13687
10,55355,12911
10,55767,13203
10,56180,13485
10,56592,12065
10,57003,13469
10,57417,13225
10,57828,12898
10,58240,13481
10,58653,13054
10,59065,12634
10,59477,12827
10,59890,12995
10,60302,12286
10,60713,11328
10,61127,12095
10,61538,12106
10,61950,12950
10,62362,12204
10,62775,12838
10,63187,12630
10,63598,13330
10,64012,13290
10,64423,13147
10,64835,13311
10,65248,13740
10,65660,16834
10,66072,19328
10,66485,29976
10,66897,40554
10,67308,58000
10,67722,88475
10,68133,126547
10,68545,181503
10,68958,253427
10,69370,338514
10,69782,435427
10,70195,526963
10,70607,627704
10,71018,707720
10,71430,780571
10,71843,832949
10,72255,852870
10,72667,879005
10,73080,862064
10,73492,839379
10,73903,797744
10,74317,744068
10,74728,692724
10,75140,625093
10,75553,562642
10,75965,507652
10,76377,451843
10,76790,404573
10,77202,351816
10,77613,312951
10,78027,274967
10,78438,237566
10,78850,210378
10,79263,188059
10,79675,162433
10,80087,143977
10,80498,128655
10,80912,114258
10,81323,103231
10,81735,93113
10,82148,84064
10,82560,77022
10,82972,69157
10,83385,61762
10,83797,57602
10,84208,54500
10,84622,49375
10,85033,46069
10,85445,44866
10,85858,39614
10,86270,39667
10,86682,38779
10,87095,34964
10,87507,33810
10,87918,31168
10,88332,30330
10,88743,28553
10,89155,27282
10,89567,27198
10,89980,25451
10,90392,24789
10,90803,24318
10,91217,23764
10,91628,22432
10,92040,23092
10,92453,23665
10,92865,20749
10,93277,20552
10,93690,20042
10,94102,19724
10,94513,19443
10,94927,19059
10,95338,19543
10,95750,18409
10,96163,17403
10,96575,18520
10,96987,18634
10,97400,18465
10,97812,20832
10,98223,22152
10,98635,30401
10,99048,38704
10,99460,57403
10,99872,86329
11,00285,124700
11,00697,181831
11,01108,255147
11,01522,350673
11,01933,452285
11,02345,560355
11,02758,671553
11,03170,787136
11,03582,883658
11,03995,934786
11,04407,980459
11,04818,994518
11,05232,992098
11,05643,959145
11,06055,911892
11,06468,857750
11,06880,787831
11,07292,709598
11,07703,632874
11,08117,562335
11,08528,488761
11,08940,421093
11,09353,368699
11,09765,318033
11,10177,272908
11,10590,236141
11,11002,206453
11,11413,177498
11,11827,155233
11,12238,137737
11,12650,120305
11,13063,106529
11,13475,95156
11,13887,84866
11,14300,78963
11,14712,68615
11,15123,64522
11,15537,59680
11,15948,55481
11,16360,49341
11,16772,48048
11,17185,44802
11,17597,40865
11,18008,40260
11,18422,36461
11,18833,34514
11,19245,33200
11,19658,31862
11,20070,30658
11,20482,29774
11,20895,28878
11,21307,25154
11,21718,26985
11,22132,25327
11,22543,25643
11,22955,22572
11,23368,22262
11,23780,21474
11,24192,21616
11,24605,21666
11,25017,21646
11,25428,20404
11,25840,19754
11,26253,20316
11,26665,18070
11,27077,19204
11,27490,19612
11,27902,17084
11,28313,18071
11,28727,16527
11,29138,15531
11,29550,15103
11,29963,15068
11,30375,16694
11,30787,15256
11,31200,15639
11,31612,15835
11,32023,14139
11,32437,16166
11,32848,14067
11,33260,14285
11,33673,12853
11,34085,12791
11,34497,12572
11,34908,13590
11,35322,14971
11,35733,14742
11,36145,13438
11,36558,13956
11,36970,12995
11,37382,13100
11,37795,13571
11,38207,13486
11,38618,13003
11,39032,13481
11,39443,12680
11,39855,13175
11,40268,12421
11,40680,13433
11,41092,12759
11,41505,13079
11,41917,12008
11,42328,12225
11,42742,11757
11,43153,12665
11,43565,11261
11,43977,12276
11,44390,11975
11,44802,11745
11,45213,11188
11,45627,12354
11,46038,13073
11,46450,11245
11,46863,13058
11,47275,12607
11,47687,12113
11,48100,11674
11,48512,11594
11,48923,10448
11,49337,11350
11,49748,12656
11,50160,11924
11,50573,11941
11,50985,11199
11,51397,11274
11,51810,11373
11,52222,10827
11,52633,10737
11,53045,11790
11,53458,12003
11,53870,11501
11,54282,10586
11,54695,10769
11,55107,10572
11,55518,11665
11,55932,12092
11,56343,11247
11,56755,11467
11,57168,11472
11,57580,12200
11,57992,10669
11,58405,10854
11,58817,12171
11,59228,11661
11,59642,11887
11,60053,11462
11,60465,12653
11,60878,12265
11,61290,11464
11,61702,11139
11,62113,11839
11,62527,11559
11,62938,11549
11,63350,11099
11,63763,11632
11,64175,11286
11,64587,11671
11,65000,11840
11,65412,10081
11,65823,10638
11,66237,11645
11,66648,11185
11,67060,11209
11,67473,10990
11,67885,12564
11,68297,10547
11,68710,10670
11,69122,10266
11,69533,10341
11,69947,10096
11,70358,11694
11,70770,10321
11,71182,10954
11,71595,10271
11,72007,9998
11,72418,10225
11,72832,9968
11,73243,10874
11,73655,10232
11,74068,10909
11,74480,10444
11,74892,10398
11,75305,11097
11,75717,9831
11,76128,10322
11,76542,10728
11,76953,10266
11,77365,9900
11,77778,10949
11,78190,9879
11,78602,10520
11,79015,12098
11,79427,10627
11,79838,9941
11,80250,10720
11,80663,9378
11,81075,10982
11,81487,10350
11,81900,11570
11,82312,9521
11,82723,10528
11,83137,11094
11,83548,10811
11,83960,13143
11,84373,15589
11,84785,18339
11,85197,27800
11,85610,40386
11,86022,59599
11,86433,89817
11,86847,132142
11,87258,191450
11,87670,268703
11,88083,365528
11,88495,463751
11,88907,571968
11,89320,685701
11,89732,788609
11,90143,877257
11,90555,928734
11,90968,965406
11,91380,980199
11,91792,958393
11,92205,921228
11,92617,869156
11,93028,801083
11,93442,720461
11,93853,644491
11,94265,572385
11,94678,494743
11,95090,435372
11,95502,377167
11,95915,318400
11,96327,281868
11,96738,238184
11,97152,206654
11,97563,181184
11,97975,159830
11,98388,138188
11,98800,120833
11,99212,110419
11,99623,97107
12,00037,85337
12,00448,77535
12,00860,68743
12,01273,64084
12,01685,61952
12,02097,53085
12,02510,51412
12,02922,48676
12,03333,45371
12,03747,42064
12,04158,41464
12,04570,37404
12,04983,36120
12,05395,32468
12,05807,30543
12,06220,28830
12,06632,28406
12,07043,26231
12,07457,26818
12,07868,25233
12,08280,22962
12,08692,24216
12,09105,23537
12,09517,21533
12,09928,20958
12,10342,20734
12,10753,19115
12,11165,19569
12,11578,18775
12,11990,19786
12,12402,19711
12,12815,17403
12,13227,16793
12,13638,17271
12,14052,17192
12,14463,15799
12,14875,17042
12,15288,17176
12,15700,17822
12,16112,15970
12,16525,20809
12,16937,26656
12,17348,33317
12,17760,54895
12,18173,85585
12,18585,141692
12,18997,223083
12,19410,345811
12,19822,511825
12,20233,742882
12,20647,1025373
12,21058,1327437
12,21470,1711479
12,21883,2104327
12,22295,2449377
12,22707,2797890
12,23120,3056911
12,23532,3260361
12,23943,3377662
12,24357,3402712
12,24768,3293517
12,25180,3102662
12,25593,2886431
12,26005,2581715
12,26417,2292010
12,26828,2000810
12,27242,1718683
12,27653,1469953
12,28065,1228575
12,28478,1047696
12,28890,894344
12,29302,755341
12,29715,648450
12,30127,560653
12,30538,474958
12,30952,415608
12,31363,365284
12,31775,321252
12,32188,280318
12,32600,253343
12,33012,225802
12,33425,202601
12,33837,180677
12,34248,163988
12,34662,154214
12,35073,142383
12,35485,128088
12,35897,116768
12,36310,107515
12,36722,101997
12,37133,93338
12,37547,92313
12,37958,84706
12,38370,78825
12,38783,71816
12,39195,68809
12,39607,66967
12,40020,59811
12,40432,58711
12,40843,55515
12,41257,53376
12,41668,50449
12,42080,49110
12,42493,45832
12,42905,45005
12,43317,44024
12,43730,42326
12,44142,40037
12,44553,36909
12,44965,38200
12,45378,35762
12,45790,34134
12,46202,32963
12,46615,32155
12,47027,31798
12,47438,29980
12,47852,32327
12,48263,29456
12,48675,29330
12,49088,28144
12,49500,26400
12,49912,25213
12,50325,24822
12,50737,23621
12,51148,22538
12,51562,23301
12,51973,21525
12,52385,21769
12,52798,21525
12,53210,22193
12,53622,21427
12,54033,19773
12,54447,20880
12,54858,18595
12,55270,20558
12,55683,19872
12,56095,19328
12,56507,17049
12,56920,17753
12,57332,18533
12,57743,18130
12,58157,17828
12,58568,17127
12,58980,16418
12,59393,16226
12,59805,16276
12,60217,16450
12,60630,15498
12,61042,16321
12,61453,14841
12,61867,15293
12,62278,13962
12,62690,15377
12,63102,14593
12,63515,14285
12,63927,13581
12,64338,14053
12,64752,13704
12,65163,15672
12,65575,14050
12,65988,14418
12,66400,13633
12,66812,13523
12,67225,13802
12,67637,13657
12,68048,14826
12,68462,14754
12,68873,15035
12,69285,13024
12,69698,13889
12,70110,14041
12,70522,13503
12,70935,13770
12,71347,13529
12,71758,15898
12,72170,14517
12,72583,14560
12,72995,13454
12,73407,13027
12,73820,13073
12,74232,12730
12,74643,12174
12,75057,11983
12,75468,12949
12,75880,12836
12,76293,11215
12,76705,12648
12,77117,11623
12,77530,12608
12,77942,12625
12,78353,11126
12,78767,11373
12,79178,12033
12,79590,10909
12,80003,12410
12,80415,10713
12,80827,10861
12,81238,13206
12,81652,11949
12,82063,11044
12,82475,12990
12,82888,13079
12,83300,11806
12,83712,13266
12,84125,13372
12,84537,14067
12,84948,12513
12,85362,12901
12,85773,12839
12,86185,12111
12,86598,13017
12,87010,13427
12,87422,12214
12,87835,12373
12,88247,12697
12,88658,11741
12,89072,12788
12,89483,17099
12,89895,20980
12,90307,28009
12,90720,43224
12,91132,65914
12,91543,98951
12,91957,144889
12,92368,206826
12,92780,289130
12,93193,386429
12,93605,506563
12,94017,626567
12,94430,734889
12,94842,844834
12,95253,929332
12,95667,994399
12,96078,1031846
12,96490,1033565
12,96903,1015200
12,97315,955403
12,97727,886849
12,98140,799738
12,98552,728296
12,98963,635633
12,99375,564755
12,99788,489639
13,00200,420883
13,00612,360148
13,01025,306368
13,01437,268275
13,01848,228964
13,02262,200570
13,02673,174584
13,03085,157318
13,03498,139690
13,03910,124610
13,04322,113234
13,04735,103696
13,05147,90140
13,05558,83907
13,05972,76929
13,06383,70298
13,06795,65386
13,07208,57743
13,07620,56657
13,08032,51621
13,08443,48819
13,08857,45380
13,09268,42775
13,09680,41501
13,10093,42009
13,10505,40478
13,10917,38801
13,11330,37378
13,11742,36257
13,12153,35614
13,12567,34017
13,12978,32280
13,13390,30682
13,13803,31335
13,14215,29792
13,14627,28958
13,15040,27867
13,15452,25873
13,15863,24134
13,16277,24026
13,16688,24079
13,17100,22195
13,17512,22881
13,17925,20473
13,18337,21291
13,18748,18295
13,19162,20152
13,19573,19133
13,19985,19441
13,20398,17352
13,20810,17921
13,21222,17695
13,21635,16499
13,22047,16378
13,22458,16517
13,22872,16600
13,23283,16678
13,23695,15674
13,24108,14455
13,24520,13482
13,24932,14490
13,25345,13279
13,25757,14063
13,26168,13488
13,26580,13546
13,26993,12834
13,27405,12518
13,27817,11655
13,28230,13143
13,28642,12738
13,29053,12790
13,29467,11965
13,29878,13157
13,30290,12229
13,30703,13102
13,31115,11802
13,31527,11814
13,31940,11929
13,32352,11957
13,32763,10676
13,33177,11506
13,33588,11047
13,34000,13258
13,34413,12326
13,34825,11470
13,35237,11968
13,35648,11298
13,36062,12170
13,36473,12417
13,36885,11773
13,37298,12153
13,37710,14808
13,38122,19751
13,38535,26144
13,38947,38422
13,39358,58654
13,39772,90981
13,40183,136948
13,40595,203930
13,41008,290192
13,41420,388885
13,41832,523533
13,42245,657517
13,42657,791361
13,43068,936424
13,43482,1051176
13,43893,1138951
13,44305,1195725
13,44717,1207217
13,45130,1174232
13,45542,1115570
13,45953,1029665
13,46367,914240
13,46778,816064
13,47190,721155
13,47603,622197
13,48015,540149
13,48427,449255
13,48840,384537
13,49252,325437
13,49663,281246
13,50077,241154
13,50488,204827
13,50900,181826
13,51313,158464
13,51725,141381
13,52137,124317
13,52550,110943
13,52962,98249
13,53373,91852
13,53785,79993
13,54198,74240
13,54610,67919
13,55022,63801
13,55435,57268
13,55847,52909
13,56258,49777
13,56672,45909
13,57083,42561
13,57495,42599
13,57908,39537
13,58320,35754
13,58732,33337
13,59145,32175
13,59557,31681
13,59968,27609
13,60382,27017
13,60793,28147
13,61205,26389
13,61618,26078
13,62030,23821
13,62442,23908
13,62855,23548
13,63267,22157
13,63678,22097
13,64090,21209
13,64503,21739
13,64915,18696
13,65327,18526
13,65740,19621
13,66152,19663
13,66563,18292
13,66977,18994
13,67388,17604
13,67800,18707
13,68213,17215
13,68625,15928
13,69037,16222
13,69450,17091
13,69862,16084
13,70273,17019
13,70687,17420
13,71098,14940
13,71510,13766
13,71923,15279
13,72335,14461
13,72747,14816
13,73158,13974
13,73572,14892
13,73983,13232
13,74395,12626
13,74808,13711
13,75220,12902
13,75632,13383
13,76045,13161
13,76457,11712
13,76868,13603
13,77282,13542
13,77693,11952
13,78105,12188
13,78518,12381
13,78930,12432
13,79342,11198
13,79755,11141
13,80167,10705
13,80578,11602
13,80992,12311
13,81403,12691
13,81815,11660
13,82227,10924
13,82640,11427
13,83052,10098
13,83463,10265
13,83877,11151
13,84288,12079
13,84700,10622
13,85113,10549
13,85525,9611
13,85937,11743
13,86350,10714
13,86762,11544
13,87173,11202
13,87587,10986
13,87998,10078
13,88410,10015
13,88823,9226
13,89235,11111
13,89647,10509
13,90060,10195
13,90472,9777
13,90883,9554
13,91295,10432
13,91708,11157
13,92120,9153
13,92532,11076
13,92945,11039
13,93357,10189
13,93768,11713
13,94182,9905
13,94593,10613
13,95005,9580
13,95418,9267
13,95830,10426
13,96242,10599
13,96655,9328
13,97067,9901
13,97478,9967
13,97892,11116
13,98303,10291
13,98715,10036
13,99128,10281
13,99540,11324
13,99952,9748
14,00363,9838
14,00777,12346
14,01188,11569
14,01600,10497
14,02013,11350
14,02425,10082
14,02837,9531
14,03250,10728
14,03662,9542
14,04073,11263
14,04487,9771
14,04898,9806
14,05310,10177
14,05723,10032
14,06135,9900
14,06547,9372
14,06960,9585
14,07372,10626
14,07783,9251
14,08197,9202
14,08608,10574
14,09020,9700
14,09432,11430
14,09845,11724
14,10257,13705
14,10668,15828
14,11082,19053
14,11493,25205
14,11905,37650
14,12318,57858
14,12730,90701
14,13142,138306
14,13555,200056
14,13967,287669
14,14378,386945
14,14792,513112
14,15203,641830
14,15615,771152
14,16028,911724
14,16440,1008466
14,16852,1091304
14,17265,1143054
14,17677,1161940
14,18088,1106607
14,18500,1050938
14,18913,978076
14,19325,891131
14,19737,786936
14,20150,692083
14,20562,599473
14,20973,512589
14,21387,444963
14,21798,373673
14,22210,321878
14,22623,276802
14,23035,237363
14,23447,207216
14,23860,181078
14,24272,159299
14,24683,143234
14,25097,127267
14,25508,113483
14,25920,101631
14,26333,89227
14,26745,81963
14,27157,76136
14,27568,66112
14,27982,65015
14,28393,59643
14,28805,56091
14,29218,51609
14,29630,48703
14,30042,43886
14,30455,41607
14,30867,38793
14,31278,37373
14,31692,35170
14,32103,33947
14,32515,34057
14,32928,29317
14,33340,30067
14,33752,27009
14,34165,26763
14,34577,27395
14,34988,25342
14,35402,24277
14,35813,24336
14,36225,23685
14,36637,21967
14,37050,22829
14,37462,22081
14,37873,25589
14,38287,24759
14,38698,24367
14,39110,25746
14,39523,26934
14,39935,27972
14,40347,27378
14,40760,28644
14,41172,28956
14,41583,28336
14,41997,27620
14,42408,26077
14,42820,26678
14,43233,25988
14,43645,25306
14,44057,24046
14,44470,22436
14,44882,21234
14,45293,21787
14,45705,20041
14,46118,17710
14,46530,19061
14,46942,18571
14,47355,16813
14,47767,16188
14,48178,16317
14,48592,15378
14,49003,15214
14,49415,15568
14,49828,13302
14,50240,13997
14,50652,15049
14,51065,13967
14,51477,13927
14,51888,13603
14,52302,12882
14,52713,13007
14,53125,13440
14,53538,12307
14,53950,12925
14,54362,12598
14,54773,13277
14,55187,10898
14,55598,12435
14,56010,11497
14,56423,11823
14,56835,11803
14,57247,11851
14,57660,12924
14,58072,13492
14,58483,17613
14,58897,23936
14,59308,36100
14,59720,56398
14,60133,89972
14,60545,145084
14,60957,223141
14,61370,341923
14,61782,488202
14,62193,681065
14,62607,911994
14,63018,1172611
14,63430,1459176
14,63842,1746229
14,64255,2053544
14,64667,2339060
14,65078,2523270
14,65492,2639763
14,65903,2672163
14,66315,2617403
14,66728,2470202
14,67140,2280412
14,67552,2036814
14,67965,1780068
14,68377,1525669
14,68788,1310960
14,69202,1112328
14,69613,943231
14,70025,801681
14,70438,674513
14,70850,576349
14,71262,496427
14,71675,428580
14,72087,369672
14,72498,326169
14,72910,286810
14,73323,253801
14,73735,229034
14,74147,205161
14,74560,181965
14,74972,167012
14,75383,150017
14,75797,142082
14,76208,127316
14,76620,116445
14,77033,108658
14,77445,100705
14,77857,91193
14,78270,87353
14,78682,79823
14,79093,79065
14,79507,69731
14,79918,66814
14,80330,65898
14,80743,61118
14,81155,57565
14,81567,54487
14,81978,50608
14,82392,48904
14,82803,46291
14,83215,45457
14,83628,41320
14,84040,40850
14,84452,38746
14,84865,37847
14,85277,37160
14,85688,34971
14,86102,35195
14,86513,31942
14,86925,31985
14,87338,30343
14,87750,30145
14,88162,27650
14,88575,27498
14,88987,26635
14,89398,27325
14,89812,24413
14,90223,26912
14,90635,25069
14,91047,22832
14,91460,23929
14,91872,22674
14,92283,21169
14,92697,21288
14,93108,20270
14,93520,21123
14,93933,19479
14,94345,19780
14,94757,18827
14,95170,18798
14,95582,21171
14,95993,18536
14,96407,18549
14,96818,18611
14,97230,17875
14,97643,17187
14,98055,17027
14,98467,15038
14,98880,15685
14,99292,17155
14,99703,17706
15,00115,19836
15,00528,23719
15,00940,28657
15,01352,42811
15,01765,62132
15,02177,91529
15,02588,140662
15,03002,202254
15,03413,284422
15,03825,397494
15,04238,529058
15,04650,679685
15,05062,819556
15,05475,968231
15,05887,1076640
15,06298,1185436
15,06712,1229447
15,07123,1253473
15,07535,1226144
15,07948,1147885
15,08360,1070631
15,08772,967974
15,09183,875701
15,09597,771178
15,10008,665640
15,10420,568171
15,10833,484546
15,11245,418978
15,11657,360697
15,12070,312884
15,12482,268595
15,12893,234882
15,13307,207028
15,13718,178884
15,14130,162901
15,14543,144039
15,14955,129788
15,15367,112484
15,15780,102633
15,16192,94498
15,16603,87632
15,17017,79992
15,17428,74338
15,17840,69024
15,18252,65065
15,18665,61440
15,19077,57459
15,19488,54018
15,19902,49184
15,20313,50536
15,20725,49589
15,21138,52806
15,21550,59930
15,21962,71129
15,22375,95604
15,22787,138015
15,23198,200416
15,23612,288373
15,24023,422376
15,24435,591172
15,24848,797704
15,25260,1034774
15,25672,1329159
15,26085,1607475
15,26497,1884894
15,26908,2159499
15,27322,2386579
15,27733,2498977
15,28145,2557663
15,28557,2517996
15,28970,2401475
15,29382,2224109
15,29793,1997560
15,30207,1782099
15,30618,1542378
15,31030,1319776
15,31443,1142687
15,31855,978697
15,32267,832527
15,32680,712940
15,33092,611935
15,33503,521940
15,33917,452702
15,34328,395147
15,34740,348056
15,35153,306494
15,35565,275489
15,35977,244927
15,36390,222264
15,36802,199721
15,37213,182070
15,37625,166950
15,38038,155625
15,38450,136568
15,38862,126819
15,39275,116891
15,39687,111783
15,40098,105275
15,40512,96653
15,40923,91720
15,41335,82640
15,41748,80050
15,42160,75914
15,42572,70991
15,42985,68267
15,43397,65338
15,43808,61328
15,44222,57666
15,44633,53698
15,45045,54902
15,45458,49651
15,45870,50225
15,46282,48232
15,46693,47442
15,47107,43426
15,47518,40417
15,47930,41325
15,48343,38980
15,48755,38202
15,49167,34994
15,49580,34509
15,49992,34993
15,50403,34056
15,50817,32928
15,51228,32301
15,51640,30180
15,52053,29587
15,52465,28826
15,52877,28773
15,53290,26372
15,53702,27453
15,54113,26103
15,54527,25374
15,54938,24679
15,55350,23462
15,55762,23246
15,56175,20645
15,56587,23009
15,56998,21137
15,57412,20728
15,57823,21414
15,58235,20784
15,58648,20282
15,59060,20412
15,59472,20360
15,59885,19657
15,60297,18000
15,60708,16333
15,61122,16596
15,61533,18715
15,61945,16351
15,62358,17823
15,62770,18694
15,63182,17864
15,63595,17581
15,64007,17433
15,64418,17769
15,64830,16976
15,65243,16709
15,65655,15982
15,66067,15684
15,66480,16489
15,66892,15533
15,67303,15372
15,67717,15657
15,68128,15976
15,68540,15992
15,68953,16911
15,69365,16465
15,69777,17808
15,70190,18448
15,70602,21999
15,71013,25789
15,71427,36429
15,71838,47989
15,72250,74166
15,72663,108472
15,73075,160226
15,73487,234206
15,73898,328462
15,74312,442891
15,74723,579982
15,75135,713246
15,75548,856560
15,75960,974770
15,76372,1057390
15,76785,1133404
15,77197,1142433
15,77608,1138295
15,78022,1089070
15,78433,1015666
15,78845,951197
15,79258,889728
15,79670,839407
15,80082,812469
15,80495,824823
15,80907,875887
15,81318,985722
15,81732,1158143
15,82143,1360126
15,82555,1599047
15,82967,1885461
15,83380,2162172
15,83792,2445811
15,84203,2657190
15,84617,2796661
15,85028,2829133
15,85440,2765254
15,85853,2636188
15,86265,2440222
15,86677,2175282
15,87090,1911852
15,87502,1648395
15,87913,1422833
15,88327,1211029
15,88738,1024909
15,89150,880894
15,89563,758215
15,89975,643257
15,90387,552250
15,90800,479946
15,91212,430250
15,91623,380296
15,92035,337350
15,92448,301398
15,92860,265951
15,93272,239085
15,93685,219409
15,94097,200203
15,94508,181299
15,94922,167212
15,95333,154477
15,95745,140374
15,96158,137521
15,96570,125993
15,96982,117269
15,97395,109463
15,97807,100045
15,98218,96083
15,98632,95677
15,99043,88690
15,99455,85096
15,99868,76785
16,00280,75900
16,00692,72587
16,01103,70883
16,01517,67737
16,01928,62625
16,02340,63053
16,02753,58539
16,03165,55838
16,03577,53013
16,03990,51639
16,04402,50890
16,04813,48546
16,05227,44800
16,05638,45716
16,06050,44271
16,06463,42361
16,06875,38938
16,07287,40209
16,07700,38689
16,08112,37383
16,08523,35211
16,08937,34101
16,09348,34427
16,09760,33289
16,10172,33819
16,10585,33511
16,10997,32263
16,11408,31389
16,11822,31928
16,12233,31171
16,12645,30556
16,13058,29158
16,13470,26392
16,13882,26501
16,14295,28490
16,14707,26287
16,15118,26222
16,15532,28218
16,15943,23848
16,16355,23960
16,16768,25105
16,17180,26583
16,17592,23624
16,18005,24126
16,18417,28045
16,18828,29840
16,19240,38579
16,19653,53868
16,20065,75191
16,20477,110797
16,20890,160914
16,21302,225710
16,21713,310774
16,22127,419096
16,22538,540413
16,22950,664417
16,23363,797756
16,23775,904918
16,24187,1002576
16,24600,1050306
16,25012,1086162
16,25423,1087923
16,25837,1053028
16,26248,985700
16,26660,912681
16,27073,809828
16,27485,724854
16,27897,635990
16,28308,547016
16,28722,471215
16,29133,411681
16,29545,352663
16,29958,304705
16,30370,262732
16,30782,228970
16,31195,197416
16,31607,181441
16,32018,158961
16,32432,139911
16,32843,129301
16,33255,111945
16,33668,103958
16,34080,94708
16,34492,83844
16,34905,76993
16,35317,74134
16,35728,68594
16,36142,64338
16,36553,59976
16,36965,57833
16,37377,54017
16,37790,48408
16,38202,45798
16,38613,42753
16,39027,41984
16,39438,41218
16,39850,41202
16,40263,37160
16,40675,37732
16,41087,33885
16,41500,34774
16,41912,33451
16,42323,30649
16,42737,31785
16,43148,28674
16,43560,31824
16,43973,30980
16,44385,29221
16,44797,28272
16,45210,29189
16,45622,25987
16,46033,28527
16,46445,25651
16,46858,26362
16,47270,25128
16,47682,25601
16,48095,22572
16,48507,23677
16,48918,21224
16,49332,21808
16,49743,20804
16,50155,20570
16,50568,20237
16,50980,20310
16,51392,20328
16,51805,17691
16,52217,18688
16,52628,18553
16,53042,19108
16,53453,17531
16,53865,16234
16,54278,17403
16,54690,18048
16,55102,17268
16,55513,15555
16,55927,16340
16,56338,16607
16,56750,17142
16,57163,17042
16,57575,16390
16,57987,16463
16,58400,16512
16,58812,16239
16,59223,13982
16,59637,15828
16,60048,13905
16,60460,15183
16,60873,14078
16,61285,15565
16,61697,15027
16,62110,15225
16,62522,12699
16,62933,15092
16,63347,14460
16,63758,14187
16,64170,14831
16,64582,13548
16,64995,14320
16,65407,12972
16,65818,14715
16,66232,14485
16,66643,13838
16,67055,13097
16,67468,14499
16,67880,13716
16,68292,13161
16,68705,13440
16,69117,14052
16,69528,13551
16,69942,12809
16,70353,12674
16,70765,14052
16,71178,12320
16,71590,12172
16,72002,12850
16,72415,13313
16,72827,12558
16,73238,13595
16,73650,13492
16,74063,13052
16,74475,12316
16,74887,12806
16,75300,14590
16,75712,12673
16,76123,12642
16,76537,12430
16,76948,12279
16,77360,11483
16,77773,11275
16,78185,12531
16,78597,11646
16,79010,12713
16,79422,11178
16,79833,13273
16,80247,12084
16,80658,11957
16,81070,13257
16,81483,11891
16,81895,11859
16,82307,11377
16,82718,11205
16,83132,10789
16,83543,12110
16,83955,11294
16,84368,11318
16,84780,10916
16,85192,13903
16,85605,12420
16,86017,10820
16,86428,12499
16,86842,14550
16,87253,16190
16,87665,24582
16,88078,32662
16,88490,46839
16,88902,71349
16,89315,106140
16,89727,153057
16,90138,222463
16,90552,305679
16,90963,396077
16,91375,504701
16,91788,639912
16,92200,730425
16,92612,835379
16,93023,901845
16,93437,936706
16,93848,953803
16,94260,950536
16,94673,923024
16,95085,862598
16,95497,803372
16,95910,742027
16,96322,691519
16,96733,658357
16,97147,669373
16,97558,711481
16,97970,792059
16,98383,917330
16,98795,1096210
16,99207,1336392
16,99620,1612338
17,00032,1905385
17,00443,2223356
17,00857,2530123
17,01268,2797962
17,01680,2996058
17,02092,3099544
17,02505,3072296
17,02917,2955884
17,03328,2729685
17,03742,2477935
17,04153,2204288
17,04565,1919017
17,04978,1648078
17,05390,1409957
17,05802,1208882
17,06215,1038749
17,06627,890571
17,07038,774938
17,07452,671380
17,07863,581657
17,08275,513630
17,08688,458709
17,09100,407011
17,09512,366000
17,09925,332122
17,10337,300703
17,10748,271345
17,11160,246263
17,11573,222278
17,11985,209771
17,12397,189489
17,12810,178960
17,13222,160035
17,13633,153133
17,14047,143713
17,14458,133792
17,14870,129298
17,15283,118263
17,15695,112171
17,16107,104756
17,16520,98079
17,16932,96200
17,17343,89088
17,17757,86097
17,18168,81341
17,18580,76998
17,18993,75867
17,19405,73231
17,19817,67528
17,20228,67723
17,20642,64376
17,21053,61302
17,21465,58845
17,21878,57068
17,22290,53211
17,22702,52295
17,23115,49689
17,23527,49167
17,23938,45866
17,24352,47292
17,24763,45373
17,25175,44387
17,25588,41136
17,26000,42684
17,26412,40739
17,26825,38195
17,27237,38260
17,27648,36476
17,28062,36756
17,28473,37450
17,28885,32336
17,29297,33205
17,29710,34391
17,30122,33311
17,30533,34770
17,30947,34966
17,31358,40203
17,31770,42961
17,32183,52389
17,32595,68433
17,33007,92091
17,33420,129439
17,33832,178294
17,34243,247920
17,34657,333911
17,35068,435622
17,35480,541839
17,35893,653812
17,36305,764379
17,36717,855640
17,37130,922174
17,37542,951549
17,37953,968820
17,38365,942043
17,38778,900789
17,39190,836876
17,39602,760186
17,40015,669125
17,40427,593477
17,40838,521679
17,41252,450375
17,41663,392494
17,42075,336912
17,42488,291297
17,42900,252881
17,43312,224505
17,43725,192166
17,44137,173432
17,44548,156401
17,44962,138253
17,45373,125882
17,45785,112870
17,46198,103137
17,46610,95055
17,47022,85812
17,47433,79622
17,47847,72736
17,48258,71088
17,48670,62562
17,49083,58831
17,49495,58371
17,49907,54636
17,50320,50650
17,50732,50743
17,51143,45962
17,51557,45196
17,51968,43806
17,52380,40810
17,52793,40026
17,53205,37337
17,53617,38075
17,54030,39320
17,54442,39555
17,54853,38956
17,55267,43505
17,55678,52470
17,56090,65659
17,56502,86849
17,56915,128453
17,57327,177270
17,57738,251794
17,58152,353603
17,58563,481146
17,58975,627281
17,59388,781041
17,59800,950847
17,60212,1104692
17,60625,1234716
17,61037,1325647
17,61448,1387283
17,61862,1371839
17,62273,1331597
17,62685,1233346
17,63098,1126586
17,63510,1023405
17,63922,907637
17,64335,806752
17,64747,682083
17,65158,599756
17,65570,513540
17,65983,444560
17,66395,389455
17,66807,341327
17,67220,295451
17,67632,258977
17,68043,234324
17,68457,208937
17,68868,189709
17,69280,170136
17,69693,155164
17,70105,141249
17,70517,130104
17,70930,121494
17,71342,112664
17,71753,101535
17,72167,95420
17,72578,89920
17,72990,83652
17,73403,79409
17,73815,74192
17,74227,71366
17,74638,68844
17,75052,62527
17,75463,59477
17,75875,60024
17,76288,56226
17,76700,53414
17,77112,50043
17,77525,48021
17,77937,46206
17,78348,45792
17,78762,44009
17,79173,42123
17,79585,39736
17,79998,40184
17,80410,39250
17,80822,36671
17,81235,35849
17,81647,33522
17,82058,33020
17,82472,33449
17,82883,31818
17,83295,30296
17,83707,31095
17,84120,28511
17,84532,27977
17,84943,27520
17,85357,25518
17,85768,27610
17,86180,26220
17,86593,26892
17,87005,25395
17,87417,24030
17,87830,24992
17,88242,24197
17,88653,23391
17,89067,23280
17,89478,23163
17,89890,24910
17,90303,24472
17,90715,22616
17,91127,22564
17,91540,21690
17,91952,20783
17,92363,21180
17,92775,21060
17,93188,21185
17,93600,21962
17,94012,21974
17,94425,20030
17,94837,19664
17,95248,19351
17,95662,18528
17,96073,19220
17,96485,18866
17,96898,19528
17,97310,17832
17,97722,18051
17,98135,18036
17,98547,18036
17,98958,19699
17,99372,19426
17,99783,17987
18,00195,16089
18,00608,18188
18,01020,18733
18,01432,16088
18,01843,16052
18,02257,16974
18,02668,16791
18,03080,16949
18,03493,14915
18,03905,16474
18,04317,16845
18,04730,17195
18,05142,17861
18,05553,16701
18,05967,16832
18,06378,16973
18,06790,16824
18,07203,16474
18,07615,16780
18,08027,18193
18,08440,19557
18,08852,21328
18,09263,27003
18,09677,34186
18,10088,45157
18,10500,68087
18,10912,104642
18,11325,154358
18,11737,229106
18,12148,331001
18,12562,458341
18,12973,613930
18,13385,799607
18,13798,978416
18,14210,1172237
18,14622,1327844
18,15035,1455568
18,15447,1517229
18,15858,1519140
18,16272,1480244
18,16683,1396277
18,17095,1282169
18,17508,1152756
18,17920,1021566
18,18332,885482
18,18745,758934
18,19157,662351
18,19568,571933
18,19980,494474
18,20393,427254
18,20805,375419
18,21217,330528
18,21630,295993
18,22042,265510
18,22453,231306
18,22867,212542
18,23278,192327
18,23690,175879
18,24103,156109
18,24515,145954
18,24927,134336
18,25340,124130
18,25752,115092
18,26163,109757
18,26577,102333
18,26988,97224
18,27400,90273
18,27813,84047
18,28225,82843
18,28637,77006
18,29048,74136
18,29462,71851
18,29873,67553
18,30285,65704
18,30698,59832
18,31110,60482
18,31522,59128
18,31935,57376
18,32347,55588
18,32758,50933
18,33172,50913
18,33583,46833
18,33995,45050
18,34408,45901
18,34820,45806
18,35232,43389
18,35645,40658
18,36057,39405
18,36468,38407
18,36882,37475
18,37293,36437
18,37705,34388
18,38117,35633
18,38530,34548
18,38942,32121
18,39353,32056
18,39767,32587
18,40178,30962
18,40590,29970
18,41003,29394
18,41415,28299
18,41827,30375
18,42240,28814
18,42652,30403
18,43063,27596
18,43477,27806
18,43888,24667
18,44300,26725
18,44713,27947
18,45125,24148
18,45537,24884
18,45950,25497
18,46362,23100
18,46773,23642
18,47185,24373
18,47598,23247
18,48010,22896
18,48422,25750
18,48835,26150
18,49247,29559
18,49658,35389
18,50072,45811
18,50483,61543
18,50895,89811
18,51308,130560
18,51720,189296
18,52132,264993
18,52545,366305
18,52957,482049
18,53368,615117
18,53782,753341
18,54193,892053
18,54605,1010319
18,55018,1103657
18,55430,1168005
18,55842,1186179
18,56255,1165499
18,56667,1122182
18,57078,1040103
18,57490,948610
18,57903,851794
18,58315,751302
18,58727,662979
18,59140,571449
18,59552,498444
18,59963,423866
18,60377,377636
18,60788,330415
18,61200,289538
18,61613,252806
18,62025,226328
18,62437,199647
18,62850,180361
18,63262,165424
18,63673,149699
18,64087,134745
18,64498,124680
18,64910,113663
18,65323,102413
18,65735,100209
18,66147,91910
18,66558,83732
18,66972,78082
18,67383,76307
18,67795,72898
18,68208,65033
18,68620,62101
18,69032,60535
18,69445,57487
18,69857,55749
18,70268,54119
18,70682,49912
18,71093,47028
18,71505,45427
18,71918,44728
18,72330,41000
18,72742,42653
18,73155,40437
18,73567,40340
18,73978,40124
18,74392,37111
18,74803,36575
18,75215,37540
18,75627,34382
18,76040,33890
18,76452,31326
18,76863,32499
18,77277,31237
18,77688,29222
18,78100,30162
18,78513,29204
18,78925,30271
18,79337,28225
18,79750,28147
18,80162,26903
18,80573,26696
18,80987,26402
18,81398,25748
18,81810,24884
18,82223,25269
18,82635,24664
18,83047,24827
18,83460,22829
18,83872,23660
18,84283,24795
18,84695,24643
18,85108,23581
18,85520,24439
18,85932,23873
18,86345,22749
18,86757,24113
18,87168,23689
18,87582,21166
18,87993,21725
18,88405,21159
18,88818,20869
18,89230,21681
18,89642,20768
18,90055,20660
18,90467,22245
18,90878,20151
18,91292,19702
18,91703,19560
18,92115,19996
18,92528,20431
18,92940,19794
18,93352,19811
18,93763,19055
18,94177,20179
18,94588,18823
18,95000,19059
18,95413,21397
18,95825,18944
18,96237,19054
18,96650,19862
18,97062,19248
18,97473,18252
18,97887,18229
18,98298,19914
18,98710,19626
18,99123,18791
18,99535,19683
18,99947,19272
19,00360,21255
19,00772,18466
19,01183,20903
19,01597,19607
19,02008,19892
19,02420,18353
19,02832,18009
19,03245,20602
19,03657,19719
19,04068,18101
19,04482,17771
19,04893,18741
19,05305,17787
19,05718,18721
19,06130,18669
19,06542,18530
19,06955,17918
19,07367,19816
19,07778,20067
19,08192,18058
19,08603,17715
19,09015,18592
19,09428,17209
19,09840,18999
19,10252,18501
19,10665,17392
19,11077,18617
19,11488,18273
19,11900,17453
19,12313,19130
19,12725,18998
19,13137,18336
19,13550,20414
19,13962,19020
19,14373,21120
19,14787,22531
19,15198,25256
19,15610,32485
19,16023,44979
19,16435,58087
19,16847,87558
19,17260,124716
19,17672,183325
19,18083,256546
19,18497,356867
19,18908,459691
19,19320,586294
19,19733,715092
19,20145,834316
19,20557,960200
19,20968,1052669
19,21382,1104336
19,21793,1160145
19,22205,1192493
19,22618,1223700
19,23030,1263440
19,23442,1309339
19,23855,1385051
19,24267,1513698
19,24678,1663926
19,25092,1866752
19,25503,2124818
19,25915,2400917
19,26328,2677535
19,26740,2913282
19,27152,3119354
19,27565,3244641
19,27977,3300314
19,28388,3225317
19,28802,3045281
19,29213,2795330
19,29625,2499130
19,30037,2196136
19,30450,1922185
19,30862,1663132
19,31273,1432055
19,31687,1228624
19,32098,1078733
19,32510,930351
19,32923,816338
19,33335,719273
19,33747,648240
19,34160,580434
19,34572,514682
19,34983,463030
19,35397,417750
19,35808,382949
19,36220,351358
19,36633,323441
19,37045,305038
19,37457,276670
19,37870,259180
19,38282,238916
19,38693,226384
19,39105,210205
19,39518,198258
19,39930,189407
19,40342,174744
19,40755,167045
19,41167,158756
19,41578,148298
19,41992,142461
19,42403,139715
19,42815,132840
19,43228,122750
19,43640,119177
19,44052,111877
19,44465,112080
19,44877,107122
19,45288,100337
19,45702,95908
19,46113,93274
19,46525,91427
19,46938,90061
19,47350,85672
19,47762,82186
19,48173,81258
19,48587,78748
19,48998,76264
19,49410,72796
19,49823,71156
19,50235,69505
19,50647,69169
19,51060,64652
19,51472,65083
19,51883,61647
19,52297,62498
19,52708,59605
19,53120,58582
19,53533,57556
19,53945,54229
19,54357,54559
19,54770,51571
19,55182,52468
19,55593,52407
19,56007,52983
19,56418,51497
19,56830,52350
19,57242,59838
19,57655,66648
19,58067,81016
19,58478,103255
19,58892,133484
19,59303,181058
19,59715,248978
19,60128,337055
19,60540,443415
19,60952,565509
19,61365,699278
19,61777,811270
19,62188,928951
19,62602,1028991
19,63013,1092804
19,63425,1117404
19,63838,1105384
19,64250,1079705
19,64662,1028615
19,65075,968198
19,65487,911903
19,65898,862385
19,66310,848380
19,66723,846884
19,67135,877290
19,67547,913245
19,67960,970067
19,68372,1027561
19,68783,1087352
19,69197,1135766
19,69608,1163958
19,70020,1187502
19,70433,1160423
19,70845,1120210
19,71257,1051411
19,71670,975843
19,72082,887392
19,72493,794388
19,72907,707883
19,73318,629683
19,73730,549796
19,74143,490368
19,74555,431048
19,74967,383440
19,75378,341208
19,75792,301808
19,76203,270348
19,76615,247128
19,77028,224526
19,77440,210407
19,77852,198519
19,78265,189836
19,78677,201328
19,79088,211486
19,79502,241649
19,79913,285205
19,80325,350978
19,80738,437542
19,81150,559351
19,81562,691263
19,81975,848433
19,82387,1005313
19,82798,1156622
19,83212,1288468
19,83623,1400353
19,84035,1464314
19,84447,1468856
19,84860,1437573
19,85272,1371404
19,85683,1269626
19,86097,1159149
19,86508,1040996
19,86920,919241
19,87333,821409
19,87745,715740
19,88157,634734
19,88570,560501
19,88982,495400
19,89393,441530
19,89807,395543
19,90218,354095
19,90630,319928
19,91043,287114
19,91455,258547
19,91867,241397
19,92280,220793
19,92692,208243
19,93103,192232
19,93515,183537
19,93928,166741
19,94340,158621
19,94752,152368
19,95165,140943
19,95577,135307
19,95988,128100
19,96402,122470
19,96813,118633
19,97225,109952
19,97638,105965
19,98050,102218
19,98462,98139
19,98875,94882
19,99287,89513
19,99698,84937
20,00112,78494
20,00523,78225
20,00935,77616
20,01348,72065
20,01760,71029
20,02172,67794
20,02583,68722
20,02997,64316
20,03408,65553
20,03820,61132
20,04233,60928
20,04645,58833
20,05057,58375
20,05470,55650
20,05882,53967
20,06293,54964
20,06707,55888
20,07118,54460
20,07530,50587
20,07943,49664
20,08355,49253
20,08767,48828
20,09180,47683
20,09592,46463
20,10003,46785
20,10417,43857
20,10828,44224
20,11240,43948
20,11652,43876
20,12065,41673
20,12477,42351
20,12888,41210
20,13302,41270
20,13713,40029
20,14125,40088
20,14538,40756
20,14950,43790
20,15362,40775
20,15775,41651
20,16187,41423
20,16598,39885
20,17012,38206
20,17423,39942
20,17835,38931
20,18248,37607
20,18660,36635
20,19072,35205
20,19485,36741
20,19897,34460
20,20308,35425
20,20722,35476
20,21133,33261
20,21545,32649
20,21957,32654
20,22370,32291
20,22782,32024
20,23193,31393
20,23607,30567
20,24018,32736
20,24430,31772
20,24843,31223
20,25255,31217
20,25667,30023
20,26080,31899
20,26492,32968
20,26903,32948
20,27317,34543
20,27728,40709
20,28140,46265
20,28553,56274
20,28965,77764
20,29377,103923
20,29790,147696
20,30202,204811
20,30613,288314
20,31025,403099
20,31438,540722
20,31850,692373
20,32262,870752
20,32675,1056812
20,33087,1223675
20,33498,1365254
20,33912,1460980
20,34323,1503184
20,34735,1492671
20,35148,1456068
20,35560,1345793
20,35972,1213069
20,36385,1098204
20,36797,968449
20,37208,856198
20,37622,744883
20,38033,658460
20,38445,577108
20,38858,513694
20,39270,462079
20,39682,409040
20,40093,366126
20,40507,334324
20,40918,299980
20,41330,274571
20,41743,252478
20,42155,234865
20,42567,220456
20,42980,203972
20,43392,186134
20,43803,175882
20,44217,165740
20,44628,157921
20,45040,147181
20,45453,141346
20,45865,134431
20,46277,125544
20,46690,118484
20,47102,115010
20,47513,110011
20,47927,107522
20,48338,103548
20,48750,94991
20,49162,96406
20,49575,90079
20,49987,89872
20,50398,84971
20,50812,82051
20,51223,79557
20,51635,75219
20,52048,74620
20,52460,72548
20,52872,69034
20,53285,67483
20,53697,67953
20,54108,65311
20,54522,60858
20,54933,62502
20,55345,58820
20,55758,58771
20,56170,57564
20,56582,57230
20,56995,55483
20,57407,52547
20,57818,52604
20,58230,52048
20,58643,50329
20,59055,49099
20,59467,47026
20,59880,48447
20,60292,48585
20,60703,46055
20,61117,44079
20,61528,46866
20,61940,45636
20,62353,44618
20,62765,42740
20,63177,41746
20,63590,41645
20,64002,40524
20,64413,41523
20,64827,40370
20,65238,40005
20,65650,40182
20,66063,38620
20,66475,42448
20,66887,39881
20,67298,44497
20,67712,49040
20,68123,57582
20,68535,72677
20,68948,96316
20,69360,133406
20,69772,182986
20,70185,252163
20,70597,344891
20,71008,461896
20,71422,601791
20,71833,743233
20,72245,894562
20,72658,1023422
20,73070,1157171
20,73482,1221893
20,73895,1271989
20,74307,1267011
20,74718,1225640
20,75132,1179103
20,75543,1109417
20,75955,1057227
20,76367,990185
20,76780,969806
20,77192,963623
20,77603,973667
20,78017,1010591
20,78428,1053457
20,78840,1096748
20,79253,1133663
20,79665,1169076
20,80077,1163554
20,80490,1157123
20,80902,1111860
20,81313,1055367
20,81727,984441
20,82138,906020
20,82550,821526
20,82963,735319
20,83375,650079
20,83787,575923
20,84200,518042
20,84612,459502
20,85023,411903
20,85435,366252
20,85848,329283
20,86260,289994
20,86672,265828
20,87085,245028
20,87497,221616
20,87908,207006
20,88322,191126
20,88733,176016
20,89145,163875
20,89558,153994
20,89970,142403
20,90382,136687
20,90795,130423
20,91207,118131
20,91618,116792
20,92032,109919
20,92443,105714
20,92855,98783
20,93268,96374
20,93680,89448
20,94092,89465
20,94503,82657
20,94917,80679
20,95328,77909
20,95740,75372
20,96153,73503
20,96565,71242
20,96977,69459
20,97390,68011
20,97802,67850
20,98213,61938
20,98627,62372
20,99038,59078
20,99450,59059
20,99863,56873
21,00275,57725
21,00687,57737
21,01100,55815
21,01512,57924
21,01923,51825
21,02337,52752
21,02748,49413
21,03160,50889
21,03572,48451
21,03985,48510
21,04397,45552
21,04808,46190
21,05222,45317
21,05633,43587
21,06045,44345
21,06458,46604
21,06870,41747
21,07282,43719
21,07695,43090
21,08107,41639
21,08518,40260
21,08932,39911
21,09343,39878
21,09755,39529
21,10168,40477
21,10580,39473
21,10992,41163
21,11405,38942
21,11817,38964
21,12228,40149
21,12640,37272
21,13053,39488
21,13465,39632
21,13877,38814
21,14290,37263
21,14702,37245
21,15113,35732
21,15527,34025
21,15938,34269
21,16350,36420
21,16763,33286
21,17175,31983
21,17587,32558
21,18000,35074
21,18412,34265
21,18823,32885
21,19237,32998
21,19648,34050
21,20060,31282
21,20473,33721
21,20885,32687
21,21297,32985
21,21708,31559
21,22122,33659
21,22533,31961
21,22945,34359
21,23358,32095
21,23770,30410
21,24182,33768
21,24595,30304
21,25007,32006
21,25418,33089
21,25832,31780
21,26243,32113
21,26655,32095
21,27068,33744
21,27480,33429
21,27892,33898
21,28305,32812
21,28717,34987
21,29128,35919
21,29542,33364
21,29953,34965
21,30365,32563
21,30777,35718
21,31190,36378
21,31602,36913
21,32013,38584
21,32427,39847
21,32838,47553
21,33250,56402
21,33663,72147
21,34075,94933
21,34487,133454
21,34900,183468
21,35312,255123
21,35723,350808
21,36137,486902
21,36548,642498
21,36960,852638
21,37373,1088335
21,37785,1358949
21,38197,1639651
21,38610,1947652
21,39022,2232305
21,39433,2492549
21,39845,2710896
21,40258,2842982
21,40670,2889035
21,41082,2839815
21,41495,2688619
21,41907,2467766
21,42318,2198856
21,42732,1939604
21,43143,1701016
21,43555,1495791
21,43968,1291758
21,44380,1133532
21,44792,993967
21,45205,868805
21,45617,778228
21,46028,702049
21,46442,632185
21,46853,566364
21,47265,513777
21,47678,473161
21,48090,436947
21,48502,400850
21,48913,371993
21,49327,344495
21,49738,325357
21,50150,299259
21,50563,280514
21,50975,267649
21,51387,250605
21,51800,239986
21,52212,228659
21,52623,213886
21,53037,208513
21,53448,193758
21,53860,189335
21,54273,180752
21,54685,172766
21,55097,165538
21,55510,156632
21,55922,155576
21,56333,148718
21,56747,143175
21,57158,136029
21,57570,131302
21,57982,127699
21,58395,120576
21,58807,120129
21,59218,115784
21,59632,113099
21,60043,109368
21,60455,108123
21,60868,103332
21,61280,99885
21,61692,101725
21,62105,97951
21,62517,97805
21,62928,92121
21,63342,90805
21,63753,89576
21,64165,86974
21,64578,85721
21,64990,85857
21,65402,83921
21,65815,82357
21,66227,78565
21,66638,80081
21,67050,76391
21,67463,75076
21,67875,75091
21,68287,73693
21,68700,72498
21,69112,69718
21,69523,69803
21,69937,68482
21,70348,69539
21,70760,64500
21,71173,64329
21,71585,63411
21,71997,61126
21,72410,60985
21,72822,61885
21,73233,63149
21,73647,58541
21,74058,61002
21,74470,59190
21,74883,58825
21,75295,55316
21,75707,55006
21,76118,57940
21,76532,55466
21,76943,52550
21,77355,53429
21,77768,52590
21,78180,51733
21,78592,51874
21,79005,51095
21,79417,51253
21,79828,51381
21,80242,52123
21,80653,51217
21,81065,47526
21,81478,49878
21,81890,49908
21,82302,48233
21,82715,46325
21,83127,48980
21,83538,46572
21,83952,46971
21,84363,49424
21,84775,45519
21,85188,46170
21,85600,45395
21,86012,48091
21,86423,49973
21,86837,49254
21,87248,51196
21,87660,59140
21,88073,69877
21,88485,85819
21,88897,110713
21,89310,151100
21,89722,205022
21,90133,279790
21,90547,375386
21,90958,491042
21,91370,631523
21,91783,785100
21,92195,942099
21,92607,1091417
21,93020,1223091
21,93432,1287009
21,93843,1353154
21,94257,1339404
21,94668,1318536
21,95080,1251663
21,95492,1146941
21,95905,1047150
21,96317,958485
21,96728,852245
21,97142,748625
21,97553,666815
21,97965,600618
21,98378,540550
21,98790,489942
21,99202,438183
21,99615,397980
22,00027,358822
22,00438,329418
22,00852,310572
22,01263,283016
22,01675,261025
22,02088,244315
22,02500,226327
22,02912,215906
22,03325,199674
22,03737,188564
22,04148,176510
22,04560,172903
22,04973,165352
22,05385,157423
22,05797,150121
22,06210,143938
22,06622,136021
22,07033,130198
22,07447,126814
22,07858,120833
22,08270,116987
22,08683,109875
22,09095,107784
22,09507,104788
22,09920,99541
22,10332,99037
22,10743,96267
22,11157,94184
22,11568,91863
22,11980,88915
22,12393,87647
22,12805,83404
22,13217,83280
22,13628,81584
22,14042,76229
22,14453,77128
22,14865,75120
22,15278,74997
22,15690,75325
22,16102,70086
22,16515,68447
22,16927,67538
22,17338,66978
22,17752,64876
22,18163,65044
22,18575,63256
22,18988,65096
22,19400,61582
22,19812,59861
22,20225,61152
22,20637,59746
22,21048,60694
22,21462,57478
22,21873,60676
22,22285,59516
22,22697,61135
22,23110,62027
22,23522,67476
22,23933,68565
22,24347,74182
22,24758,81582
22,25170,87918
22,25583,95792
22,25995,99982
22,26407,101441
22,26820,108132
22,27232,111088
22,27643,111286
22,28057,112709
22,28468,108051
22,28880,109628
22,29293,103318
22,29705,99257
22,30117,92292
22,30530,92626
22,30942,83558
22,31353,78552
22,31765,73317
22,32178,69999
22,32590,67790
22,33002,64241
22,33415,60846
22,33827,57740
22,34238,59563
22,34652,57584
22,35063,57297
22,35475,53008
22,35888,53281
22,36300,51538
22,36712,49167
22,37125,51284
22,37537,53182
22,37948,47287
22,38362,46955
22,38773,47371
22,39185,48574
22,39598,47447
22,40010,46187
22,40422,44858
22,40833,47433
22,41247,44686
22,41658,45077
22,42070,45264
22,42483,44832
22,42895,43837
22,43307,44199
22,43720,44555
22,44132,42998
22,44543,41386
22,44957,41605
22,45368,41056
22,45780,43450
22,46193,41958
22,46605,40700
22,47017,40338
22,47430,42452
22,47842,41496
22,48253,41449
22,48667,40155
22,49078,39112
22,49490,40267
22,49902,37216
22,50315,40716
22,50727,38165
22,51138,41539
22,51552,39381
22,51963,38694
22,52375,42172
22,52788,40106
22,53200,38336
22,53612,39779
22,54025,38774
22,54437,39542
22,54848,40289
22,55262,38906
22,55673,37743
22,56085,37662
22,56498,39299
22,56910,40436
22,57322,39217
22,57735,39212
22,58147,36436
22,58558,39176
22,58970,40509
22,59383,37885
22,59795,36272
22,60207,38671
22,60620,37533
22,61032,37799
22,61443,38109
22,61857,37758
22,62268,36839
22,62680,35620
22,63093,37506
22,63505,38125
22,63917,38426
22,64330,36741
22,64742,37134
22,65153,36509
22,65567,38060
22,65978,35069
22,66390,35782
22,66803,37689
22,67215,36224
22,67627,36344
22,68038,37442
22,68452,37209
22,68863,35713
22,69275,37083
22,69688,36364
22,70100,35092
22,70512,34462
22,70925,36271
22,71337,37248
22,71748,37064
22,72162,35266
22,72573,37999
22,72985,38332
22,73398,35274
22,73810,34867
22,74222,35346
22,74635,38542
22,75047,36189
22,75458,39386
22,75872,38383
22,76283,37486
22,76695,38528
22,77107,36605
22,77520,36269
22,77932,37793
22,78343,38576
22,78757,35964
22,79168,38802
22,79580,36186
22,79993,37141
22,80405,38455
22,80817,37856
22,81230,37299
22,81642,39345
22,82053,35485
22,82467,37109
22,82878,39892
22,83290,38786
22,83703,40407
22,84115,39176
22,84527,36676
22,84940,38783
22,85352,36051
22,85763,41004
22,86175,37964
22,86588,37198
22,87000,38578
22,87412,36521
22,87825,38839
22,88237,39721
22,88648,39132
22,89062,36341
22,89473,38374
22,89885,38737
22,90298,37187
22,90710,38053
22,91122,35726
22,91535,36343
22,91947,35875
22,92358,35375
22,92772,36050
22,93183,38033
22,93595,35662
22,94008,34919
22,94420,36289
22,94832,36528
22,95243,36505
22,95657,39921
22,96068,35218
22,96480,36603
22,96893,38980
22,97305,35819
22,97717,38269
22,98130,35419
22,98542,37169
22,98953,36865
22,99367,37037
22,99778,37070
23,00190,39916
23,00603,37309
23,01015,36242
23,01427,38103
23,01840,36726
23,02252,37638
23,02663,37374
23,03077,37578
23,03488,37962
23,03900,37338
23,04312,36072
23,04725,35122
23,05137,38910
23,05548,38834
23,05962,37771
23,06373,38205
23,06785,37294
23,07198,36412
23,07610,37845
23,08022,37535
23,08435,36311
23,08847,37184
23,09258,39461
23,09672,38470
23,10083,38338
23,10495,39067
23,10908,39775
23,11320,38633
23,11732,36444
23,12145,35682
23,12557,37962
23,12968,37888
23,13380,40578
23,13793,39636
23,14205,38364
23,14617,38918
23,15030,38801
23,15442,38784
23,15853,37777
23,16267,38967
23,16678,36480
23,17090,38607
23,17503,38031
23,17915,40705
23,18327,36386
23,18740,37376
23,19152,39082
23,19563,37045
23,19977,35973
23,20388,37018
23,20800,37596
23,21213,38349
23,21625,37870
23,22037,38383
23,22448,36105
23,22862,37331
23,23273,37458
23,23685,38576
23,24098,38817
23,24510,39273
23,24922,37732
23,25335,38450
23,25747,38545
23,26158,38892
23,26572,39787
23,26983,37603
23,27395,35548
23,27808,38492
23,28220,37284
23,28632,38299
23,29045,36064
23,29457,38408
23,29868,39361
23,30282,37176
23,30693,39909
23,31105,38502
23,31517,38357
23,31930,39592
23,32342,38975
23,32753,42611
23,33167,43912
23,33578,46590
23,33990,53570
23,34403,65492
23,34815,80556
23,35227,105380
23,35640,145601
23,36052,191369
23,36463,250088
23,36877,329620
23,37288,404637
23,37700,498111
23,38113,586340
23,38525,663523
23,38937,728626
23,39350,774349
23,39762,798091
23,40173,802387
23,40587,775690
23,40998,737677
23,41410,689223
23,41822,632408
23,42235,574037
23,42647,522768
23,43058,466765
23,43472,415975
23,43883,375402
23,44295,336917
23,44708,299443
23,45120,271871
23,45532,247103
23,45945,220593
23,46357,203389
23,46768,183702
23,47182,172502
23,47593,161115
23,48005,150155
23,48418,140176
23,48830,130176
23,49242,124167
23,49655,116901
23,50067,110560
23,50478,106456
23,50890,101788
23,51303,97077
23,51715,93720
23,52127,88630
23,52540,86088
23,52952,84753
23,53363,83034
23,53777,79153
23,54188,76461
23,54600,75391
23,55013,75392
23,55425,70715
23,55837,70055
23,56250,71315
23,56662,68661
23,57073,67574
23,57487,67674
23,57898,66250
23,58310,66469
23,58723,62760
23,59135,61952
23,59547,62354
23,59958,59544
23,60372,58072
23,60783,58846
23,61195,60463
23,61608,58442
23,62020,57569
23,62432,55016
23,62845,57503
23,63257,53688
23,63668,55988
23,64082,56396
23,64493,53975
23,64905,54531
23,65318,54982
23,65730,51577
23,66142,51444
23,66555,52460
23,66967,52070
23,67378,50683
23,67792,53805
23,68203,51628
23,68615,50650
23,69027,51264
23,69440,51656
23,69852,51407
23,70263,51846
23,70677,47545
23,71088,49946
23,71500,51086
23,71913,50696
23,72325,52219
23,72737,47959
23,73150,50623
23,73562,51269
23,73973,50844
23,74387,51376
23,74798,49459
23,75210,46885
23,75623,52008
23,76035,52328
23,76447,49856
23,76860,46580
23,77272,49167
23,77683,49045
23,78095,49686
23,78508,46024
23,78920,49268
23,79332,48806
23,79745,48111
23,80157,48373
23,80568,47744
23,80982,49801
23,81393,48203
23,81805,48654
23,82218,47155
23,82630,50181
23,83042,47251
23,83455,49403
23,83867,47438
23,84278,48886
23,84692,47937
23,85103,46776
23,85515,48449
23,85928,47245
23,86340,48555
23,86752,48299
23,87163,49543
23,87577,44310
23,87988,47784
23,88400,50951
23,88813,49921
23,89225,49564
23,89637,45281
23,90050,48127
23,90462,45864
23,90873,46891
23,91287,49584
23,91698,47355
23,92110,49053
23,92523,50720
23,92935,47045
23,93347,49427
23,93760,46396
23,94172,48222
23,94583,49602
23,94997,50134
23,95408,48031
23,95820,49418
23,96232,47718
23,96645,47772
23,97057,48869
23,97468,46580
23,97882,47665
23,98293,44180
23,98705,44534
23,99118,48340
23,99530,46914
23,99942,48950
24,00355,46109
24,00767,50587
24,01178,46543
24,01592,45920
24,02003,46304
24,02415,47519
24,02828,44091
