D:\MassHunter\GCMS\1\data\Amal\Constant flow\130C\130C_1ml-min_4C-min_2.D Mon Sep 02 18:18:03 2024
Start of data points
5,19092,236623
5,19505,230030
5,19917,225853
5,20328,217574
5,20742,215126
5,21153,215030
5,21565,205905
5,21978,203198
5,22390,201877
5,22802,196170
5,23215,194085
5,23627,189879
5,24038,189286
5,24450,187492
5,24863,186502
5,25275,183019
5,25687,177577
5,26100,179807
5,26512,173604
5,26923,176547
5,27337,171666
5,27748,175283
5,28160,172223
5,28573,171560
5,28985,171070
5,29397,168929
5,29810,164827
5,30222,168439
5,30633,161487
5,31047,160920
5,31458,158906
5,31870,159006
5,32283,154906
5,32695,159663
5,33107,153932
5,33518,152522
5,33932,161327
5,34343,177476
5,34755,204624
5,35168,264005
5,35580,348672
5,35992,459236
5,36405,583504
5,36817,696412
5,37228,799219
5,37642,865537
5,38053,917771
5,38465,936034
5,38878,948682
5,39290,941106
5,39702,933931
5,40115,923643
5,40527,892269
5,40938,871893
5,41352,849295
5,41763,827106
5,42175,804918
5,42587,779685
5,43000,757325
5,43412,736281
5,43823,715542
5,44237,687822
5,44648,666859
5,45060,644077
5,45473,616598
5,45885,599142
5,46297,580705
5,46710,559290
5,47122,533716
5,47533,513793
5,47947,499557
5,48358,477698
5,48770,458827
5,49183,444408
5,49595,427069
5,50007,413945
5,50420,398810
5,50832,383194
5,51243,372430
5,51655,352584
5,52068,346383
5,52480,328093
5,52892,315701
5,53305,299024
5,53717,291025
5,54128,274481
5,54542,259846
5,54953,252547
5,55365,232918
5,55778,221286
5,56190,213340
5,56602,200001
5,57015,197695
5,57427,182044
5,57838,179320
5,58252,168926
5,58663,161331
5,59075,155323
5,59488,150375
5,59900,147293
5,60312,137791
5,60723,132943
5,61137,131673
5,61548,130448
5,61960,122492
5,62373,122513
5,62785,118830
5,63197,114387
5,63610,113879
5,64022,109710
5,64433,109090
5,64847,108443
5,65258,106349
5,65670,103160
5,66083,100913
5,66495,100972
5,66907,97673
5,67320,97441
5,67732,94022
5,68143,94766
5,68557,96470
5,68968,93449
5,69380,93026
5,69792,91147
5,70205,88372
5,70617,88873
5,71028,88171
5,71442,87118
5,71853,87569
5,72265,89327
5,72678,85125
5,73090,85809
5,73502,85655
5,73915,85078
5,74327,86620
5,74738,84924
5,75152,83268
5,75563,85156
5,75975,82126
5,76388,82343
5,76800,83369
5,77212,82919
5,77625,84002
5,78037,84461
5,78448,83610
5,78860,81280
5,79273,81487
5,79685,81401
5,80097,80204
5,80510,82404
5,80922,80984
5,81333,77076
5,81747,79835
5,82158,79784
5,82570,77727
5,82983,79806
5,83395,80565
5,83807,76783
5,84220,81074
5,84632,81523
5,85043,81179
5,85457,79962
5,85868,79364
5,86280,77619
5,86693,80118
5,87105,80598
5,87517,78337
5,87928,78164
5,88342,76990
5,88753,75364
5,89165,79153
5,89578,77098
5,89990,76172
5,90402,78291
5,90815,75130
5,91227,74603
5,91638,76553
5,92052,76140
5,92463,76740
5,92875,72278
5,93288,74213
5,93700,75589
5,94112,74885
5,94525,75802
5,94937,71796
5,95348,73093
5,95762,73499
5,96173,73405
5,96585,72525
5,96997,72559
5,97410,71930
5,97822,72575
5,98233,69590
5,98647,68479
5,99058,68138
5,99470,68421
5,99883,68885
6,00295,68408
6,00707,70064
6,01120,70017
6,01532,69423
6,01943,68157
6,02357,66941
6,02768,69797
6,03180,66786
6,03593,66396
6,04005,67378
6,04417,66781
6,04830,66974
6,05242,68756
6,05653,67025
6,06065,66089
6,06478,66420
6,06890,64524
6,07302,66946
6,07715,64350
6,08127,64592
6,08538,65818
6,08952,65343
6,09363,64064
6,09775,64958
6,10188,66531
6,10600,66359
6,11012,65920
6,11425,68049
6,11837,67827
6,12248,65909
6,12662,66070
6,13073,66676
6,13485,67087
6,13898,68003
6,14310,68329
6,14722,66417
6,15133,65559
6,15547,63561
6,15958,64716
6,16370,64814
6,16783,64984
6,17195,62683
6,17607,63486
6,18020,62147
6,18432,62833
6,18843,62202
6,19257,61786
6,19668,63466
6,20080,61699
6,20493,61962
6,20905,63847
6,21317,60632
6,21730,60917
6,22142,61571
6,22553,59799
6,22967,61016
6,23378,58919
6,23790,58247
6,24202,58050
6,24615,61096
6,25027,59510
6,25438,58581
6,25852,58638
6,26263,58041
6,26675,59933
6,27088,58790
6,27500,59418
6,27912,58836
6,28325,58232
6,28737,56756
6,29148,59075
6,29562,57144
6,29973,57661
6,30385,57808
6,30798,57581
6,31210,57428
6,31622,55202
6,32035,57590
6,32447,59022
6,32858,57182
6,33270,56358
6,33683,53711
6,34095,55097
6,34507,53772
6,34920,54385
6,35332,55714
6,35743,55917
6,36157,53712
6,36568,55013
6,36980,55887
6,37393,56009
6,37805,54432
6,38217,54495
6,38630,52886
6,39042,53606
6,39453,53712
6,39867,52458
6,40278,54559
6,40690,54383
6,41103,54341
6,41515,51272
6,41927,49776
6,42338,51745
6,42752,51693
6,43163,49954
6,43575,52537
6,43988,55685
6,44400,57133
6,44812,62222
6,45225,74931
6,45637,101691
6,46048,140648
6,46462,205747
6,46873,291237
6,47285,400917
6,47698,514800
6,48110,650232
6,48522,770075
6,48935,875749
6,49347,949619
6,49758,1022834
6,50172,1051927
6,50583,1063527
6,50995,1070602
6,51407,1051332
6,51820,1028734
6,52232,1019564
6,52643,990570
6,53057,946252
6,53468,921013
6,53880,895248
6,54293,857514
6,54705,826175
6,55117,792404
6,55530,764882
6,55942,721218
6,56353,701927
6,56767,663487
6,57178,634823
6,57590,604903
6,58003,577088
6,58415,556454
6,58827,525414
6,59240,495727
6,59652,482431
6,60063,450747
6,60475,423297
6,60888,401122
6,61300,382595
6,61712,358722
6,62125,334041
6,62537,310603
6,62948,289524
6,63362,271309
6,63773,250195
6,64185,233059
6,64598,214901
6,65010,199127
6,65422,185732
6,65835,173548
6,66247,161594
6,66658,150226
6,67072,138061
6,67483,125298
6,67895,122583
6,68308,112476
6,68720,105435
6,69132,100515
6,69543,94110
6,69957,89675
6,70368,86437
6,70780,82893
6,71193,77492
6,71605,76189
6,72017,73718
6,72430,68874
6,72842,68457
6,73253,66466
6,73667,63143
6,74078,62175
6,74490,61922
6,74903,59571
6,75315,59347
6,75727,57142
6,76140,57453
6,76552,56398
6,76963,55733
6,77377,54953
6,77788,53338
6,78200,52093
6,78612,51236
6,79025,51590
6,79437,49343
6,79848,51569
6,80262,49001
6,80673,50734
6,81085,46458
6,81498,48413
6,81910,49452
6,82322,47695
6,82735,48855
6,83147,46369
6,83558,48185
6,83972,47516
6,84383,47325
6,84795,47201
6,85208,47722
6,85620,47570
6,86032,46405
6,86445,47665
6,86857,46469
6,87268,45444
6,87680,43850
6,88093,45088
6,88505,45570
6,88917,46623
6,89330,44285
6,89742,43810
6,90153,45131
6,90567,44410
6,90978,42532
6,91390,45801
6,91803,44003
6,92215,45555
6,92627,45646
6,93040,42106
6,93452,42638
6,93863,44299
6,94277,43050
6,94688,43186
6,95100,42794
6,95513,42954
6,95925,42829
6,96337,44431
6,96750,41713
6,97162,41263
6,97573,41388
6,97985,41544
6,98398,41923
6,98810,42079
6,99222,41310
6,99635,41625
7,00047,41930
7,00458,41486
7,00872,42030
7,01283,38376
7,01695,42029
7,02108,40903
7,02520,38643
7,02932,39776
7,03345,39579
7,03757,38128
7,04168,40610
7,04582,37636
7,04993,40182
7,05405,37708
7,05818,40310
7,06230,41038
7,06642,39343
7,07053,38874
7,07467,39345
7,07878,40159
7,08290,38036
7,08703,39773
7,09115,40065
7,09527,39353
7,09940,38393
7,10352,36873
7,10763,37360
7,11177,37938
7,11588,38593
7,12000,37969
7,12413,37168
7,12825,38741
7,13237,38282
7,13650,37146
7,14062,39913
7,14473,37827
7,14887,37608
7,15298,36979
7,15710,37021
7,16122,38541
7,16535,37584
7,16947,38607
7,17358,36448
7,17772,37220
7,18183,37557
7,18595,38005
7,19008,37551
7,19420,36118
7,19832,37997
7,20245,36711
7,20657,37097
7,21068,35150
7,21482,34543
7,21893,35508
7,22305,36729
7,22718,38342
7,23130,36722
7,23542,37039
7,23955,36728
7,24367,38994
7,24778,40781
7,25190,46121
7,25603,57589
7,26015,75249
7,26427,101438
7,26840,136086
7,27252,183506
7,27663,235892
7,28077,292689
7,28488,357786
7,28900,416727
7,29313,470763
7,29725,507508
7,30137,537451
7,30550,556932
7,30962,564775
7,31373,567355
7,31787,573887
7,32198,562582
7,32610,548102
7,33023,533125
7,33435,512534
7,33847,490769
7,34258,477246
7,34672,449905
7,35083,436052
7,35495,418015
7,35908,395254
7,36320,371457
7,36732,365297
7,37145,342290
7,37557,330328
7,37968,310332
7,38382,292971
7,38793,276519
7,39205,259073
7,39618,242047
7,40030,230994
7,40442,216703
7,40855,198548
7,41267,189106
7,41678,175227
7,42092,158777
7,42503,148703
7,42915,137194
7,43327,130231
7,43740,118422
7,44152,110581
7,44563,102961
7,44977,97170
7,45388,88767
7,45800,83406
7,46213,78565
7,46625,73567
7,47037,69044
7,47450,65577
7,47862,62517
7,48273,60262
7,48687,58132
7,49098,54593
7,49510,53403
7,49923,51383
7,50335,48307
7,50747,46271
7,51160,47841
7,51572,44838
7,51983,45490
7,52395,43418
7,52808,41435
7,53220,41229
7,53632,41270
7,54045,39972
7,54457,39297
7,54868,38799
7,55282,38630
7,55693,37110
7,56105,35918
7,56518,35669
7,56930,35866
7,57342,37636
7,57755,36544
7,58167,36183
7,58578,34511
7,58992,36154
7,59403,35363
7,59815,34955
7,60228,33968
7,60640,35323
7,61052,35103
7,61463,38774
7,61877,37311
7,62288,35968
7,62700,37121
7,63113,35083
7,63525,36624
7,63937,36400
7,64350,39000
7,64762,36846
7,65173,35973
7,65587,36305
7,65998,37148
7,66410,36262
7,66823,37823
7,67235,35111
7,67647,35228
7,68060,35372
7,68472,32675
7,68883,35508
7,69297,33217
7,69708,33996
7,70120,33653
7,70532,32028
7,70945,34315
7,71357,32766
7,71768,32202
7,72182,30751
7,72593,34300
7,73005,31471
7,73418,29966
7,73830,30404
7,74242,30388
7,74655,30627
7,75067,29320
7,75478,29386
7,75892,29330
7,76303,31319
7,76715,29376
7,77128,30727
7,77540,29167
7,77952,30503
7,78365,28670
7,78777,29689
7,79188,28857
7,79600,27598
7,80013,29309
7,80425,29126
7,80837,29506
7,81250,30219
7,81662,29089
7,82073,28501
7,82487,28971
7,82898,29421
7,83310,29343
7,83723,27638
7,84135,27956
7,84547,28047
7,84960,29564
7,85372,28406
7,85783,27869
7,86197,27408
7,86608,28085
7,87020,27770
7,87433,27221
7,87845,27609
7,88257,27300
7,88668,26952
7,89082,27222
7,89493,25225
7,89905,28390
7,90318,26875
7,90730,28346
7,91142,27456
7,91555,26792
7,91967,27068
7,92378,28947
7,92792,27253
7,93203,27222
7,93615,26771
7,94028,28199
7,94440,25941
7,94852,26132
7,95265,27347
7,95677,27395
7,96088,27251
7,96502,26657
7,96913,28133
7,97325,27010
7,97737,27993
7,98150,25033
7,98562,27412
7,98973,26261
7,99387,28182
7,99798,25760
8,00210,27259
8,00623,25274
8,01035,24901
8,01447,26009
8,01860,25945
8,02272,25505
8,02683,26178
8,03097,27511
8,03508,26321
8,03920,27097
8,04333,26324
8,04745,26199
8,05157,27339
8,05570,26415
8,05982,26739
8,06393,26026
8,06805,25446
8,07218,25515
8,07630,25348
8,08042,25951
8,08455,26134
8,08867,26554
8,09278,25302
8,09692,26115
8,10103,25417
8,10515,26988
8,10928,25826
8,11340,26398
8,11752,27028
8,12165,25605
8,12577,24880
8,12988,25816
8,13402,25190
8,13813,26163
8,14225,26100
8,14638,25833
8,15050,27138
8,15462,25122
8,15873,27107
8,16287,27211
8,16698,26121
8,17110,25244
8,17523,25380
8,17935,25990
8,18347,23500
8,18760,25107
8,19172,24817
8,19583,24500
8,19997,25892
8,20408,24743
8,20820,26513
8,21233,27136
8,21645,27931
8,22057,32585
8,22470,43692
8,22882,55019
8,23293,80323
8,23707,113151
8,24118,167058
8,24530,234468
8,24942,326426
8,25355,428050
8,25767,550311
8,26178,675158
8,26592,810367
8,27003,921174
8,27415,1027941
8,27828,1097551
8,28240,1150026
8,28652,1179063
8,29065,1193276
8,29477,1197242
8,29888,1174140
8,30302,1157722
8,30713,1118798
8,31125,1085576
8,31538,1032582
8,31950,986315
8,32362,935949
8,32775,885758
8,33187,846203
8,33598,796385
8,34010,737579
8,34423,698072
8,34835,653480
8,35247,606947
8,35660,569279
8,36072,528667
8,36483,491335
8,36897,445245
8,37308,408636
8,37720,372938
8,38133,338716
8,38545,305784
8,38957,279692
8,39370,251925
8,39782,227874
8,40193,204930
8,40607,187808
8,41018,167726
8,41430,148863
8,41843,136544
8,42255,122578
8,42667,115457
8,43078,107344
8,43492,99058
8,43903,91462
8,44315,85001
8,44728,79657
8,45140,72553
8,45552,69468
8,45965,64170
8,46377,59075
8,46788,59279
8,47202,55633
8,47613,52239
8,48025,49239
8,48438,50880
8,48850,46901
8,49262,46710
8,49675,43945
8,50087,43908
8,50498,41683
8,50912,40503
8,51323,40395
8,51735,39680
8,52148,37302
8,52560,35889
8,52972,34594
8,53383,35324
8,53797,33339
8,54208,34423
8,54620,32826
8,55033,32876
8,55445,30608
8,55857,32027
8,56270,31913
8,56682,30367
8,57093,31808
8,57507,30512
8,57918,30454
8,58330,30752
8,58743,30179
8,59155,28931
8,59567,28781
8,59980,28849
8,60392,26931
8,60803,26724
8,61217,29217
8,61628,27565
8,62040,26985
8,62452,25607
8,62865,27064
8,63277,24852
8,63688,26611
8,64102,26874
8,64513,25842
8,64925,27019
8,65338,25646
8,65750,26411
8,66162,25454
8,66575,24782
8,66987,24021
8,67398,25482
8,67812,25100
8,68223,23942
8,68635,25282
8,69048,24345
8,69460,23067
8,69872,24207
8,70285,23750
8,70697,23212
8,71108,25014
8,71520,23371
8,71933,23135
8,72345,23513
8,72757,23390
8,73170,24413
8,73582,23040
8,73993,21735
8,74407,22771
8,74818,22564
8,75230,21936
8,75643,22820
8,76055,22053
8,76467,22414
8,76880,21817
8,77292,21371
8,77703,22920
8,78117,21990
8,78528,21414
8,78940,20887
8,79353,21528
8,79765,22035
8,80177,21004
8,80588,21843
8,81002,21829
8,81413,23078
8,81825,22442
8,82238,21546
8,82650,21779
8,83062,21118
8,83475,21194
8,83887,21489
8,84298,21068
8,84712,21931
8,85123,21291
8,85535,21277
8,85948,22007
8,86360,21166
8,86772,20646
8,87185,20162
8,87597,19902
8,88008,20311
8,88422,20723
8,88833,21117
8,89245,20447
8,89657,19705
8,90070,20774
8,90482,19257
8,90893,21348
8,91307,20975
8,91718,21780
8,92130,21304
8,92543,19158
8,92955,21650
8,93367,20474
8,93780,21156
8,94192,20072
8,94603,20911
8,95017,21628
8,95428,21938
8,95840,19840
8,96253,20493
8,96665,20846
8,97077,19302
8,97490,20076
8,97902,20266
8,98313,20222
8,98725,19671
8,99138,19363
8,99550,19743
8,99962,19654
9,00375,18991
9,00787,21715
9,01198,19739
9,01612,20327
9,02023,19424
9,02435,20699
9,02848,20364
9,03260,18933
9,03672,18755
9,04085,18763
9,04497,20420
9,04908,19627
9,05322,18447
9,05733,20853
9,06145,20312
9,06558,18869
9,06970,19555
9,07382,20918
9,07793,19642
9,08207,19027
9,08618,20901
9,09030,21071
9,09443,21377
9,09855,22592
9,10267,22189
9,10680,22437
9,11092,21506
9,11503,22688
9,11917,22150
9,12328,22478
9,12740,20867
9,13153,21052
9,13565,21548
9,13977,22409
9,14390,20958
9,14802,21365
9,15213,22179
9,15627,20731
9,16038,21027
9,16450,21697
9,16862,20817
9,17275,20107
9,17687,20232
9,18098,19442
9,18512,19193
9,18923,19815
9,19335,19967
9,19748,20841
9,20160,19719
9,20572,20316
9,20985,18970
9,21397,19436
9,21808,19307
9,22222,19237
9,22633,18060
9,23045,18375
9,23458,18491
9,23870,18148
9,24282,19122
9,24695,18908
9,25107,18097
9,25518,17936
9,25930,17902
9,26343,18174
9,26755,17812
9,27167,18983
9,27580,17990
9,27992,17785
9,28403,17155
9,28817,17481
9,29228,16906
9,29640,17940
9,30053,17748
9,30465,17356
9,30877,17971
9,31290,17868
9,31702,17182
9,32113,18147
9,32527,17139
9,32938,18246
9,33350,16739
9,33763,18905
9,34175,17196
9,34587,18071
9,34998,17878
9,35412,18099
9,35823,19856
9,36235,22428
9,36648,27954
9,37060,33350
9,37472,46779
9,37885,63457
9,38297,85773
9,38708,117970
9,39122,160660
9,39533,212576
9,39945,263980
9,40358,340639
9,40770,402855
9,41182,463702
9,41595,529927
9,42007,571719
9,42418,615161
9,42832,632007
9,43243,646682
9,43655,651510
9,44067,645999
9,44480,639263
9,44892,609272
9,45303,593331
9,45717,567238
9,46128,537622
9,46540,509671
9,46953,470225
9,47365,443530
9,47777,411379
9,48190,384543
9,48602,357444
9,49013,324496
9,49427,294371
9,49838,271578
9,50250,247363
9,50663,224220
9,51075,201941
9,51487,175134
9,51900,160207
9,52312,143082
9,52723,129907
9,53135,117684
9,53548,105078
9,53960,95738
9,54372,87638
9,54785,80840
9,55197,73117
9,55608,66349
9,56022,61607
9,56433,57636
9,56845,52425
9,57258,49446
9,57670,46429
9,58082,45157
9,58495,40635
9,58907,39752
9,59318,37863
9,59732,36083
9,60143,34199
9,60555,34659
9,60968,33838
9,61380,30890
9,61792,31900
9,62203,31391
9,62617,27577
9,63028,27630
9,63440,28713
9,63853,26566
9,64265,25650
9,64677,25335
9,65090,24561
9,65502,25008
9,65913,23064
9,66327,23703
9,66738,23739
9,67150,23351
9,67563,22030
9,67975,22586
9,68387,21552
9,68800,22535
9,69212,20809
9,69623,21380
9,70037,21026
9,70448,21342
9,70860,21723
9,71272,19638
9,71685,20315
9,72097,19592
9,72508,20611
9,72922,19469
9,73333,20515
9,73745,19411
9,74158,20696
9,74570,18702
9,74982,18996
9,75395,19405
9,75807,18608
9,76218,17270
9,76632,18083
9,77043,18258
9,77455,19237
9,77868,19139
9,78280,18012
9,78692,19595
9,79105,17724
9,79517,18321
9,79928,16961
9,80340,17850
9,80753,18014
9,81165,17462
9,81577,18200
9,81990,18604
9,82402,17231
9,82813,17430
9,83227,16242
9,83638,16483
9,84050,17242
9,84463,16661
9,84875,18115
9,85287,16337
9,85700,17572
9,86112,16364
9,86523,16433
9,86937,16967
9,87348,15460
9,87760,15955
9,88173,17445
9,88585,15772
9,88997,15712
9,89408,16319
9,89822,16217
9,90233,16333
9,90645,15443
9,91058,16000
9,91470,16288
9,91882,16552
9,92295,15076
9,92707,14907
9,93118,14699
9,93532,16094
9,93943,17101
9,94355,16218
9,94768,16503
9,95180,14976
9,95592,15797
9,96005,15556
9,96417,15777
9,96828,16110
9,97242,16992
9,97653,16036
9,98065,16086
9,98477,14621
9,98890,16356
9,99302,15183
9,99713,16855
10,00127,15387
10,00538,14921
10,00950,15623
10,01363,15535
10,01775,16804
10,02187,17081
10,02600,16146
10,03012,17716
10,03423,16966
10,03837,17015
10,04248,17753
10,04660,15551
10,05073,18226
10,05485,18150
10,05897,17662
10,06310,17090
10,06722,16252
10,07133,18326
10,07545,16511
10,07958,16836
10,08370,17640
10,08782,17171
10,09195,17183
10,09607,17629
10,10018,15952
10,10432,17268
10,10843,15733
10,11255,16287
10,11668,16757
10,12080,14987
10,12492,17017
10,12905,15716
10,13317,14247
10,13728,15954
10,14142,14784
10,14553,14966
10,14965,13808
10,15378,15992
10,15790,14865
10,16202,14347
10,16615,14025
10,17027,13061
10,17438,14046
10,17850,15652
10,18263,14867
10,18675,13872
10,19087,14904
10,19500,14775
10,19912,14833
10,20323,12698
10,20737,13591
10,21148,14339
10,21560,14447
10,21973,13563
10,22385,15128
10,22797,14124
10,23210,15045
10,23622,13423
10,24033,14739
10,24447,15142
10,24858,15414
10,25270,16961
10,25683,15374
10,26095,17489
10,26507,15720
10,26918,16780
10,27332,17153
10,27743,18271
10,28155,16232
10,28568,17058
10,28980,17387
10,29392,18670
10,29805,18096
10,30217,16640
10,30628,17373
10,31042,18186
10,31453,17073
10,31865,17441
10,32278,16947
10,32690,17010
10,33102,15868
10,33515,16622
10,33927,15924
10,34338,15338
10,34752,16879
10,35163,14597
10,35575,14932
10,35987,14114
10,36400,14125
10,36812,14572
10,37223,14599
10,37637,14004
10,38048,13679
10,38460,13703
10,38873,13817
10,39285,13905
10,39697,16309
10,40110,13483
10,40522,14079
10,40933,14176
10,41347,13723
10,41758,14289
10,42170,14038
10,42583,14976
10,42995,14338
10,43407,13949
10,43820,15079
10,44232,13564
10,44643,12611
10,45055,14000
10,45468,13424
10,45880,13336
10,46292,14086
10,46705,14001
10,47117,13281
10,47528,14703
10,47942,14802
10,48353,13279
10,48765,14737
10,49178,13489
10,49590,13237
10,50002,13728
10,50415,13276
10,50827,13558
10,51238,13529
10,51652,13782
10,52063,13217
10,52475,13030
10,52888,13618
10,53300,14478
10,53712,14280
10,54123,13572
10,54537,12808
10,54948,12458
10,55360,13991
10,55773,13841
10,56185,12897
10,56597,12525
10,57010,13314
10,57422,12324
10,57833,13598
10,58247,12928
10,58658,12731
10,59070,14431
10,59483,13324
10,59895,12739
10,60307,13002
10,60720,13084
10,61132,13261
10,61543,12733
10,61957,12978
10,62368,14041
10,62780,14574
10,63192,14785
10,63605,15987
10,64017,19288
10,64428,24248
10,64842,32692
10,65253,46613
10,65665,70506
10,66078,104534
10,66490,153222
10,66902,218901
10,67315,303532
10,67727,413201
10,68138,539858
10,68552,673289
10,68963,825463
10,69375,970995
10,69788,1106839
10,70200,1215583
10,70612,1315925
10,71025,1394629
10,71437,1428230
10,71848,1444620
10,72260,1442075
10,72673,1417562
10,73085,1384917
10,73497,1314931
10,73910,1245011
10,74322,1163747
10,74733,1090324
10,75147,998368
10,75558,923264
10,75970,835158
10,76383,760957
10,76795,679344
10,77207,604403
10,77620,537421
10,78032,477228
10,78443,421920
10,78857,375126
10,79268,333269
10,79680,298020
10,80093,267125
10,80505,232618
10,80917,207861
10,81328,184669
10,81742,169373
10,82153,150406
10,82565,138925
10,82978,122645
10,83390,112615
10,83802,104644
10,84215,94332
10,84627,87145
10,85038,80659
10,85452,74520
10,85863,71406
10,86275,65062
10,86688,61646
10,87100,57610
10,87512,56421
10,87925,51952
10,88337,52350
10,88748,45495
10,89162,44307
10,89573,42159
10,89985,42852
10,90397,41275
10,90810,38281
10,91222,36535
10,91633,34275
10,92047,32592
10,92458,34316
10,92870,31280
10,93283,28540
10,93695,29764
10,94107,28350
10,94520,28419
10,94932,26783
10,95343,27126
10,95757,26666
10,96168,27052
10,96580,27595
10,96993,25008
10,97405,25440
10,97817,25323
10,98230,24786
10,98642,24896
10,99053,25269
10,99465,24353
10,99878,25239
11,00290,23256
11,00702,23787
11,01115,22314
11,01527,23244
11,01938,22054
11,02352,22515
11,02763,20644
11,03175,20677
11,03588,20469
11,04000,20310
11,04412,21004
11,04825,19438
11,05237,18418
11,05648,18875
11,06062,16742
11,06473,17898
11,06885,18222
11,07298,17782
11,07710,16465
11,08122,16286
11,08533,17005
11,08947,16779
11,09358,15411
11,09770,16207
11,10183,15104
11,10595,15686
11,11007,15619
11,11420,15623
11,11832,16364
11,12243,14924
11,12657,15224
11,13068,15040
11,13480,15776
11,13893,15069
11,14305,13948
11,14717,14742
11,15130,13716
11,15542,13546
11,15953,15157
11,16367,14024
11,16778,14863
11,17190,13636
11,17602,13886
11,18015,13542
11,18427,13416
11,18838,13125
11,19252,13922
11,19663,13292
11,20075,14958
11,20488,14028
11,20900,14307
11,21312,13632
11,21725,13582
11,22137,13794
11,22548,13617
11,22962,14228
11,23373,13733
11,23785,14866
11,24198,13652
11,24610,13445
11,25022,12600
11,25435,13075
11,25847,14432
11,26258,13594
11,26670,12988
11,27083,12978
11,27495,12902
11,27907,13074
11,28320,13778
11,28732,12698
11,29143,12358
11,29557,12921
11,29968,12752
11,30380,11963
11,30793,13311
11,31205,12852
11,31617,13988
11,32030,12069
11,32442,11536
11,32853,12586
11,33267,12434
11,33678,12851
11,34090,12475
11,34503,12538
11,34915,12525
11,35327,13940
11,35738,12520
11,36152,13017
11,36563,13004
11,36975,13005
11,37388,12670
11,37800,13640
11,38212,13790
11,38625,13585
11,39037,13502
11,39448,14189
11,39862,14474
11,40273,14933
11,40685,14822
11,41098,12174
11,41510,12949
11,41922,13431
11,42335,13715
11,42747,13084
11,43158,13741
11,43572,13169
11,43983,12552
11,44395,12442
11,44807,12431
11,45220,10854
11,45632,12446
11,46043,10492
11,46457,11242
11,46868,12633
11,47280,12791
11,47693,10685
11,48105,11762
11,48517,11124
11,48930,10913
11,49342,11677
11,49753,11589
11,50167,11119
11,50578,11618
11,50990,10600
11,51403,10379
11,51815,10683
11,52227,11065
11,52640,10808
11,53052,10827
11,53463,11309
11,53875,11088
11,54288,10688
11,54700,10494
11,55112,10883
11,55525,10504
11,55937,11458
11,56348,9967
11,56762,10832
11,57173,10582
11,57585,11075
11,57998,10913
11,58410,11033
11,58822,10931
11,59235,10266
11,59647,11022
11,60058,9837
11,60472,11318
11,60883,10458
11,61295,12459
11,61708,14194
11,62120,15091
11,62532,18402
11,62943,22661
11,63357,32359
11,63768,44071
11,64180,63435
11,64593,88239
11,65005,120635
11,65417,161082
11,65830,213361
11,66242,269973
11,66653,334634
11,67067,401283
11,67478,470578
11,67890,525300
11,68303,597137
11,68715,632799
11,69127,668688
11,69540,686744
11,69952,696921
11,70363,685927
11,70777,668560
11,71188,646215
11,71600,623233
11,72012,577689
11,72425,547885
11,72837,496037
11,73248,459732
11,73662,410673
11,74073,369645
11,74485,335147
11,74898,293832
11,75310,268037
11,75722,242713
11,76135,212418
11,76547,183716
11,76958,166078
11,77372,147565
11,77783,133717
11,78195,117199
11,78608,111499
11,79020,100029
11,79432,92723
11,79845,85052
11,80257,78997
11,80668,73055
11,81082,70568
11,81493,63408
11,81905,59288
11,82317,56720
11,82730,52699
11,83142,50099
11,83553,49179
11,83967,45313
11,84378,42927
11,84790,37763
11,85203,39891
11,85615,37864
11,86027,34465
11,86440,32925
11,86852,31310
11,87263,29097
11,87677,27972
11,88088,26343
11,88500,25277
11,88913,25320
11,89325,24164
11,89737,23837
11,90150,23507
11,90562,21808
11,90973,20117
11,91385,20516
11,91798,21886
11,92210,17851
11,92622,18965
11,93035,19088
11,93447,18054
11,93858,16711
11,94272,17820
11,94683,16868
11,95095,17154
11,95508,16143
11,95920,14453
11,96332,15232
11,96745,16286
11,97157,14941
11,97568,15014
11,97982,16205
11,98393,14483
11,98805,15081
11,99218,14540
11,99630,14037
12,00042,14343
12,00453,14135
12,00867,15119
12,01278,14547
12,01690,14704
12,02103,16291
12,02515,16555
12,02927,17810
12,03340,22981
12,03752,28810
12,04163,41652
12,04577,55741
12,04988,80290
12,05400,113820
12,05813,154264
12,06225,208743
12,06637,267894
12,07050,340528
12,07462,413383
12,07873,504144
12,08287,576778
12,08698,642451
12,09110,705340
12,09522,741564
12,09935,774891
12,10347,787008
12,10758,783418
12,11172,768963
12,11583,734050
12,11995,704356
12,12408,663864
12,12820,611888
12,13232,552296
12,13645,498400
12,14057,460218
12,14468,406829
12,14882,357933
12,15293,322736
12,15705,285666
12,16118,247630
12,16530,222220
12,16942,194012
12,17355,172667
12,17767,148918
12,18178,135905
12,18590,122476
12,19003,109163
12,19415,96740
12,19827,87232
12,20240,77292
12,20652,73373
12,21063,67984
12,21477,61913
12,21888,54532
12,22300,54696
12,22713,48371
12,23125,46384
12,23537,44302
12,23950,40383
12,24362,38835
12,24773,35908
12,25187,33239
12,25598,33719
12,26010,30712
12,26423,29798
12,26835,28447
12,27247,27208
12,27658,25122
12,28072,26018
12,28483,26220
12,28895,24186
12,29308,23962
12,29720,22302
12,30132,20564
12,30545,20894
12,30957,20925
12,31368,20376
12,31782,20712
12,32193,18442
12,32605,18030
12,33018,18863
12,33430,17246
12,33842,17170
12,34255,17464
12,34667,15694
12,35078,16469
12,35492,15017
12,35903,16323
12,36315,16269
12,36727,16165
12,37140,15138
12,37552,16221
12,37963,15057
12,38377,14870
12,38788,14411
12,39200,13557
12,39613,13520
12,40025,14485
12,40437,13165
12,40850,12648
12,41262,12906
12,41673,12528
12,42087,12685
12,42498,13084
12,42910,13226
12,43323,12538
12,43735,12235
12,44147,13036
12,44560,11657
12,44972,11286
12,45383,13092
12,45795,11145
12,46208,12247
12,46620,10551
12,47032,11391
12,47445,10976
12,47857,11265
12,48268,12010
12,48682,10046
12,49093,10466
12,49505,11807
12,49918,12089
12,50330,11796
12,50742,11574
12,51155,10424
12,51567,11518
12,51978,11347
12,52392,11850
12,52803,10800
12,53215,10337
12,53628,11077
12,54040,11435
12,54452,10441
12,54863,10488
12,55277,9917
12,55688,10182
12,56100,10951
12,56513,10277
12,56925,11726
12,57337,10890
12,57750,10440
12,58162,11519
12,58573,10258
12,58987,9882
12,59398,10217
12,59810,8983
12,60223,11661
12,60635,9388
12,61047,10915
12,61460,10518
12,61872,10642
12,62283,10343
12,62697,9103
12,63108,10215
12,63520,12315
12,63932,10619
12,64345,9478
12,64757,9740
12,65168,10621
12,65582,9709
12,65993,9861
12,66405,9706
12,66818,9009
12,67230,10135
12,67642,9560
12,68055,9190
12,68467,9964
12,68878,9551
12,69292,10565
12,69703,9907
12,70115,9099
12,70528,10346
12,70940,9902
12,71352,9477
12,71765,8869
12,72177,9316
12,72588,9874
12,73000,10114
12,73413,10049
12,73825,9603
12,74237,10207
12,74650,8902
12,75062,9726
12,75473,9684
12,75887,9582
12,76298,9472
12,76710,9511
12,77123,9693
12,77535,8759
12,77947,8954
12,78360,9735
12,78772,9446
12,79183,10793
12,79597,9533
12,80008,10355
12,80420,9930
12,80833,9988
12,81245,9534
12,81657,10242
12,82068,8946
12,82482,9063
12,82893,8932
12,83305,10267
12,83718,9581
12,84130,8689
12,84542,9682
12,84955,9395
12,85367,9659
12,85778,8593
12,86192,10062
12,86603,8953
12,87015,9085
12,87428,9254
12,87840,9497
12,88252,9456
12,88665,9514
12,89077,9177
12,89488,9143
12,89902,9240
12,90313,10078
12,90725,8392
12,91137,9014
12,91550,9354
12,91962,8231
12,92373,9099
12,92787,10280
12,93198,9621
12,93610,8720
12,94023,9041
12,94435,8071
12,94847,9508
12,95260,9784
12,95672,7420
12,96083,8951
12,96497,9055
12,96908,9464
12,97320,8839
12,97733,8907
12,98145,8409
12,98557,7889
12,98970,7789
12,99382,8237
12,99793,8526
13,00205,8252
13,00618,8577
13,01030,8703
13,01442,8358
13,01855,8229
13,02267,10963
13,02678,7748
13,03092,9424
13,03503,10067
13,03915,9416
13,04328,9688
13,04740,9760
13,05152,8767
13,05565,10666
13,05977,11127
13,06388,13088
13,06802,15816
13,07213,21397
13,07625,30314
13,08038,41353
13,08450,58094
13,08862,84854
13,09273,117535
13,09687,156015
13,10098,213765
13,10510,271123
13,10923,344305
13,11335,414476
13,11747,493473
13,12160,570728
13,12572,623077
13,12983,681267
13,13397,709312
13,13808,745785
13,14220,755381
13,14633,758780
13,15045,737529
13,15457,697266
13,15870,678525
13,16282,611528
13,16693,567421
13,17107,517862
13,17518,465600
13,17930,415811
13,18342,372839
13,18755,323312
13,19167,292779
13,19578,256329
13,19992,224251
13,20403,194212
13,20815,176665
13,21228,154226
13,21640,140006
13,22052,124455
13,22465,110245
13,22877,98899
13,23288,90722
13,23702,81265
13,24113,73482
13,24525,66386
13,24938,66927
13,25350,58344
13,25762,53953
13,26175,48316
13,26587,47316
13,26998,45420
13,27410,41220
13,27823,38738
13,28235,36917
13,28647,34792
13,29060,33077
13,29472,30576
13,29883,30310
13,30297,27924
13,30708,26737
13,31120,28044
13,31533,23455
13,31945,24697
13,32357,23219
13,32770,23451
13,33182,22630
13,33593,19880
13,34007,19105
13,34418,19141
13,34830,18569
13,35243,17785
13,35655,17430
13,36067,17647
13,36478,16137
13,36892,16395
13,37303,14977
13,37715,14935
13,38128,14497
13,38540,14743
13,38952,15152
13,39365,13255
13,39777,13552
13,40188,12787
13,40602,14699
13,41013,13307
13,41425,13758
13,41838,12653
13,42250,12952
13,42662,11322
13,43075,13005
13,43487,12570
13,43898,12538
13,44312,11416
13,44723,12343
13,45135,11041
13,45547,11109
13,45960,10962
13,46372,10642
13,46783,14369
13,47197,14428
13,47608,16532
13,48020,21944
13,48433,32520
13,48845,45201
13,49257,70482
13,49670,107289
13,50082,159934
13,50493,241233
13,50907,342400
13,51318,474307
13,51730,646525
13,52143,831632
13,52555,1046087
13,52967,1294477
13,53380,1542980
13,53792,1805073
13,54203,2053734
13,54617,2256775
13,55028,2430730
13,55440,2579346
13,55852,2653397
13,56265,2652789
13,56677,2593926
13,57088,2497370
13,57502,2340112
13,57913,2168250
13,58325,1985203
13,58738,1776962
13,59150,1577727
13,59562,1388591
13,59975,1212968
13,60387,1043112
13,60798,929694
13,61212,800560
13,61623,703162
13,62035,617423
13,62448,529092
13,62860,474863
13,63272,421250
13,63685,368831
13,64097,336462
13,64508,295758
13,64920,268911
13,65333,239599
13,65745,213207
13,66157,198256
13,66570,176204
13,66982,164790
13,67393,151082
13,67807,142040
13,68218,128247
13,68630,121640
13,69043,111838
13,69455,101659
13,69867,95772
13,70280,91162
13,70692,85835
13,71103,81173
13,71517,73126
13,71928,72682
13,72340,68586
13,72753,64008
13,73165,63237
13,73577,59144
13,73988,54256
13,74402,53943
13,74813,48827
13,75225,47187
13,75638,45877
13,76050,43955
13,76462,41621
13,76875,41625
13,77287,40255
13,77698,37583
13,78112,35012
13,78523,35419
13,78935,34044
13,79348,32848
13,79760,33401
13,80172,31417
13,80585,30944
13,80997,28565
13,81408,29887
13,81822,28155
13,82233,25929
13,82645,25620
13,83057,26854
13,83470,24400
13,83882,22995
13,84293,22569
13,84707,22466
13,85118,22845
13,85530,21290
13,85943,20656
13,86355,20275
13,86767,20060
13,87180,20060
13,87592,20204
13,88003,19608
13,88417,18059
13,88828,16797
13,89240,18320
13,89653,16874
13,90065,16881
13,90477,17479
13,90890,15887
13,91302,16252
13,91713,15751
13,92125,14938
13,92538,15709
13,92950,15756
13,93362,14398
13,93775,15954
13,94187,14156
13,94598,15275
13,95012,13218
13,95423,13749
13,95835,13895
13,96248,12970
13,96660,13381
13,97072,14098
13,97485,12948
13,97897,12572
13,98308,14221
13,98722,12297
13,99133,10769
13,99545,12182
13,99958,12440
14,00370,12871
14,00782,14065
14,01193,12649
14,01607,12649
14,02018,11367
14,02430,11008
14,02843,10710
14,03255,10397
14,03667,11453
14,04080,10530
14,04492,11416
14,04903,10273
14,05317,11392
14,05728,10875
14,06140,10917
14,06553,10635
14,06965,10674
14,07377,11352
14,07790,11560
14,08202,10673
14,08613,9579
14,09027,10864
14,09438,10555
14,09850,10853
14,10262,9996
14,10675,11235
14,11087,10828
14,11498,11045
14,11912,11031
14,12323,11356
14,12735,10369
14,13148,11997
14,13560,11989
14,13972,11302
14,14385,11084
14,14797,10513
14,15208,10137
14,15622,11060
14,16033,10869
14,16445,10093
14,16858,9498
14,17270,10271
14,17682,10391
14,18095,9608
14,18507,9608
14,18918,9470
14,19330,8053
14,19743,9504
14,20155,9165
14,20567,10103
14,20980,9729
14,21392,10251
14,21803,9041
14,22217,9457
14,22628,9522
14,23040,9124
14,23453,9978
14,23865,10114
14,24277,9083
14,24690,10039
14,25102,9659
14,25513,10561
14,25927,9350
14,26338,9467
14,26750,10938
14,27163,10849
14,27575,10364
14,27987,10132
14,28398,9949
14,28812,9236
14,29223,10973
14,29635,11434
14,30048,10992
14,30460,10330
14,30872,10157
14,31285,10911
14,31697,10690
14,32108,10760
14,32522,11979
14,32933,12226
14,33345,11863
14,33758,12488
14,34170,13932
14,34582,14430
14,34995,16053
14,35407,19544
14,35818,24907
14,36232,29885
14,36643,41894
14,37055,57457
14,37467,80734
14,37880,111316
14,38292,151880
14,38703,202579
14,39117,264881
14,39528,341992
14,39940,419307
14,40353,499526
14,40765,583710
14,41177,658734
14,41590,708820
14,42002,768254
14,42413,803020
14,42827,809184
14,43238,796457
14,43650,785739
14,44063,747241
14,44475,693404
14,44887,638094
14,45300,597744
14,45712,537582
14,46123,477181
14,46535,423396
14,46948,376895
14,47360,332460
14,47772,290833
14,48185,254304
14,48597,229119
14,49008,196367
14,49422,177293
14,49833,157952
14,50245,137214
14,50658,124368
14,51070,115019
14,51482,102114
14,51895,95068
14,52307,86335
14,52718,79293
14,53132,71642
14,53543,66288
14,53955,62042
14,54368,56138
14,54780,52443
14,55192,49205
14,55603,47398
14,56017,42056
14,56428,41778
14,56840,41317
14,57253,38515
14,57665,37379
14,58077,34799
14,58490,31878
14,58902,32553
14,59313,31169
14,59727,30396
14,60138,29850
14,60550,28913
14,60963,29021
14,61375,28220
14,61787,29794
14,62200,26335
14,62612,26129
14,63023,26902
14,63437,23854
14,63848,24751
14,64260,23371
14,64672,22329
14,65085,19892
14,65497,22185
14,65908,20152
14,66322,20074
14,66733,18423
14,67145,17566
14,67558,18628
14,67970,17032
14,68382,17414
14,68795,16063
14,69207,15662
14,69618,15795
14,70032,16035
14,70443,11782
14,70855,12931
14,71268,13319
14,71680,13281
14,72092,12594
14,72505,13967
14,72917,14053
14,73328,12918
14,73740,12119
14,74153,12039
14,74565,12246
14,74977,11822
14,75390,12661
14,75802,10129
14,76213,11618
14,76627,12946
14,77038,11223
14,77450,11643
14,77863,11109
14,78275,11099
14,78687,11430
14,79100,9119
14,79512,10780
14,79923,10258
14,80337,10427
14,80748,10898
14,81160,10210
14,81573,9049
14,81985,10260
14,82397,10993
14,82808,9371
14,83222,9723
14,83633,9226
14,84045,9686
14,84458,9405
14,84870,9082
14,85282,10074
14,85695,8934
14,86107,8161
14,86518,9046
14,86932,9075
14,87343,8471
14,87755,9852
14,88168,8665
14,88580,10893
14,88992,9493
14,89405,9514
14,89817,8946
14,90228,8035
14,90642,8673
14,91053,8698
14,91465,9880
14,91877,8780
14,92290,9322
14,92702,8917
14,93113,8754
14,93527,8888
14,93938,9027
14,94350,9521
14,94763,9133
14,95175,9812
14,95587,10151
14,96000,10140
14,96412,12710
14,96823,14595
14,97237,17601
14,97648,27733
14,98060,38735
14,98473,57647
14,98885,84777
14,99297,115883
14,99710,165794
15,00122,224781
15,00533,294228
15,00945,368769
15,01358,470386
15,01770,553944
15,02182,650561
15,02595,740968
15,03007,813156
15,03418,880867
15,03832,906462
15,04243,908131
15,04655,912830
15,05068,890540
15,05480,829819
15,05892,778407
15,06305,716549
15,06717,652532
15,07128,581321
15,07542,513049
15,07953,458684
15,08365,396433
15,08778,348387
15,09190,307470
15,09602,267926
15,10013,240106
15,10427,207142
15,10838,187214
15,11250,163530
15,11663,146333
15,12075,128551
15,12487,118083
15,12900,103577
15,13312,94270
15,13723,88291
15,14137,79792
15,14548,72737
15,14960,65598
15,15373,62005
15,15785,59628
15,16197,54681
15,16610,50080
15,17022,43749
15,17433,43501
15,17847,40207
15,18258,39586
15,18670,36293
15,19082,36175
15,19495,32743
15,19907,30487
15,20318,29933
15,20732,28938
15,21143,26308
15,21555,25326
15,21968,25747
15,22380,24447
15,22792,22804
15,23205,23069
15,23617,20895
15,24028,21057
15,24442,20666
15,24853,20852
15,25265,20633
15,25678,18430
15,26090,18614
15,26502,17500
15,26915,17293
15,27327,18118
15,27738,16649
15,28152,16560
15,28563,16592
15,28975,15811
15,29387,14963
15,29800,14948
15,30212,15072
15,30623,15078
15,31037,12804
15,31448,14614
15,31860,12640
15,32273,13976
15,32685,13694
15,33097,12192
15,33510,11893
15,33922,12106
15,34333,11971
15,34747,12694
15,35158,12062
15,35570,10891
15,35983,10308
15,36395,9763
15,36807,10224
15,37220,10115
15,37632,10567
15,38043,10718
15,38455,10128
15,38868,10377
15,39280,10177
15,39692,10389
15,40105,9154
15,40517,9343
15,40928,9181
15,41342,8924
15,41753,9107
15,42165,9245
15,42578,9300
15,42990,9565
15,43402,9317
15,43815,9503
15,44227,9410
15,44638,8897
15,45052,9805
15,45463,8683
15,45875,9328
15,46288,8267
15,46700,7729
15,47112,9604
15,47523,9565
15,47937,9279
15,48348,8293
15,48760,9330
15,49173,7683
15,49585,7931
15,49997,10049
15,50410,8674
15,50822,8251
15,51233,9230
15,51647,8928
15,52058,9681
15,52470,7851
15,52883,7620
15,53295,8545
15,53707,8293
15,54120,8171
15,54532,8885
15,54943,8851
15,55357,7778
15,55768,7738
15,56180,9356
15,56592,7893
15,57005,8534
15,57417,8301
15,57828,8753
15,58242,8683
15,58653,8341
15,59065,9846
15,59478,7564
15,59890,9217
15,60302,9751
15,60715,7785
15,61127,8616
15,61538,8616
15,61952,8882
15,62363,8706
15,62775,8517
15,63188,10107
15,63600,9172
15,64012,9573
15,64425,8361
15,64837,8443
15,65248,8632
15,65660,8163
15,66073,7510
15,66485,7998
15,66897,8927
15,67310,7837
15,67722,7679
15,68133,8269
15,68547,8193
15,68958,7696
15,69370,8423
15,69783,8163
15,70195,7828
15,70607,7454
15,71020,7039
15,71432,8266
15,71843,7973
15,72257,8206
15,72668,8166
15,73080,7193
15,73493,8319
15,73905,8145
15,74317,7490
15,74728,7804
15,75142,7620
15,75553,7808
15,75965,6938
15,76378,6875
15,76790,7908
15,77202,6518
15,77615,7603
15,78027,7663
15,78438,7133
15,78852,8327
15,79263,8284
15,79675,7374
15,80088,7087
15,80500,8504
15,80912,7674
15,81325,7018
15,81737,7943
15,82148,8917
15,82562,7586
15,82973,8203
15,83385,8739
15,83797,9766
15,84210,9612
15,84622,10610
15,85033,15426
15,85447,19468
15,85858,26868
15,86270,39578
15,86683,52714
15,87095,82909
15,87507,113414
15,87920,158505
15,88332,215392
15,88743,275766
15,89157,359068
15,89568,438115
15,89980,527911
15,90393,609702
15,90805,697842
15,91217,773548
15,91630,824384
15,92042,858810
15,92453,883224
15,92865,870971
15,93278,845986
15,93690,810283
15,94102,754991
15,94515,698724
15,94927,629251
15,95338,566578
15,95752,503641
15,96163,451988
15,96575,394640
15,96988,342004
15,97400,305856
15,97812,272841
15,98225,239020
15,98637,209670
15,99048,183854
15,99462,164713
15,99873,150366
16,00285,131760
16,00698,117202
16,01110,107499
16,01522,94446
16,01933,89119
16,02347,80573
16,02758,72581
16,03170,70780
16,03583,66225
16,03995,60362
16,04407,56717
16,04820,56485
16,05232,52909
16,05643,51320
16,06057,49281
16,06468,46886
16,06880,45474
16,07293,44861
16,07705,41239
16,08117,40673
16,08530,37525
16,08942,38864
16,09353,36502
16,09767,34175
16,10178,31713
16,10590,31951
16,11002,30758
16,11415,29719
16,11827,28073
16,12238,26012
16,12652,25982
16,13063,24122
16,13475,23999
16,13888,21808
16,14300,22042
16,14712,19977
16,15125,19145
16,15537,19505
16,15948,18238
16,16362,17639
16,16773,16538
16,17185,16877
16,17598,15888
16,18010,13565
16,18422,15029
16,18835,14628
16,19247,14520
16,19658,13821
16,20070,13131
16,20483,13659
16,20895,14045
16,21307,13943
16,21720,13246
16,22132,12900
16,22543,12787
16,22957,11328
16,23368,12205
16,23780,11387
16,24193,11189
16,24605,11101
16,25017,10172
16,25430,9940
16,25842,12256
16,26253,10905
16,26667,10381
16,27078,10588
16,27490,10478
16,27903,9995
16,28315,10181
16,28727,10110
16,29138,9917
16,29552,8797
16,29963,9133
16,30375,9473
16,30788,10948
16,31200,8636
16,31612,8458
16,32025,9898
16,32437,10028
16,32848,8932
16,33262,9760
16,33673,9090
16,34085,9566
16,34498,9475
16,34910,10336
16,35322,9089
16,35735,8479
16,36147,8233
16,36558,9791
16,36972,8143
16,37383,9145
16,37795,9012
16,38207,7672
16,38620,9374
16,39032,9333
16,39443,9968
16,39857,9091
16,40268,9590
16,40680,9348
16,41093,9942
16,41505,10117
16,41917,9312
16,42330,9330
16,42742,7987
16,43153,9212
16,43567,8249
16,43978,9349
16,44390,9509
16,44803,10495
16,45215,10912
16,45627,12958
16,46040,15807
16,46452,21818
16,46863,31922
16,47275,49531
16,47688,73120
16,48100,109345
16,48512,162954
16,48925,232385
16,49337,332557
16,49748,450944
16,50162,584811
16,50573,748065
16,50985,925515
16,51398,1126360
16,51810,1327816
16,52222,1530851
16,52635,1732558
16,53047,1865772
16,53458,1963397
16,53872,2037546
16,54283,2040332
16,54695,1995460
16,55108,1926548
16,55520,1797105
16,55932,1661003
16,56343,1500107
16,56757,1354089
16,57168,1197003
16,57580,1043781
16,57993,917172
16,58405,803301
16,58817,694891
16,59230,614860
16,59642,535255
16,60053,471261
16,60467,407449
16,60878,366152
16,61290,322938
16,61703,293050
16,62115,261400
16,62527,234150
16,62940,211714
16,63352,192335
16,63763,170720
16,64177,159047
16,64588,145798
16,65000,135049
16,65412,124943
16,65825,116702
16,66237,105430
16,66648,101402
16,67062,91372
16,67473,85705
16,67885,81462
16,68298,79369
16,68710,70612
16,69122,67816
16,69535,62321
16,69947,57318
16,70358,54882
16,70772,53811
16,71183,53311
16,71595,50568
16,72008,46720
16,72420,44477
16,72832,43421
16,73245,42551
16,73657,41205
16,74068,38629
16,74480,33754
16,74893,36073
16,75305,31533
16,75717,32576
16,76130,30701
16,76542,30507
16,76953,29089
16,77367,28640
16,77778,26839
16,78190,26482
16,78603,24229
16,79015,24096
16,79427,24053
16,79840,22725
16,80252,22167
16,80663,21743
16,81077,20490
16,81488,21110
16,81900,19886
16,82313,19078
16,82725,18978
16,83137,18547
16,83548,18989
16,83962,17304
16,84373,17251
16,84785,19061
16,85198,17367
16,85610,16809
16,86022,16510
16,86435,15222
16,86847,15016
16,87258,15848
16,87672,12897
16,88083,15630
16,88495,14322
16,88908,14658
16,89320,14703
16,89732,13131
16,90145,14430
16,90557,13512
16,90968,13326
16,91382,13732
16,91793,13153
16,92205,12819
16,92618,12799
16,93030,13442
16,93442,11662
16,93853,12827
16,94267,10547
16,94678,11351
16,95090,11958
16,95503,13385
16,95915,14618
16,96327,15980
16,96740,17267
16,97152,24231
16,97563,31880
16,97977,40789
16,98388,56748
16,98800,83211
16,99213,120107
16,99625,165081
17,00037,227448
17,00450,295993
17,00862,381079
17,01273,473832
17,01687,564778
17,02098,667188
17,02510,751116
17,02922,824407
17,03335,886899
17,03747,925694
17,04158,950886
17,04572,945347
17,04983,906117
17,05395,877865
17,05808,817565
17,06220,755715
17,06632,684949
17,07045,614180
17,07457,551203
17,07868,487121
17,08282,430005
17,08693,381749
17,09105,337650
17,09518,297478
17,09930,258100
17,10342,228993
17,10755,205292
17,11167,180082
17,11578,162574
17,11990,148857
17,12403,131969
17,12815,120259
17,13227,106588
17,13640,101982
17,14052,89247
17,14463,84626
17,14877,78067
17,15288,71983
17,15700,68931
17,16113,62718
17,16525,59258
17,16937,53762
17,17350,50159
17,17762,49285
17,18173,46135
17,18587,45137
17,18998,40844
17,19410,40570
17,19823,36659
17,20235,37395
17,20647,36256
17,21058,36616
17,21472,41084
17,21883,45639
17,22295,55748
17,22708,69985
17,23120,98144
17,23532,134194
17,23945,181466
17,24357,257815
17,24768,345626
17,25182,465951
17,25593,606860
17,26005,770578
17,26418,945181
17,26830,1135893
17,27242,1332948
17,27655,1522854
17,28067,1673670
17,28478,1783359
17,28892,1874890
17,29303,1924374
17,29715,1910399
17,30127,1870883
17,30540,1781422
17,30952,1671674
17,31363,1537304
17,31777,1396138
17,32188,1255233
17,32600,1115611
17,33013,978484
17,33425,868613
17,33837,762409
17,34250,674605
17,34662,591192
17,35073,516270
17,35487,456971
17,35898,403972
17,36310,357431
17,36723,326029
17,37135,289592
17,37547,262120
17,37960,238798
17,38372,214208
17,38783,193892
17,39195,175829
17,39608,164172
17,40020,156073
17,40432,138570
17,40845,132842
17,41257,119258
17,41668,112792
17,42082,104795
17,42493,97980
17,42905,92341
17,43318,85255
17,43730,83250
17,44142,76802
17,44555,73010
17,44967,68141
17,45378,65807
17,45792,62751
17,46203,57377
17,46615,54851
17,47028,53766
17,47440,50604
17,47852,51050
17,48263,45370
17,48677,44348
17,49088,44223
17,49500,41760
17,49913,41498
17,50325,37101
17,50737,35089
17,51150,35594
17,51562,32211
17,51973,32755
17,52387,31125
17,52798,29547
17,53210,29197
17,53623,28396
17,54035,28855
17,54447,26961
17,54860,26869
17,55272,26392
17,55683,24260
17,56097,24303
17,56508,23795
17,56920,23427
17,57332,23129
17,57745,22184
17,58157,21879
17,58568,20123
17,58982,20761
17,59393,21409
17,59805,19347
17,60218,19059
17,60630,19422
17,61042,19098
17,61455,17835
17,61867,17423
17,62278,16149
17,62692,17923
17,63103,18632
17,63515,17013
17,63928,18583
17,64340,17093
17,64752,15190
17,65165,13585
17,65577,14174
17,65988,15862
17,66400,14889
17,66813,13635
17,67225,14521
17,67637,14699
17,68050,14132
17,68462,13436
17,68873,13092
17,69287,13422
17,69698,14002
17,70110,13069
17,70523,14251
17,70935,12854
17,71347,13654
17,71760,13825
17,72172,12459
17,72583,13211
17,72997,12904
17,73408,13773
17,73820,13443
17,74233,12842
17,74645,12919
17,75057,11766
17,75468,11934
17,75882,11406
17,76293,11325
17,76705,12836
17,77118,11865
17,77530,12074
17,77942,11638
17,78355,11188
17,78767,11708
17,79178,10989
17,79592,11149
17,80003,10244
17,80415,11605
17,80828,11970
17,81240,10838
17,81652,12128
17,82065,11739
17,82477,12000
17,82888,14052
17,83302,15136
17,83713,16745
17,84125,22559
17,84537,30246
17,84950,41768
17,85362,60390
17,85773,82075
17,86187,116281
17,86598,161508
17,87010,219394
17,87423,283204
17,87835,362145
17,88247,445774
17,88660,524162
17,89072,622451
17,89483,704134
17,89897,785027
17,90308,809573
17,90720,850965
17,91133,868231
17,91545,845945
17,91957,820476
17,92370,784494
17,92782,716932
17,93193,669152
17,93605,599515
17,94018,544859
17,94430,494065
17,94842,450552
17,95255,417895
17,95667,406025
17,96078,397774
17,96492,409087
17,96903,445644
17,97315,505955
17,97728,594435
17,98140,701030
17,98552,841990
17,98965,996367
17,99377,1188742
17,99788,1359116
18,00202,1542982
18,00613,1737997
18,01025,1902892
18,01438,2024223
18,01850,2091751
18,02262,2131532
18,02673,2100723
18,03087,2022543
18,03498,1910272
18,03910,1771928
18,04323,1601728
18,04735,1439843
18,05147,1273249
18,05560,1127532
18,05972,985563
18,06383,866214
18,06797,753021
18,07208,660821
18,07620,591011
18,08033,512535
18,08445,461222
18,08857,404562
18,09270,367478
18,09682,323445
18,10093,296629
18,10507,268891
18,10918,245711
18,11330,218094
18,11742,204451
18,12155,186814
18,12567,171474
18,12978,160506
18,13392,145834
18,13803,137580
18,14215,129778
18,14628,120400
18,15040,112189
18,15452,106351
18,15865,96064
18,16277,95778
18,16688,86392
18,17102,84567
18,17513,79802
18,17925,79380
18,18338,70247
18,18750,69935
18,19162,66859
18,19575,61219
18,19987,59137
18,20398,56021
18,20810,56395
18,21223,54695
18,21635,52023
18,22047,48519
18,22460,47282
18,22872,46353
18,23283,43099
18,23697,42656
18,24108,42538
18,24520,39366
18,24933,37415
18,25345,37797
18,25757,35238
18,26170,36914
18,26582,33012
18,26993,32042
18,27407,32947
18,27818,31562
18,28230,30935
18,28643,30227
18,29055,28863
18,29467,27889
18,29878,27290
18,30292,26933
18,30703,25887
18,31115,26030
18,31528,24441
18,31940,22658
18,32352,24499
18,32765,25103
18,33177,24722
18,33588,24220
18,34002,22942
18,34413,23442
18,34825,21041
18,35238,20987
18,35650,21625
18,36062,19818
18,36475,20279
18,36887,20599
18,37298,19178
18,37712,19209
18,38123,16400
18,38535,18574
18,38947,18409
18,39360,18851
18,39772,19315
18,40183,18994
18,40597,21847
18,41008,23991
18,41420,27251
18,41833,34795
18,42245,45406
18,42657,61151
18,43070,87251
18,43482,120340
18,43893,160714
18,44307,211263
18,44718,272950
18,45130,351234
18,45543,426797
18,45955,506221
18,46367,589388
18,46780,657590
18,47192,732561
18,47603,789704
18,48015,819169
18,48428,828390
18,48840,819634
18,49252,806480
18,49665,745426
18,50077,709531
18,50488,659550
18,50902,596879
18,51313,538829
18,51725,474067
18,52138,429354
18,52550,382273
18,52962,330172
18,53375,294170
18,53787,265434
18,54198,231918
18,54612,209999
18,55023,187420
18,55435,161867
18,55848,149345
18,56260,132810
18,56672,121668
18,57085,111096
18,57497,101682
18,57908,93934
18,58320,85791
18,58733,79599
18,59145,72158
18,59557,70321
18,59970,63956
18,60382,59119
18,60793,54843
18,61207,51984
18,61618,49468
18,62030,46931
18,62443,48124
18,62855,42802
18,63267,40472
18,63680,38812
18,64092,36278
18,64503,34819
18,64917,33341
18,65328,32441
18,65740,29278
18,66153,30808
18,66565,27342
18,66977,28681
18,67388,26895
18,67802,25161
18,68213,25573
18,68625,23750
18,69038,24331
18,69450,24038
18,69862,24662
18,70275,21244
18,70687,19657
18,71098,20378
18,71512,19874
18,71923,19939
18,72335,19871
18,72748,20843
18,73160,19756
18,73572,20158
18,73985,18914
18,74397,19429
18,74808,17155
18,75222,16641
18,75633,17696
18,76045,16869
18,76457,17164
18,76870,17073
18,77282,15223
18,77693,17270
18,78107,17501
18,78518,15139
18,78930,15420
18,79343,14929
18,79755,14642
18,80167,14837
18,80580,14603
18,80992,14514
18,81403,13883
18,81817,13474
18,82228,13401
18,82640,14864
18,83053,13826
18,83465,14038
18,83877,12501
18,84290,12960
18,84702,13538
18,85113,11679
18,85525,12639
18,85938,11749
18,86350,12563
18,86762,12170
18,87175,12190
18,87587,11127
18,87998,12088
18,88412,11672
18,88823,11658
18,89235,11260
18,89648,11023
18,90060,11134
18,90472,10788
18,90885,11175
18,91297,10201
18,91708,11190
18,92122,11144
18,92533,11085
18,92945,10277
18,93358,9597
18,93770,10015
18,94182,10784
18,94593,10933
18,95007,11223
18,95418,10145
18,95830,10055
18,96243,9440
18,96655,9327
18,97067,10498
18,97480,9593
18,97892,10453
18,98303,9487
18,98717,9839
18,99128,9940
18,99540,9968
18,99953,9872
19,00365,10021
19,00777,10202
19,01190,10863
19,01602,8527
19,02013,8886
19,02427,8509
19,02838,8852
19,03250,10347
19,03662,9548
19,04075,8884
19,04487,9529
19,04898,8016
19,05312,9430
19,05723,9811
19,06135,8861
19,06548,9051
19,06960,9364
19,07372,9775
19,07785,8256
19,08197,8472
19,08608,9957
19,09022,9047
19,09433,9272
19,09845,8272
19,10258,8943
19,10670,9409
19,11082,9082
19,11495,8217
19,11907,8890
19,12318,9199
19,12730,8212
19,13143,8605
19,13555,9356
19,13967,8495
19,14380,9352
19,14792,9002
19,15203,9627
19,15617,8972
19,16028,8962
19,16440,8994
19,16853,7885
19,17265,8217
19,17677,8178
19,18090,9115
19,18502,8816
19,18913,7997
19,19327,8885
19,19738,8649
19,20150,7651
19,20563,7332
19,20975,8699
19,21387,8855
19,21798,7507
19,22212,8321
19,22623,7237
19,23035,8537
19,23448,8242
19,23860,9717
19,24272,11190
19,24685,11801
19,25097,14824
19,25508,17949
19,25922,25877
19,26333,34262
19,26745,50831
19,27158,71927
19,27570,99440
19,27982,133640
19,28395,181694
19,28807,236597
19,29218,299916
19,29632,376822
19,30043,445509
19,30455,515081
19,30867,577718
19,31280,637460
19,31692,678806
19,32103,712999
19,32517,726105
19,32928,719839
19,33340,702425
19,33753,660458
19,34165,623636
19,34577,587528
19,34990,537961
19,35402,486450
19,35813,438519
19,36227,392775
19,36638,349685
19,37050,311367
19,37463,281042
19,37875,246290
19,38287,218186
19,38700,199594
19,39112,179202
19,39523,163807
19,39935,153678
19,40348,149951
19,40760,151708
19,41172,163117
19,41585,180977
19,41997,212168
19,42408,263470
19,42822,329778
19,43233,420892
19,43645,547560
19,44058,687649
19,44470,854211
19,44882,1039448
19,45295,1229336
19,45707,1451452
19,46118,1663657
19,46532,1876093
19,46943,2055588
19,47355,2185112
19,47768,2268403
19,48180,2294171
19,48592,2284131
19,49003,2207684
19,49417,2080180
19,49828,1908043
19,50240,1734274
19,50653,1544994
19,51065,1374864
19,51477,1202574
19,51890,1069573
19,52302,937003
19,52713,821445
19,53127,726137
19,53538,642993
19,53950,570097
19,54363,503863
19,54775,440723
19,55187,399733
19,55600,363109
19,56012,323824
19,56423,295783
19,56837,275633
19,57248,250349
19,57660,225150
19,58072,207299
19,58485,193121
19,58897,177947
19,59308,167539
19,59722,155604
19,60133,142328
19,60545,135503
19,60958,129096
19,61370,114980
19,61782,109461
19,62195,106935
19,62607,98910
19,63018,96378
19,63432,89263
19,63843,86324
19,64255,79907
19,64668,78003
19,65080,71700
19,65492,70562
19,65905,65193
19,66317,63671
19,66728,60494
19,67140,61731
19,67553,56464
19,67965,54807
19,68377,50681
19,68790,48612
19,69202,50850
19,69613,47456
19,70027,45977
19,70438,44769
19,70850,41523
19,71263,40996
19,71675,42038
19,72087,37384
19,72500,37464
19,72912,36563
19,73323,34624
19,73737,32892
19,74148,33285
19,74560,33117
19,74973,32799
19,75385,31617
19,75797,29419
19,76208,27622
19,76622,29675
19,77033,28091
19,77445,28370
19,77858,28012
19,78270,26386
19,78682,26365
19,79095,27728
19,79507,30094
19,79918,30485
19,80332,35434
19,80743,42461
19,81155,52162
19,81568,69946
19,81980,91253
19,82392,122271
19,82805,161074
19,83217,206862
19,83628,268854
19,84042,325817
19,84453,393786
19,84865,466975
19,85277,537909
19,85690,600896
19,86102,650277
19,86513,695661
19,86927,722103
19,87338,718776
19,87750,713784
19,88163,691052
19,88575,651935
19,88987,616457
19,89400,573134
19,89812,518629
19,90223,473458
19,90637,425818
19,91048,376450
19,91460,336179
19,91873,297564
19,92285,264642
19,92697,236868
19,93110,214971
19,93522,191163
19,93933,167133
19,94345,154330
19,94758,135122
19,95170,123337
19,95582,115301
19,95995,104535
19,96407,94094
19,96818,89981
19,97232,82507
19,97643,72215
19,98055,69372
19,98468,65750
19,98880,60369
19,99292,56730
19,99705,55617
20,00117,50754
20,00528,48620
20,00942,47325
20,01353,44404
20,01765,42796
20,02178,41681
20,02590,37453
20,03002,36841
20,03413,33373
20,03827,33605
20,04238,33379
20,04650,31766
20,05063,29235
20,05475,30466
20,05887,29357
20,06300,28567
20,06712,26893
20,07123,25266
20,07537,26300
20,07948,24268
20,08360,23136
20,08773,22878
20,09185,21100
20,09597,23448
20,10010,21164
20,10422,22537
20,10833,21516
20,11247,22395
20,11658,22704
20,12070,23607
20,12482,26690
20,12895,32248
20,13307,38899
20,13718,49171
20,14132,69496
20,14543,90567
20,14955,129153
20,15368,172972
20,15780,235543
20,16192,306065
20,16605,390187
20,17017,479150
20,17428,579256
20,17842,688449
20,18253,787416
20,18665,883698
20,19078,948539
20,19490,994061
20,19902,1025849
20,20315,1019555
20,20727,998730
20,21138,950057
20,21552,909286
20,21963,840276
20,22375,766636
20,22787,685276
20,23200,614884
20,23612,547405
20,24023,487067
20,24437,432316
20,24848,387762
20,25260,344755
20,25673,305828
20,26085,268354
20,26497,241902
20,26910,219567
20,27322,194450
20,27733,178779
20,28147,165014
20,28558,147556
20,28970,132712
20,29383,128008
20,29795,115730
20,30207,109561
20,30620,99422
20,31032,93606
20,31443,85606
20,31855,84354
20,32268,80201
20,32680,71432
20,33092,67766
20,33505,66236
20,33917,63267
20,34328,57857
20,34742,54111
20,35153,50137
20,35565,49755
20,35978,46541
20,36390,45510
20,36802,44003
20,37215,41594
20,37627,41041
20,38038,40652
20,38452,36060
20,38863,36920
20,39275,31649
20,39688,32998
20,40100,33656
20,40512,30806
20,40923,31750
20,41337,30812
20,41748,27618
20,42160,26632
20,42573,26475
20,42985,26249
20,43397,25114
20,43810,23115
20,44222,22249
20,44633,23531
20,45047,22753
20,45458,23554
20,45870,22139
20,46283,22141
20,46695,21751
20,47107,19673
20,47520,19910
20,47932,20215
20,48343,18423
20,48757,19050
20,49168,18303
20,49580,18263
20,49992,17871
20,50405,18336
20,50817,18214
20,51228,16746
20,51642,17691
20,52053,16206
20,52465,17376
20,52878,16111
20,53290,17674
20,53702,16331
20,54115,15463
20,54527,16321
20,54938,15915
20,55352,17527
20,55763,14882
20,56175,13968
20,56588,13784
20,57000,13845
20,57412,14480
20,57825,13685
20,58237,15062
20,58648,12669
20,59060,12847
20,59473,12865
20,59885,13584
20,60297,13621
20,60710,14010
20,61122,13671
20,61533,12746
20,61947,11717
20,62358,12902
20,62770,12628
20,63183,13380
20,63595,12652
20,64007,13255
20,64420,12954
20,64832,12954
20,65243,12178
20,65657,13048
20,66068,12609
20,66480,11295
20,66893,10462
20,67305,11777
20,67717,12034
20,68128,12079
20,68542,11898
20,68953,9862
20,69365,10843
20,69778,10970
20,70190,11888
20,70602,11361
20,71015,11734
20,71427,12160
20,71838,9888
20,72252,12107
20,72663,11107
20,73075,11972
20,73488,10802
20,73900,10284
20,74312,11132
20,74725,11502
20,75137,11292
20,75548,11842
20,75962,10694
20,76373,10560
20,76785,11458
20,77197,13127
20,77610,11394
20,78022,12139
20,78433,11292
20,78847,12125
20,79258,10626
20,79670,10919
20,80083,11593
20,80495,11772
20,80907,12336
20,81320,13921
20,81732,14940
20,82143,17899
20,82557,22784
20,82968,29348
20,83380,39611
20,83793,57605
20,84205,83217
20,84617,118104
20,85030,165037
20,85442,222982
20,85853,306192
20,86265,393818
20,86678,507522
20,87090,616060
20,87502,746597
20,87915,850344
20,88327,963035
20,88738,1040349
20,89152,1101537
20,89563,1136347
20,89975,1136893
20,90388,1114206
20,90800,1061009
20,91212,997753
20,91625,929344
20,92037,841942
20,92448,749783
20,92862,676421
20,93273,601646
20,93685,531278
20,94098,475461
20,94510,418411
20,94922,375895
20,95333,330501
20,95747,297062
20,96158,270931
20,96570,239110
20,96983,220825
20,97395,196984
20,97807,180317
20,98220,164081
20,98632,152211
20,99043,138697
20,99457,127667
20,99868,119974
21,00280,109312
21,00693,104855
21,01105,98017
21,01517,90452
21,01930,85225
21,02342,82526
21,02753,75726
21,03167,71885
21,03578,69925
21,03990,64346
21,04402,61940
21,04815,59475
21,05227,55795
21,05638,56004
21,06052,49731
21,06463,50667
21,06875,49431
21,07288,44866
21,07700,46088
21,08112,43730
21,08525,42534
21,08937,40473
21,09348,39168
21,09762,37428
21,10173,34435
21,10585,33996
21,10998,33869
21,11410,34196
21,11822,31522
21,12235,30297
21,12647,30198
21,13058,29697
21,13470,28347
21,13883,28711
21,14295,27515
21,14707,24519
21,15120,26427
21,15532,24210
21,15943,24354
21,16357,24181
21,16768,23195
21,17180,25073
21,17593,24186
21,18005,22655
21,18417,23216
21,18830,20479
21,19242,21458
21,19653,22862
21,20067,21833
21,20478,19903
21,20890,22369
21,21303,19826
21,21715,19892
21,22127,18486
21,22538,18949
21,22952,19217
21,23363,17962
21,23775,18800
21,24188,18093
21,24600,16903
21,25012,16819
21,25425,17892
21,25837,16272
21,26248,16187
21,26662,17479
21,27073,16546
21,27485,17440
21,27898,18649
21,28310,21683
21,28722,22683
21,29135,29464
21,29547,37260
21,29958,47385
21,30372,68715
21,30783,91757
21,31195,126845
21,31607,175621
21,32020,235479
21,32432,307133
21,32843,389521
21,33257,474785
21,33668,566090
21,34080,656489
21,34493,732350
21,34905,803223
21,35317,853578
21,35730,876602
21,36142,882885
21,36553,879844
21,36967,845515
21,37378,804779
21,37790,750248
21,38203,687240
21,38615,630716
21,39027,566834
21,39440,510389
21,39852,454736
21,40263,406635
21,40675,361872
21,41088,325954
21,41500,289477
21,41912,255580
21,42325,229714
21,42737,208624
21,43148,188122
21,43562,171015
21,43973,151524
21,44385,137541
21,44798,127454
21,45210,119240
21,45622,108988
21,46035,103343
21,46447,92141
21,46858,86418
21,47272,83750
21,47683,75667
21,48095,71223
21,48508,67792
21,48920,65764
21,49332,61433
21,49743,57660
21,50157,56534
21,50568,53942
21,50980,49146
21,51393,48160
21,51805,46137
21,52217,45537
21,52630,43504
21,53042,40317
21,53453,39187
21,53867,40097
21,54278,37396
21,54690,33765
21,55103,33300
21,55515,34408
21,55927,31849
21,56340,30853
21,56752,29193
21,57163,29998
21,57577,29260
21,57988,28722
21,58400,27214
21,58812,25618
21,59225,25462
21,59637,24683
21,60048,24432
21,60462,24033
21,60873,24340
21,61285,24404
21,61698,22271
21,62110,22835
21,62522,22310
21,62935,21596
21,63347,21992
21,63758,22017
21,64172,19886
21,64583,21823
21,64995,19918
21,65408,19837
21,65820,20941
21,66232,19825
21,66645,19161
21,67057,18098
21,67468,18003
21,67880,18685
21,68293,18094
21,68705,18901
21,69117,16990
21,69530,18448
21,69942,18155
21,70353,17222
21,70767,17360
21,71178,17076
21,71590,16103
21,72003,15748
21,72415,17246
21,72827,16385
21,73240,16024
21,73652,16818
21,74063,15021
21,74477,15972
21,74888,15725
21,75300,15873
21,75713,15478
21,76125,15287
21,76537,16487
21,76950,16051
21,77362,16042
21,77773,15012
21,78185,14296
21,78598,14654
21,79010,14189
21,79422,15504
21,79835,15119
21,80247,14441
21,80658,13759
21,81072,13690
21,81483,14004
21,81895,14852
21,82308,12946
21,82720,14196
21,83132,13620
21,83545,14915
21,83957,14013
21,84368,13839
21,84782,13074
21,85193,13950
21,85605,13239
21,86018,15126
21,86430,15140
21,86842,13793
21,87253,13408
21,87667,13767
21,88078,14599
21,88490,12822
21,88903,14451
21,89315,14053
21,89727,13436
21,90140,12675
21,90552,13011
21,90963,13032
21,91377,13951
21,91788,14065
21,92200,13919
21,92613,12540
21,93025,13639
21,93437,14960
21,93850,13911
21,94262,13800
21,94673,14244
21,95087,11838
21,95498,12672
21,95910,13407
21,96322,13792
21,96735,14117
21,97147,12473
21,97558,13063
21,97972,12502
21,98383,14196
21,98795,12299
21,99208,12771
21,99620,13014
22,00032,11936
22,00445,11107
22,00857,11333
22,01268,11635
22,01682,12235
22,02093,11753
22,02505,11527
22,02918,12721
22,03330,10471
22,03742,12485
22,04155,12003
22,04567,12470
22,04978,10964
22,05390,11795
22,05803,12425
22,06215,10950
22,06627,10391
22,07040,10957
22,07452,11798
22,07863,11508
22,08277,12740
22,08688,14700
22,09100,19383
22,09513,22527
22,09925,29079
22,10337,36726
22,10750,51979
22,11162,72227
22,11573,100185
22,11987,140900
22,12398,184634
22,12810,239042
22,13223,307035
22,13635,378410
22,14047,460163
22,14458,538763
22,14872,604049
22,15283,669120
22,15695,717346
22,16108,756230
22,16520,782816
22,16932,776944
22,17345,761910
22,17757,733852
22,18168,688002
22,18582,649649
22,18993,595629
22,19405,545636
22,19818,488522
22,20230,447076
22,20642,399781
22,21055,367439
22,21467,338539
22,21878,319221
22,22292,300136
22,22703,302947
22,23115,312607
22,23527,339221
22,23940,382407
22,24352,451735
22,24763,538944
22,25177,648912
22,25588,770189
22,26000,932546
22,26413,1116846
22,26825,1299251
22,27237,1515690
22,27650,1714010
22,28062,1930132
22,28473,2109374
22,28887,2273808
22,29298,2389135
22,29710,2444442
22,30123,2414363
22,30535,2328644
22,30947,2211024
22,31360,2056703
22,31772,1895202
22,32183,1696771
22,32595,1518274
22,33008,1352748
22,33420,1191732
22,33832,1063279
22,34245,945904
22,34657,827953
22,35068,749584
22,35482,674496
22,35893,596734
22,36305,532225
22,36718,486757
22,37130,446469
22,37542,404802
22,37955,372090
22,38367,339239
22,38778,313917
22,39192,294714
22,39603,266708
22,40015,252309
22,40428,233075
22,40840,219073
22,41252,208512
22,41663,192765
22,42077,182537
22,42488,172690
22,42900,165227
22,43313,151163
22,43725,143949
22,44137,136992
22,44550,133782
22,44962,126451
22,45373,117058
22,45787,112855
22,46198,107801
22,46610,102531
22,47023,97827
22,47435,95249
22,47847,89844
22,48260,87823
22,48672,87554
22,49083,83877
22,49497,83552
22,49908,79262
22,50320,76170
22,50732,74132
22,51145,71856
22,51557,68017
22,51968,67140
22,52382,63678
22,52793,62189
22,53205,61536
22,53618,59098
22,54030,57583
22,54442,54647
22,54855,54526
22,55267,54979
22,55678,51582
22,56092,50919
22,56503,45867
22,56915,45021
22,57328,47474
22,57740,46087
22,58152,43962
22,58565,43088
22,58977,40767
22,59388,41810
22,59800,41751
22,60213,40095
22,60625,40557
22,61037,40620
22,61450,43500
22,61862,45645
22,62273,47980
22,62687,57054
22,63098,69252
22,63510,87145
22,63923,112939
22,64335,148420
22,64747,188524
22,65160,240906
22,65572,307719
22,65983,379249
22,66397,459113
22,66808,551688
22,67220,621381
22,67633,691211
22,68045,757079
22,68457,812321
22,68868,833479
22,69282,852895
22,69693,865027
22,70105,858520
22,70518,840628
22,70930,834404
22,71342,821595
22,71755,813299
22,72167,826013
22,72578,828808
22,72992,843263
22,73403,880460
22,73815,903955
22,74228,915689
22,74640,932510
22,75052,937446
22,75465,954305
22,75877,935667
22,76288,914332
22,76702,880930
22,77113,841204
22,77525,781508
22,77937,726360
22,78350,660938
22,78762,607912
22,79173,557094
22,79587,495995
22,79998,450078
22,80410,401986
22,80823,362866
22,81235,327145
22,81647,299623
22,82060,265635
22,82472,244102
22,82883,222556
22,83297,205019
22,83708,186085
22,84120,169653
22,84533,160421
22,84945,145311
22,85357,137181
22,85770,126928
22,86182,118951
22,86593,109826
22,87005,104919
22,87418,99821
22,87830,94345
22,88242,88809
22,88655,85437
22,89067,83914
22,89478,77679
22,89892,77560
22,90303,78513
22,90715,78340
22,91128,83011
22,91540,91001
22,91952,101414
22,92365,120512
22,92777,145646
22,93188,179360
22,93602,229983
22,94013,289019
22,94425,363320
22,94838,448119
22,95250,549475
22,95662,646761
22,96073,763436
22,96487,859990
22,96898,952315
22,97310,1018056
22,97723,1059098
22,98135,1081767
22,98547,1077481
22,98960,1054940
22,99372,1007974
22,99783,951094
23,00197,895672
23,00608,822081
23,01020,749696
23,01433,677705
23,01845,613855
23,02257,553206
23,02670,499401
23,03082,450822
23,03493,397090
23,03907,367717
23,04318,328061
23,04730,300008
23,05142,274065
23,05555,248365
23,05967,229511
23,06378,211165
23,06792,200296
23,07203,183243
23,07615,174793
23,08028,159730
23,08440,148698
23,08852,138112
23,09265,129501
23,09677,129046
23,10088,118186
23,10502,113329
23,10913,108323
23,11325,100296
23,11738,97828
23,12150,91641
23,12562,87532
23,12975,84065
23,13387,79031
23,13798,78877
23,14210,73122
23,14623,71472
23,15035,69357
23,15447,65357
23,15860,64886
23,16272,63975
23,16683,60664
23,17097,59825
23,17508,58368
23,17920,54946
23,18333,53969
23,18745,51511
23,19157,49887
23,19570,49361
23,19982,47978
23,20393,47180
23,20807,47379
23,21218,45500
23,21630,46348
23,22043,43926
23,22455,44049
23,22867,42091
23,23278,44252
23,23692,41552
23,24103,41777
23,24515,39363
23,24928,40895
23,25340,38952
23,25752,36433
23,26165,36512
23,26577,36727
23,26988,33129
23,27402,33656
23,27813,34129
23,28225,34307
23,28638,30838
23,29050,30595
23,29462,31306
23,29875,31234
23,30287,29308
23,30698,29857
23,31112,27277
23,31523,28875
23,31935,28690
23,32348,30005
23,32760,26871
23,33172,26635
23,33583,27469
23,33997,26936
23,34408,26134
23,34820,26126
23,35233,26029
23,35645,24208
23,36057,25849
23,36470,24696
23,36882,25349
23,37293,23796
23,37707,21707
23,38118,23016
23,38530,24716
23,38943,24757
23,39355,24725
23,39767,24136
23,40180,22628
23,40592,21809
23,41003,21623
23,41417,21827
23,41828,20681
23,42240,21392
23,42652,21187
23,43065,21639
23,43477,22098
23,43888,19884
23,44302,22525
23,44713,22049
23,45125,20815
23,45538,21247
23,45950,20237
23,46362,20710
23,46775,21799
23,47187,21861
23,47598,21127
23,48012,21717
23,48423,20668
23,48835,21168
23,49248,21135
23,49660,22300
23,50072,21522
23,50485,20430
23,50897,22357
23,51308,21390
23,51720,21965
23,52133,19923
23,52545,21393
23,52957,22536
23,53370,19618
23,53782,19531
23,54193,21273
23,54607,20869
23,55018,23206
23,55430,27691
23,55843,31208
23,56255,40751
23,56667,51215
23,57080,70331
23,57492,97187
23,57903,128694
23,58317,170894
23,58728,233205
23,59140,307376
23,59553,397135
23,59965,492291
23,60377,597909
23,60788,706150
23,61202,815444
23,61613,918937
23,62025,1014394
23,62438,1099791
23,62850,1131560
23,63262,1158270
23,63675,1139266
23,64087,1100829
23,64498,1018619
23,64912,953353
23,65323,873372
23,65735,798783
23,66148,716877
23,66560,641079
23,66972,577410
23,67385,518689
23,67797,469514
23,68208,421651
23,68622,387146
23,69033,342409
23,69445,314924
23,69857,286859
23,70270,261032
23,70682,237228
23,71093,223815
23,71507,204523
23,71918,193851
23,72330,175605
23,72743,166120
23,73155,154636
23,73567,144919
23,73980,139788
23,74392,128830
23,74803,119188
23,75217,114750
23,75628,112087
23,76040,106614
23,76453,100931
23,76865,96105
23,77277,90908
23,77690,88757
23,78102,86226
23,78513,82355
23,78925,79038
23,79338,77001
23,79750,74753
23,80162,70829
23,80575,68871
23,80987,66720
23,81398,63849
23,81812,61567
23,82223,60422
23,82635,59456
23,83048,54030
23,83460,54902
23,83872,52519
23,84285,52459
23,84697,48406
23,85108,49927
23,85522,49097
23,85933,46199
23,86345,46988
23,86758,46061
23,87170,42322
23,87582,43314
23,87993,40194
23,88407,41449
23,88818,38850
23,89230,39588
23,89643,36004
23,90055,38476
23,90467,36096
23,90880,36804
23,91292,36692
23,91703,36033
23,92117,34461
23,92528,33251
23,92940,33286
23,93353,32902
23,93765,31803
23,94177,32149
23,94590,32161
23,95002,29066
23,95413,31571
23,95827,28723
23,96238,28956
23,96650,30745
23,97062,29722
23,97475,27629
23,97887,29217
23,98298,29391
23,98712,27647
23,99123,28170
23,99535,27776
23,99948,28612
24,00360,28845
24,00772,30402
24,01185,33032
24,01597,35417
24,02008,41528
24,02422,48121
24,02833,63024
24,03245,81618
24,03658,112075
24,04070,144816
24,04482,196639
24,04895,265664
24,05307,342849
24,05718,438808
24,06130,549572
24,06543,672081
24,06955,786350
24,07367,899220
24,07780,1023637
24,08192,1102588
24,08603,1205983
24,09017,1278787
24,09428,1331885
24,09840,1372034
24,10253,1395561
24,10665,1385573
24,11077,1379165
24,11490,1341640
24,11902,1285068
24,12313,1237086
24,12727,1178397
24,13138,1105568
24,13550,1023838
24,13963,951773
24,14375,846680
24,14787,781325
24,15198,720564
24,15612,648511
24,16023,578827
24,16435,524921
24,16848,481533
24,17260,429138
24,17672,388951
24,18085,347392
24,18497,314271
24,18908,298213
24,19322,266379
24,19733,243511
24,20145,226846
24,20558,212009
24,20970,197287
24,21382,181806
24,21795,168782
24,22207,155506
24,22618,149470
24,23032,141765
24,23443,131043
24,23855,124460
24,24267,121371
24,24680,113128
24,25092,109785
24,25503,100314
24,25917,97249
24,26328,89773
24,26740,88189
24,27153,86637
24,27565,81453
24,27977,76701
24,28390,76439
24,28802,70303
24,29213,72800
24,29627,67258
24,30038,65994
24,30450,61838
24,30863,60008
24,31275,58995
24,31687,56154
24,32100,53269
24,32512,53348
24,32923,55118
24,33335,49670
24,33748,47880
24,34160,47703
24,34572,45972
24,34985,47465
24,35397,44525
24,35808,44308
24,36222,43530
24,36633,43949
24,37045,40646
24,37458,39053
24,37870,39091
24,38282,39849
24,38695,37995
24,39107,37323
24,39518,35137
24,39932,36116
24,40343,37188
24,40755,35686
24,41168,35558
24,41580,33591
24,41992,33018
24,42403,33495
24,42817,33679
24,43228,34960
24,43640,31682
24,44053,31840
24,44465,30937
24,44877,30518
24,45290,29148
24,45702,29381
24,46113,29120
24,46527,29830
24,46938,29874
24,47350,27739
24,47763,28606
24,48175,29053
24,48587,29386
24,49000,26849
24,49412,27619
24,49823,28130
24,50237,26700
24,50648,27733
24,51060,28106
24,51472,27164
24,51885,28637
24,52297,28323
24,52708,26566
24,53122,27816
24,53533,26187
24,53945,26933
24,54358,28574
24,54770,26973
24,55182,26752
24,55595,26135
24,56007,26920
24,56418,25530
24,56832,26498
24,57243,25640
24,57655,25099
24,58068,25154
24,58480,25393
24,58892,23272
24,59305,23567
24,59717,21670
24,60128,25195
24,60540,24076
24,60953,23017
24,61365,22856
24,61777,23637
24,62190,23851
24,62602,21915
24,63013,21592
24,63427,21907
24,63838,21621
24,64250,20944
24,64663,22024
24,65075,21882
24,65487,20334
24,65900,21710
24,66312,20976
24,66723,20122
24,67137,21259
24,67548,20692
24,67960,19817
24,68373,20141
24,68785,21542
24,69197,22312
24,69608,20806
24,70022,18777
24,70433,19893
24,70845,20118
24,71258,20769
24,71670,18297
24,72082,20141
24,72495,19936
24,72907,19573
24,73318,21960
24,73732,20688
24,74143,21275
24,74555,21729
24,74968,19613
24,75380,20722
24,75792,20209
24,76205,20615
24,76617,21576
24,77028,21435
24,77442,21915
24,77853,20350
24,78265,21736
24,78677,20439
24,79090,21063
24,79502,21380
24,79913,21988
24,80327,20514
24,80738,20182
24,81150,19206
24,81563,20112
24,81975,19546
24,82387,19151
24,82800,20892
24,83212,21303
24,83623,19832
24,84037,21026
24,84448,21458
24,84860,20272
24,85273,22140
24,85685,24056
24,86097,26565
24,86510,28626
24,86922,32936
24,87333,40609
24,87747,53708
24,88158,68654
24,88570,89281
24,88982,121138
24,89395,163422
24,89807,223604
24,90218,288317
24,90632,379309
24,91043,491869
24,91455,625906
24,91868,778566
24,92280,933671
24,92692,1130331
24,93105,1314886
24,93517,1518676
24,93928,1707624
24,94342,1896180
24,94753,2043779
24,95165,2166467
24,95578,2239887
24,95990,2263843
24,96402,2206669
24,96815,2120219
24,97227,1980237
24,97638,1810827
24,98050,1641104
24,98463,1478032
24,98875,1313592
24,99287,1183155
24,99700,1050235
25,00112,942601
25,00523,845669
25,00937,758076
25,01348,687942
25,01760,628073
25,02173,565505
25,02585,525457
25,02997,481051
25,03410,440223
25,03822,408351
25,04233,382277
25,04647,356955
25,05058,329028
25,05470,303226
25,05883,289965
25,06295,269336
25,06707,250740
25,07118,236431
25,07532,223201
25,07943,214294
25,08355,204044
25,08768,196414
25,09180,185376
25,09592,176162
25,10005,165061
25,10417,160599
25,10828,155769
25,11242,146210
25,11653,144129
25,12065,137175
25,12478,133548
25,12890,128656
25,13302,123297
25,13715,117164
25,14127,113017
25,14538,107316
25,14952,104423
25,15363,103336
25,15775,99439
25,16187,97037
25,16600,95306
25,17012,92409
25,17423,88934
25,17837,87179
25,18248,87531
25,18660,82506
25,19073,79817
25,19485,78752
25,19897,77091
25,20310,76851
25,20722,71966
25,21133,70421
25,21547,71171
25,21958,68938
25,22370,65603
25,22783,66932
25,23195,66210
25,23607,62568
25,24020,62760
25,24432,63291
25,24843,61308
25,25255,57162
25,25668,57006
25,26080,55842
25,26492,53606
25,26905,56313
25,27317,53273
25,27728,54888
25,28142,51927
25,28553,51550
25,28965,50939
25,29378,50417
25,29790,48952
25,30202,48324
25,30615,49827
25,31027,46908
25,31438,45253
25,31852,44278
25,32263,46235
25,32675,45764
25,33088,45985
25,33500,44443
25,33912,44957
25,34323,46217
25,34737,43970
25,35148,40694
25,35560,43645
25,35973,41857
25,36385,42383
25,36797,38878
25,37210,39751
25,37622,39379
25,38033,39243
25,38447,40042
25,38858,41221
25,39270,41138
25,39683,40441
25,40095,38226
25,40507,38538
25,40920,35329
25,41332,37942
25,41743,37350
25,42157,36579
25,42568,36261
25,42980,35680
25,43392,33986
25,43805,35422
25,44217,34594
25,44628,32561
25,45042,31875
25,45453,32813
25,45865,33785
25,46278,32645
25,46690,33644
25,47102,30913
25,47515,31388
25,47927,32315
25,48338,31846
25,48752,31426
25,49163,31933
25,49575,30853
25,49988,32631
25,50400,32452
25,50812,32220
25,51225,29650
25,51637,32829
25,52048,32152
25,52460,34220
25,52873,37478
25,53285,42191
25,53697,47277
25,54110,56813
25,54522,70137
25,54933,92089
25,55347,120543
25,55758,157858
25,56170,201759
25,56583,262472
25,56995,327153
25,57407,408620
25,57820,507606
25,58232,610273
25,58643,712828
25,59057,805134
25,59468,896836
25,59880,963522
25,60293,1015119
25,60705,1032751
25,61117,1032650
25,61528,1022176
25,61942,973682
25,62353,921008
25,62765,855902
25,63178,799049
25,63590,728409
25,64002,661597
25,64415,607266
25,64827,549193
25,65238,500339
25,65652,458452
25,66063,414047
25,66475,374876
25,66888,347049
25,67300,318458
25,67712,292625
25,68125,274936
25,68537,252793
25,68948,234393
25,69362,217718
25,69773,205550
25,70185,196011
25,70597,183616
25,71010,172918
25,71422,160601
25,71833,152406
25,72247,145274
25,72658,139402
25,73070,132300
25,73483,126856
25,73895,121181
25,74307,119686
25,74720,110056
25,75132,105996
25,75543,107666
25,75957,98099
25,76368,96061
25,76780,91797
25,77193,90843
25,77605,86393
25,78017,86007
25,78430,85172
25,78842,81366
25,79253,78025
25,79665,80521
25,80078,78845
25,80490,78788
25,80902,78980
25,81315,81614
25,81727,82484
25,82138,87490
25,82552,86916
25,82963,93678
25,83375,97365
25,83788,98051
25,84200,99897
25,84612,100731
25,85025,99533
25,85437,102343
25,85848,100317
25,86262,99460
25,86673,97850
25,87085,92393
25,87498,87490
25,87910,83245
25,88322,81740
25,88733,76966
25,89147,73982
25,89558,70844
25,89970,69524
25,90383,66377
25,90795,63391
25,91207,61567
25,91620,59080
25,92032,55985
25,92443,54146
25,92857,49764
25,93268,53092
25,93680,48656
25,94093,45553
25,94505,47906
25,94917,48065
25,95330,45233
25,95742,42596
25,96153,42545
25,96567,42101
25,96978,40813
25,97390,38900
25,97802,38855
25,98215,36177
25,98627,37964
25,99038,36860
25,99452,37617
25,99863,37032
26,00275,34421
26,00688,34394
26,01100,35181
26,01512,35914
26,01925,32783
26,02337,33998
26,02748,34347
26,03162,35285
26,03573,32172
26,03985,31592
26,04398,32795
26,04810,31478
26,05222,33415
26,05635,30686
26,06047,30773
26,06458,31467
26,06870,31124
26,07283,31730
26,07695,33033
26,08107,31120
26,08520,30882
26,08932,31031
26,09343,31144
26,09757,30244
26,10168,30097
26,10580,31614
26,10993,30051
26,11405,31612
26,11817,30177
26,12230,28638
26,12642,29557
26,13053,30418
26,13467,28376
26,13878,29125
26,14290,30157
26,14703,29016
26,15115,28790
26,15527,27934
26,15938,29000
26,16352,30457
26,16763,29077
26,17175,28873
26,17588,27006
26,18000,29823
26,18412,28957
26,18825,28685
26,19237,28549
26,19648,29823
26,20062,28669
26,20473,27403
26,20885,27131
26,21298,28336
26,21710,28314
26,22122,26893
26,22535,28363
26,22947,27349
26,23358,26346
26,23772,24566
26,24183,28113
26,24595,25681
26,25007,27197
26,25420,24776
26,25832,26475
26,26243,25280
26,26657,26934
26,27068,26239
26,27480,26448
26,27893,25895
26,28305,25173
26,28717,26209
26,29130,24866
26,29542,26061
26,29953,26709
26,30367,28515
26,30778,26138
26,31190,26851
26,31603,26357
26,32015,26102
26,32427,24729
26,32840,24410
26,33252,26055
26,33663,26211
26,34075,24706
26,34488,25944
26,34900,25113
26,35312,25315
26,35725,24543
26,36137,25611
26,36548,25067
26,36962,24789
26,37373,26930
26,37785,24231
26,38198,24075
26,38610,25016
26,39022,23928
26,39435,24749
26,39847,23515
26,40258,22330
26,40672,27721
26,41083,25322
26,41495,25617
26,41908,21685
26,42320,23150
26,42732,22562
26,43143,23109
26,43557,22569
26,43968,22695
26,44380,23756
26,44793,23243
26,45205,24329
26,45617,24319
26,46030,26710
26,46442,23475
26,46853,25198
26,47267,25649
26,47678,24160
26,48090,23285
26,48503,25328
26,48915,26056
26,49327,23880
26,49740,25227
26,50152,24517
26,50563,24911
26,50977,25082
26,51388,25071
26,51800,24067
26,52213,21179
26,52625,24581
26,53037,24416
26,53448,25148
26,53862,25928
26,54273,23785
26,54685,24386
26,55098,24736
26,55510,24102
26,55922,23849
26,56335,22383
26,56747,24917
26,57158,22446
26,57572,23203
26,57983,22946
26,58395,22900
26,58808,22436
26,59220,23331
26,59632,24063
26,60045,23377
26,60457,21705
26,60868,23924
26,61282,23331
26,61693,24201
26,62105,24374
26,62517,22628
26,62930,24121
26,63342,23717
26,63753,24184
26,64167,23344
26,64578,23846
26,64990,23567
26,65403,25153
26,65815,23313
26,66227,24061
26,66640,23859
26,67052,24965
26,67463,24551
26,67877,24361
26,68288,25188
26,68700,24853
26,69113,24087
26,69525,24488
26,69937,26108
26,70350,24404
26,70762,25033
26,71173,22830
26,71585,25377
26,71998,23613
26,72410,25164
26,72822,22562
26,73235,24247
26,73647,24161
26,74058,24091
26,74472,23724
26,74883,23481
26,75295,24182
26,75708,24195
26,76120,23319
26,76532,24346
26,76945,23144
26,77357,23689
26,77768,22934
26,78182,23709
26,78593,24107
26,79005,22212
26,79418,23555
26,79830,24982
26,80242,23141
26,80653,26243
26,81067,23565
26,81478,24159
26,81890,22446
26,82303,24513
26,82715,23091
26,83127,22764
26,83540,20848
26,83952,24986
26,84363,22822
26,84777,24087
26,85188,24574
26,85600,23704
26,86013,25971
26,86425,22193
26,86837,23775
26,87250,25854
26,87662,23910
26,88073,24285
26,88487,23266
26,88898,23871
26,89310,22777
26,89722,24404
26,90135,23905
26,90547,21888
26,90958,24371
26,91372,23021
26,91783,22356
26,92195,22801
26,92608,25476
26,93020,25132
26,93432,25285
26,93845,24780
26,94257,24411
26,94668,23972
26,95082,23230
26,95493,23373
26,95905,22766
26,96318,24282
26,96730,23926
26,97142,24987
26,97555,23350
26,97967,24653
26,98378,22300
26,98790,22677
26,99203,23112
26,99615,23746
27,00027,24022
27,00440,23524
27,00852,23165
27,01263,23969
27,01677,24049
27,02088,25687
27,02500,24482
27,02913,23443
27,03325,22565
27,03737,24449
27,04150,24493
27,04562,24313
27,04973,25048
27,05387,24251
27,05798,23974
27,06210,25170
27,06623,24752
27,07035,23689
27,07447,24514
27,07858,23333
27,08272,21824
27,08683,25772
27,09095,24411
27,09508,25296
27,09920,24526
27,10332,23709
27,10745,23650
27,11157,24193
27,11568,25025
27,11982,24538
27,12393,24105
27,12805,22769
27,13218,24446
27,13630,23191
27,14042,23110
27,14455,23235
27,14867,25597
27,15278,23868
27,15692,24519
27,16103,24958
27,16515,24018
27,16927,23504
27,17340,23110
27,17752,23405
27,18163,23486
27,18577,24388
27,18988,24824
27,19400,24335
27,19813,25542
27,20225,24704
27,20637,25306
27,21050,23819
27,21462,24442
27,21873,23953
27,22287,23715
27,22698,22308
27,23110,24774
27,23523,24804
27,23935,23798
27,24347,22685
27,24760,24899
27,25172,24614
27,25583,22770
27,25995,25586
27,26408,24514
27,26820,24158
27,27232,26474
27,27645,27413
27,28057,28387
27,28468,29421
27,28882,33568
27,29293,37504
27,29705,46282
27,30118,55762
27,30530,69846
27,30942,86530
27,31355,111906
27,31767,145238
27,32178,181950
27,32592,229762
27,33003,281276
27,33415,341575
27,33828,400776
27,34240,448403
27,34652,503110
27,35063,539870
27,35477,562023
27,35888,591402
27,36300,592038
27,36713,590167
27,37125,572194
27,37537,555290
27,37950,523250
27,38362,494359
27,38773,453287
27,39187,418676
27,39598,379781
27,40010,354400
27,40423,318744
27,40835,288753
27,41247,267329
27,41660,236579
27,42072,221732
27,42483,203729
27,42897,184159
27,43308,170444
27,43720,156859
27,44132,147045
27,44545,134970
27,44957,127816
27,45368,117811
27,45782,113012
27,46193,104258
27,46605,99484
27,47018,92058
27,47430,88177
27,47842,85655
27,48255,83147
27,48667,75232
27,49078,74508
27,49492,73353
27,49903,67921
27,50315,64057
27,50728,62651
27,51140,62026
27,51552,60934
27,51965,57421
27,52377,56985
27,52788,54528
27,53200,54703
27,53613,52373
27,54025,52308
27,54437,50275
27,54850,48040
27,55262,49681
27,55673,47847
27,56087,46393
27,56498,46652
27,56910,44630
27,57323,45631
27,57735,44850
27,58147,42745
27,58560,42460
27,58972,44342
27,59383,44811
27,59797,43084
27,60208,41425
27,60620,41112
27,61033,41241
27,61445,40773
27,61857,40656
27,62268,39172
27,62682,39192
27,63093,39419
27,63505,38653
27,63918,38446
27,64330,36586
27,64742,36554
27,65155,38624
27,65567,36326
27,65978,35246
27,66392,36735
27,66803,36967
27,67215,36560
27,67628,34567
27,68040,33338
27,68452,34606
27,68865,33579
27,69277,34920
27,69688,33594
27,70102,32586
27,70513,34643
27,70925,34212
27,71337,34678
27,71750,33677
27,72162,32831
27,72573,31982
27,72987,34992
27,73398,32729
27,73810,35522
27,74223,31717
27,74635,33076
27,75047,30157
27,75460,31815
27,75872,31195
27,76283,28327
27,76697,31023
27,77108,31643
27,77520,32722
27,77933,31686
27,78345,34271
27,78757,32956
27,79170,29556
27,79582,30548
27,79993,29036
27,80405,32640
27,80818,32703
27,81230,31634
27,81642,32679
27,82055,31616
27,82467,31764
27,82878,31059
27,83292,32601
27,83703,32685
27,84115,30367
27,84528,31423
27,84940,31260
27,85352,31303
27,85765,29208
27,86177,31498
27,86588,33072
27,87002,30567
27,87413,31312
27,87825,32248
27,88238,29589
27,88650,30550
27,89062,32662
27,89473,31690
27,89887,29892
27,90298,31522
27,90710,30745
27,91123,30022
27,91535,32164
27,91947,30518
27,92360,31295
27,92772,29811
27,93183,30927
27,93597,32159
27,94008,30910
27,94420,30340
27,94833,29473
27,95245,30095
27,95657,29235
27,96070,29743
27,96482,30976
27,96893,27902
27,97307,32121
27,97718,31565
27,98130,31485
27,98542,28422
27,98955,29717
27,99367,30399
27,99778,29204
28,00192,30161
28,00603,30888
28,01015,29914
28,01428,31105
28,01840,30631
28,02252,31595
28,02665,32850
28,03077,31600
28,03488,29067
28,03902,30871
28,04313,31557
28,04725,31060
28,05138,30264
28,05550,30739
28,05962,30566
28,06375,30025
28,06787,30199
28,07198,30495
28,07610,29854
28,08023,29862
28,08435,28908
28,08847,30018
28,09260,29821
28,09672,27455
28,10083,29593
28,10497,28003
28,10908,29859
28,11320,30649
28,11733,28254
28,12145,29411
28,12557,31322
28,12970,32517
28,13382,30067
28,13793,30200
28,14207,31727
28,14618,30300
28,15030,29047
28,15443,29778
28,15855,29388
28,16267,31621
28,16680,32422
28,17092,28909
28,17503,29434
28,17915,28988
28,18328,31364
28,18740,27100
28,19152,29209
28,19565,32101
28,19977,30265
28,20388,28939
28,20802,32724
28,21213,32090
28,21625,31564
28,22038,30386
28,22450,28625
28,22862,31741
28,23275,32172
28,23687,32023
28,24098,31970
28,24512,31358
28,24923,31560
28,25335,30518
28,25748,33625
28,26160,32604
28,26572,34049
28,26983,32873
28,27397,31617
28,27808,30750
28,28220,34281
28,28633,31680
28,29045,33577
28,29457,32403
28,29870,31300
28,30282,31426
28,30693,31133
28,31107,32488
28,31518,31331
28,31930,33060
28,32343,32148
28,32755,30283
28,33167,33201
28,33580,31173
28,33992,31676
28,34403,30646
28,34817,33058
28,35228,30866
28,35640,32929
28,36052,30042
28,36465,30937
28,36877,30228
28,37288,30930
28,37702,31867
28,38113,31911
28,38525,30780
28,38938,32556
28,39350,30002
28,39762,30308
28,40175,31238
28,40587,32737
28,40998,32964
28,41412,31340
28,41823,31931
28,42235,31434
28,42648,33613
28,43060,34490
28,43472,33437
28,43885,33332
28,44297,33316
28,44708,35178
28,45120,32259
28,45533,32928
28,45945,32698
28,46357,33514
28,46770,32118
28,47182,32411
28,47593,31906
28,48007,31085
28,48418,34614
28,48830,31649
28,49243,31715
28,49655,34569
28,50067,33269
28,50480,32664
28,50892,33498
28,51303,30562
28,51717,33104
28,52128,33777
28,52540,32519
28,52953,34060
28,53365,33532
28,53777,34856
28,54188,33892
28,54602,33266
28,55013,33021
28,55425,30691
28,55838,33138
28,56250,32748
28,56662,32173
28,57075,30354
28,57487,33582
28,57898,30498
28,58312,34048
28,58723,32748
28,59135,32021
28,59548,33203
28,59960,31429
28,60372,31259
28,60785,31495
28,61197,29173
28,61608,30069
28,62022,33395
28,62433,32077
28,62845,30165
28,63257,33328
28,63670,32683
28,64082,34667
28,64493,31066
28,64907,31672
28,65318,29217
28,65730,33587
28,66143,29438
28,66555,30537
28,66967,31948
28,67380,33059
28,67792,31354
28,68203,29995
28,68617,31894
28,69028,32588
28,69440,33465
28,69853,31390
28,70265,31086
28,70677,32963
28,71090,35507
28,71502,32223
28,71913,31502
28,72325,32512
28,72738,32944
28,73150,32285
28,73562,31962
28,73975,32260
28,74387,32296
28,74798,32239
28,75212,34918
28,75623,31991
28,76035,32489
28,76448,34400
28,76860,32608
28,77272,31642
28,77685,31578
28,78097,32954
28,78508,35249
28,78922,32605
28,79333,34630
28,79745,36358
28,80158,32818
28,80570,31564
28,80982,33030
28,81393,33813
28,81807,34162
28,82218,34453
28,82630,34460
28,83043,34716
28,83455,34182
28,83867,31289
28,84280,32810
28,84692,31288
28,85103,31373
28,85517,33010
28,85928,32036
28,86340,32654
28,86753,33132
28,87165,32626
28,87577,32975
28,87990,35414
28,88402,33267
28,88813,34431
28,89227,33031
28,89638,33847
28,90050,34751
28,90462,35431
28,90875,34460
28,91287,34901
28,91698,34916
28,92112,33514
28,92523,33797
28,92935,33987
28,93348,34525
28,93760,35259
28,94172,34277
28,94585,34661
28,94997,33086
28,95408,32767
28,95822,31532
28,96233,35848
28,96645,34388
28,97058,32463
28,97470,34172
28,97882,34933
28,98295,37091
28,98707,36635
28,99118,35705
28,99530,35952
28,99943,35753
29,00355,35488
29,00767,36235
29,01180,37871
29,01592,36941
29,02003,37573
29,02417,36272
29,02828,37771
29,03240,36557
29,03653,36553
29,04065,37402
29,04477,37182
