D:\MassHunter\GCMS\1\data\Amal\Constant flow\140C\140C_1ml-min_4C-min_3.D Fri Sep 13 15:46:20 2024
Start of data points
4,84088	6222640
4,84500	5789058
4,84912	5600195
4,85325	5304056
4,85737	4942039
4,86148	4748506
4,86562	4408995
4,86973	4218748
4,87385	3972635
4,87798	3762193
4,88210	3625720
4,88622	3452730
4,89035	3291346
4,89447	3114848
4,89858	2910209
4,90272	2756642
4,90683	2615914
4,91095	2498670
4,91508	2381216
4,91920	2293129
4,92332	2168089
4,92745	2066944
4,93157	1937747
4,93568	1841439
4,93980	1757425
4,94393	1679632
4,94805	1592762
4,95217	1515297
4,95630	1447505
4,96042	1394646
4,96453	1306554
4,96867	1252997
4,97278	1199660
4,97690	1141440
4,98103	1098225
4,98515	1038062
4,98927	993873
4,99340	966206
4,99752	919471
5,00163	902133
5,00577	891698
5,00988	932331
5,01400	999792
5,01813	1103766
5,02225	1224339
5,02637	1330273
5,03048	1426524
5,03462	1450393
5,03873	1466279
5,04285	1450467
5,04698	1434469
5,05110	1400981
5,05522	1350449
5,05935	1308880
5,06347	1273298
5,06758	1242229
5,07172	1189684
5,07583	1148289
5,07995	1107702
5,08408	1064906
5,08820	1032235
5,09232	1016665
5,09645	981068
5,10057	937657
5,10468	908555
5,10882	879762
5,11293	854603
5,11705	832673
5,12117	801259
5,12530	778862
5,12942	746680
5,13353	728753
5,13767	703480
5,14178	689022
5,14590	672324
5,15003	642791
5,15415	623299
5,15827	611054
5,16240	593729
5,16652	571233
5,17063	552613
5,17477	529124
5,17888	515608
5,18300	494973
5,18713	474763
5,19125	457944
5,19537	433764
5,19950	422189
5,20362	403474
5,20773	386691
5,21185	369463
5,21598	351894
5,22010	337958
5,22422	326785
5,22835	311054
5,23247	298612
5,23658	290330
5,24072	275264
5,24483	267655
5,24895	256108
5,25308	243738
5,25720	235975
5,26132	228386
5,26545	219102
5,26957	215578
5,27368	207157
5,27782	200312
5,28193	192970
5,28605	185865
5,29018	183786
5,29430	180881
5,29842	173263
5,30253	169672
5,30667	164875
5,31078	159627
5,31490	157048
5,31903	156159
5,32315	151036
5,32727	152083
5,33140	146473
5,33552	140847
5,33963	143183
5,34377	141895
5,34788	136648
5,35200	136791
5,35613	135856
5,36025	129606
5,36437	128727
5,36850	128398
5,37262	129398
5,37673	125108
5,38087	125828
5,38498	124979
5,38910	123403
5,39322	120418
5,39735	120096
5,40147	122981
5,40558	117870
5,40972	117153
5,41383	118177
5,41795	117184
5,42208	114209
5,42620	114773
5,43032	112137
5,43445	112512
5,43857	112602
5,44268	110894
5,44682	112982
5,45093	106588
5,45505	109886
5,45918	107726
5,46330	108477
5,46742	106671
5,47155	106060
5,47567	106583
5,47978	106885
5,48390	104441
5,48803	102339
5,49215	104785
5,49627	105115
5,50040	102313
5,50452	101479
5,50863	99157
5,51277	96361
5,51688	97000
5,52100	98525
5,52513	99871
5,52925	97245
5,53337	96553
5,53750	94410
5,54162	96368
5,54573	97425
5,54987	95650
5,55398	96831
5,55810	96300
5,56223	95068
5,56635	94444
5,57047	94415
5,57458	95028
5,57872	92300
5,58283	89728
5,58695	92248
5,59108	91040
5,59520	90831
5,59932	89505
5,60345	89798
5,60757	92067
5,61168	90409
5,61582	91793
5,61993	91131
5,62405	92543
5,62818	91340
5,63230	90336
5,63642	92965
5,64055	91390
5,64467	90604
5,64878	89215
5,65292	92313
5,65703	87732
5,66115	88882
5,66527	87785
5,66940	87089
5,67352	87689
5,67763	87718
5,68177	88015
5,68588	87809
5,69000	86249
5,69413	86818
5,69825	84877
5,70237	85606
5,70650	86534
5,71062	83485
5,71473	81777
5,71887	85747
5,72298	83150
5,72710	84154
5,73123	81960
5,73535	83531
5,73947	83939
5,74360	81295
5,74772	83126
5,75183	82850
5,75595	83672
5,76008	80793
5,76420	80405
5,76832	79561
5,77245	82766
5,77657	79931
5,78068	80311
5,78482	77725
5,78893	78385
5,79305	80452
5,79718	83893
5,80130	87463
5,80542	96462
5,80955	119953
5,81367	163352
5,81778	234787
5,82192	346776
5,82603	481741
5,83015	641685
5,83428	803783
5,83840	950080
5,84252	1084764
5,84663	1164233
5,85077	1225200
5,85488	1241457
5,85900	1251386
5,86313	1240114
5,86725	1213646
5,87137	1193101
5,87550	1164803
5,87962	1133242
5,88373	1100419
5,88787	1052306
5,89198	1025084
5,89610	999056
5,90023	963353
5,90435	933971
5,90847	913843
5,91260	874018
5,91672	848639
5,92083	819958
5,92497	801128
5,92908	770514
5,93320	745819
5,93732	710705
5,94145	695740
5,94557	672561
5,94968	640097
5,95382	617369
5,95793	598077
5,96205	574160
5,96618	556720
5,97030	525663
5,97442	502431
5,97855	480837
5,98267	459171
5,98678	426248
5,99092	410137
5,99503	388136
5,99915	362009
6,00328	340982
6,00740	319366
6,01152	303341
6,01565	283036
6,01977	270016
6,02388	253672
6,02800	238010
6,03213	226308
6,03625	214532
6,04037	193078
6,04450	188399
6,04862	179794
6,05273	168898
6,05687	160783
6,06098	152863
6,06510	145272
6,06923	141596
6,07335	131610
6,07747	126174
6,08160	122425
6,08572	116343
6,08983	116170
6,09397	112155
6,09808	107511
6,10220	103409
6,10633	101629
6,11045	98361
6,11457	94347
6,11868	92658
6,12282	90186
6,12693	88688
6,13105	88205
6,13518	84656
6,13930	82390
6,14342	83650
6,14755	81097
6,15167	78843
6,15578	76832
6,15992	76418
6,16403	78611
6,16815	71130
6,17228	74687
6,17640	68975
6,18052	70035
6,18465	72420
6,18877	68637
6,19288	68674
6,19702	66045
6,20113	67637
6,20525	65136
6,20937	67245
6,21350	65719
6,21762	63009
6,22173	66603
6,22587	63834
6,22998	64760
6,23410	62362
6,23823	65592
6,24235	63291
6,24647	62971
6,25060	63294
6,25472	63976
6,25883	61941
6,26297	61114
6,26708	62716
6,27120	61494
6,27533	61415
6,27945	61438
6,28357	61993
6,28770	61654
6,29182	62032
6,29593	59686
6,30005	59482
6,30418	57160
6,30830	61648
6,31242	61262
6,31655	60916
6,32067	57871
6,32478	59130
6,32892	56888
6,33303	56010
6,33715	57285
6,34128	56366
6,34540	55885
6,34952	56331
6,35365	55243
6,35777	54510
6,36188	54499
6,36602	55193
6,37013	52807
6,37425	55140
6,37838	53577
6,38250	54902
6,38662	54137
6,39075	57748
6,39487	60664
6,39898	69784
6,40310	84940
6,40723	112655
6,41135	153854
6,41547	207650
6,41960	281172
6,42372	356228
6,42783	439865
6,43197	515895
6,43608	582939
6,44020	625472
6,44433	662476
6,44845	692645
6,45257	697016
6,45670	687806
6,46082	686793
6,46493	671886
6,46907	659876
6,47318	639958
6,47730	626360
6,48143	608768
6,48555	591220
6,48967	569959
6,49378	549755
6,49792	529270
6,50203	512779
6,50615	502281
6,51028	480905
6,51440	465472
6,51852	448935
6,52265	426789
6,52677	416485
6,53088	404169
6,53502	384801
6,53913	369903
6,54325	354134
6,54738	336516
6,55150	318140
6,55562	309615
6,55975	289821
6,56387	279085
6,56798	262246
6,57212	241488
6,57623	231589
6,58035	215891
6,58447	206815
6,58860	190299
6,59272	179099
6,59683	168817
6,60097	162888
6,60508	149804
6,60920	138110
6,61333	135797
6,61745	125867
6,62157	119150
6,62570	110862
6,62982	104312
6,63393	101974
6,63807	98868
6,64218	95162
6,64630	90171
6,65043	86462
6,65455	81756
6,65867	81274
6,66280	77866
6,66692	77190
6,67103	74091
6,67515	72159
6,67928	68968
6,68340	68514
6,68752	68422
6,69165	67249
6,69577	61628
6,69988	62138
6,70402	61752
6,70813	60905
6,71225	57986
6,71638	58076
6,72050	57808
6,72462	55294
6,72875	58800
6,73287	53739
6,73698	54507
6,74112	54048
6,74523	54574
6,74935	52016
6,75348	51932
6,75760	52508
6,76172	53693
6,76583	50994
6,76997	50763
6,77408	49394
6,77820	50137
6,78233	50276
6,78645	50932
6,79057	49867
6,79470	49855
6,79882	49863
6,80293	48881
6,80707	49509
6,81118	48747
6,81530	47785
6,81943	49410
6,82355	47184
6,82767	50308
6,83180	47687
6,83592	47668
6,84003	46582
6,84417	46274
6,84828	45751
6,85240	45116
6,85652	45257
6,86065	45687
6,86477	46777
6,86888	44741
6,87302	44127
6,87713	44278
6,88125	41958
6,88538	43884
6,88950	44796
6,89362	44404
6,89775	43605
6,90187	43941
6,90598	44797
6,91012	41962
6,91423	43515
6,91835	41736
6,92248	39804
6,92660	40614
6,93072	41217
6,93485	41081
6,93897	41085
6,94308	39945
6,94720	40304
6,95133	40365
6,95545	39829
6,95957	39962
6,96370	41988
6,96782	38429
6,97193	39519
6,97607	39901
6,98018	40848
6,98430	38741
6,98843	40213
6,99255	37675
6,99667	38732
7,00080	39368
7,00492	41332
7,00903	38956
7,01317	38071
7,01728	39994
7,02140	38075
7,02553	38021
7,02965	38598
7,03377	39375
7,03788	36716
7,04202	40610
7,04613	40335
7,05025	39259
7,05438	40661
7,05850	39023
7,06262	39575
7,06675	38333
7,07087	39232
7,07498	38529
7,07912	37955
7,08323	38558
7,08735	39150
7,09148	37743
7,09560	39623
7,09972	36821
7,10385	37992
7,10797	37321
7,11208	36932
7,11622	37395
7,12033	39027
7,12445	40152
7,12857	45510
7,13270	50403
7,13682	64483
7,14093	94180
7,14507	135659
7,14918	199518
7,15330	292044
7,15743	416110
7,16155	560804
7,16567	723010
7,16980	883049
7,17392	1041829
7,17803	1190416
7,18217	1303526
7,18628	1400057
7,19040	1454658
7,19453	1487332
7,19865	1490811
7,20277	1477262
7,20690	1452785
7,21102	1429168
7,21513	1384684
7,21925	1343619
7,22338	1298177
7,22750	1247983
7,23162	1212402
7,23575	1169599
7,23987	1118550
7,24398	1068460
7,24812	1021594
7,25223	975842
7,25635	944611
7,26048	905793
7,26460	861319
7,26872	818099
7,27285	771578
7,27697	727290
7,28108	684536
7,28522	645995
7,28933	608234
7,29345	570296
7,29758	526533
7,30170	491659
7,30582	454957
7,30993	423538
7,31407	391663
7,31818	356955
7,32230	332082
7,32643	298672
7,33055	280911
7,33467	260706
7,33880	238128
7,34292	218858
7,34703	201274
7,35117	184928
7,35528	175366
7,35940	161322
7,36353	151042
7,36765	142152
7,37177	131311
7,37590	121731
7,38002	117179
7,38413	104278
7,38827	103878
7,39238	95415
7,39650	91050
7,40062	85082
7,40475	81524
7,40887	77808
7,41298	76533
7,41712	71380
7,42123	67915
7,42535	67399
7,42948	64156
7,43360	62125
7,43772	61121
7,44185	59364
7,44597	57882
7,45008	55038
7,45422	56143
7,45833	51935
7,46245	50538
7,46658	49476
7,47070	49355
7,47482	46596
7,47895	49462
7,48307	45722
7,48718	44196
7,49130	46310
7,49543	46983
7,49955	45608
7,50367	43495
7,50780	46009
7,51192	42142
7,51603	41345
7,52017	41767
7,52428	40086
7,52840	40699
7,53253	42356
7,53665	41863
7,54077	39083
7,54490	39903
7,54902	39304
7,55313	39876
7,55727	39687
7,56138	38200
7,56550	37192
7,56963	39598
7,57375	37280
7,57787	38620
7,58198	37196
7,58612	37550
7,59023	36837
7,59435	35557
7,59848	37325
7,60260	34861
7,60672	36635
7,61085	37079
7,61497	36497
7,61908	35359
7,62322	35255
7,62733	34971
7,63145	35759
7,63558	35286
7,63970	34816
7,64382	34941
7,64795	33322
7,65207	35170
7,65618	33853
7,66032	34071
7,66443	34553
7,66855	33453
7,67267	33947
7,67680	32865
7,68092	34743
7,68503	31732
7,68917	33289
7,69328	32515
7,69740	31716
7,70153	32145
7,70565	32416
7,70977	30982
7,71390	31936
7,71802	30617
7,72213	32460
7,72627	33460
7,73038	31719
7,73450	30428
7,73863	30703
7,74275	30780
7,74687	30955
7,75100	30336
7,75512	29740
7,75923	31604
7,76335	30344
7,76748	30232
7,77160	31692
7,77572	30001
7,77985	29268
7,78397	30993
7,78808	30354
7,79222	31123
7,79633	30826
7,80045	29706
7,80458	29591
7,80870	29454
7,81282	31191
7,81695	31573
7,82107	30331
7,82518	31145
7,82932	29485
7,83343	30266
7,83755	28773
7,84168	30206
7,84580	30622
7,84992	30122
7,85403	30049
7,85817	31071
7,86228	29811
7,86640	28545
7,87053	29952
7,87465	30022
7,87877	29033
7,88290	29821
7,88702	28870
7,89113	28457
7,89527	27541
7,89938	27926
7,90350	28399
7,90763	27909
7,91175	29153
7,91587	27636
7,92000	28552
7,92412	27625
7,92823	27423
7,93237	28278
7,93648	29939
7,94060	28950
7,94473	29775
7,94885	28644
7,95297	30146
7,95708	29895
7,96122	30708
7,96533	31061
7,96945	31825
7,97358	32796
7,97770	32455
7,98182	32893
7,98595	32599
7,99007	33584
7,99418	33894
7,99832	34067
8,00243	32697
8,00655	32626
8,01068	33154
8,01480	34247
8,01892	35942
8,02305	37027
8,02717	44176
8,03128	50589
8,03542	65079
8,03953	85954
8,04365	123871
8,04777	165676
8,05190	227197
8,05602	300375
8,06013	376749
8,06427	459949
8,06838	548453
8,07250	635913
8,07663	696804
8,08075	749068
8,08487	795126
8,08900	821155
8,09312	838543
8,09723	841429
8,10137	826141
8,10548	821477
8,10960	806178
8,11373	773222
8,11785	741893
8,12197	723557
8,12610	699037
8,13022	664660
8,13433	636615
8,13845	604220
8,14258	575856
8,14670	541320
8,15082	513590
8,15495	486269
8,15907	447228
8,16318	428818
8,16732	401244
8,17143	364522
8,17555	344194
8,17968	320653
8,18380	293271
8,18792	268347
8,19205	244252
8,19617	221653
8,20028	205459
8,20442	187052
8,20853	172129
8,21265	157731
8,21678	145636
8,22090	136432
8,22502	122676
8,22913	115007
8,23327	104814
8,23738	97827
8,24150	87174
8,24563	86271
8,24975	80020
8,25387	76117
8,25800	71560
8,26212	67579
8,26623	65377
8,27037	61085
8,27448	58251
8,27860	56548
8,28273	53658
8,28685	51218
8,29097	49677
8,29510	48021
8,29922	47258
8,30333	44572
8,30747	42805
8,31158	44190
8,31570	42091
8,31982	39895
8,32395	39954
8,32807	39099
8,33218	36587
8,33632	35764
8,34043	35343
8,34455	34771
8,34868	34858
8,35280	32865
8,35692	33033
8,36105	33159
8,36517	34794
8,36928	32654
8,37342	34253
8,37753	32387
8,38165	31937
8,38578	30837
8,38990	31397
8,39402	30287
8,39815	30495
8,40227	30701
8,40638	29631
8,41050	30073
8,41463	30292
8,41875	28592
8,42287	30911
8,42700	27605
8,43112	29318
8,43523	27666
8,43937	27203
8,44348	27986
8,44760	28817
8,45173	28103
8,45585	27180
8,45997	27076
8,46410	28615
8,46822	28427
8,47233	28211
8,47647	24987
8,48058	25649
8,48470	26878
8,48883	26433
8,49295	25880
8,49707	25127
8,50118	24754
8,50532	26667
8,50943	25706
8,51355	24409
8,51768	26424
8,52180	26292
8,52592	25109
8,53005	24429
8,53417	26394
8,53828	26115
8,54242	24868
8,54653	24156
8,55065	25050
8,55478	25486
8,55890	26654
8,56302	27110
8,56715	27893
8,57127	28390
8,57538	27950
8,57952	28164
8,58363	27583
8,58775	26683
8,59187	27408
8,59600	27868
8,60012	28305
8,60423	28451
8,60837	28380
8,61248	27210
8,61660	28279
8,62073	27019
8,62485	27441
8,62897	26657
8,63310	25759
8,63722	26385
8,64133	24606
8,64547	25813
8,64958	24599
8,65370	26092
8,65783	25719
8,66195	24614
8,66607	24297
8,67020	24717
8,67432	24508
8,67843	25485
8,68255	22565
8,68668	23057
8,69080	25040
8,69492	22710
8,69905	23440
8,70317	23250
8,70728	23045
8,71142	22595
8,71553	24512
8,71965	23482
8,72378	21824
8,72790	23246
8,73202	23167
8,73615	22205
8,74027	22726
8,74438	21879
8,74852	20683
8,75263	20541
8,75675	22292
8,76088	22191
8,76500	20500
8,76912	21457
8,77323	22826
8,77737	19905
8,78148	22362
8,78560	21647
8,78973	20489
8,79385	22958
8,79797	21175
8,80210	22292
8,80622	21121
8,81033	21097
8,81447	20594
8,81858	21247
8,82270	22520
8,82683	19302
8,83095	19475
8,83507	19648
8,83920	21091
8,84332	20671
8,84743	21189
8,85157	21615
8,85568	21095
8,85980	21612
8,86392	22349
8,86805	23162
8,87217	21211
8,87628	23076
8,88042	24314
8,88453	22733
8,88865	22992
8,89278	24795
8,89690	24734
8,90102	25127
8,90515	25418
8,90927	25351
8,91338	24531
8,91752	25548
8,92163	25154
8,92575	24784
8,92988	26523
8,93400	24724
8,93812	24136
8,94225	24804
8,94637	23577
8,95048	22649
8,95460	24047
8,95873	23360
8,96285	23477
8,96697	24749
8,97110	22039
8,97522	24194
8,97933	21755
8,98347	22137
8,98758	22280
8,99170	22801
8,99583	22413
8,99995	23034
9,00407	22529
9,00820	21589
9,01232	20622
9,01643	21829
9,02057	21848
9,02468	21799
9,02880	21519
9,03293	21273
9,03705	20835
9,04117	21009
9,04528	21365
9,04942	21695
9,05353	22369
9,05765	24621
9,06178	27741
9,06590	34568
9,07002	45333
9,07415	66086
9,07827	99142
9,08238	147827
9,08652	216316
9,09063	315847
9,09475	437973
9,09888	588276
9,10300	753845
9,10712	939529
9,11125	1134855
9,11537	1300616
9,11948	1468590
9,12362	1607105
9,12773	1708375
9,13185	1802567
9,13597	1867796
9,14010	1888166
9,14422	1877389
9,14833	1850400
9,15247	1824470
9,15658	1766346
9,16070	1697127
9,16483	1631322
9,16895	1544869
9,17307	1464385
9,17720	1368324
9,18132	1289182
9,18543	1204419
9,18957	1118051
9,19368	1026366
9,19780	940578
9,20193	862923
9,20605	783192
9,21017	718115
9,21430	645764
9,21842	586152
9,22253	528331
9,22665	473068
9,23078	425020
9,23490	381622
9,23902	348181
9,24315	311858
9,24727	281858
9,25138	251461
9,25552	238162
9,25963	211819
9,26375	193246
9,26788	176239
9,27200	167294
9,27612	149891
9,28025	140185
9,28437	131951
9,28848	123099
9,29262	114777
9,29673	106727
9,30085	104586
9,30498	94911
9,30910	90227
9,31322	85663
9,31733	87070
9,32147	80807
9,32558	77861
9,32970	74188
9,33383	72066
9,33795	67035
9,34207	66340
9,34620	63277
9,35032	60377
9,35443	57737
9,35857	56035
9,36268	52248
9,36680	53310
9,37093	50985
9,37505	49379
9,37917	49589
9,38330	45383
9,38742	43515
9,39153	42592
9,39567	42480
9,39978	42234
9,40390	39686
9,40802	38149
9,41215	39144
9,41627	37464
9,42038	36144
9,42452	35763
9,42863	34047
9,43275	36081
9,43688	33428
9,44100	32276
9,44512	31794
9,44925	32144
9,45337	32256
9,45748	32033
9,46162	29288
9,46573	30583
9,46985	28914
9,47398	29404
9,47810	28073
9,48222	27226
9,48635	28918
9,49047	28765
9,49458	27951
9,49870	27928
9,50283	27751
9,50695	27488
9,51107	28936
9,51520	29075
9,51932	29341
9,52343	28777
9,52757	29475
9,53168	28893
9,53580	29761
9,53993	31160
9,54405	29541
9,54817	30411
9,55230	28909
9,55642	28015
9,56053	26747
9,56467	27355
9,56878	28357
9,57290	26552
9,57703	26050
9,58115	25087
9,58527	27285
9,58940	25357
9,59352	26662
9,59763	24650
9,60175	25203
9,60588	25146
9,61000	22529
9,61412	24305
9,61825	22487
9,62237	22986
9,62648	24537
9,63062	23281
9,63473	23040
9,63885	21832
9,64298	22103
9,64710	23267
9,65122	22518
9,65535	22114
9,65947	21030
9,66358	22482
9,66772	21314
9,67183	22567
9,67595	22403
9,68008	22196
9,68420	21717
9,68832	22749
9,69243	23618
9,69657	24033
9,70068	23551
9,70480	22494
9,70893	23167
9,71305	22515
9,71717	23300
9,72130	23591
9,72542	22748
9,72953	22472
9,73367	22335
9,73778	21470
9,74190	22685
9,74603	19892
9,75015	20759
9,75427	20241
9,75840	21440
9,76252	19296
9,76663	19330
9,77077	20596
9,77488	19184
9,77900	19638
9,78312	19525
9,78725	19582
9,79137	18141
9,79548	18503
9,79962	18368
9,80373	19874
9,80785	18419
9,81198	18166
9,81610	17096
9,82022	19167
9,82435	18276
9,82847	16893
9,83258	17070
9,83672	18559
9,84083	18145
9,84495	18402
9,84908	18202
9,85320	16583
9,85732	18120
9,86145	15491
9,86557	18248
9,86968	16879
9,87380	17293
9,87793	18117
9,88205	18141
9,88617	17592
9,89030	17339
9,89442	16834
9,89853	16986
9,90267	18947
9,90678	21401
9,91090	22440
9,91503	29013
9,91915	39170
9,92327	49771
9,92740	70685
9,93152	102272
9,93563	141417
9,93977	189779
9,94388	254536
9,94800	323384
9,95213	409944
9,95625	493551
9,96037	584005
9,96448	668279
9,96862	737859
9,97273	795702
9,97685	855702
9,98098	883616
9,98510	921789
9,98922	926540
9,99335	920038
9,99747	905265
10,00158	883109
10,00572	846988
10,00983	814940
10,01395	767726
10,01808	718554
10,02220	688304
10,02632	633324
10,03045	587453
10,03457	548804
10,03868	501051
10,04282	464085
10,04693	421741
10,05105	378263
10,05517	344382
10,05930	313855
10,06342	274284
10,06753	250272
10,07167	229223
10,07578	203701
10,07990	181315
10,08403	166045
10,08815	151306
10,09227	138975
10,09640	124482
10,10052	117473
10,10463	107156
10,10877	98531
10,11288	91499
10,11700	85396
10,12113	77472
10,12525	73014
10,12937	68755
10,13350	65164
10,13762	61343
10,14173	57780
10,14585	54867
10,14998	51829
10,15410	50097
10,15822	48710
10,16235	44782
10,16647	44191
10,17058	44041
10,17472	41166
10,17883	39278
10,18295	36996
10,18708	36353
10,19120	35910
10,19532	34523
10,19945	33046
10,20357	34317
10,20768	31966
10,21182	32478
10,21593	33071
10,22005	31067
10,22418	32142
10,22830	31474
10,23242	32045
10,23653	36082
10,24067	41919
10,24478	52440
10,24890	70406
10,25303	98776
10,25715	134938
10,26127	185709
10,26540	250539
10,26952	320914
10,27363	413020
10,27777	506745
10,28188	610286
10,28600	695337
10,29013	802748
10,29425	874045
10,29837	943293
10,30250	988443
10,30662	1029186
10,31073	1041303
10,31487	1042641
10,31898	1026893
10,32310	995543
10,32722	969271
10,33135	919236
10,33547	872444
10,33958	819821
10,34372	781170
10,34783	714649
10,35195	654421
10,35608	597229
10,36020	543506
10,36432	494582
10,36845	444640
10,37257	400838
10,37668	356673
10,38082	317248
10,38493	280764
10,38905	254895
10,39318	232548
10,39730	204048
10,40142	184366
10,40555	168516
10,40967	149902
10,41378	136760
10,41790	125772
10,42203	116817
10,42615	104714
10,43027	98894
10,43440	90707
10,43852	89684
10,44263	78886
10,44677	74602
10,45088	69272
10,45500	65010
10,45913	61033
10,46325	60942
10,46737	56950
10,47150	53239
10,47562	50840
10,47973	47779
10,48387	46382
10,48798	43457
10,49210	43698
10,49623	42672
10,50035	38603
10,50447	39061
10,50858	38809
10,51272	39028
10,51683	35064
10,52095	32641
10,52508	33900
10,52920	33222
10,53332	32229
10,53745	31523
10,54157	30821
10,54568	30316
10,54982	28030
10,55393	28665
10,55805	26654
10,56218	27316
10,56630	25925
10,57042	25122
10,57455	26717
10,57867	25923
10,58278	25011
10,58692	23636
10,59103	25706
10,59515	24107
10,59927	22276
10,60340	22100
10,60752	23477
10,61163	22573
10,61577	23004
10,61988	22014
10,62400	22513
10,62813	20642
10,63225	20718
10,63637	19833
10,64050	19959
10,64462	19663
10,64873	20185
10,65287	19731
10,65698	19007
10,66110	20111
10,66523	20057
10,66935	19183
10,67347	20392
10,67760	18886
10,68172	18187
10,68583	18582
10,68995	18610
10,69408	17788
10,69820	18231
10,70232	16944
10,70645	17525
10,71057	18274
10,71468	17883
10,71882	16835
10,72293	17123
10,72705	16979
10,73118	18395
10,73530	16717
10,73942	17574
10,74355	16737
10,74767	16803
10,75178	17660
10,75592	17296
10,76003	16518
10,76415	18086
10,76828	17546
10,77240	16835
10,77652	17356
10,78063	16628
10,78477	16374
10,78888	15748
10,79300	15411
10,79713	15895
10,80125	16253
10,80537	15661
10,80950	15289
10,81362	14573
10,81773	15008
10,82187	15213
10,82598	15152
10,83010	15524
10,83423	15069
10,83835	13987
10,84247	15410
10,84660	14750
10,85072	13991
10,85483	15104
10,85897	15425
10,86308	15442
10,86720	14445
10,87132	15900
10,87545	14350
10,87957	14442
10,88368	16521
10,88782	14635
10,89193	15994
10,89605	14854
10,90018	16465
10,90430	14391
10,90842	14898
10,91255	15309
10,91667	15608
10,92078	14994
10,92492	14069
10,92903	14666
10,93315	15598
10,93728	15007
10,94140	15050
10,94552	15338
10,94965	15753
10,95377	14928
10,95788	14917
10,96200	16176
10,96613	14760
10,97025	14228
10,97437	14838
10,97850	15273
10,98262	14127
10,98673	14934
10,99087	14532
10,99498	14503
10,99910	13214
11,00323	15042
11,00735	14083
11,01147	15883
11,01560	15550
11,01972	14019
11,02383	15108
11,02797	14307
11,03208	13812
11,03620	15378
11,04033	13901
11,04445	14619
11,04857	13992
11,05268	14493
11,05682	14276
11,06093	14332
11,06505	14549
11,06918	13141
11,07330	14446
11,07742	14747
11,08155	12099
11,08567	13518
11,08978	12755
11,09392	13344
11,09803	13018
11,10215	13693
11,10628	12766
11,11040	12180
11,11452	12767
11,11865	13405
11,12277	13566
11,12688	13149
11,13102	13909
11,13513	13123
11,13925	14250
11,14337	14475
11,14750	16067
11,15162	14607
11,15573	16992
11,15987	19632
11,16398	24049
11,16810	33262
11,17223	44605
11,17635	62723
11,18047	90729
11,18460	127100
11,18872	177746
11,19283	237002
11,19697	313585
11,20108	397818
11,20520	485941
11,20933	581846
11,21345	682473
11,21757	773200
11,22170	858317
11,22582	917285
11,22993	962702
11,23407	992093
11,23818	1002727
11,24230	1012803
11,24642	986762
11,25055	960740
11,25467	932906
11,25878	880510
11,26292	824170
11,26703	768148
11,27115	711539
11,27528	654511
11,27940	599052
11,28352	542207
11,28765	484993
11,29177	442219
11,29588	392927
11,30002	347158
11,30413	312244
11,30825	276654
11,31238	252652
11,31650	222358
11,32062	198281
11,32475	178191
11,32887	165160
11,33298	146525
11,33710	134973
11,34123	122343
11,34535	111303
11,34947	105271
11,35360	95095
11,35772	88000
11,36183	82552
11,36597	74577
11,37008	72880
11,37420	67336
11,37833	63467
11,38245	59066
11,38657	56455
11,39070	55672
11,39482	53657
11,39893	50858
11,40307	47755
11,40718	46627
11,41130	45879
11,41543	41520
11,41955	41296
11,42367	41172
11,42778	39284
11,43192	36507
11,43603	34930
11,44015	34803
11,44428	33681
11,44840	33348
11,45252	31180
11,45665	30530
11,46077	29326
11,46488	27173
11,46902	27495
11,47313	28665
11,47725	27960
11,48138	26277
11,48550	24390
11,48962	27496
11,49375	28048
11,49787	31011
11,50198	36550
11,50612	42690
11,51023	64659
11,51435	91538
11,51847	132349
11,52260	196307
11,52672	284295
11,53083	406376
11,53497	561224
11,53908	753847
11,54320	987681
11,54733	1247241
11,55145	1529163
11,55557	1848970
11,55970	2161702
11,56382	2476504
11,56793	2775839
11,57207	3029469
11,57618	3215195
11,58030	3393286
11,58443	3464402
11,58855	3489054
11,59267	3483630
11,59680	3379751
11,60092	3238384
11,60503	3071395
11,60915	2830083
11,61328	2619097
11,61740	2389976
11,62152	2159578
11,62565	1921006
11,62977	1704377
11,63388	1508044
11,63802	1331722
11,64213	1168352
11,64625	1030400
11,65038	915399
11,65450	802572
11,65862	707746
11,66275	630994
11,66687	560416
11,67098	501245
11,67512	448329
11,67923	401992
11,68335	363791
11,68748	333862
11,69160	303132
11,69572	283810
11,69983	258024
11,70397	230502
11,70808	216338
11,71220	203802
11,71633	189199
11,72045	175638
11,72457	168174
11,72870	156267
11,73282	151216
11,73693	142108
11,74107	138330
11,74518	120539
11,74930	117380
11,75343	109666
11,75755	108631
11,76167	103920
11,76580	99260
11,76992	92519
11,77403	90781
11,77817	85107
11,78228	81391
11,78640	76320
11,79052	75760
11,79465	73364
11,79877	70752
11,80288	68666
11,80702	65830
11,81113	62000
11,81525	60619
11,81938	60312
11,82350	59433
11,82762	55352
11,83175	53124
11,83587	50846
11,83998	51230
11,84412	47902
11,84823	48639
11,85235	44927
11,85648	45235
11,86060	43117
11,86472	41926
11,86885	40527
11,87297	38517
11,87708	38795
11,88120	37731
11,88533	37077
11,88945	35312
11,89357	36159
11,89770	34610
11,90182	34489
11,90593	32375
11,91007	32626
11,91418	32542
11,91830	29835
11,92243	31381
11,92655	30133
11,93067	31725
11,93480	29369
11,93892	28697
11,94303	27829
11,94717	28213
11,95128	26399
11,95540	27749
11,95953	25926
11,96365	25651
11,96777	24788
11,97188	24615
11,97602	24090
11,98013	25320
11,98425	24957
11,98838	23413
11,99250	23260
11,99662	24924
12,00075	23429
12,00487	21442
12,00898	23408
12,01312	22308
12,01723	21621
12,02135	22055
12,02548	22294
12,02960	21224
12,03372	21183
12,03785	19850
12,04197	20233
12,04608	20434
12,05022	20820
12,05433	19794
12,05845	19963
12,06257	18863
12,06670	20288
12,07082	19497
12,07493	19674
12,07907	19991
12,08318	18228
12,08730	17527
12,09143	18267
12,09555	18675
12,09967	19189
12,10380	18562
12,10792	18532
12,11203	18719
12,11617	18929
12,12028	18729
12,12440	18466
12,12853	19078
12,13265	17637
12,13677	16856
12,14090	19090
12,14502	17394
12,14913	16602
12,15325	17262
12,15738	16130
12,16150	15729
12,16562	15560
12,16975	15868
12,17387	14951
12,17798	15351
12,18212	16397
12,18623	15485
12,19035	15127
12,19448	16300
12,19860	15263
12,20272	14794
12,20685	14639
12,21097	15243
12,21508	15306
12,21922	14248
12,22333	16229
12,22745	14237
12,23158	16876
12,23570	15748
12,23982	16194
12,24393	16462
12,24807	16575
12,25218	16548
12,25630	17362
12,26043	14935
12,26455	16680
12,26867	14778
12,27280	15248
12,27692	15413
12,28103	15636
12,28517	16255
12,28928	15542
12,29340	16051
12,29753	16588
12,30165	17796
12,30577	18146
12,30990	21843
12,31402	28238
12,31813	40563
12,32227	55433
12,32638	76200
12,33050	108573
12,33462	146735
12,33875	203472
12,34287	270646
12,34698	347506
12,35112	436773
12,35523	535679
12,35935	634141
12,36348	749758
12,36760	844198
12,37172	940324
12,37585	987583
12,37997	1036116
12,38408	1068284
12,38822	1077037
12,39233	1080130
12,39645	1043141
12,40058	999800
12,40470	936336
12,40882	889817
12,41295	816163
12,41707	749941
12,42118	676747
12,42530	625523
12,42943	552804
12,43355	501082
12,43767	445615
12,44180	394737
12,44592	356759
12,45003	311475
12,45417	279050
12,45828	250937
12,46240	230507
12,46653	208816
12,47065	187538
12,47477	172281
12,47890	158840
12,48302	146421
12,48713	132244
12,49127	120155
12,49538	111491
12,49950	102712
12,50363	95028
12,50775	92616
12,51187	86201
12,51598	78689
12,52012	76780
12,52423	71960
12,52835	68041
12,53248	66034
12,53660	62547
12,54072	60651
12,54485	60003
12,54897	56131
12,55308	54419
12,55722	52603
12,56133	49546
12,56545	49751
12,56958	50669
12,57370	46100
12,57782	44131
12,58195	44008
12,58607	41386
12,59018	40246
12,59432	40946
12,59843	38318
12,60255	36014
12,60667	35507
12,61080	34292
12,61492	33850
12,61903	31143
12,62317	30590
12,62728	29244
12,63140	30473
12,63553	28843
12,63965	28546
12,64377	27577
12,64790	27287
12,65202	26025
12,65613	25271
12,66027	24257
12,66438	22570
12,66850	23835
12,67263	23234
12,67675	20113
12,68087	22495
12,68500	20929
12,68912	21567
12,69323	20581
12,69735	20252
12,70148	20371
12,70560	21302
12,70972	19104
12,71385	19348
12,71797	18468
12,72208	18060
12,72622	18849
12,73033	19121
12,73445	17005
12,73858	17270
12,74270	16618
12,74682	16836
12,75095	15832
12,75507	18332
12,75918	16171
12,76332	15355
12,76743	15813
12,77155	15090
12,77568	16323
12,77980	14882
12,78392	15918
12,78803	15950
12,79217	14792
12,79628	15887
12,80040	14353
12,80453	14183
12,80865	14926
12,81277	14564
12,81690	15108
12,82102	15734
12,82513	13207
12,82927	15069
12,83338	15879
12,83750	15558
12,84163	19961
12,84575	21801
12,84987	29461
12,85400	37174
12,85812	53343
12,86223	79180
12,86637	109013
12,87048	156870
12,87460	213073
12,87873	285707
12,88285	374827
12,88697	476631
12,89108	592005
12,89522	706094
12,89933	824520
12,90345	942377
12,90758	1030584
12,91170	1117668
12,91582	1191068
12,91995	1217418
12,92407	1235379
12,92818	1221532
12,93232	1179430
12,93643	1134163
12,94055	1073799
12,94468	987465
12,94880	901497
12,95292	808089
12,95705	735765
12,96117	655492
12,96528	583307
12,96942	515640
12,97353	460681
12,97765	408160
12,98177	353534
12,98590	317088
12,99002	281187
12,99413	249617
12,99827	220459
13,00238	201432
13,00650	178527
13,01063	166468
13,01475	150038
13,01887	137581
13,02300	122621
13,02712	114913
13,03123	102314
13,03537	95546
13,03948	90121
13,04360	83965
13,04773	81987
13,05185	74599
13,05597	71733
13,06010	64746
13,06422	64109
13,06833	60802
13,07245	57322
13,07658	54415
13,08070	51282
13,08482	49083
13,08895	45966
13,09307	43659
13,09718	42393
13,10132	41566
13,10543	40037
13,10955	37968
13,11368	37607
13,11780	36880
13,12192	35511
13,12605	34194
13,13017	32430
13,13428	31601
13,13842	31329
13,14253	30150
13,14665	31259
13,15078	29427
13,15490	28796
13,15902	29201
13,16313	27643
13,16727	28614
13,17138	25683
13,17550	25414
13,17963	24722
13,18375	25102
13,18787	25007
13,19200	24167
13,19612	23546
13,20023	23406
13,20437	22656
13,20848	21238
13,21260	21265
13,21673	23003
13,22085	20251
13,22497	20972
13,22910	21783
13,23322	20030
13,23733	19228
13,24147	19126
13,24558	20128
13,24970	18428
13,25382	19639
13,25795	18204
13,26207	18452
13,26618	17956
13,27032	18782
13,27443	18028
13,27855	16494
13,28268	17185
13,28680	16296
13,29092	16544
13,29505	16465
13,29917	15513
13,30328	15663
13,30742	15021
13,31153	14963
13,31565	15052
13,31978	15191
13,32390	15202
13,32802	14120
13,33215	15039
13,33627	14418
13,34038	14094
13,34450	14006
13,34863	13199
13,35275	13933
13,35687	15141
13,36100	14035
13,36512	13948
13,36923	14419
13,37337	13701
13,37748	13612
13,38160	12943
13,38573	14158
13,38985	13193
13,39397	12864
13,39810	12508
13,40222	12565
13,40633	13837
13,41047	13595
13,41458	12844
13,41870	13791
13,42283	12999
13,42695	12646
13,43107	11881
13,43518	13243
13,43932	11983
13,44343	12358
13,44755	12396
13,45168	13599
13,45580	12539
13,45992	12098
13,46405	11686
13,46817	12437
13,47228	12109
13,47642	12870
13,48053	10952
13,48465	11096
13,48878	11569
13,49290	11834
13,49702	12138
13,50115	10952
13,50527	10781
13,50938	11500
13,51352	11322
13,51763	11609
13,52175	12226
13,52587	10882
13,53000	11137
13,53412	11555
13,53823	11092
13,54237	10967
13,54648	11306
13,55060	10677
13,55473	10859
13,55885	11987
13,56297	12417
13,56710	11828
13,57122	11364
13,57533	11140
13,57947	11079
13,58358	11468
13,58770	11805
13,59183	10641
13,59595	10171
13,60007	10972
13,60420	10878
13,60832	11143
13,61243	10464
13,61655	9887
13,62068	11308
13,62480	11130
13,62892	12309
13,63305	10434
13,63717	10413
13,64128	11144
13,64542	11399
13,64953	10374
13,65365	11419
13,65778	10668
13,66190	11118
13,66602	12994
13,67015	14336
13,67427	16657
13,67838	20464
13,68252	27150
13,68663	38533
13,69075	53473
13,69488	74756
13,69900	107414
13,70312	148464
13,70723	208009
13,71137	282373
13,71548	375076
13,71960	465514
13,72373	576522
13,72785	683973
13,73197	801754
13,73610	911726
13,74022	1003237
13,74433	1080966
13,74847	1136317
13,75258	1171296
13,75670	1183418
13,76083	1174393
13,76495	1134893
13,76907	1073595
13,77320	1014317
13,77732	934009
13,78143	851845
13,78557	769087
13,78968	691269
13,79380	610624
13,79792	546225
13,80205	486994
13,80617	430327
13,81028	381745
13,81442	338819
13,81853	299234
13,82265	265402
13,82678	234354
13,83090	213574
13,83502	193951
13,83915	176352
13,84327	159504
13,84738	141950
13,85152	130401
13,85563	119717
13,85975	111244
13,86388	102127
13,86800	92405
13,87212	91643
13,87625	84244
13,88037	80235
13,88448	73217
13,88860	71035
13,89273	64923
13,89685	60241
13,90097	58231
13,90510	56722
13,90922	53517
13,91333	49727
13,91747	48983
13,92158	46849
13,92570	45264
13,92983	44434
13,93395	42318
13,93807	41677
13,94220	38052
13,94632	36564
13,95043	35991
13,95457	35891
13,95868	34863
13,96280	35178
13,96693	35475
13,97105	34970
13,97517	35504
13,97928	37165
13,98342	38307
13,98753	38815
13,99165	39389
13,99578	41139
13,99990	41836
14,00402	42226
14,00815	39931
14,01227	42649
14,01638	41738
14,02052	39185
14,02463	41439
14,02875	38417
14,03288	39170
14,03700	38696
14,04112	36840
14,04525	35722
14,04937	34217
14,05348	32507
14,05762	29660
14,06173	29297
14,06585	27157
14,06997	26702
14,07410	25411
14,07822	24366
14,08233	23586
14,08647	22804
14,09058	21877
14,09470	20974
14,09883	20994
14,10295	20486
14,10707	18337
14,11120	20494
14,11532	17767
14,11943	19440
14,12357	18793
14,12768	18052
14,13180	17273
14,13593	17709
14,14005	16847
14,14417	16466
14,14830	16602
14,15242	16173
14,15653	16173
14,16065	14757
14,16478	15071
14,16890	15741
14,17302	15504
14,17715	15214
14,18127	15545
14,18538	13497
14,18952	14081
14,19363	14598
14,19775	13794
14,20188	13796
14,20600	14195
14,21012	14901
14,21425	14562
14,21837	17283
14,22248	21985
14,22662	27538
14,23073	35924
14,23485	54475
14,23898	77722
14,24310	113902
14,24722	165261
14,25133	241675
14,25547	344397
14,25958	471428
14,26370	612049
14,26783	795526
14,27195	1008524
14,27607	1229591
14,28020	1458466
14,28432	1725384
14,28843	1957731
14,29257	2170853
14,29668	2383617
14,30080	2526560
14,30493	2645063
14,30905	2718123
14,31317	2681668
14,31730	2643840
14,32142	2522374
14,32553	2356604
14,32967	2172759
14,33378	1974681
14,33790	1759108
14,34202	1548956
14,34615	1366801
14,35027	1212767
14,35438	1065451
14,35852	910932
14,36263	796867
14,36675	697985
14,37088	624811
14,37500	553264
14,37912	497030
14,38325	442793
14,38737	394902
14,39148	355748
14,39562	322245
14,39973	293458
14,40385	273033
14,40798	248937
14,41210	233873
14,41622	208971
14,42035	197187
14,42447	184573
14,42858	171181
14,43270	161995
14,43683	152403
14,44095	142208
14,44507	133182
14,44920	126145
14,45332	118108
14,45743	112289
14,46157	105492
14,46568	101678
14,46980	97311
14,47393	92155
14,47805	85011
14,48217	84250
14,48630	81248
14,49042	74044
14,49453	72153
14,49867	70273
14,50278	67318
14,50690	67491
14,51103	64197
14,51515	60119
14,51927	56362
14,52340	56380
14,52752	52446
14,53163	51464
14,53575	52079
14,53988	47941
14,54400	46168
14,54812	45519
14,55225	43778
14,55637	42986
14,56048	40616
14,56462	41309
14,56873	38028
14,57285	35839
14,57698	36579
14,58110	37032
14,58522	35758
14,58935	33959
14,59347	34975
14,59758	34058
14,60172	33416
14,60583	32708
14,60995	30989
14,61408	29797
14,61820	28732
14,62232	29036
14,62643	29033
14,63057	27665
14,63468	28407
14,63880	26069
14,64293	27973
14,64705	25156
14,65117	25166
14,65530	24994
14,65942	24596
14,66353	23275
14,66767	24004
14,67178	22317
14,67590	22358
14,68003	22582
14,68415	22691
14,68827	22096
14,69240	22551
14,69652	20556
14,70063	23418
14,70477	22953
14,70888	24071
14,71300	29181
14,71712	36978
14,72125	45348
14,72537	62628
14,72948	88092
14,73362	118646
14,73773	163469
14,74185	223165
14,74598	292621
14,75010	378376
14,75422	486980
14,75835	598253
14,76247	722160
14,76658	837326
14,77072	951979
14,77483	1069193
14,77895	1149320
14,78308	1216699
14,78720	1261936
14,79132	1261705
14,79545	1246699
14,79957	1210063
14,80368	1154624
14,80780	1084358
14,81193	1000380
14,81605	916069
14,82017	809524
14,82430	736317
14,82842	657364
14,83253	583950
14,83667	516352
14,84078	463078
14,84490	404773
14,84903	360758
14,85315	316392
14,85727	283405
14,86140	261273
14,86552	231677
14,86963	212262
14,87377	189081
14,87788	169502
14,88200	159786
14,88613	148021
14,89025	134511
14,89437	128108
14,89848	117137
14,90262	105283
14,90673	100656
14,91085	95285
14,91498	89170
14,91910	81179
14,92322	80549
14,92735	75500
14,93147	73561
14,93558	69771
14,93972	66731
14,94383	67447
14,94795	66659
14,95208	71504
14,95620	77197
14,96032	86627
14,96445	105832
14,96857	132419
14,97268	182352
14,97682	245570
14,98093	325755
14,98505	437961
14,98917	578122
14,99330	739114
14,99742	926986
15,00153	1144161
15,00567	1377594
15,00978	1604088
15,01390	1849394
15,01803	2070855
15,02215	2272237
15,02627	2445126
15,03040	2554662
15,03452	2594797
15,03863	2579787
15,04277	2511269
15,04688	2385979
15,05100	2245757
15,05513	2066640
15,05925	1881500
15,06337	1685563
15,06750	1503646
15,07162	1332317
15,07573	1168364
15,07985	1035126
15,08398	905120
15,08810	801191
15,09222	710324
15,09635	626947
15,10047	565547
15,10458	499742
15,10872	453399
15,11283	413706
15,11695	375714
15,12108	343303
15,12520	308565
15,12932	288859
15,13345	263529
15,13757	244706
15,14168	230028
15,14582	209360
15,14993	195511
15,15405	180468
15,15818	176847
15,16230	158584
15,16642	155016
15,17053	144869
15,17467	137407
15,17878	126265
15,18290	123694
15,18703	115465
15,19115	109805
15,19527	106175
15,19940	98815
15,20352	94951
15,20763	93676
15,21177	88090
15,21588	82949
15,22000	78668
15,22413	79711
15,22825	74434
15,23237	71635
15,23650	67758
15,24062	66501
15,24473	64949
15,24887	63320
15,25298	58851
15,25710	57909
15,26122	56680
15,26535	54608
15,26947	51622
15,27358	49700
15,27772	48575
15,28183	47995
15,28595	46841
15,29008	47103
15,29420	46117
15,29832	43935
15,30245	42281
15,30657	41672
15,31068	39570
15,31482	37380
15,31893	38864
15,32305	38074
15,32718	36920
15,33130	37920
15,33542	33352
15,33955	32451
15,34367	34436
15,34778	30640
15,35190	31797
15,35603	30232
15,36015	29723
15,36427	29452
15,36840	28060
15,37252	27351
15,37663	27402
15,38077	27323
15,38488	27306
15,38900	24656
15,39313	25552
15,39725	24254
15,40137	23584
15,40550	23315
15,40962	24102
15,41373	21429
15,41787	21924
15,42198	22384
15,42610	23399
15,43023	22027
15,43435	20951
15,43847	21629
15,44258	19822
15,44672	20782
15,45083	19615
15,45495	19645
15,45908	20015
15,46320	18642
15,46732	20454
15,47145	18777
15,47557	19010
15,47968	18301
15,48382	17516
15,48793	19210
15,49205	18440
15,49618	19526
15,50030	19619
15,50442	17018
15,50855	18218
15,51267	18668
15,51678	18906
15,52092	19384
15,52503	18790
15,52915	21651
15,53327	22892
15,53740	25719
15,54152	31183
15,54563	40284
15,54977	53234
15,55388	72738
15,55800	103255
15,56213	140641
15,56625	193172
15,57037	252254
15,57450	326769
15,57862	424077
15,58273	525952
15,58687	634993
15,59098	746827
15,59510	861076
15,59923	955468
15,60335	1047658
15,60747	1107585
15,61160	1146093
15,61572	1167912
15,61983	1149420
15,62395	1109734
15,62808	1064286
15,63220	1010107
15,63632	962635
15,64045	918519
15,64457	888836
15,64868	887889
15,65282	896685
15,65693	946869
15,66105	1029233
15,66518	1142645
15,66930	1301166
15,67342	1483782
15,67755	1679967
15,68167	1887149
15,68578	2111354
15,68992	2328059
15,69403	2536985
15,69815	2664693
15,70228	2774371
15,70640	2842286
15,71052	2780381
15,71463	2716725
15,71877	2599591
15,72288	2433516
15,72700	2231735
15,73113	2016456
15,73525	1795621
15,73937	1583805
15,74350	1400399
15,74762	1228767
15,75173	1078429
15,75587	946765
15,75998	839439
15,76410	742921
15,76823	671061
15,77235	588954
15,77647	532524
15,78060	487603
15,78472	440895
15,78883	394410
15,79297	364910
15,79708	336907
15,80120	309368
15,80532	285239
15,80945	268990
15,81357	248361
15,81768	227334
15,82182	216820
15,82593	204522
15,83005	193905
15,83418	181686
15,83830	171574
15,84242	161819
15,84655	154188
15,85067	147904
15,85478	136669
15,85892	132547
15,86303	124530
15,86715	123150
15,87128	112612
15,87540	115022
15,87952	106626
15,88365	101064
15,88777	98234
15,89188	92745
15,89600	91536
15,90013	88439
15,90425	84547
15,90837	81900
15,91250	79214
15,91662	75112
15,92073	73430
15,92487	70366
15,92898	67722
15,93310	65828
15,93723	64546
15,94135	63449
15,94547	58857
15,94960	58825
15,95372	58796
15,95783	55363
15,96197	52310
15,96608	55088
15,97020	51176
15,97433	50571
15,97845	45887
15,98257	47557
15,98668	46321
15,99082	45787
15,99493	45898
15,99905	44349
16,00318	44453
16,00730	42605
16,01142	41361
16,01555	41199
16,01967	38482
16,02378	39087
16,02792	39610
16,03203	38887
16,03615	37185
16,04028	34254
16,04440	33882
16,04852	32541
16,05265	34420
16,05677	32762
16,06088	33768
16,06502	31801
16,06913	31052
16,07325	29921
16,07737	31240
16,08150	30203
16,08562	31285
16,08973	30696
16,09387	33245
16,09798	38392
16,10210	42264
16,10623	51588
16,11035	67819
16,11447	84937
16,11860	115537
16,12272	155227
16,12683	210630
16,13097	278990
16,13508	353924
16,13920	447798
16,14333	546147
16,14745	654148
16,15157	757167
16,15570	858723
16,15982	940915
16,16393	1018969
16,16807	1079785
16,17218	1093944
16,17630	1100669
16,18042	1084922
16,18455	1046037
16,18867	997526
16,19278	931427
16,19692	847290
16,20103	777774
16,20515	701947
16,20928	631106
16,21340	563218
16,21752	500363
16,22165	442268
16,22577	395948
16,22988	348904
16,23402	311067
16,23813	283626
16,24225	254506
16,24638	228901
16,25050	208284
16,25462	185733
16,25875	168539
16,26287	162845
16,26698	145144
16,27110	133994
16,27523	124654
16,27935	115304
16,28347	107233
16,28760	100900
16,29172	94000
16,29583	88590
16,29997	83567
16,30408	78197
16,30820	74240
16,31233	72219
16,31645	68578
16,32057	62705
16,32470	63197
16,32882	58483
16,33293	58034
16,33707	53595
16,34118	51072
16,34530	48678
16,34943	49697
16,35355	46743
16,35767	46680
16,36178	44206
16,36592	41563
16,37003	42536
16,37415	40865
16,37828	39654
16,38240	38328
16,38652	36758
16,39065	37798
16,39477	36320
16,39888	35105
16,40302	34374
16,40713	33892
16,41125	32333
16,41538	33028
16,41950	31824
16,42362	30884
16,42775	30105
16,43187	31207
16,43598	30023
16,44012	30132
16,44423	27877
16,44835	27199
16,45247	26978
16,45660	27412
16,46072	25241
16,46483	27413
16,46897	24763
16,47308	25954
16,47720	22592
16,48133	24096
16,48545	23191
16,48957	23414
16,49370	21071
16,49782	21489
16,50193	20779
16,50607	19431
16,51018	20404
16,51430	21038
16,51843	20198
16,52255	18192
16,52667	19810
16,53080	18842
16,53492	20172
16,53903	19151
16,54315	17920
16,54728	17291
16,55140	17162
16,55552	17466
16,55965	17651
16,56377	17407
16,56788	16480
16,57202	17214
16,57613	16929
16,58025	16565
16,58438	15882
16,58850	15511
16,59262	15367
16,59675	16218
16,60087	14985
16,60498	15429
16,60912	16319
16,61323	14765
16,61735	15343
16,62148	15716
16,62560	14490
16,62972	14819
16,63383	15230
16,63797	14296
16,64208	15558
16,64620	15398
16,65033	13985
16,65445	14685
16,65857	14787
16,66270	13527
16,66682	14877
16,67093	14141
16,67507	14110
16,67918	13916
16,68330	12770
16,68743	14751
16,69155	13837
16,69567	12099
16,69980	12778
16,70392	13484
16,70803	12610
16,71217	13326
16,71628	12696
16,72040	12289
16,72452	13690
16,72865	13416
16,73277	12349
16,73688	12631
16,74102	11779
16,74513	12421
16,74925	12332
16,75338	13297
16,75750	12737
16,76162	11366
16,76575	11211
16,76987	11963
16,77398	12850
16,77812	13157
16,78223	12778
16,78635	12905
16,79048	13513
16,79460	11864
16,79872	11214
16,80285	11062
16,80697	12471
16,81108	11779
16,81520	11354
16,81933	11529
16,82345	12960
16,82757	11779
16,83170	11948
16,83582	10905
16,83993	10977
16,84407	11453
16,84818	10911
16,85230	10797
16,85643	10305
16,86055	10844
16,86467	11455
16,86880	10786
16,87292	11094
16,87703	12013
16,88117	11612
16,88528	11685
16,88940	11829
16,89353	11493
16,89765	13494
16,90177	12274
16,90588	15307
16,91002	18308
16,91413	23714
16,91825	30931
16,92238	44324
16,92650	63771
16,93062	89089
16,93475	124506
16,93887	170283
16,94298	224975
16,94712	294314
16,95123	381851
16,95535	462532
16,95948	549949
16,96360	647393
16,96772	737118
16,97185	814664
16,97597	883141
16,98008	913476
16,98422	954717
16,98833	964453
16,99245	927622
16,99657	906340
17,00070	857534
17,00482	806657
17,00893	748684
17,01307	688267
17,01718	635917
17,02130	579814
17,02543	536551
17,02955	501053
17,03367	486922
17,03780	489584
17,04192	513496
17,04603	554821
17,05017	628153
17,05428	724554
17,05840	861076
17,06253	1012217
17,06665	1196803
17,07077	1393836
17,07490	1641519
17,07902	1880194
17,08313	2126400
17,08725	2408003
17,09138	2625063
17,09550	2817188
17,09962	2964018
17,10375	3051781
17,10787	3041369
17,11198	2949463
17,11612	2819863
17,12023	2635234
17,12435	2406928
17,12848	2171946
17,13260	1921651
17,13672	1700525
17,14085	1504845
17,14497	1317023
17,14908	1147532
17,15322	1025749
17,15733	912187
17,16145	801546
17,16558	711198
17,16970	638687
17,17382	578538
17,17793	526148
17,18207	478619
17,18618	437734
17,19030	398663
17,19443	372550
17,19855	343144
17,20267	316210
17,20680	290156
17,21092	271562
17,21503	256379
17,21917	234617
17,22328	223467
17,22740	207850
17,23153	196551
17,23565	184306
17,23977	177035
17,24390	165366
17,24802	160526
17,25213	150094
17,25627	142567
17,26038	136505
17,26450	130175
17,26862	124371
17,27275	119445
17,27687	113018
17,28098	107893
17,28512	105691
17,28923	100633
17,29335	97073
17,29748	93749
17,30160	87958
17,30572	85893
17,30985	81982
17,31397	77185
17,31808	77911
17,32222	73965
17,32633	72259
17,33045	69937
17,33458	67207
17,33870	65143
17,34282	65508
17,34695	63062
17,35107	58651
17,35518	59236
17,35930	56668
17,36343	54790
17,36755	55643
17,37167	53059
17,37580	50220
17,37992	50013
17,38403	46473
17,38817	46309
17,39228	45706
17,39640	44359
17,40053	43708
17,40465	43593
17,40877	41267
17,41290	42323
17,41702	39250
17,42113	39870
17,42527	41716
17,42938	40587
17,43350	42012
17,43763	43372
17,44175	47292
17,44587	56158
17,44998	71302
17,45412	87834
17,45823	112625
17,46235	149294
17,46648	195040
17,47060	258685
17,47472	321925
17,47885	402067
17,48297	493584
17,48708	592760
17,49122	672157
17,49533	739685
17,49945	832251
17,50358	897716
17,50770	932055
17,51182	949511
17,51595	952853
17,52007	942118
17,52418	909901
17,52832	847582
17,53243	796368
17,53655	749893
17,54067	680354
17,54480	615120
17,54892	551281
17,55303	488123
17,55717	436255
17,56128	387111
17,56540	351502
17,56953	317425
17,57365	286610
17,57777	250743
17,58190	232337
17,58602	211755
17,59013	190152
17,59427	169208
17,59838	158715
17,60250	149836
17,60663	140951
17,61075	127629
17,61487	118739
17,61900	110788
17,62312	102337
17,62723	93978
17,63135	89618
17,63548	84023
17,63960	80573
17,64372	77320
17,64785	73613
17,65197	67827
17,65608	64100
17,66022	63045
17,66433	60576
17,66845	56986
17,67258	55892
17,67670	53370
17,68082	52681
17,68495	50026
17,68907	49007
17,69318	46110
17,69732	44690
17,70143	42905
17,70555	42262
17,70968	40581
17,71380	41208
17,71792	42087
17,72205	40903
17,72617	38477
17,73028	42162
17,73440	44216
17,73853	50927
17,74265	58328
17,74677	71711
17,75090	91447
17,75502	122577
17,75913	158629
17,76327	217581
17,76738	285504
17,77150	378042
17,77563	476265
17,77975	593473
17,78387	725466
17,78800	852536
17,79212	974900
17,79623	1092278
17,80037	1195319
17,80448	1264611
17,80860	1321019
17,81273	1333851
17,81685	1330201
17,82097	1296849
17,82508	1240549
17,82922	1145870
17,83333	1051359
17,83745	952043
17,84158	866951
17,84570	768508
17,84982	697018
17,85395	612690
17,85807	548455
17,86218	493802
17,86632	437402
17,87043	388648
17,87455	348416
17,87868	318535
17,88280	289135
17,88692	257058
17,89105	240421
17,89517	220756
17,89928	201157
17,90342	188688
17,90753	175755
17,91165	158889
17,91577	146812
17,91990	143050
17,92402	132255
17,92813	125046
17,93227	119602
17,93638	110029
17,94050	104023
17,94463	101005
17,94875	94987
17,95287	93647
17,95700	88601
17,96112	82371
17,96523	78953
17,96937	76157
17,97348	73068
17,97760	69453
17,98173	65813
17,98585	63616
17,98997	58929
17,99410	61253
17,99822	54308
18,00233	52638
18,00645	51862
18,01058	50575
18,01470	50070
18,01882	46987
18,02295	45069
18,02707	44035
18,03118	41313
18,03532	40765
18,03943	38810
18,04355	39856
18,04768	38634
18,05180	39586
18,05592	37273
18,06005	36138
18,06417	34805
18,06828	33379
18,07242	34215
18,07653	31794
18,08065	32100
18,08478	31051
18,08890	30209
18,09302	28583
18,09713	29356
18,10127	28236
18,10538	29482
18,10950	27809
18,11363	29160
18,11775	28095
18,12187	25128
18,12600	26438
18,13012	25096
18,13423	25157
18,13837	24615
18,14248	24644
18,14660	23420
18,15073	24049
18,15485	23741
18,15897	22880
18,16310	20401
18,16722	23957
18,17133	21538
18,17547	21347
18,17958	20060
18,18370	21170
18,18782	20919
18,19195	20052
18,19607	21613
18,20018	20870
18,20432	19499
18,20843	19394
18,21255	18601
18,21668	18752
18,22080	19032
18,22492	19403
18,22905	19892
18,23317	18242
18,23728	17286
18,24142	17948
18,24553	17448
18,24965	17251
18,25378	16281
18,25790	17999
18,26202	16737
18,26615	16970
18,27027	18558
18,27438	16115
18,27850	17324
18,28263	17600
18,28675	15552
18,29087	16117
18,29500	16237
18,29912	17297
18,30323	15591
18,30737	14969
18,31148	15692
18,31560	15069
18,31973	16508
18,32385	15780
18,32797	15525
18,33210	14633
18,33622	15620
18,34033	14578
18,34447	14661
18,34858	14371
18,35270	15721
18,35683	14610
18,36095	15688
18,36507	15232
18,36918	14609
18,37332	13909
18,37743	14555
18,38155	13967
18,38568	15552
18,38980	16455
18,39392	18105
18,39805	21363
18,40217	24894
18,40628	35002
18,41042	47418
18,41453	67563
18,41865	94638
18,42278	130498
18,42690	183267
18,43102	249986
18,43515	333576
18,43927	440944
18,44338	554922
18,44752	690911
18,45163	840704
18,45575	977507
18,45987	1115545
18,46400	1247359
18,46812	1345473
18,47223	1416223
18,47637	1454964
18,48048	1455718
18,48460	1415795
18,48873	1356658
18,49285	1267933
18,49697	1180766
18,50110	1059695
18,50522	953812
18,50933	857477
18,51347	761957
18,51758	675029
18,52170	595858
18,52583	531719
18,52995	470570
18,53407	421161
18,53820	379876
18,54232	342192
18,54643	309368
18,55055	282279
18,55468	256298
18,55880	236169
18,56292	217059
18,56705	206360
18,57117	184866
18,57528	170335
18,57942	158360
18,58353	150198
18,58765	141255
18,59178	129935
18,59590	123821
18,60002	115672
18,60415	110003
18,60827	105620
18,61238	104007
18,61652	95650
18,62063	91651
18,62475	84633
18,62888	82045
18,63300	81339
18,63712	75868
18,64123	75485
18,64537	70933
18,64948	70292
18,65360	69797
18,65773	65117
18,66185	62113
18,66597	60503
18,67010	59313
18,67422	56748
18,67833	56706
18,68247	51688
18,68658	50413
18,69070	50182
18,69483	49289
18,69895	46792
18,70307	44008
18,70720	44247
18,71132	43944
18,71543	42636
18,71957	40596
18,72368	39792
18,72780	37353
18,73192	36817
18,73605	35915
18,74017	34358
18,74428	35095
18,74842	34757
18,75253	32517
18,75665	33117
18,76078	30942
18,76490	30314
18,76902	30099
18,77315	29181
18,77727	28719
18,78138	30293
18,78552	28045
18,78963	28825
18,79375	26316
18,79788	28362
18,80200	26021
18,80612	26502
18,81025	26141
18,81437	26992
18,81848	26609
18,82260	25987
18,82673	24864
18,83085	25773
18,83497	24481
18,83910	22484
18,84322	24726
18,84733	24002
18,85147	23668
18,85558	22283
18,85970	24730
18,86383	24635
18,86795	27132
18,87207	31463
18,87620	37143
18,88032	45724
18,88443	61328
18,88857	83067
18,89268	113342
18,89680	154722
18,90093	211327
18,90505	280817
18,90917	362750
18,91328	457765
18,91742	570474
18,92153	677931
18,92565	792514
18,92978	901131
18,93390	988763
18,93802	1058737
18,94215	1104991
18,94627	1138091
18,95038	1135804
18,95452	1121606
18,95863	1062701
18,96275	1011454
18,96688	941146
18,97100	854296
18,97512	776330
18,97925	703534
18,98337	639138
18,98748	564592
18,99162	506196
18,99573	453427
18,99985	406564
19,00397	360851
19,00810	329880
19,01222	297409
19,01633	262844
19,02047	242157
19,02458	218225
19,02870	203325
19,03283	184517
19,03695	169586
19,04107	157305
19,04520	145640
19,04932	137879
19,05343	125315
19,05757	121489
19,06168	112201
19,06580	108183
19,06993	99148
19,07405	96971
19,07817	88746
19,08230	84311
19,08642	80841
19,09053	75646
19,09465	74182
19,09878	70523
19,10290	67593
19,10702	63825
19,11115	63132
19,11527	58009
19,11938	57460
19,12352	53771
19,12763	53446
19,13175	52051
19,13588	49213
19,14000	46486
19,14412	45266
19,14825	45554
19,15237	43479
19,15648	39732
19,16062	42798
19,16473	40365
19,16885	40904
19,17298	35656
19,17710	37362
19,18122	37601
19,18533	33795
19,18947	34710
19,19358	34013
19,19770	32004
19,20183	32377
19,20595	31067
19,21007	31456
19,21420	31234
19,21832	29041
19,22243	27836
19,22657	28329
19,23068	27632
19,23480	25616
19,23893	25303
19,24305	26124
19,24717	25487
19,25130	26419
19,25542	24120
19,25953	25494
19,26367	24967
19,26778	23767
19,27190	23751
19,27602	23604
19,28015	23557
19,28427	21967
19,28838	24040
19,29252	24061
19,29663	21780
19,30075	22152
19,30488	20152
19,30900	22079
19,31312	19646
19,31725	21380
19,32137	20140
19,32548	21234
19,32962	20719
19,33373	19150
19,33785	20242
19,34198	19801
19,34610	19717
19,35022	20247
19,35435	18235
19,35847	19448
19,36258	19994
19,36672	19224
19,37083	17205
19,37495	18225
19,37907	18284
19,38320	18711
19,38732	19188
19,39143	18262
19,39557	18170
19,39968	18502
19,40380	18146
19,40793	17982
19,41205	17298
19,41617	17096
19,42030	18121
19,42442	17402
19,42853	16824
19,43267	16296
19,43678	16427
19,44090	16533
19,44503	15951
19,44915	16664
19,45327	16855
19,45740	16226
19,46152	17018
19,46563	17443
19,46975	16285
19,47388	16333
19,47800	15937
19,48212	18099
19,48625	15841
19,49037	19009
19,49448	17791
19,49862	18076
19,50273	18426
19,50685	17930
19,51098	18803
19,51510	17737
19,51922	17706
19,52335	18623
19,52747	18211
19,53158	18367
19,53572	17739
19,53983	17762
19,54395	17590
19,54808	17361
19,55220	17349
19,55632	15957
19,56043	17229
19,56457	14610
19,56868	14882
19,57280	13473
19,57693	15685
19,58105	14853
19,58517	14301
19,58930	14517
19,59342	14862
19,59753	15207
19,60167	15570
19,60578	14777
19,60990	13941
19,61403	13832
19,61815	14070
19,62227	14455
19,62640	13524
19,63052	15393
19,63463	13570
19,63877	14299
19,64288	12841
19,64700	13529
19,65112	14223
19,65525	14372
19,65937	18305
19,66348	19941
19,66762	23819
19,67173	34011
19,67585	40998
19,67998	59865
19,68410	82047
19,68822	113573
19,69235	159178
19,69647	209336
19,70058	282087
19,70472	358247
19,70883	453546
19,71295	552059
19,71708	643811
19,72120	743329
19,72532	831620
19,72945	904770
19,73357	954764
19,73768	989082
19,74180	997327
19,74593	986597
19,75005	952882
19,75417	921166
19,75830	881730
19,76242	832588
19,76653	793173
19,77067	750611
19,77478	721165
19,77890	716596
19,78303	717853
19,78715	744050
19,79127	807540
19,79540	873659
19,79952	972696
19,80363	1115178
19,80777	1258578
19,81188	1441643
19,81600	1640490
19,82013	1853358
19,82425	2074185
19,82837	2311456
19,83248	2522917
19,83662	2711786
19,84073	2876519
19,84485	2978584
19,84898	3011975
19,85310	2982739
19,85722	2881666
19,86135	2746710
19,86547	2535860
19,86958	2301690
19,87372	2085161
19,87783	1852836
19,88195	1649682
19,88608	1466640
19,89020	1301734
19,89432	1153255
19,89845	1025285
19,90257	918031
19,90668	820463
19,91082	745812
19,91493	670347
19,91905	612867
19,92317	557929
19,92730	513635
19,93142	470360
19,93553	436637
19,93967	406316
19,94378	382255
19,94790	355258
19,95203	329999
19,95615	309806
19,96027	287292
19,96440	273156
19,96852	261113
19,97263	248356
19,97677	230032
19,98088	219127
19,98500	209482
19,98913	197289
19,99325	186734
19,99737	179654
20,00150	173859
20,00562	163482
20,00973	158097
20,01385	153661
20,01798	142906
20,02210	139476
20,02622	132676
20,03035	128701
20,03447	127035
20,03858	119778
20,04272	119479
20,04683	111473
20,05095	108441
20,05508	104224
20,05920	100421
20,06332	95118
20,06745	94604
20,07157	91550
20,07568	88316
20,07982	89189
20,08393	84918
20,08805	82866
20,09218	79547
20,09630	77972
20,10042	76866
20,10453	78325
20,10867	73836
20,11278	73913
20,11690	72286
20,12103	72749
20,12515	68851
20,12927	68585
20,13340	67050
20,13752	65510
20,14163	61376
20,14577	60852
20,14988	59489
20,15400	57331
20,15813	55277
20,16225	57418
20,16637	56321
20,17050	55101
20,17462	55180
20,17873	58129
20,18287	62777
20,18698	69891
20,19110	81394
20,19522	98461
20,19935	124365
20,20347	156465
20,20758	207754
20,21172	261908
20,21583	334481
20,21995	413260
20,22408	516315
20,22820	614758
20,23232	718560
20,23645	809815
20,24057	895158
20,24468	967407
20,24882	1026823
20,25293	1057431
20,25705	1080645
20,26118	1076940
20,26530	1058574
20,26942	1034417
20,27355	1014023
20,27767	995510
20,28178	976454
20,28590	974148
20,29003	981615
20,29415	990179
20,29827	1022861
20,30240	1062284
20,30652	1096483
20,31063	1130060
20,31477	1155019
20,31888	1180357
20,32300	1180418
20,32713	1164273
20,33125	1140191
20,33537	1099876
20,33950	1041075
20,34362	982053
20,34773	904371
20,35187	838986
20,35598	774183
20,36010	699719
20,36423	633727
20,36835	566087
20,37247	521368
20,37658	472394
20,38072	425811
20,38483	387501
20,38895	355589
20,39308	320477
20,39720	295696
20,40132	277998
20,40545	255872
20,40957	231768
20,41368	213773
20,41782	201698
20,42193	191545
20,42605	179180
20,43018	166949
20,43430	162416
20,43842	151050
20,44255	144316
20,44667	143195
20,45078	139781
20,45492	142230
20,45903	150833
20,46315	159305
20,46727	178450
20,47140	205196
20,47552	245590
20,47963	295285
20,48377	365489
20,48788	444497
20,49200	544253
20,49613	645432
20,50025	760816
20,50437	889997
20,50850	1013399
20,51262	1144034
20,51673	1242908
20,52087	1321854
20,52498	1383098
20,52910	1388843
20,53323	1385261
20,53735	1357566
20,54147	1295593
20,54560	1202267
20,54972	1112828
20,55383	1020152
20,55795	925580
20,56208	836877
20,56620	763463
20,57032	676443
20,57445	611614
20,57857	553132
20,58268	502885
20,58682	457575
20,59093	419292
20,59505	374019
20,59918	344906
20,60330	314880
20,60742	298907
20,61155	267672
20,61567	253317
20,61978	239700
20,62392	220392
20,62803	209473
20,63215	194477
20,63628	187067
20,64040	175345
20,64452	169096
20,64863	159527
20,65277	153214
20,65688	141056
20,66100	137372
20,66513	132180
20,66925	124241
20,67337	125111
20,67750	116227
20,68162	112108
20,68573	107437
20,68987	104502
20,69398	99934
20,69810	96744
20,70223	92477
20,70635	88032
20,71047	87793
20,71460	83820
20,71872	79670
20,72283	80462
20,72697	77615
20,73108	73613
20,73520	72360
20,73932	68448
20,74345	67085
20,74757	65277
20,75168	65526
20,75582	63158
20,75993	58495
20,76405	60151
20,76818	59694
20,77230	57904
20,77642	57648
20,78055	54418
20,78467	53520
20,78878	53764
20,79292	53795
20,79703	51648
20,80115	52338
20,80528	50919
20,80940	50856
20,81352	50641
20,81765	47013
20,82177	49177
20,82588	48962
20,83000	46839
20,83413	45219
20,83825	43685
20,84237	44546
20,84650	43058
20,85062	42631
20,85473	41359
20,85887	39523
20,86298	40159
20,86710	38212
20,87123	37388
20,87535	39930
20,87947	36017
20,88360	35674
20,88772	34015
20,89183	34216
20,89597	34003
20,90008	33352
20,90420	31835
20,90833	32818
20,91245	31537
20,91657	29769
20,92070	31935
20,92482	30379
20,92893	32123
20,93305	31907
20,93718	28887
20,94130	30428
20,94542	29137
20,94955	28896
20,95367	29093
20,95778	28761
20,96192	27437
20,96603	28681
20,97015	28219
20,97428	27908
20,97840	28915
20,98252	28565
20,98665	26963
20,99077	26434
20,99488	28280
20,99902	25288
21,00313	26960
21,00725	26784
21,01138	25661
21,01550	26171
21,01962	25939
21,02373	25427
21,02787	25776
21,03198	25676
21,03610	24911
21,04023	26427
21,04435	25365
21,04847	24392
21,05260	24465
21,05672	23287
21,06083	25934
21,06497	26675
21,06908	27460
21,07320	29882
21,07733	33015
21,08145	37899
21,08557	46801
21,08970	58672
21,09382	75663
21,09793	98063
21,10207	130306
21,10618	183350
21,11030	239015
21,11442	314279
21,11855	412386
21,12267	511332
21,12678	647154
21,13092	785745
21,13503	934246
21,13915	1072400
21,14328	1194901
21,14740	1292046
21,15152	1393702
21,15565	1421066
21,15977	1431891
21,16388	1415602
21,16802	1359799
21,17213	1278393
21,17625	1186223
21,18038	1089685
21,18450	985270
21,18862	877693
21,19275	800046
21,19687	708964
21,20098	642601
21,20510	577689
21,20923	517791
21,21335	471328
21,21747	425544
21,22160	388795
21,22572	352080
21,22983	327575
21,23397	302137
21,23808	281185
21,24220	258845
21,24633	242226
21,25045	222412
21,25457	212429
21,25870	199927
21,26282	187198
21,26693	175100
21,27107	164558
21,27518	161106
21,27930	146615
21,28343	141762
21,28755	135143
21,29167	131554
21,29578	120927
21,29992	119302
21,30403	112566
21,30815	109064
21,31228	106884
21,31640	101824
21,32052	97107
21,32465	91858
21,32877	91386
21,33288	85821
21,33702	84446
21,34113	83446
21,34525	82047
21,34938	76817
21,35350	78467
21,35762	73021
21,36175	69955
21,36587	71332
21,36998	66399
21,37412	63954
21,37823	63452
21,38235	61012
21,38647	59644
21,39060	57745
21,39472	57457
21,39883	55219
21,40297	53888
21,40708	51577
21,41120	50542
21,41533	49025
21,41945	49931
21,42357	50118
21,42770	48255
21,43182	47121
21,43593	46062
21,44007	44277
21,44418	45927
21,44830	42478
21,45243	41305
21,45655	41685
21,46067	39110
21,46480	40567
21,46892	38439
21,47303	36488
21,47715	37721
21,48128	37028
21,48540	38510
21,48952	37826
21,49365	35508
21,49777	34973
21,50188	34936
21,50602	32408
21,51013	33297
21,51425	32989
21,51838	32838
21,52250	32178
21,52662	32784
21,53075	32158
21,53487	33633
21,53898	34482
21,54312	35915
21,54723	41298
21,55135	46589
21,55548	55582
21,55960	69089
21,56372	89338
21,56783	117554
21,57197	157197
21,57608	208873
21,58020	271973
21,58433	356136
21,58845	450067
21,59257	560785
21,59670	678898
21,60082	808188
21,60493	925223
21,60907	1041766
21,61318	1159841
21,61730	1250725
21,62143	1322165
21,62555	1381725
21,62967	1426612
21,63380	1451909
21,63792	1480808
21,64203	1483125
21,64617	1483891
21,65028	1480119
21,65440	1475919
21,65852	1453013
21,66265	1410881
21,66677	1371913
21,67088	1326178
21,67502	1267195
21,67913	1194071
21,68325	1115900
21,68738	1037197
21,69150	957219
21,69562	874935
21,69975	807761
21,70387	737800
21,70798	678767
21,71212	601058
21,71623	543696
21,72035	502908
21,72448	460815
21,72860	419075
21,73272	386256
21,73685	353716
21,74097	324585
21,74508	295718
21,74920	278177
21,75333	260353
21,75745	244684
21,76157	229077
21,76570	215183
21,76982	200302
21,77393	189974
21,77807	181286
21,78218	172556
21,78630	160038
21,79043	157853
21,79455	147250
21,79867	137559
21,80280	132124
21,80692	123992
21,81103	119956
21,81517	114727
21,81928	112421
21,82340	105104
21,82753	100223
21,83165	98763
21,83577	93939
21,83988	92529
21,84402	89608
21,84813	87150
21,85225	83962
21,85638	79062
21,86050	77853
21,86462	76595
21,86875	73047
21,87287	71877
21,87698	69691
21,88112	65713
21,88523	62434
21,88935	63501
21,89348	62775
21,89760	59998
21,90172	57993
21,90585	57194
21,90997	54287
21,91408	55069
21,91822	56091
21,92233	49960
21,92645	48907
21,93057	50575
21,93470	46276
21,93882	49617
21,94293	48337
21,94707	46586
21,95118	44758
21,95530	44945
21,95943	44416
21,96355	44165
21,96767	41271
21,97180	41368
21,97592	40886
21,98003	40994
21,98417	40909
21,98828	37191
21,99240	37128
21,99653	38813
22,00065	38144
22,00477	38125
22,00890	36499
22,01302	35944
22,01713	36682
22,02125	35363
22,02538	36708
22,02950	34990
22,03362	31660
22,03775	34327
22,04187	32483
22,04598	33770
22,05012	33489
22,05423	32081
22,05835	32951
22,06248	32739
22,06660	32834
22,07072	30924
22,07485	32122
22,07897	31195
22,08308	30407
22,08722	30709
22,09133	29890
22,09545	30441
22,09958	30244
22,10370	29558
22,10782	28333
22,11193	29035
22,11607	29833
22,12018	30049
22,12430	29097
22,12843	29079
22,13255	28417
22,13667	28902
22,14080	29707
22,14492	28338
22,14903	27908
22,15317	28236
22,15728	28477
22,16140	27959
22,16553	25660
22,16965	25298
22,17377	26849
22,17790	26586
22,18202	24866
22,18613	25436
22,19027	23955
22,19438	25756
22,19850	24948
22,20262	23856
22,20675	24255
22,21087	23602
22,21498	23825
22,21912	22682
22,22323	23085
22,22735	24927
22,23148	22269
22,23560	23679
22,23972	23391
22,24385	23128
22,24797	23284
22,25208	22539
22,25622	23900
22,26033	23102
22,26445	23297
22,26858	22191
22,27270	23034
22,27682	23969
22,28095	23156
22,28507	23039
22,28918	24728
22,29330	25070
22,29743	22921
22,30155	21665
22,30567	23202
22,30980	22969
22,31392	24181
22,31803	22648
22,32217	20849
22,32628	22918
22,33040	22730
22,33453	21601
22,33865	23352
22,34277	22489
22,34690	21327
22,35102	23151
22,35513	22877
22,35927	22402
22,36338	25403
22,36750	25696
22,37163	29613
22,37575	33250
22,37987	38491
22,38398	47081
22,38812	62917
22,39223	79380
22,39635	107118
22,40048	139545
22,40460	185044
22,40872	244557
22,41285	322040
22,41697	413942
22,42108	523733
22,42522	669946
22,42933	826597
22,43345	988318
22,43758	1172069
22,44170	1379800
22,44582	1589913
22,44995	1817640
22,45407	2036227
22,45818	2245737
22,46232	2433317
22,46643	2590231
22,47055	2698200
22,47467	2722834
22,47880	2698562
22,48292	2614879
22,48703	2469696
22,49117	2295955
22,49528	2091032
22,49940	1897702
22,50353	1694133
22,50765	1515783
22,51177	1338512
22,51590	1208441
22,52002	1071495
22,52413	962981
22,52827	866563
22,53238	784866
22,53650	720362
22,54063	652147
22,54475	603247
22,54887	547227
22,55300	510563
22,55712	470100
22,56123	442707
22,56537	412955
22,56948	382374
22,57360	355920
22,57772	342178
22,58185	320251
22,58597	301560
22,59008	283358
22,59422	272987
22,59833	254675
22,60245	245905
22,60658	232540
22,61070	224784
22,61482	217256
22,61895	203781
22,62307	195748
22,62718	187287
22,63132	177478
22,63543	170479
22,63955	163606
22,64368	160374
22,64780	152681
22,65192	146847
22,65605	140403
22,66017	137101
22,66428	130221
22,66840	131066
22,67253	122311
22,67665	123028
22,68077	117604
22,68490	116725
22,68902	111229
22,69313	107417
22,69727	104737
22,70138	99530
22,70550	97374
22,70963	97963
22,71375	94699
22,71787	91558
22,72200	90879
22,72612	88479
22,73023	85338
22,73437	82249
22,73848	79108
22,74260	81558
22,74673	78678
22,75085	75939
22,75497	76178
22,75908	74320
22,76322	68723
22,76733	69026
22,77145	67076
22,77558	68250
22,77970	65638
22,78382	64097
22,78795	60411
22,79207	60699
22,79618	59542
22,80032	59447
22,80443	59598
22,80855	57417
22,81268	56604
22,81680	56444
22,82092	56064
22,82505	54298
22,82917	53891
22,83328	52699
22,83742	52860
22,84153	48661
22,84565	49669
22,84977	47014
22,85390	47644
22,85802	48767
22,86213	49497
22,86627	45954
22,87038	47747
22,87450	46950
22,87863	44836
22,88275	44143
22,88687	44924
22,89100	44475
22,89512	44145
22,89923	43442
22,90337	39809
22,90748	41330
22,91160	41856
22,91573	41170
22,91985	41390
22,92397	40547
22,92810	38248
22,93222	38430
22,93633	41297
22,94045	39738
22,94458	39124
22,94870	38357
22,95282	38831
22,95695	36934
22,96107	37688
22,96518	37344
22,96932	35892
22,97343	37224
22,97755	35259
22,98168	33556
22,98580	34868
22,98992	33943
22,99405	34290
22,99817	33817
23,00228	34256
23,00642	34270
23,01053	33886
23,01465	35242
23,01878	33245
23,02290	34888
23,02702	33179
23,03113	34916
23,03527	35169
23,03938	39861
23,04350	45368
23,04763	52097
23,05175	61184
23,05587	78790
23,06000	102038
23,06412	132660
23,06823	172971
23,07237	226814
23,07648	285923
23,08060	370554
23,08473	458908
23,08885	566687
23,09297	687617
23,09710	798768
23,10122	918749
23,10533	1028176
23,10947	1126541
23,11358	1209110
23,11770	1253707
23,12182	1282677
23,12595	1285344
23,13007	1248722
23,13418	1200419
23,13832	1126190
23,14243	1031062
23,14655	954855
23,15068	880189
23,15480	793484
23,15892	719560
23,16305	651899
23,16717	591977
23,17128	541744
23,17542	492548
23,17953	447607
23,18365	406067
23,18778	375363
23,19190	346122
23,19602	319143
23,20015	302229
23,20427	281055
23,20838	262551
23,21250	241669
23,21663	231527
23,22075	215950
23,22487	202483
23,22900	194804
23,23312	185266
23,23723	175210
23,24137	165630
23,24548	160829
23,24960	151896
23,25373	145012
23,25785	138781
23,26197	133706
23,26610	130089
23,27022	121758
23,27433	117171
23,27847	114980
23,28258	108740
23,28670	109213
23,29083	102490
23,29495	99546
23,29907	95888
23,30318	91817
23,30732	93163
23,31143	86097
23,31555	84888
23,31968	84598
23,32380	82560
23,32792	82277
23,33205	79900
23,33617	80686
23,34028	79709
23,34442	81394
23,34853	80866
23,35265	84959
23,35678	85219
23,36090	85914
23,36502	92253
23,36915	99043
23,37327	102731
23,37738	107458
23,38152	110728
23,38563	111849
23,38975	117407
23,39387	116703
23,39800	113753
23,40212	116037
23,40623	114096
23,41037	113855
23,41448	111263
23,41860	107984
23,42273	100153
23,42685	94979
23,43097	96985
23,43510	90036
23,43922	85970
23,44333	82686
23,44747	76288
23,45158	75731
23,45570	72620
23,45983	71967
23,46395	66376
23,46807	60363
23,47220	62705
23,47632	57919
23,48043	57974
23,48455	54303
23,48868	50205
23,49280	50874
23,49692	51426
23,50105	48577
23,50517	46770
23,50928	46398
23,51342	43805
23,51753	43755
23,52165	44742
23,52578	44188
23,52990	42406
23,53402	42669
23,53815	38980
23,54227	39716
23,54638	38088
23,55052	36281
23,55463	36082
23,55875	37253
23,56288	36805
23,56700	36180
23,57112	35687
23,57523	35634
23,57937	33585
23,58348	35431
23,58760	34924
23,59173	35556
23,59585	34080
23,59997	33550
23,60410	32850
23,60822	33418
23,61233	32568
23,61647	31787
23,62058	31736
23,62470	33033
23,62883	30970
23,63295	30560
23,63707	30684
23,64120	29055
23,64532	32192
23,64943	31499
23,65357	31096
23,65768	29943
23,66180	30399
23,66592	29944
23,67005	31386
23,67417	29427
23,67828	31432
23,68242	29923
23,68653	30292
23,69065	29302
23,69478	29812
23,69890	28626
23,70302	30569
23,70715	27946
23,71127	26464
23,71538	29503
23,71952	29062
23,72363	27259
23,72775	27201
23,73188	27590
23,73600	27635
23,74012	26773
23,74425	28808
23,74837	27162
23,75248	27996
23,75660	29687
23,76073	25392
23,76485	29176
23,76897	27244
23,77310	26983
23,77722	28202
23,78133	24995
23,78547	27026
23,78958	28392
23,79370	27767
23,79783	26759
23,80195	28384
23,80607	27223
23,81020	26426
23,81432	28131
23,81843	26868
23,82257	26400
23,82668	27173
23,83080	27742
23,83493	25405
23,83905	26671
23,84317	24555
23,84728	25661
23,85142	26884
23,85553	27301
23,85965	25352
23,86378	24515
23,86790	25354
23,87202	25579
23,87615	25539
23,88027	25236
23,88438	24617
23,88852	26436
23,89263	24631
23,89675	23175
23,90088	24889
23,90500	24795
23,90912	23604
23,91325	24461
23,91737	25682
23,92148	24243
23,92562	22650
23,92973	23363
23,93385	23494
23,93797	22053
23,94210	22922
23,94622	24313
23,95033	22593
23,95447	22252
23,95858	22685
23,96270	23943
23,96683	23023
23,97095	23701
23,97507	22044
23,97920	22257
23,98332	23469
23,98743	22286
23,99157	22461
23,99568	23685
23,99980	25203
24,00393	25066
24,00805	24280
24,01217	25493
24,01630	24278
24,02042	23342
24,02453	25825
24,02865	23438
24,03278	25083
24,03690	22844
24,04102	23364
24,04515	22609
24,04927	22585
24,05338	23682
24,05752	23549
24,06163	22939
24,06575	23186
24,06988	24141
24,07400	21393
24,07812	20941
24,08225	21268
24,08637	23811
24,09048	22581
24,09462	20876
24,09873	21614
24,10285	22395
24,10698	21813
24,11110	23052
24,11522	21675
24,11935	21709
24,12347	21804
24,12758	22049
24,13170	20764
24,13583	22774
24,13995	22223
24,14407	22125
24,14820	21771
24,15232	22787
24,15643	21828
24,16057	22715
24,16468	22631
24,16880	21761
24,17293	21630
24,17705	20468
24,18117	21452
24,18530	22131
24,18942	23037
24,19353	23725
24,19767	24707
24,20178	21913
24,20590	23477
24,21003	22998
24,21415	23743
24,21827	20513
24,22238	22381
24,22652	24203
24,23063	22866
24,23475	21564
24,23888	24215
24,24300	22254
24,24712	24206
24,25125	23718
24,25537	25151
24,25948	23735
24,26362	22785
24,26773	22479
24,27185	22559
24,27598	21813
24,28010	23286
24,28422	20721
24,28835	22599
24,29247	22618
24,29658	20704
24,30072	22974
24,30483	21239
24,30895	22150
24,31307	20968
24,31720	20097
24,32132	21567
24,32543	20750
24,32957	19538
24,33368	18519
24,33780	21149
24,34193	20348
24,34605	22385
24,35017	20309
24,35430	22632
24,35842	21966
24,36253	20151
24,36667	21071
24,37078	21434
24,37490	21049
24,37903	21308
24,38315	21244
24,38727	20455
24,39140	20665
24,39552	20947
24,39963	19816
24,40375	20776
24,40788	19672
24,41200	21298
24,41612	21425
24,42025	21363
24,42437	19718
24,42848	19999
24,43262	18773
24,43673	22302
24,44085	19227
24,44498	21361
24,44910	20349
24,45322	21066
24,45735	20343
24,46147	20575
24,46558	20587
24,46972	19852
24,47383	20580
24,47795	21034
24,48208	20545
24,48620	22540
24,49032	19945
24,49443	20116
24,49857	20958
24,50268	21812
24,50680	19257
24,51093	21305
24,51505	20790
24,51917	22396
24,52330	20442
24,52742	20397
24,53153	20949
24,53567	22346
24,53978	21807
24,54390	20991
24,54803	21344
24,55215	20948
24,55627	23162
24,56040	21237
24,56452	23611
24,56863	21639
24,57277	21707
24,57688	21347
24,58100	22074
24,58512	21237
24,58925	22746
24,59337	22861
24,59748	20985
24,60162	21640
24,60573	20203
24,60985	20643
24,61398	21076
24,61810	20788
24,62222	20799
24,62635	21765
24,63047	23592
24,63458	21599
24,63872	21504
24,64283	21445
24,64695	19871
24,65108	21057
24,65520	21497
24,65932	21374
24,66345	21778
24,66757	21185
24,67168	21855
24,67580	21404
24,67993	20813
24,68405	20900
24,68817	21462
24,69230	21062
24,69642	21078
24,70053	19536
24,70467	22062
24,70878	21180
24,71290	21039
24,71703	20820
24,72115	21048
24,72527	22408
24,72940	21684
24,73352	21062
24,73763	18775
24,74177	20622
24,74588	21944
24,75000	21043
24,75413	21162
24,75825	19454
24,76237	20058
24,76648	21821
24,77062	20527
24,77473	22351
24,77885	19479
24,78298	21878
24,78710	25135
24,79122	24336
24,79535	26851
24,79947	32163
24,80358	35786
24,80772	41585
24,81183	50894
24,81595	67424
24,82008	88496
24,82420	112895
24,82832	147175
24,83245	188026
24,83657	235275
24,84068	297709
24,84482	362153
24,84893	428104
24,85305	495589
24,85717	558790
24,86130	607544
24,86542	653753
24,86953	678028
24,87367	691048
24,87778	683436
24,88190	672232
24,88603	666649
24,89015	633361
24,89427	595377
24,89840	556069
24,90252	511664
24,90663	468977
24,91077	427205
24,91488	395428
24,91900	360711
24,92313	325706
24,92725	298306
24,93137	274007
24,93550	247891
24,93962	227126
24,94373	213794
24,94785	198285
24,95198	179555
24,95610	166909
24,96022	156217
24,96435	146509
24,96847	138640
24,97258	131247
24,97672	123524
24,98083	116278
24,98495	106103
24,98908	103045
24,99320	95383
24,99732	91857
25,00145	90809
25,00557	86942
25,00968	80590
25,01382	80769
25,01793	75163
25,02205	72231
25,02618	70281
25,03030	68983
25,03442	65671
25,03853	65281
25,04267	61686
25,04678	59928
25,05090	57452
25,05503	55186
25,05915	54965
25,06327	52887
25,06740	53109
25,07152	51169
25,07563	50540
25,07977	49463
25,08388	47313
25,08800	46829
25,09213	48151
25,09625	46275
25,10037	46449
25,10450	42354
25,10862	42814
25,11273	43753
25,11687	42760
25,12098	42594
25,12510	43093
25,12922	44525
25,13335	40780
25,13747	41466
25,14158	39152
25,14572	39606
25,14983	38893
25,15395	40356
25,15808	38746
25,16220	38346
25,16632	37574
25,17045	38095
25,17457	37598
25,17868	35247
25,18282	36168
25,18693	34058
25,19105	33655
25,19518	32638
25,19930	35151
25,20342	34609
25,20755	32186
25,21167	31722
25,21578	30218
25,21990	32280
25,22403	29321
25,22815	31482
25,23227	31131
25,23640	32720
25,24052	30597
25,24463	30354
25,24877	28611
25,25288	30113
25,25700	30808
25,26113	30462
25,26525	28954
25,26937	32051
25,27350	30740
25,27762	28822
25,28173	29677
25,28587	27977
25,28998	29230
25,29410	28670
25,29823	27258
25,30235	28034
25,30647	25908
25,31058	28146
25,31472	26779
25,31883	28290
25,32295	28447
25,32708	27633
25,33120	26961
25,33532	26801
25,33945	28060
25,34357	27949
25,34768	27940
25,35182	30535
25,35593	28855
25,36005	28230
25,36418	27800
25,36830	28427
25,37242	26668
25,37655	25315
25,38067	28135
25,38478	29239
25,38892	27998
25,39303	28809
25,39715	25311
25,40127	27085
25,40540	27615
25,40952	26197
25,41363	28646
25,41777	28893
25,42188	28014
25,42600	28293
25,43013	26284
25,43425	25958
25,43837	27832
25,44250	27366
25,44662	27982
25,45073	25743
25,45487	25806
25,45898	27159
25,46310	25984
25,46723	26583
25,47135	26984
25,47547	25141
25,47960	25673
25,48372	27615
25,48783	26508
25,49195	26763
25,49608	26252
25,50020	24949
25,50432	25802
25,50845	26417
25,51257	26542
25,51668	27340
25,52082	26807
25,52493	26876
25,52905	27667
25,53318	28111
25,53730	27153
25,54142	26917
25,54555	26606
25,54967	26177
25,55378	27741
25,55792	27071
25,56203	25986
25,56615	26461
25,57028	26573
25,57440	27603
25,57852	24640
25,58263	27764
25,58677	26713
25,59088	25303
25,59500	25001
