D:\MassHunter\GCMS\1\data\Amal\Constant flow\130C\130C_1ml-min_6C-min_1.D Mon Jul 29 14:29:22 2024
Start of data points
5,59122	61179
5,59567	62396
5,60010	62779
5,60455	63006
5,60898	62214
5,61343	61980
5,61787	61256
5,62232	60934
5,62675	63225
5,63120	61025
5,63563	60110
5,64008	63274
5,64452	59983
5,64897	60144
5,65340	60258
5,65785	60677
5,66228	60753
5,66673	61390
5,67117	59021
5,67562	57245
5,68005	58969
5,68450	58521
5,68893	57211
5,69338	57557
5,69783	56380
5,70227	59427
5,70672	57471
5,71115	57961
5,71560	57686
5,72003	55482
5,72448	53821
5,72892	55077
5,73337	58590
5,73780	55009
5,74225	56130
5,74668	54395
5,75113	55915
5,75557	53802
5,76002	53380
5,76445	54351
5,76890	55139
5,77333	54251
5,77778	51993
5,78222	54088
5,78667	54427
5,79110	53391
5,79555	50847
5,79998	51863
5,80443	52466
5,80887	53648
5,81332	52214
5,81777	52601
5,82220	53281
5,82665	53917
5,83108	53294
5,83553	53672
5,83997	53404
5,84442	53612
5,84885	53200
5,85330	52707
5,85773	54966
5,86218	55271
5,86662	53311
5,87107	55134
5,87550	54437
5,87995	54213
5,88438	54896
5,88883	53817
5,89327	52202
5,89772	54019
5,90215	54660
5,90660	51618
5,91103	53451
5,91548	50852
5,91992	50612
5,92437	51173
5,92880	51689
5,93325	50899
5,93770	53034
5,94213	50706
5,94658	51200
5,95102	49987
5,95547	50324
5,95990	50447
5,96435	49327
5,96878	50724
5,97323	48421
5,97767	50695
5,98212	50052
5,98655	49076
5,99100	50610
5,99543	49909
5,99988	49296
6,00432	48694
6,00877	49159
6,01320	47988
6,01765	47799
6,02208	48244
6,02653	47879
6,03097	46530
6,03542	48542
6,03985	46896
6,04430	45762
6,04873	44642
6,05318	48133
6,05763	46961
6,06207	47908
6,06652	47781
6,07095	48559
6,07540	47778
6,07983	53231
6,08428	64354
6,08872	93654
6,09317	141292
6,09760	221773
6,10205	327909
6,10648	448166
6,11093	576846
6,11537	681718
6,11982	766173
6,12425	823308
6,12870	858801
6,13313	855871
6,13758	849275
6,14202	830270
6,14647	808054
6,15090	783123
6,15535	752119
6,15978	716755
6,16423	697731
6,16867	662201
6,17312	634583
6,17757	610143
6,18200	578274
6,18645	545687
6,19088	508106
6,19533	479735
6,19977	445200
6,20422	410565
6,20865	380935
6,21310	351584
6,21753	326389
6,22198	294144
6,22642	268910
6,23087	244823
6,23530	222916
6,23975	197461
6,24418	181771
6,24863	165605
6,25307	150357
6,25752	141153
6,26195	125154
6,26640	114539
6,27083	107679
6,27528	97329
6,27972	91898
6,28417	84288
6,28860	79385
6,29305	72194
6,29748	68016
6,30193	66549
6,30638	60666
6,31082	60351
6,31527	56828
6,31970	53730
6,32415	53128
6,32858	50818
6,33303	46854
6,33747	47591
6,34192	46702
6,34635	44888
6,35080	44550
6,35523	43082
6,35968	44680
6,36412	40635
6,36857	41608
6,37300	39831
6,37745	40350
6,38188	39327
6,38633	38906
6,39077	38954
6,39522	39466
6,39965	39215
6,40410	39325
6,40853	38949
6,41298	37637
6,41742	37285
6,42187	36471
6,42632	36917
6,43075	36657
6,43520	37909
6,43963	38855
6,44408	36341
6,44852	36762
6,45297	35660
6,45740	37470
6,46185	35976
6,46628	36635
6,47073	36286
6,47517	36149
6,47962	36358
6,48405	34644
6,48850	35718
6,49293	35263
6,49738	33735
6,50182	34026
6,50627	35922
6,51070	34997
6,51515	35795
6,51958	34989
6,52403	35085
6,52847	34000
6,53292	34990
6,53735	34325
6,54180	35221
6,54625	34620
6,55068	34197
6,55513	33455
6,55957	33030
6,56402	33981
6,56845	33184
6,57290	33971
6,57733	32041
6,58178	33548
6,58622	33664
6,59067	33674
6,59510	32513
6,59955	32862
6,60398	34824
6,60843	33250
6,61287	33250
6,61732	33061
6,62175	32469
6,62620	33255
6,63063	34299
6,63508	33370
6,63952	32087
6,64397	32766
6,64840	32537
6,65285	31727
6,65728	32854
6,66173	32073
6,66618	31482
6,67062	31526
6,67507	33449
6,67950	31831
6,68395	32359
6,68838	31782
6,69283	31171
6,69727	33244
6,70172	33694
6,70615	35287
6,71060	43793
6,71503	54275
6,71948	74956
6,72392	113038
6,72837	165785
6,73280	230597
6,73725	304626
6,74168	386756
6,74613	452314
6,75057	495365
6,75502	538568
6,75945	563978
6,76390	561204
6,76833	557008
6,77278	536862
6,77722	524144
6,78167	507584
6,78612	491533
6,79055	466056
6,79500	444491
6,79943	422027
6,80388	401696
6,80832	373236
6,81277	347263
6,81720	319623
6,82165	293710
6,82608	268918
6,83053	242704
6,83497	221327
6,83942	198475
6,84385	180788
6,84830	161702
6,85273	146020
6,85718	128510
6,86162	114987
6,86607	105258
6,87050	92853
6,87495	85873
6,87938	74747
6,88383	71446
6,88827	65602
6,89272	57598
6,89715	56041
6,90160	52531
6,90605	49106
6,91048	47225
6,91493	43834
6,91937	41821
6,92382	40341
6,92825	38707
6,93270	37591
6,93713	37127
6,94158	34647
6,94602	33343
6,95047	33949
6,95490	31538
6,95935	33821
6,96378	32444
6,96823	30691
6,97267	33130
6,97712	29389
6,98155	30134
6,98600	30741
6,99043	30709
6,99488	30825
6,99932	30312
7,00377	31883
7,00820	29728
7,01265	30839
7,01708	30785
7,02153	29411
7,02597	31135
7,03042	30768
7,03487	29421
7,03930	29498
7,04375	29489
7,04818	30940
7,05263	30276
7,05707	28527
7,06152	31155
7,06595	31894
7,07040	29629
7,07483	29919
7,07928	31667
7,08372	30584
7,08817	30110
7,09260	31833
7,09705	29711
7,10148	30729
7,10593	28897
7,11037	31574
7,11482	28415
7,11925	29965
7,12370	27773
7,12813	29514
7,13258	27872
7,13702	27089
7,14147	27855
7,14590	27172
7,15035	27670
7,15480	27683
7,15923	26106
7,16368	26724
7,16812	26531
7,17257	27085
7,17700	26518
7,18145	27134
7,18588	24979
7,19033	27407
7,19477	25273
7,19922	26006
7,20365	25915
7,20810	24707
7,21253	25553
7,21698	24258
7,22142	25313
7,22587	25679
7,23030	25812
7,23475	23256
7,23918	24802
7,24363	24155
7,24807	25344
7,25252	25354
7,25695	25420
7,26140	24415
7,26583	24301
7,27028	24493
7,27473	24063
7,27917	24483
7,28362	23271
7,28805	24527
7,29250	24017
7,29693	23467
7,30138	23372
7,30582	24077
7,31027	24022
7,31470	22701
7,31915	24271
7,32358	23796
7,32803	24486
7,33247	24367
7,33692	24067
7,34135	24733
7,34580	24794
7,35023	24603
7,35468	23634
7,35912	24156
7,36357	23996
7,36800	23346
7,37245	24229
7,37688	24307
7,38133	23080
7,38577	23772
7,39022	24358
7,39467	22812
7,39910	24371
7,40355	24249
7,40798	23176
7,41243	23247
7,41687	24396
7,42132	22938
7,42575	23260
7,43020	22525
7,43463	23286
7,43908	22993
7,44352	26143
7,44797	28318
7,45240	37940
7,45685	54605
7,46128	91657
7,46573	151194
7,47017	248935
7,47462	382000
7,47905	551381
7,48350	725145
7,48793	915447
7,49238	1061791
7,49682	1182110
7,50127	1289319
7,50570	1334070
7,51015	1342451
7,51460	1336280
7,51903	1300814
7,52348	1253301
7,52792	1201379
7,53237	1139955
7,53680	1072292
7,54125	1006246
7,54568	926533
7,55013	836995
7,55457	755963
7,55902	683263
7,56345	593696
7,56790	527686
7,57233	462209
7,57678	398822
7,58122	348763
7,58567	290832
7,59010	258783
7,59455	218502
7,59898	192632
7,60343	164400
7,60787	141831
7,61232	125024
7,61675	108616
7,62120	93076
7,62563	86572
7,63008	78092
7,63453	67895
7,63897	62364
7,64342	55496
7,64785	51746
7,65230	47875
7,65673	45297
7,66118	43781
7,66562	41213
7,67007	37854
7,67450	38369
7,67895	36323
7,68338	34818
7,68783	32241
7,69227	31275
7,69672	31504
7,70115	30531
7,70560	29936
7,71003	28659
7,71448	28888
7,71892	27552
7,72337	29133
7,72780	27955
7,73225	25961
7,73668	25693
7,74113	24737
7,74557	25941
7,75002	23986
7,75445	24660
7,75890	24491
7,76335	23506
7,76778	23519
7,77223	24266
7,77667	23460
7,78112	22270
7,78555	21892
7,79000	22896
7,79443	24221
7,79888	22800
7,80332	21715
7,80777	23235
7,81220	22589
7,81665	21909
7,82108	21145
7,82553	21547
7,82997	20948
7,83442	22103
7,83885	22305
7,84330	20672
7,84773	22375
7,85218	23381
7,85662	21963
7,86107	20783
7,86550	20711
7,86995	20914
7,87438	21729
7,87883	21043
7,88328	20099
7,88772	21275
7,89217	20890
7,89660	20856
7,90105	20639
7,90548	22095
7,90993	20409
7,91437	20298
7,91882	20313
7,92325	20857
7,92770	21728
7,93213	20630
7,93658	18844
7,94102	21045
7,94547	19739
7,94990	20983
7,95435	20583
7,95878	19959
7,96323	20890
7,96767	20255
7,97212	20628
7,97655	20636
7,98100	19469
7,98543	19819
7,98988	19802
7,99432	18248
7,99877	20640
8,00322	20101
8,00765	18842
8,01210	19909
8,01653	18752
8,02098	19190
8,02542	18667
8,02987	19551
8,03430	20657
8,03875	19892
8,04318	19441
8,04763	19576
8,05207	18509
8,05652	19122
8,06095	18559
8,06540	20290
8,06983	20303
8,07428	19924
8,07872	19089
8,08317	20125
8,08760	19902
8,09205	19262
8,09648	18611
8,10093	19004
8,10537	19218
8,10982	18743
8,11425	19002
8,11870	18367
8,12315	17154
8,12758	19161
8,13203	18196
8,13647	18951
8,14092	19508
8,14535	17720
8,14980	19805
8,15423	18672
8,15868	17917
8,16312	18861
8,16757	18077
8,17200	18866
8,17645	18752
8,18088	19581
8,18533	19729
8,18977	19327
8,19422	19979
8,19865	21823
8,20310	24255
8,20753	24600
8,21198	23159
8,21642	26119
8,22087	25837
8,22530	24991
8,22975	25651
8,23418	26018
8,23863	25251
8,24308	26547
8,24752	24351
8,25197	24902
8,25640	25030
8,26085	24184
8,26528	22863
8,26973	22227
8,27417	24500
8,27862	23326
8,28305	22153
8,28750	22584
8,29193	23390
8,29638	26413
8,30082	34675
8,30527	49190
8,30970	76767
8,31415	118438
8,31858	183725
8,32303	265736
8,32747	359590
8,33192	463066
8,33635	573057
8,34080	666536
8,34523	741461
8,34968	782758
8,35412	797477
8,35857	810720
8,36302	792471
8,36745	768393
8,37190	730405
8,37633	675785
8,38078	625401
8,38522	562314
8,38967	505676
8,39410	448870
8,39855	389182
8,40298	338530
8,40743	289681
8,41187	244616
8,41632	207189
8,42075	172371
8,42520	145065
8,42963	122094
8,43408	106349
8,43852	88763
8,44297	78779
8,44740	68272
8,45185	60490
8,45628	53969
8,46073	48461
8,46517	43545
8,46962	40706
8,47405	38870
8,47850	33930
8,48293	34712
8,48738	31080
8,49183	28995
8,49627	28554
8,50072	28361
8,50515	26265
8,50960	24284
8,51403	25801
8,51848	24233
8,52292	23506
8,52737	22868
8,53180	22468
8,53625	21579
8,54068	21126
8,54513	21986
8,54957	20673
8,55402	21127
8,55845	20093
8,56290	18666
8,56733	17971
8,57178	18679
8,57622	19033
8,58067	19021
8,58510	19382
8,58955	19162
8,59398	18166
8,59843	17448
8,60287	18336
8,60732	18434
8,61177	17179
8,61620	18727
8,62065	18384
8,62508	18792
8,62953	18335
8,63397	16592
8,63842	17134
8,64285	18159
8,64730	16595
8,65173	17503
8,65618	15687
8,66062	16664
8,66507	16851
8,66950	17774
8,67395	15897
8,67838	16664
8,68283	16235
8,68727	15580
8,69172	16047
8,69615	16509
8,70060	16100
8,70503	16203
8,70948	16112
8,71392	15739
8,71837	15729
8,72280	15708
8,72725	15820
8,73170	15746
8,73613	16688
8,74058	15594
8,74502	15601
8,74947	14742
8,75390	16510
8,75835	16118
8,76278	15477
8,76723	16419
8,77167	16311
8,77612	16968
8,78055	17497
8,78500	18029
8,78943	18422
8,79388	18897
8,79832	18014
8,80277	19735
8,80720	19234
8,81165	19415
8,81608	18934
8,82053	18310
8,82497	17882
8,82942	17672
8,83385	18348
8,83830	17108
8,84273	17344
8,84718	17107
8,85163	16291
8,85607	16032
8,86052	15331
8,86495	15272
8,86940	13995
8,87383	15096
8,87828	15322
8,88272	15211
8,88717	14804
8,89160	15108
8,89605	15327
8,90048	14855
8,90493	14211
8,90937	15401
8,91382	14593
8,91825	14824
8,92270	13990
8,92713	14591
8,93158	14619
8,93602	14238
8,94047	15124
8,94490	14758
8,94935	14785
8,95378	15366
8,95823	14913
8,96267	14839
8,96712	14541
8,97157	15316
8,97600	16292
8,98045	14899
8,98488	13274
8,98933	14881
8,99377	14627
8,99822	14870
9,00265	14698
9,00710	14497
9,01153	13940
9,01598	14323
9,02042	15558
9,02487	15047
9,02930	15347
9,03375	16243
9,03818	16838
9,04263	16724
9,04707	16282
9,05152	16972
9,05595	17491
9,06040	18365
9,06483	17709
9,06928	18042
9,07372	17592
9,07817	19121
9,08260	18863
9,08705	18033
9,09150	17127
9,09593	17331
9,10038	16912
9,10482	16486
9,10927	16323
9,11370	15060
9,11815	15228
9,12258	16781
9,12703	16169
9,13147	16543
9,13592	15453
9,14035	15093
9,14480	14993
9,14923	15122
9,15368	15031
9,15812	14007
9,16257	14593
9,16700	14685
9,17145	14625
9,17588	14048
9,18033	14920
9,18477	13968
9,18922	13460
9,19365	14763
9,19810	12774
9,20253	13128
9,20698	14621
9,21142	15750
9,21587	18072
9,22032	22840
9,22475	34620
9,22920	58676
9,23363	99841
9,23808	170643
9,24252	274247
9,24697	421274
9,25140	617460
9,25585	832928
9,26028	1082318
9,26473	1314704
9,26917	1545679
9,27362	1735380
9,27805	1857136
9,28250	1916914
9,28693	1900163
9,29138	1852548
9,29582	1740035
9,30027	1606029
9,30470	1430521
9,30915	1272069
9,31358	1093555
9,31803	925716
9,32247	769857
9,32692	627359
9,33135	510947
9,33580	412504
9,34025	338348
9,34468	274467
9,34913	223380
9,35357	182964
9,35802	156021
9,36245	127003
9,36690	111415
9,37133	96892
9,37578	85334
9,38022	74697
9,38467	69534
9,38910	62463
9,39355	57109
9,39798	55181
9,40243	51329
9,40687	48516
9,41132	49438
9,41575	43625
9,42020	42723
9,42463	42153
9,42908	38705
9,43352	37445
9,43797	33476
9,44240	32961
9,44685	32578
9,45128	29887
9,45573	29693
9,46018	27516
9,46462	26270
9,46907	25502
9,47350	24011
9,47795	23364
9,48238	22651
9,48683	22070
9,49127	21590
9,49572	20782
9,50015	19508
9,50460	20385
9,50903	19594
9,51348	19473
9,51792	18292
9,52237	18682
9,52680	18107
9,53125	18519
9,53568	17509
9,54013	17650
9,54457	16894
9,54902	16425
9,55345	16020
9,55790	16599
9,56233	16089
9,56678	14564
9,57122	16770
9,57567	15725
9,58012	16618
9,58455	16534
9,58900	17666
9,59343	17065
9,59788	18510
9,60232	18556
9,60677	19204
9,61120	19945
9,61565	20784
9,62008	21629
9,62453	22524
9,62897	23152
9,63342	23364
9,63785	21984
9,64230	21240
9,64673	19958
9,65118	20672
9,65562	17394
9,66007	17160
9,66450	15715
9,66895	17100
9,67338	16446
9,67783	16441
9,68227	14392
9,68672	14031
9,69115	14950
9,69560	14811
9,70005	14212
9,70448	14334
9,70893	14553
9,71337	13258
9,71782	14640
9,72225	13439
9,72670	13464
9,73113	14849
9,73558	14780
9,74002	15562
9,74447	17878
9,74890	15902
9,75335	17232
9,75778	16178
9,76223	16264
9,76667	16609
9,77112	16376
9,77555	15404
9,78000	16907
9,78443	15773
9,78888	15553
9,79332	14499
9,79777	15106
9,80220	13396
9,80665	13539
9,81108	14281
9,81553	14038
9,81998	13319
9,82442	13976
9,82887	13418
9,83330	13432
9,83775	12326
9,84218	13186
9,84663	12875
9,85107	12919
9,85552	13766
9,85995	13268
9,86440	13037
9,86883	12783
9,87328	12486
9,87772	13398
9,88217	13657
9,88660	12173
9,89105	12131
9,89548	12351
9,89993	12263
9,90437	12140
9,90882	12597
9,91325	12513
9,91770	12479
9,92213	12938
9,92658	13722
9,93102	14194
9,93547	19166
9,93990	28514
9,94435	45254
9,94880	74543
9,95323	120782
9,95768	188715
9,96212	274159
9,96657	375784
9,97100	498878
9,97545	624085
9,97988	743897
9,98433	835813
9,98877	902158
9,99322	927930
9,99765	928133
10,00210	898814
10,00653	838768
10,01098	758252
10,01542	671010
10,01987	579545
10,02430	489380
10,02875	406425
10,03318	340759
10,03763	276437
10,04207	225801
10,04652	186059
10,05095	148526
10,05540	123640
10,05983	104326
10,06428	88577
10,06873	73323
10,07317	65181
10,07762	57291
10,08205	49236
10,08650	46275
10,09093	41504
10,09538	37522
10,09982	35530
10,10427	31664
10,10870	27494
10,11315	28304
10,11758	24889
10,12203	23966
10,12647	23026
10,13092	22917
10,13535	21557
10,13980	19567
10,14423	20592
10,14868	18193
10,15312	18660
10,15757	19079
10,16200	17987
10,16645	16503
10,17088	17398
10,17533	16026
10,17977	16339
10,18422	15732
10,18867	16504
10,19310	15428
10,19755	16565
10,20198	21189
10,20643	29229
10,21087	44656
10,21532	72682
10,21975	119082
10,22420	185111
10,22863	275046
10,23308	389639
10,23752	517903
10,24197	653260
10,24640	783560
10,25085	898041
10,25528	985809
10,25973	1020633
10,26417	1043335
10,26862	1015144
10,27305	947317
10,27750	859960
10,28193	745702
10,28638	643995
10,29082	537617
10,29527	443294
10,29970	357208
10,30415	281459
10,30860	228589
10,31303	183149
10,31748	149461
10,32192	122924
10,32637	101175
10,33080	80436
10,33525	71329
10,33968	61442
10,34413	55441
10,34857	48294
10,35302	43123
10,35745	39019
10,36190	35491
10,36633	34709
10,37078	31812
10,37522	28910
10,37967	27401
10,38410	27322
10,38855	23732
10,39298	22446
10,39743	22119
10,40187	21128
10,40632	20732
10,41075	19918
10,41520	18761
10,41963	18347
10,42408	20185
10,42853	18047
10,43297	17662
10,43742	16055
10,44185	16218
10,44630	16144
10,45073	13905
10,45518	15870
10,45962	15720
10,46407	14519
10,46850	14814
10,47295	14227
10,47738	13719
10,48183	13474
10,48627	15201
10,49072	13891
10,49515	13040
10,49960	13203
10,50403	13415
10,50848	13288
10,51292	14597
10,51737	13005
10,52180	12067
10,52625	12611
10,53068	13744
10,53513	13235
10,53957	12790
10,54402	12728
10,54847	12672
10,55290	12802
10,55735	10842
10,56178	11063
10,56623	12907
10,57067	11575
10,57512	12333
10,57955	12465
10,58400	11992
10,58843	11912
10,59288	11628
10,59732	12111
10,60177	11807
10,60620	10860
10,61065	11116
10,61508	12324
10,61953	11353
10,62397	11753
10,62842	11930
10,63285	10958
10,63730	12430
10,64173	11788
10,64618	10464
10,65062	11696
10,65507	12107
10,65950	11970
10,66395	11278
10,66838	11495
10,67283	10536
10,67728	10828
10,68172	11663
10,68617	10693
10,69060	10870
10,69505	11839
10,69948	10698
10,70393	10060
10,70837	10796
10,71282	10107
10,71725	9972
10,72170	10567
10,72613	10834
10,73058	11032
10,73502	11387
10,73947	10460
10,74390	10874
10,74835	11589
10,75278	12268
10,75723	11172
10,76167	10221
10,76612	10768
10,77055	10896
10,77500	11571
10,77943	11494
10,78388	11724
10,78832	12060
10,79277	11204
10,79722	12333
10,80165	11810
10,80610	10347
10,81053	10386
10,81498	11487
10,81942	12231
10,82387	12035
10,82830	10406
10,83275	10352
10,83718	9990
10,84163	11398
10,84607	11361
10,85052	10746
10,85495	10909
10,85940	11761
10,86383	9761
10,86828	10868
10,87272	10165
10,87717	10174
10,88160	11199
10,88605	10473
10,89048	10203
10,89493	11211
10,89937	10230
10,90382	10629
10,90825	11310
10,91270	11113
10,91715	10252
10,92158	10596
10,92603	9837
10,93047	10072
10,93492	10934
10,93935	13050
10,94380	16187
10,94823	23989
10,95268	35769
10,95712	62476
10,96157	98474
10,96600	161596
10,97045	253550
10,97488	361437
10,97933	487019
10,98377	633630
10,98822	767918
10,99265	880624
10,99710	974336
11,00153	1025572
11,00598	1032486
11,01042	986822
11,01487	916171
11,01930	828893
11,02375	721973
11,02818	604696
11,03263	492004
11,03708	396259
11,04152	319866
11,04597	256015
11,05040	204917
11,05485	166310
11,05928	133121
11,06373	109351
11,06817	90822
11,07262	79534
11,07705	66617
11,08150	60282
11,08593	53375
11,09038	44474
11,09482	41222
11,09927	35604
11,10370	33795
11,10815	30852
11,11258	30263
11,11703	26957
11,12147	25167
11,12592	23013
11,13035	22490
11,13480	20135
11,13923	20592
11,14368	19649
11,14812	20071
11,15257	18382
11,15702	18691
11,16145	16410
11,16590	17170
11,17033	17188
11,17478	16431
11,17922	17250
11,18367	14341
11,18810	15838
11,19255	14568
11,19698	15224
11,20143	15951
11,20587	17664
11,21032	24696
11,21475	36596
11,21920	61384
11,22363	108053
11,22808	180880
11,23252	293214
11,23697	454419
11,24140	664834
11,24585	951341
11,25028	1281721
11,25473	1651739
11,25917	2056163
11,26362	2475199
11,26805	2857490
11,27250	3206264
11,27695	3397802
11,28138	3463041
11,28583	3329775
11,29027	3048496
11,29472	2629139
11,29915	2179641
11,30360	1715152
11,30803	1334811
11,31248	1020387
11,31692	788294
11,32137	595844
11,32580	469529
11,33025	377120
11,33468	302600
11,33913	252928
11,34357	213741
11,34802	178190
11,35245	155280
11,35690	137021
11,36133	122068
11,36578	108577
11,37022	94742
11,37467	83445
11,37910	80655
11,38355	71348
11,38798	64883
11,39243	58928
11,39687	56455
11,40132	51560
11,40577	50102
11,41020	44511
11,41465	44267
11,41908	41234
11,42353	36387
11,42797	36292
11,43242	34922
11,43685	33844
11,44130	31231
11,44573	30869
11,45018	29014
11,45462	29683
11,45907	26829
11,46350	25925
11,46795	25769
11,47238	24062
11,47683	23046
11,48127	22970
11,48572	21992
11,49015	20994
11,49460	20197
11,49903	18727
11,50348	19646
11,50792	18553
11,51237	18051
11,51680	18158
11,52125	16739
11,52570	16762
11,53013	16041
11,53458	16014
11,53902	16477
11,54347	16043
11,54790	14664
11,55235	14292
11,55678	14718
11,56123	15463
11,56567	14305
11,57012	13379
11,57455	13855
11,57900	13084
11,58343	13665
11,58788	13230
11,59232	13733
11,59677	12476
11,60120	12845
11,60565	12941
11,61008	13242
11,61453	13054
11,61897	12146
11,62342	12757
11,62785	12696
11,63230	12147
11,63673	13856
11,64118	11253
11,64563	11485
11,65007	12514
11,65452	11409
11,65895	11922
11,66340	12724
11,66783	13068
11,67228	12470
11,67672	13107
11,68117	13358
11,68560	12141
11,69005	11200
11,69448	12424
11,69893	11220
11,70337	11891
11,70782	11237
11,71225	11825
11,71670	12527
11,72113	11562
11,72558	11281
11,73002	11036
11,73447	10849
11,73890	10873
11,74335	9813
11,74778	10589
11,75223	10196
11,75667	10213
11,76112	11012
11,76557	12107
11,77000	10345
11,77445	10968
11,77888	11710
11,78333	12581
11,78777	12520
11,79222	12691
11,79665	12964
11,80110	12129
11,80553	12455
11,80998	12240
11,81442	13025
11,81887	13485
11,82330	14736
11,82775	17475
11,83218	20332
11,83663	24850
11,84107	37016
11,84552	55971
11,84995	88595
11,85440	142027
11,85883	221993
11,86328	327481
11,86772	459259
11,87217	611068
11,87660	774139
11,88105	901217
11,88550	1001530
11,88993	1069696
11,89438	1088316
11,89882	1043315
11,90327	960934
11,90770	845354
11,91215	713971
11,91658	591457
11,92103	474090
11,92547	375354
11,92992	300224
11,93435	234245
11,93880	187254
11,94323	149026
11,94768	125167
11,95212	104075
11,95657	88138
11,96100	78460
11,96545	67495
11,96988	57928
11,97433	54722
11,97877	47576
11,98322	46539
11,98765	43886
11,99210	40351
11,99653	43467
12,00098	42516
12,00543	40570
12,00987	41102
12,01432	38136
12,01875	39698
12,02320	37070
12,02763	34859
12,03208	32555
12,03652	32000
12,04097	30095
12,04540	25913
12,04985	24611
12,05428	23601
12,05873	20438
12,06317	19786
12,06762	18250
12,07205	17497
12,07650	16497
12,08093	16643
12,08538	13783
12,08982	14670
12,09427	15534
12,09870	13434
12,10315	14093
12,10758	12929
12,11203	12629
12,11647	13006
12,12092	12863
12,12535	12081
12,12980	12294
12,13425	11382
12,13868	11670
12,14313	10695
12,14757	10731
12,15202	11600
12,15645	10811
12,16090	10446
12,16533	10528
12,16978	10995
12,17422	11255
12,17867	10482
12,18310	10635
12,18755	10090
12,19198	10479
12,19643	9754
12,20087	9505
12,20532	9499
12,20975	9646
12,21420	10349
12,21863	11320
12,22308	11351
12,22752	12454
12,23197	14878
12,23640	22604
12,24085	37955
12,24528	59568
12,24973	103862
12,25418	166247
12,25862	260533
12,26307	384167
12,26750	514999
12,27195	676141
12,27638	834773
12,28083	982066
12,28527	1103981
12,28972	1163725
12,29415	1190012
12,29860	1129252
12,30303	1021652
12,30748	895331
12,31192	731990
12,31637	593204
12,32080	471334
12,32525	367698
12,32968	288502
12,33413	219535
12,33857	177005
12,34302	142078
12,34745	115878
12,35190	98474
12,35633	84006
12,36078	71920
12,36522	62860
12,36967	55257
12,37412	48239
12,37855	45027
12,38300	40506
12,38743	36547
12,39188	32698
12,39632	31947
12,40077	28594
12,40520	27883
12,40965	24645
12,41408	23927
12,41853	21447
12,42297	22280
12,42742	19917
12,43185	19337
12,43630	16976
12,44073	18347
12,44518	17757
12,44962	16300
12,45407	16070
12,45850	15935
12,46295	14548
12,46738	14283
12,47183	16255
12,47627	14758
12,48072	13788
12,48515	12253
12,48960	13845
12,49405	13281
12,49848	12860
12,50293	14073
12,50737	11826
12,51182	12454
12,51625	13080
12,52070	12389
12,52513	12334
12,52958	12129
12,53402	11805
12,53847	10482
12,54290	11753
12,54735	11689
12,55178	11372
12,55623	11340
12,56067	11168
12,56512	10437
12,56955	11228
12,57400	11437
12,57843	11920
12,58288	10159
12,58732	10786
12,59177	10032
12,59620	11374
12,60065	11015
12,60508	10925
12,60953	11781
12,61398	9920
12,61842	10674
12,62287	11431
12,62730	10006
12,63175	10290
12,63618	10958
12,64063	10514
12,64507	10563
12,64952	11522
12,65395	11071
12,65840	10988
12,66283	10423
12,66728	10097
12,67172	10557
12,67617	10595
12,68060	11027
12,68505	9845
12,68948	11033
12,69393	9180
12,69837	10228
12,70282	9665
12,70725	9596
12,71170	9421
12,71613	10358
12,72058	9564
12,72502	9244
12,72947	9791
12,73392	8413
12,73835	9551
12,74280	9124
12,74723	9074
12,75168	8883
12,75612	8706
12,76057	9553
12,76500	9954
12,76945	8138
12,77388	8609
12,77833	9393
12,78277	8920
12,78722	9444
12,79165	9410
12,79610	9670
12,80053	9322
12,80498	9702
12,80942	9250
12,81387	11055
12,81830	11225
12,82275	9045
12,82718	8864
12,83163	9305
12,83607	10000
12,84052	9842
12,84495	9682
12,84940	10694
12,85383	13870
12,85828	19229
12,86273	31278
12,86717	51298
12,87162	87298
12,87605	142027
12,88050	220218
12,88493	332011
12,88938	470368
12,89382	614500
12,89827	792188
12,90270	953514
12,90715	1077216
12,91158	1155809
12,91603	1175561
12,92047	1118254
12,92492	1029697
12,92935	886929
12,93380	732544
12,93823	592369
12,94268	465499
12,94712	369569
12,95157	291057
12,95600	225748
12,96045	182983
12,96488	146653
12,96933	119729
12,97377	101354
12,97822	87365
12,98267	73564
12,98710	64735
12,99155	56645
12,99598	51341
13,00043	44420
13,00487	43522
13,00932	37743
13,01375	34476
13,01820	31252
13,02263	28074
13,02708	26210
13,03152	25926
13,03597	23816
13,04040	23000
13,04485	21472
13,04928	22044
13,05373	18835
13,05817	17557
13,06262	17185
13,06705	16429
13,07150	14053
13,07593	15586
13,08038	15203
13,08482	15646
13,08927	14931
13,09370	14782
13,09815	14111
13,10260	14872
13,10703	12307
13,11148	11918
13,11592	11025
13,12037	12005
13,12480	11507
13,12925	12365
13,13368	11553
13,13813	12725
13,14257	11242
13,14702	13263
13,15145	14680
13,15590	14991
13,16033	17018
13,16478	20268
13,16922	22150
13,17367	25719
13,17810	27036
13,18255	29434
13,18698	29418
13,19143	30327
13,19587	28673
13,20032	27777
13,20475	25265
13,20920	23358
13,21363	19767
13,21808	18206
13,22253	18291
13,22697	17021
13,23142	15473
13,23585	16107
13,24030	14631
13,24473	17599
13,24918	21628
13,25362	32791
13,25807	52111
13,26250	90542
13,26695	148817
13,27138	237209
13,27583	363936
13,28027	520145
13,28472	731452
13,28915	983201
13,29360	1223384
13,29803	1512403
13,30248	1819565
13,30692	2071792
13,31137	2314399
13,31580	2437941
13,32025	2422839
13,32468	2298123
13,32913	2051869
13,33357	1711231
13,33802	1385346
13,34247	1073401
13,34690	824958
13,35135	628681
13,35578	482392
13,36023	379989
13,36467	300755
13,36912	242715
13,37355	199635
13,37800	168572
13,38243	144813
13,38688	125915
13,39132	112812
13,39577	99383
13,40020	89826
13,40465	76541
13,40908	70610
13,41353	63465
13,41797	59421
13,42242	53256
13,42685	49906
13,43130	46804
13,43573	44127
13,44018	40359
13,44462	37868
13,44907	35333
13,45350	34237
13,45795	32252
13,46240	29831
13,46683	28983
13,47128	26016
13,47572	24490
13,48017	23881
13,48460	24238
13,48905	22476
13,49348	21613
13,49793	21931
13,50237	21210
13,50682	20253
13,51125	18832
13,51570	17490
13,52013	17069
13,52458	18742
13,52902	17435
13,53347	15952
13,53790	17125
13,54235	15992
13,54678	14456
13,55123	15580
13,55567	14160
13,56012	15126
13,56455	14380
13,56900	13746
13,57343	13383
13,57788	13134
13,58232	12991
13,58677	13918
13,59122	13393
13,59565	14228
13,60010	15905
13,60453	18320
13,60898	24336
13,61342	39850
13,61787	60973
13,62230	106227
13,62675	166754
13,63118	249936
13,63563	357789
13,64007	496946
13,64452	654754
13,64895	826734
13,65340	965237
13,65783	1080876
13,66228	1142150
13,66672	1157004
13,67117	1102026
13,67560	1008473
13,68005	875684
13,68448	733818
13,68893	595351
13,69337	477182
13,69782	376161
13,70225	293635
13,70670	232324
13,71115	183424
13,71558	147652
13,72003	124480
13,72447	104424
13,72892	86789
13,73335	75802
13,73780	68328
13,74223	59960
13,74668	53690
13,75112	47364
13,75557	44255
13,76000	39548
13,76445	36441
13,76888	34972
13,77333	32389
13,77777	33239
13,78222	32820
13,78665	40162
13,79110	52780
13,79553	80485
13,79998	125216
13,80442	203243
13,80887	308965
13,81330	460486
13,81775	654277
13,82218	895063
13,82663	1181304
13,83108	1490408
13,83552	1812091
13,83997	2090703
13,84440	2283285
13,84885	2372052
13,85328	2305360
13,85773	2131918
13,86217	1866200
13,86662	1544074
13,87105	1220825
13,87550	945260
13,87993	726895
13,88438	558186
13,88882	434186
13,89327	346527
13,89770	275983
13,90215	231803
13,90658	192739
13,91103	164458
13,91547	141126
13,91992	124257
13,92435	107708
13,92880	95378
13,93323	88432
13,93768	79066
13,94212	73832
13,94657	67573
13,95102	59819
13,95545	54480
13,95990	55096
13,96433	47714
13,96878	45480
13,97322	41965
13,97767	39729
13,98210	36164
13,98655	36040
13,99098	34696
13,99543	31115
13,99987	30516
14,00432	30202
14,00875	30159
14,01320	30338
14,01763	30821
14,02208	30548
14,02652	30323
14,03097	27420
14,03540	25851
14,03985	24339
14,04428	23870
14,04873	22365
14,05317	18752
14,05762	17872
14,06205	17449
14,06650	17701
14,07095	17566
14,07538	17500
14,07983	17068
14,08427	15300
14,08872	14537
14,09315	15959
14,09760	14062
14,10203	14128
14,10648	13569
14,11092	13825
14,11537	13493
14,11980	13281
14,12425	12035
14,12868	13247
14,13313	12595
14,13757	13299
14,14202	12938
14,14645	12696
14,15090	10769
14,15533	11741
14,15978	11279
14,16422	11076
14,16867	11298
14,17310	13137
14,17755	11425
14,18198	12414
14,18643	12456
14,19088	13921
14,19532	19437
14,19977	28860
14,20420	47458
14,20865	80339
14,21308	134953
14,21753	209953
14,22197	321222
14,22642	450911
14,23085	608539
14,23530	763925
14,23973	916459
14,24418	1041190
14,24862	1099859
14,25307	1088381
14,25750	1036079
14,26195	930108
14,26638	799657
14,27083	651996
14,27527	526109
14,27972	417304
14,28415	324761
14,28860	258851
14,29303	204245
14,29748	164632
14,30192	135954
14,30637	115050
14,31080	97234
14,31525	85432
14,31970	75883
14,32413	67678
14,32858	59450
14,33302	52599
14,33747	47216
14,34190	42775
14,34635	39486
14,35078	36096
14,35523	32862
14,35967	31201
14,36412	29659
14,36855	28012
14,37300	26191
14,37743	24672
14,38188	22509
14,38632	22610
14,39077	22188
14,39520	19534
14,39965	19431
14,40408	18832
14,40853	18599
14,41297	16429
14,41742	17983
14,42185	15768
14,42630	16168
14,43073	16603
14,43518	14548
14,43963	15748
14,44407	15871
14,44852	16282
14,45295	15393
14,45740	15391
14,46183	16310
14,46628	14540
14,47072	15693
14,47517	15078
14,47960	14149
14,48405	13600
14,48848	13651
14,49293	12530
14,49737	12878
14,50182	12802
14,50625	13272
14,51070	12947
14,51513	13537
14,51958	11996
14,52402	13847
14,52847	12982
14,53290	14036
14,53735	14116
14,54178	12513
14,54623	12121
14,55067	11568
14,55512	11972
14,55957	12039
14,56400	11292
14,56845	11669
14,57288	10663
14,57733	11555
14,58177	9977
14,58622	10911
14,59065	11719
14,59510	11317
14,59953	12858
14,60398	14783
14,60842	22316
14,61287	34108
14,61730	52522
14,62175	90572
14,62618	148886
14,63063	229736
14,63507	339934
14,63952	473385
14,64395	619035
14,64840	781101
14,65283	914883
14,65728	1019486
14,66172	1062569
14,66617	1042585
14,67060	970923
14,67505	853320
14,67950	721013
14,68393	594963
14,68838	467515
14,69282	371377
14,69727	292433
14,70170	224932
14,70615	184717
14,71058	149953
14,71503	120385
14,71947	102088
14,72392	86303
14,72835	75365
14,73280	66939
14,73723	58790
14,74168	51391
14,74612	47181
14,75057	43893
14,75500	41227
14,75945	36432
14,76388	34178
14,76833	31909
14,77277	30770
14,77722	27863
14,78165	25679
14,78610	24849
14,79053	22778
14,79498	23237
14,79943	22144
14,80387	21330
14,80832	21344
14,81275	21093
14,81720	21051
14,82163	20292
14,82608	18469
14,83052	19198
14,83497	19650
14,83940	18467
14,84385	18063
14,84828	17087
14,85273	15782
14,85717	14966
14,86162	14785
14,86605	15867
14,87050	15267
14,87493	13214
14,87938	13787
14,88382	13093
14,88827	13867
14,89270	11764
14,89715	13494
14,90158	13206
14,90603	12473
14,91047	11807
14,91492	11259
14,91937	10967
14,92380	11356
14,92825	11427
14,93268	11124
14,93713	10742
14,94157	11152
14,94602	12402
14,95045	10470
14,95490	9892
14,95933	10730
14,96378	10558
14,96822	9687
14,97267	10118
14,97710	10604
14,98155	10659
14,98598	9983
14,99043	10190
14,99487	11371
14,99932	10757
15,00375	10253
15,00820	10289
15,01263	9677
15,01708	11252
15,02152	10589
15,02597	10160
15,03040	10700
15,03485	9791
15,03928	10691
15,04373	10864
15,04818	9438
15,05262	9640
15,05707	10435
15,06150	9110
15,06595	10071
15,07038	10347
15,07483	9633
15,07927	8711
15,08372	10469
15,08815	9613
15,09260	9882
15,09703	10009
15,10148	10133
15,10592	9934
15,11037	10301
15,11480	9223
15,11925	10239
15,12368	10491
15,12813	9754
15,13257	8906
15,13702	9091
15,14145	8913
15,14590	9270
15,15033	9517
15,15478	9496
15,15922	9260
15,16367	9542
15,16812	8627
15,17255	9750
15,17700	9535
15,18143	12026
15,18588	14369
15,19032	21975
15,19477	34063
15,19920	59556
15,20365	99648
15,20808	163684
15,21253	251775
15,21697	363202
15,22142	498385
15,22585	654911
15,23030	795616
15,23473	923452
15,23918	1011820
15,24362	1072155
15,24807	1094961
15,25250	1106333
15,25695	1109763
15,26138	1148051
15,26583	1232817
15,27027	1339935
15,27472	1510524
15,27915	1710378
15,28360	1946002
15,28805	2181968
15,29248	2405101
15,29693	2519563
15,30137	2543207
15,30582	2427327
15,31025	2158663
15,31470	1837214
15,31913	1472431
15,32358	1145827
15,32802	880190
15,33247	671244
15,33690	526418
15,34135	418437
15,34578	334953
15,35023	278133
15,35467	239997
15,35912	198459
15,36355	173242
15,36800	150613
15,37243	136253
15,37688	119341
15,38132	107715
15,38577	102743
15,39020	94812
15,39465	87006
15,39908	81340
15,40353	80823
15,40798	77379
15,41242	77827
15,41687	71147
15,42130	69565
15,42575	67851
15,43018	66102
15,43463	60906
15,43907	55821
15,44352	52243
15,44795	48137
15,45240	45192
15,45683	41579
15,46128	38697
15,46572	37258
15,47017	36090
15,47460	33229
15,47905	29638
15,48348	29068
15,48793	29050
15,49237	27350
15,49682	26821
15,50125	25092
15,50570	23589
15,51013	23393
15,51458	22341
15,51902	23106
15,52347	22483
15,52792	20345
15,53235	19489
15,53680	19367
15,54123	19202
15,54568	19426
15,55012	21085
15,55457	23780
15,55900	32069
15,56345	47542
15,56788	74106
15,57233	116658
15,57677	186005
15,58122	279121
15,58565	393137
15,59010	517426
15,59453	642145
15,59898	766123
15,60342	866391
15,60787	914927
15,61230	925116
15,61675	879117
15,62118	795390
15,62563	682535
15,63007	567488
15,63452	461675
15,63895	371406
15,64340	290549
15,64785	226758
15,65228	183632
15,65673	146705
15,66117	123962
15,66562	101901
15,67005	89083
15,67450	77265
15,67893	65391
15,68338	58458
15,68782	51829
15,69227	52063
15,69670	43820
15,70115	41310
15,70558	38459
15,71003	36750
15,71447	32421
15,71892	31902
15,72335	31641
15,72780	30910
15,73223	30229
15,73668	31930
15,74112	35874
15,74557	42485
15,75000	60794
15,75445	89332
15,75888	136831
15,76333	207033
15,76777	305097
15,77222	424769
15,77667	578883
15,78110	732538
15,78555	888231
15,78998	1030180
15,79443	1126615
15,79887	1164088
15,80332	1138354
15,80775	1058619
15,81220	930480
15,81663	789306
15,82108	641179
15,82552	511942
15,82997	406326
15,83440	316463
15,83885	252692
15,84328	201024
15,84773	169079
15,85217	140129
15,85662	118731
15,86105	102269
15,86550	89152
15,86993	77782
15,87438	70139
15,87882	63308
15,88327	59232
15,88770	54475
15,89215	49251
15,89660	45665
15,90103	40512
15,90548	39808
15,90992	37432
15,91437	34608
15,91880	32028
15,92325	30550
15,92768	28363
15,93213	28414
15,93657	28616
15,94102	24253
15,94545	27168
15,94990	26364
15,95433	22129
15,95878	24174
15,96322	21948
15,96767	22389
15,97210	20445
15,97655	19552
15,98098	20278
15,98543	18511
15,98987	18162
15,99432	18441
15,99875	18013
16,00320	16919
16,00763	18513
16,01208	17504
16,01653	16228
16,02097	16061
16,02542	17183
16,02985	17864
16,03430	16400
16,03873	15565
16,04318	14254
16,04762	15536
16,05207	14608
16,05650	15106
16,06095	13666
16,06538	14663
16,06983	13129
16,07427	13585
16,07872	11920
16,08315	13277
16,08760	13173
16,09203	13206
16,09648	12283
16,10092	13793
16,10537	13670
16,10980	13118
16,11425	13763
16,11868	15490
16,12313	16753
16,12757	17459
16,13202	18807
16,13647	17354
16,14090	15741
16,14535	14231
16,14978	14452
16,15423	13800
16,15867	13237
16,16312	12551
16,16755	13219
16,17200	12320
16,17643	13815
16,18088	16636
16,18532	23704
16,18977	31534
16,19420	53023
16,19865	82443
16,20308	133658
16,20753	210298
16,21197	314299
16,21642	443300
16,22085	587223
16,22530	758352
16,22973	938244
16,23418	1082167
16,23862	1209830
16,24307	1268899
16,24750	1244574
16,25195	1152076
16,25640	997335
16,26083	828349
16,26528	662136
16,26972	515823
16,27417	402021
16,27860	312941
16,28305	251690
16,28748	206694
16,29193	163421
16,29637	141072
16,30082	116267
16,30525	102324
16,30970	90437
16,31413	81032
16,31858	72330
16,32302	66748
16,32747	59837
16,33190	54820
16,33635	52143
16,34078	47839
16,34523	43274
16,34967	41011
16,35412	38521
16,35855	38747
16,36300	35808
16,36743	32893
16,37188	34276
16,37633	31925
16,38077	32151
16,38522	30320
16,38965	28952
16,39410	27314
16,39853	27306
16,40298	26405
16,40742	23417
16,41187	24915
16,41630	21497
16,42075	19040
16,42518	19817
16,42963	19685
16,43407	18497
16,43852	17976
16,44295	19003
16,44740	17549
16,45183	18044
16,45628	16954
16,46072	17433
16,46517	15661
16,46960	18504
16,47405	17892
16,47848	18051
16,48293	17477
16,48737	15344
16,49182	15720
16,49625	16789
16,50070	13958
16,50515	16040
16,50958	15265
16,51403	13954
16,51847	14103
16,52292	15988
16,52735	16726
16,53180	18265
16,53623	23994
16,54068	36366
16,54512	53334
16,54957	89917
16,55400	146608
16,55845	221534
16,56288	329159
16,56733	458762
16,57177	599278
16,57622	742624
16,58065	881505
16,58510	975220
16,58953	1024561
16,59398	1026275
16,59842	966305
16,60287	859304
16,60730	726265
16,61175	597132
16,61618	482168
16,62063	378015
16,62508	301622
16,62952	240588
16,63397	193689
16,63840	154508
16,64285	131950
16,64728	111580
16,65173	94890
16,65617	80865
16,66062	73915
16,66505	66109
16,66950	59881
16,67393	52780
16,67838	49049
16,68282	46586
16,68727	41910
16,69170	39176
16,69615	36532
16,70058	34265
16,70503	32470
16,70947	30945
16,71392	28607
16,71835	27303
16,72280	27523
16,72723	24601
16,73168	23840
16,73612	22743
16,74057	24531
16,74502	23136
16,74945	21679
16,75390	21559
16,75833	18986
16,76278	19133
16,76722	19757
16,77167	19227
16,77610	17937
16,78055	18866
16,78498	18811
16,78943	16661
16,79387	17226
16,79832	16856
16,80275	16785
16,80720	16344
16,81163	17114
16,81608	14624
16,82052	16572
16,82497	15392
16,82940	14584
16,83385	14132
16,83828	15321
16,84273	13951
16,84717	14933
16,85162	12914
16,85605	14099
16,86050	14626
16,86495	13926
16,86938	13864
16,87383	13576
16,87827	13372
16,88272	13448
16,88715	12767
16,89160	13312
16,89603	14108
16,90048	13479
16,90492	13399
16,90937	13337
16,91380	13244
16,91825	13711
16,92268	13116
16,92713	12956
16,93157	12777
16,93602	13462
16,94045	15053
16,94490	16215
16,94933	14304
16,95378	14882
16,95822	14404
16,96267	14759
16,96710	14762
16,97155	16017
16,97598	14000
16,98043	14945
16,98488	14088
16,98932	13512
16,99377	14503
16,99820	13890
17,00265	13646
17,00708	11668
17,01153	13329
17,01597	13376
17,02042	12051
17,02485	13515
17,02930	13525
17,03373	11500
17,03818	12085
17,04262	12727
17,04707	11915
17,05150	11757
17,05595	11646
17,06038	12288
17,06483	12440
17,06927	12245
17,07372	13148
17,07815	12575
17,08260	14307
17,08703	14966
17,09148	20461
17,09592	28149
17,10037	43736
17,10482	74082
17,10925	130454
17,11370	203884
17,11813	320310
17,12258	468557
17,12702	657440
17,13147	858760
17,13590	1070025
17,14035	1272244
17,14478	1465844
17,14923	1621730
17,15367	1723017
17,15812	1839066
17,16255	1955310
17,16700	2060986
17,17143	2201447
17,17588	2354033
17,18032	2486787
17,18477	2548903
17,18920	2499371
17,19365	2334596
17,19808	2051504
17,20253	1692881
17,20697	1340892
17,21142	1043020
17,21585	795734
17,22030	625462
17,22473	506122
17,22918	415013
17,23363	339053
17,23807	290142
17,24252	248539
17,24695	212442
17,25140	193589
17,25583	170291
17,26028	152769
17,26472	137285
17,26917	129459
17,27360	115775
17,27805	107099
17,28248	100424
17,28693	91609
17,29137	84431
17,29582	81544
17,30025	74702
17,30470	69935
17,30913	66362
17,31358	62613
17,31802	60816
17,32247	59493
17,32690	55275
17,33135	52778
17,33578	49739
17,34023	47410
17,34467	46183
17,34912	43824
17,35357	41767
17,35800	39811
17,36245	38040
17,36688	38902
17,37133	37204
17,37577	34894
17,38022	35109
17,38465	32787
17,38910	33941
17,39353	30611
17,39798	30442
17,40242	29882
17,40687	30641
17,41130	27733
17,41575	27750
17,42018	27938
17,42463	27615
17,42907	29514
17,43352	27849
17,43795	29070
17,44240	39293
17,44683	50252
17,45128	75527
17,45572	113623
17,46017	169813
17,46460	253404
17,46905	371483
17,47350	493054
17,47793	644034
17,48238	781038
17,48682	889448
17,49127	949712
17,49570	959837
17,50015	929259
17,50458	855756
17,50903	752061
17,51347	651386
17,51792	572122
17,52235	520558
17,52680	507908
17,53123	531391
17,53568	584806
17,54012	663094
17,54457	776313
17,54900	857529
17,55345	923190
17,55788	939586
17,56233	900990
17,56677	851159
17,57122	760713
17,57565	663233
17,58010	552765
17,58453	465986
17,58898	378287
17,59343	308312
17,59787	254745
17,60232	225536
17,60675	210847
17,61120	214140
17,61563	231331
17,62008	285684
17,62452	350827
17,62897	436264
17,63340	555067
17,63785	698069
17,64228	845588
17,64673	989763
17,65117	1097684
17,65562	1144329
17,66005	1134899
17,66450	1072654
17,66893	964760
17,67338	825997
17,67782	688618
17,68227	557866
17,68670	450918
17,69115	363257
17,69558	290626
17,70003	242567
17,70447	205443
17,70892	174109
17,71337	153984
17,71780	133202
17,72225	118703
17,72668	104354
17,73113	98122
17,73557	89248
17,74002	83878
17,74445	78579
17,74890	72970
17,75333	69095
17,75778	63225
17,76222	60683
17,76667	54390
17,77110	53207
17,77555	50134
17,77998	48554
17,78443	45414
17,78887	43258
17,79332	40445
17,79775	38947
17,80220	37534
17,80663	36173
17,81108	34186
17,81552	34412
17,81997	33038
17,82440	31794
17,82885	31667
17,83330	31555
17,83773	28495
17,84218	29618
17,84662	29505
17,85107	26392
17,85550	27948
17,85995	27210
17,86438	26315
17,86883	26346
17,87327	25189
17,87772	26112
17,88215	26432
17,88660	27497
17,89103	25227
17,89548	25297
17,89992	24242
17,90437	23552
17,90880	24122
17,91325	22084
17,91768	22280
17,92213	21965
17,92657	23298
17,93102	21504
17,93545	19604
17,93990	19577
17,94433	20216
17,94878	20629
17,95322	20971
17,95767	19736
17,96212	20191
17,96655	19299
17,97100	19435
17,97543	19221
17,97988	19571
17,98432	17960
17,98877	17752
17,99320	19767
17,99765	20819
18,00208	25202
18,00653	29388
18,01097	36482
18,01542	51295
18,01985	76778
18,02430	121639
18,02873	180750
18,03318	264317
18,03762	377387
18,04207	506033
18,04650	662222
18,05095	820934
18,05538	973694
18,05983	1094278
18,06427	1177090
18,06872	1186437
18,07315	1140528
18,07760	1013281
18,08205	867371
18,08648	703543
18,09093	560087
18,09537	446477
18,09982	353450
18,10425	288061
18,10870	234468
18,11313	198981
18,11758	166964
18,12202	146470
18,12647	131690
18,13090	117784
18,13535	107759
18,13978	98193
18,14423	89751
18,14867	81908
18,15312	74554
18,15755	70369
18,16200	66143
18,16643	59907
18,17088	56846
18,17532	57535
18,17977	51124
18,18420	49044
18,18865	49654
18,19308	48858
18,19753	44489
18,20198	44751
18,20642	44541
18,21087	42172
18,21530	42055
18,21975	42002
18,22418	37592
18,22863	37736
18,23307	35278
18,23752	35475
18,24195	34991
18,24640	33529
18,25083	34302
18,25528	34296
18,25972	31242
18,26417	31175
18,26860	31185
18,27305	29590
18,27748	28511
18,28193	27972
18,28637	27315
18,29082	26254
18,29525	27599
18,29970	25113
18,30413	25802
18,30858	25393
18,31302	24091
18,31747	23191
18,32192	23016
18,32635	21234
18,33080	21136
18,33523	22201
18,33968	21997
18,34412	21006
18,34857	24262
18,35300	28809
18,35745	36028
18,36188	51015
18,36633	78136
18,37077	119320
18,37522	179242
18,37965	267106
18,38410	369205
18,38853	497056
18,39298	640815
18,39742	783652
18,40187	897357
18,40630	981433
18,41075	995656
18,41518	983970
18,41963	893223
18,42407	787336
18,42852	658188
18,43295	549073
18,43740	458032
18,44185	397401
18,44628	375995
18,45073	382650
18,45517	418878
18,45962	485089
18,46405	579778
18,46850	678450
18,47293	767206
18,47738	831497
18,48182	849832
18,48627	842693
18,49070	788451
18,49515	716515
18,49958	635268
18,50403	525416
18,50847	438626
18,51292	355567
18,51735	293326
18,52180	236972
18,52623	198673
18,53068	167769
18,53512	143709
18,53957	122766
18,54400	111754
18,54845	99618
18,55288	88763
18,55733	78359
18,56178	74512
18,56622	69540
18,57067	62459
18,57510	58810
18,57955	55630
18,58398	50904
18,58843	49962
18,59287	48464
18,59732	44266
18,60175	43604
18,60620	41409
18,61063	41633
18,61508	38371
18,61952	35341
18,62397	37518
18,62840	34087
18,63285	32810
18,63728	31442
18,64173	32257
18,64617	30055
18,65062	30792
18,65505	29119
18,65950	28518
18,66393	28789
18,66838	28824
18,67282	27135
18,67727	27525
18,68170	28079
18,68615	26550
18,69060	27076
18,69503	25289
18,69948	24708
18,70392	24164
18,70837	24365
18,71280	23837
18,71725	24036
18,72168	23699
18,72613	24299
18,73057	24456
18,73502	20884
18,73945	23441
18,74390	22611
18,74833	22580
18,75278	22204
18,75722	21783
18,76167	21605
18,76610	22657
18,77055	23049
18,77498	19827
18,77943	21628
18,78387	20538
18,78832	20891
18,79275	20602
18,79720	20194
18,80163	18967
18,80608	20487
18,81053	19411
18,81497	20539
18,81942	18479
18,82385	20079
18,82830	21238
18,83273	20883
18,83718	21402
18,84162	18826
18,84607	19789
18,85050	19506
18,85495	19166
18,85938	20068
18,86383	20550
18,86827	19435
18,87272	21232
18,87715	24854
18,88160	30413
18,88603	40974
18,89048	58906
18,89492	84654
18,89937	124267
18,90380	187871
18,90825	260726
18,91268	364541
18,91713	479350
18,92157	616639
18,92602	799853
18,93047	988164
18,93490	1194897
18,93935	1418078
18,94378	1641103
18,94823	1824276
18,95267	2012646
18,95712	2143683
18,96155	2160625
18,96600	2034417
18,97043	1799712
18,97488	1491052
18,97932	1179321
18,98377	914614
18,98820	712617
18,99265	573668
18,99708	458482
19,00153	380579
19,00597	325516
19,01042	280621
19,01485	245481
19,01930	213875
19,02373	186762
19,02818	174281
19,03262	156988
19,03707	144749
19,04150	132746
19,04595	121476
19,05040	114601
19,05483	107065
19,05928	99995
19,06372	92404
19,06817	86324
19,07260	84350
19,07705	79807
19,08148	74987
19,08593	72468
19,09037	67709
19,09482	65481
19,09925	62609
19,10370	60993
19,10813	58085
19,11258	57177
19,11702	55854
19,12147	51898
19,12590	53459
19,13035	49233
19,13478	47332
19,13923	46982
19,14367	46314
19,14812	44154
19,15255	42851
19,15700	44909
19,16143	40343
19,16588	39448
19,17033	39065
19,17477	37933
19,17922	36838
19,18365	35762
19,18810	35902
19,19253	35452
19,19698	35593
19,20142	33680
19,20587	34259
19,21030	35675
19,21475	33632
19,21918	30505
19,22363	34413
19,22807	32733
19,23252	32590
19,23695	32000
19,24140	33720
19,24583	33254
19,25028	32183
19,25472	33004
19,25917	33512
19,26360	31807
19,26805	32311
19,27248	30473
19,27693	30356
19,28137	28335
19,28582	29023
19,29027	30438
19,29470	28856
19,29915	29212
19,30358	26638
19,30803	25600
19,31247	27296
19,31692	26899
19,32135	26304
19,32580	26328
19,33023	25739
19,33468	27000
19,33912	29548
19,34357	33155
19,34800	40770
19,35245	55234
19,35688	80529
19,36133	118291
19,36577	172517
19,37022	242623
19,37465	347377
19,37910	471286
19,38353	612808
19,38798	753169
19,39242	905365
19,39687	1001309
19,40130	1066350
19,40575	1083887
19,41018	1036396
19,41463	929317
19,41908	803411
19,42352	677022
19,42797	549795
19,43240	444133
19,43685	365604
19,44128	298212
19,44573	247083
19,45017	216555
19,45462	184220
19,45905	160327
19,46350	142324
19,46793	126602
19,47238	116875
19,47682	104841
19,48127	95562
19,48570	91062
19,49015	82788
19,49458	79340
19,49903	71130
19,50347	69762
19,50792	64969
19,51235	58770
19,51680	60960
19,52123	57984
19,52568	52405
19,53012	50105
19,53457	49450
19,53902	46511
19,54345	46938
19,54790	45857
19,55233	43284
19,55678	43256
19,56122	41714
19,56567	41289
19,57010	41193
19,57455	39090
19,57898	39171
19,58343	36804
19,58787	36753
19,59232	35708
19,59675	34064
19,60120	33911
19,60563	34245
19,61008	33414
19,61452	32005
19,61897	31627
19,62340	30492
19,62785	30986
19,63228	30685
19,63673	26677
19,64117	29402
19,64562	28277
19,65005	27875
19,65450	28864
19,65895	26505
19,66338	27576
19,66783	28001
19,67227	28941
19,67672	28801
19,68115	28014
19,68560	28387
19,69003	27374
19,69448	30565
19,69892	30961
19,70337	31824
19,70780	30581
19,71225	30530
19,71668	30681
19,72113	30054
19,72557	30309
19,73002	31385
19,73445	26370
19,73890	29636
19,74333	28442
19,74778	28951
19,75222	29781
19,75667	30157
19,76110	28435
19,76555	29732
19,76998	28401
19,77443	26828
19,77888	27575
19,78332	26891
19,78777	25324
19,79220	25246
19,79665	24739
19,80108	25914
19,80553	24932
19,80997	24106
19,81442	24040
19,81885	24795
19,82330	24399
19,82773	22504
19,83218	23218
19,83662	24164
19,84107	23946
19,84550	22472
19,84995	23374
19,85438	22043
19,85883	22298
19,86327	23304
19,86772	24956
19,87215	22821
19,87660	22251
19,88103	24445
19,88548	24460
19,88992	24456
19,89437	24009
19,89882	23510
19,90325	23482
19,90770	23973
19,91213	26324
19,91658	22730
19,92102	23424
19,92547	23928
19,92990	22593
19,93435	23165
19,93878	21524
19,94323	24150
19,94767	23596
19,95212	24842
19,95655	23547
19,96100	24134
19,96543	23577
19,96988	22424
19,97432	25884
19,97877	23349
19,98320	25367
19,98765	25859
19,99208	24652
19,99653	24270
20,00097	25227
20,00542	22744
20,00985	24704
20,01430	24957
20,01875	23985
20,02318	23391
20,02763	23773
20,03207	24297
20,03652	25862
20,04095	26621
20,04540	27066
20,04983	28307
20,05428	27120
20,05872	26145
20,06317	26103
20,06760	26033
20,07205	23506
20,07648	22885
20,08093	23348
20,08537	23481
20,08982	24332
20,09425	23572
20,09870	23214
20,10313	24995
20,10758	24672
20,11202	22296
20,11647	24149
20,12090	21010
20,12535	24397
20,12978	24881
20,13423	22709
20,13867	21089
20,14312	24104
20,14757	22554
20,15200	21809
20,15645	22387
20,16088	20816
20,16533	22035
20,16977	22722
20,17422	22989
20,17865	22652
20,18310	20481
20,18753	22221
20,19198	22489
20,19642	22623
20,20087	24361
20,20530	23766
20,20975	24198
20,21418	23072
20,21863	24195
20,22307	24899
20,22752	24608
20,23195	23233
20,23640	24486
20,24083	25558
20,24528	24462
20,24972	24005
20,25417	23229
20,25860	23646
20,26305	25153
20,26750	21579
20,27193	21581
20,27638	21818
20,28082	22638
20,28527	20495
20,28970	22515
20,29415	22624
20,29858	22589
20,30303	23106
20,30747	23338
20,31192	22640
20,31635	20383
20,32080	22089
20,32523	23759
20,32968	22627
20,33412	21575
20,33857	19841
20,34300	21214
20,34745	21346
20,35188	19481
20,35633	21257
20,36077	22317
20,36522	19982
20,36965	21531
20,37410	20557
20,37853	22018
20,38298	21972
20,38743	22181
20,39187	22245
20,39632	21651
20,40075	22144
20,40520	20828
20,40963	21927
20,41408	20248
20,41852	22237
20,42297	22062
20,42740	21419
20,43185	22600
20,43628	21364
20,44073	21882
20,44517	21562
20,44962	20762
20,45405	22877
20,45850	22295
20,46293	22021
20,46738	22871
20,47182	22224
20,47627	21087
20,48070	22939
20,48515	21908
20,48958	23236
20,49403	20296
20,49847	23049
20,50292	21667
20,50737	23538
20,51180	22426
20,51625	21586
20,52068	22129
20,52513	21372
20,52957	24176
20,53402	21945
20,53845	20987
20,54290	21743
20,54733	22916
20,55178	23222
20,55622	22498
20,56067	22789
20,56510	23064
20,56955	23492
20,57398	23475
20,57843	22624
20,58287	21843
20,58732	26133
20,59175	23728
20,59620	24416
20,60063	26597
20,60508	26182
20,60952	31720
20,61397	38673
20,61840	49503
20,62285	69552
20,62730	103380
20,63173	152598
20,63618	216526
20,64062	290079
20,64507	386735
20,64950	481490
20,65395	553090
20,65838	628981
20,66283	659140
20,66727	665158
20,67172	639075
20,67615	586583
20,68060	517965
20,68503	447599
20,68948	385775
20,69392	321269
20,69837	264182
20,70280	223964
20,70725	187212
20,71168	157806
20,71613	140399
20,72057	120689
20,72502	106395
20,72945	95717
20,73390	84789
20,73833	78172
20,74278	68581
20,74723	67812
20,75167	63742
20,75612	60787
20,76055	55752
20,76500	54392
20,76943	53159
20,77388	46986
20,77832	46395
20,78277	44646
20,78720	43849
20,79165	40072
20,79608	39961
20,80053	38068
20,80497	37057
20,80942	39343
20,81385	35647
20,81830	37088
20,82273	33285
20,82718	34478
20,83162	34014
20,83607	34520
20,84050	32744
20,84495	34325
20,84938	35155
20,85383	33506
20,85827	31533
20,86272	31840
20,86715	30080
20,87160	30891
20,87605	30357
20,88048	29575
20,88493	28712
20,88937	30007
20,89382	29700
20,89825	28455
20,90270	27344
20,90713	28859
20,91158	28131
20,91602	26184
20,92047	27262
20,92490	25993
20,92935	28699
20,93378	28141
20,93823	28297
20,94267	26824
20,94712	26271
20,95155	26488
20,95600	27787
20,96043	27268
20,96488	24626
20,96932	25279
20,97377	26783
20,97820	25080
20,98265	27172
20,98708	25106
20,99153	24975
20,99598	24630
21,00042	25276
21,00487	24641
21,00930	24113
21,01375	25519
21,01818	26419
21,02263	25154
21,02707	23184
21,03152	25781
21,03595	22755
21,04040	25075
21,04483	27083
21,04928	25540
21,05372	24134
21,05817	26765
21,06260	26221
21,06705	25740
21,07148	26426
21,07593	25905
21,08037	25170
21,08482	25733
21,08925	23893
21,09370	25726
21,09813	26129
21,10258	24033
21,10702	24458
21,11147	25677
21,11592	24760
21,12035	24863
21,12480	24404
21,12923	26861
21,13368	23495
21,13812	25900
21,14257	26230
21,14700	26185
21,15145	24046
21,15588	22121
21,16033	24578
21,16477	23529
21,16922	24591
21,17365	22272
21,17810	24581
21,18253	24419
21,18698	23924
21,19142	24642
21,19587	23972
21,20030	26166
21,20475	25065
21,20918	24810
21,21363	25940
21,21807	25348
21,22252	24922
21,22695	24540
21,23140	25538
21,23585	26476
21,24028	25117
21,24473	25659
21,24917	25489
21,25362	23354
21,25805	24780
21,26250	24550
21,26693	24614
21,27138	24879
21,27582	25516
21,28027	24763
21,28470	23838
21,28915	24925
21,29358	24186
21,29803	22326
21,30247	22524
21,30692	24605
21,31135	24192
21,31580	23124
21,32023	23895
21,32468	23564
21,32912	23995
21,33357	22624
21,33800	23216
21,34245	25759
21,34688	25033
21,35133	22864
21,35578	23138
21,36022	24268
21,36467	25430
21,36910	24018
21,37355	25025
21,37798	24127
21,38243	22922
21,38687	25750
21,39132	25140
21,39575	25433
21,40020	24434
21,40463	24347
21,40908	24716
21,41352	23784
21,41797	23856
21,42240	23621
21,42685	24018
21,43128	22780
21,43573	22529
21,44017	24444
21,44462	24100
21,44905	23589
21,45350	22193
21,45793	25053
21,46238	23141
21,46682	24502
21,47127	22291
21,47572	22920
21,48015	24633
21,48460	22537
21,48903	23903
21,49348	24835
21,49792	23269
21,50237	24771
21,50680	25109
21,51125	23890
21,51568	27029
21,52013	23986
21,52457	24973
21,52902	23216
21,53345	25239
21,53790	24714
21,54233	24964
21,54678	24087
21,55122	23633
21,55567	24327
21,56010	23346
21,56455	22852
21,56898	22602
21,57343	23983
21,57787	23811
21,58232	24467
21,58675	23795
21,59120	22192
21,59563	24272
21,60008	24300
21,60453	23743
21,60897	23570
21,61342	25022
21,61785	25136
21,62230	24972
21,62673	23455
21,63118	24776
21,63562	25717
21,64007	23961
21,64450	24447
21,64895	24585
21,65338	23681
21,65783	25683
21,66227	25746
21,66672	25210
21,67115	24845
21,67560	24237
21,68003	26922
21,68448	24388
21,68892	25164
21,69337	25900
21,69780	24752
21,70225	25922
21,70668	25566
21,71113	24844
21,71557	25657
21,72002	24955
21,72447	22582
21,72890	23779
21,73335	24258
21,73778	24645
21,74223	25828
21,74667	22620
21,75112	23600
21,75555	23807
21,76000	25928
21,76443	22841
21,76888	22627
21,77332	25093
21,77777	24663
21,78220	24101
21,78665	23903
21,79108	25276
21,79553	23467
21,79997	22812
21,80442	24043
21,80885	25785
