D:\MassHunter\GCMS\1\data\Amal\Constant flow\150C\150C_1ml-min_5C-min_2.D Fri Aug 30 14:40:43 2024
Start of data points
4,99083	513947
4,99497	493387
4,99908	475266
5,00320	458756
5,00733	437237
5,01145	415845
5,01557	401051
5,01970	385890
5,02382	372422
5,02793	356835
5,03205	346308
5,03618	333810
5,04030	325479
5,04442	311387
5,04855	300356
5,05267	292079
5,05678	281298
5,06092	274459
5,06503	267556
5,06915	257270
5,07328	246782
5,07740	240028
5,08152	234471
5,08565	227967
5,08977	217921
5,09388	214818
5,09802	211241
5,10213	204433
5,10625	203135
5,11038	198217
5,11450	190232
5,11862	184314
5,12273	176884
5,12687	180811
5,13098	172587
5,13510	168296
5,13923	165159
5,14335	162019
5,14747	159469
5,15160	156649
5,15572	155227
5,15983	153126
5,16397	150752
5,16808	149705
5,17220	143495
5,17633	145643
5,18045	144054
5,18457	139562
5,18870	137692
5,19282	138686
5,19693	131009
5,20107	134890
5,20518	130438
5,20930	132479
5,21342	129050
5,21755	127677
5,22167	123471
5,22578	122599
5,22992	122292
5,23403	125055
5,23815	129540
5,24228	149190
5,24640	182326
5,25052	246952
5,25465	359824
5,25877	508045
5,26288	670453
5,26702	801014
5,27113	918690
5,27525	988581
5,27938	1018856
5,28350	1007522
5,28762	996241
5,29175	963496
5,29587	941308
5,29998	908152
5,30410	890687
5,30823	867117
5,31235	836462
5,31647	821113
5,32060	785134
5,32472	769227
5,32883	740516
5,33297	730916
5,33708	705060
5,34120	690789
5,34533	669836
5,34945	663413
5,35357	632457
5,35770	621093
5,36182	601194
5,36593	590144
5,37007	565060
5,37418	551660
5,37830	533339
5,38243	511475
5,38655	499057
5,39067	484460
5,39478	471644
5,39892	455657
5,40303	434253
5,40715	424536
5,41128	409500
5,41540	387957
5,41952	367452
5,42365	358243
5,42777	339355
5,43188	324679
5,43602	309522
5,44013	288749
5,44425	273092
5,44838	258731
5,45250	243742
5,45662	233698
5,46075	217837
5,46487	206499
5,46898	198356
5,47312	184205
5,47723	174731
5,48135	168444
5,48547	156907
5,48960	153467
5,49372	144003
5,49783	139398
5,50197	140056
5,50608	131351
5,51020	124580
5,51433	120533
5,51845	116605
5,52257	114425
5,52670	109440
5,53082	108273
5,53493	104965
5,53907	101431
5,54318	99156
5,54730	98473
5,55143	95754
5,55555	93074
5,55967	93873
5,56380	90139
5,56792	88994
5,57203	87434
5,57615	86916
5,58028	88233
5,58440	84681
5,58852	84481
5,59265	83413
5,59677	80946
5,60088	81387
5,60502	81694
5,60913	82196
5,61325	81975
5,61738	80701
5,62150	82319
5,62562	81537
5,62975	89323
5,63387	100462
5,63798	127551
5,64212	166033
5,64623	225513
5,65035	295773
5,65448	379697
5,65860	442299
5,66272	507830
5,66683	539943
5,67097	557409
5,67508	563183
5,67920	559618
5,68333	541467
5,68745	538319
5,69157	520712
5,69570	506864
5,69982	488991
5,70393	479723
5,70807	465793
5,71218	455607
5,71630	444640
5,72043	427680
5,72455	414288
5,72867	403636
5,73280	391578
5,73692	380134
5,74103	371335
5,74517	356015
5,74928	349999
5,75340	338608
5,75752	327192
5,76165	322697
5,76577	310417
5,76988	302173
5,77402	294087
5,77813	288708
5,78225	274210
5,78638	263055
5,79050	251056
5,79462	242146
5,79875	234355
5,80287	217767
5,80698	213773
5,81112	203537
5,81523	194324
5,81935	186571
5,82348	175287
5,82760	164604
5,83172	155268
5,83585	148008
5,83997	138566
5,84408	129716
5,84820	124211
5,85233	118816
5,85645	113836
5,86057	110043
5,86470	102317
5,86882	102737
5,87293	97409
5,87707	91531
5,88118	90196
5,88530	86315
5,88943	86897
5,89355	85627
5,89767	80302
5,90180	80724
5,90592	76287
5,91003	77555
5,91417	73070
5,91828	70944
5,92240	72899
5,92653	70585
5,93065	70609
5,93477	69068
5,93888	68182
5,94302	67596
5,94713	66470
5,95125	65452
5,95538	64072
5,95950	65939
5,96362	64879
5,96775	63626
5,97187	61658
5,97598	62454
5,98012	62420
5,98423	62193
5,98835	61488
5,99248	62857
5,99660	61429
6,00072	60626
6,00485	61321
6,00897	60044
6,01308	61157
6,01722	60228
6,02133	60621
6,02545	59947
6,02957	59959
6,03370	58650
6,03782	58385
6,04193	58628
6,04607	57212
6,05018	56609
6,05430	57804
6,05843	58117
6,06255	56435
6,06667	54604
6,07080	56103
6,07492	57461
6,07903	57259
6,08317	57327
6,08728	57729
6,09140	57179
6,09553	55263
6,09965	55607
6,10377	56728
6,10790	56189
6,11202	60626
6,11613	70791
6,12025	89422
6,12438	126619
6,12850	191984
6,13262	289208
6,13675	420471
6,14087	572036
6,14498	728372
6,14912	877400
6,15323	994110
6,15735	1069479
6,16148	1110388
6,16560	1132145
6,16972	1122959
6,17385	1097131
6,17797	1072098
6,18208	1043958
6,18622	1015521
6,19033	985013
6,19445	955876
6,19858	922562
6,20270	899496
6,20682	865639
6,21093	842023
6,21507	817974
6,21918	785326
6,22330	756280
6,22743	730795
6,23155	707062
6,23567	689111
6,23980	655420
6,24392	628555
6,24803	602225
6,25217	579856
6,25628	548678
6,26040	528425
6,26453	500227
6,26865	482318
6,27277	456518
6,27690	430383
6,28102	397394
6,28513	370456
6,28927	350953
6,29338	319252
6,29750	304340
6,30162	276428
6,30575	253790
6,30987	238048
6,31398	211643
6,31812	198064
6,32223	180751
6,32635	168141
6,33048	157894
6,33460	144034
6,33872	133593
6,34285	125661
6,34697	115922
6,35108	110648
6,35522	103676
6,35933	99617
6,36345	89794
6,36758	83651
6,37170	81438
6,37582	77996
6,37995	73929
6,38407	71785
6,38818	68493
6,39230	66705
6,39643	65104
6,40055	61486
6,40467	61445
6,40880	57729
6,41292	59722
6,41703	56866
6,42117	56188
6,42528	54678
6,42940	52617
6,43353	54550
6,43765	51284
6,44177	50316
6,44590	49884
6,45002	50279
6,45413	47968
6,45827	49922
6,46238	47973
6,46650	46610
6,47063	47591
6,47475	46067
6,47887	47003
6,48298	45917
6,48712	45175
6,49123	43803
6,49535	45240
6,49948	43941
6,50360	44566
6,50772	44157
6,51185	44130
6,51597	42767
6,52008	42274
6,52422	42109
6,52833	43966
6,53245	42134
6,53658	42917
6,54070	42321
6,54482	43996
6,54895	43607
6,55307	43403
6,55718	42436
6,56132	42316
6,56543	42613
6,56955	43289
6,57368	41439
6,57780	41545
6,58192	41879
6,58603	42396
6,59017	39587
6,59428	40531
6,59840	41058
6,60253	38480
6,60665	37858
6,61077	42169
6,61490	39701
6,61902	38567
6,62313	38737
6,62727	39716
6,63138	38760
6,63550	39843
6,63963	40842
6,64375	40688
6,64787	39383
6,65200	38260
6,65612	37949
6,66023	38104
6,66437	38241
6,66848	39659
6,67260	37440
6,67672	38185
6,68085	38486
6,68497	38498
6,68908	38113
6,69322	39604
6,69733	39806
6,70145	38474
6,70558	40256
6,70970	45326
6,71382	55395
6,71795	66595
6,72207	91088
6,72618	132813
6,73032	188712
6,73443	256358
6,73855	330445
6,74268	409370
6,74680	483639
6,75092	543985
6,75505	578450
6,75917	610416
6,76328	627802
6,76740	633920
6,77153	621770
6,77565	617560
6,77977	597738
6,78390	584742
6,78802	563176
6,79213	553497
6,79627	529776
6,80038	515482
6,80450	490434
6,80863	473474
6,81275	450601
6,81687	441346
6,82100	417645
6,82512	398843
6,82923	381191
6,83337	364172
6,83748	353277
6,84160	334819
6,84573	316661
6,84985	298536
6,85397	280586
6,85808	267912
6,86222	247859
6,86633	233721
6,87045	216947
6,87458	200726
6,87870	180835
6,88282	172766
6,88695	156836
6,89107	141064
6,89518	133483
6,89932	123616
6,90343	112833
6,90755	103878
6,91168	100108
6,91580	89906
6,91992	84462
6,92405	78881
6,92817	74590
6,93228	70762
6,93642	67629
6,94053	63932
6,94465	62525
6,94877	59820
6,95290	57445
6,95702	54197
6,96113	51092
6,96527	49875
6,96938	48461
6,97350	47666
6,97763	46231
6,98175	45312
6,98587	44345
6,99000	43682
6,99412	42674
6,99823	41131
7,00237	41263
7,00648	39175
7,01060	38585
7,01473	38860
7,01885	40490
7,02297	37792
7,02710	36854
7,03122	37540
7,03533	35682
7,03945	36506
7,04358	38167
7,04770	34940
7,05182	36761
7,05595	36434
7,06007	37709
7,06418	34961
7,06832	35807
7,07243	36016
7,07655	35740
7,08068	37388
7,08480	38185
7,08892	35945
7,09305	37424
7,09717	37195
7,10128	36918
7,10542	37070
7,10953	35589
7,11365	36353
7,11778	36184
7,12190	34987
7,12602	34942
7,13013	35470
7,13427	34954
7,13838	33791
7,14250	35930
7,14663	35355
7,15075	34444
7,15487	32514
7,15900	34341
7,16312	33161
7,16723	32614
7,17137	32650
7,17548	32796
7,17960	32892
7,18373	31548
7,18785	31719
7,19197	32030
7,19610	32993
7,20022	32188
7,20433	30869
7,20847	31320
7,21258	30125
7,21670	32950
7,22082	32809
7,22495	31182
7,22907	30915
7,23318	31846
7,23732	29877
7,24143	30786
7,24555	30552
7,24968	30924
7,25380	30973
7,25792	30386
7,26205	32585
7,26617	29652
7,27028	28748
7,27442	29882
7,27853	30274
7,28265	29096
7,28678	29542
7,29090	30800
7,29502	30460
7,29915	30192
7,30327	29511
7,30738	28964
7,31150	28513
7,31563	29234
7,31975	29145
7,32387	28890
7,32800	28143
7,33212	29965
7,33623	28791
7,34037	29641
7,34448	28344
7,34860	31037
7,35273	30158
7,35685	29915
7,36097	29147
7,36510	29431
7,36922	29358
7,37333	30584
7,37747	28589
7,38158	28778
7,38570	29485
7,38983	30721
7,39395	30435
7,39807	29697
7,40218	28954
7,40632	33410
7,41043	36304
7,41455	45504
7,41868	64432
7,42280	91164
7,42692	146094
7,43105	220369
7,43517	331347
7,43928	471397
7,44342	624680
7,44753	799790
7,45165	954174
7,45578	1097029
7,45990	1222971
7,46402	1316371
7,46815	1346844
7,47227	1390843
7,47638	1372330
7,48052	1362854
7,48463	1333785
7,48875	1299882
7,49287	1267835
7,49700	1221619
7,50112	1163054
7,50523	1118354
7,50937	1062427
7,51348	1026435
7,51760	973937
7,52173	918943
7,52585	871558
7,52997	826890
7,53410	773843
7,53822	727392
7,54233	675123
7,54647	626581
7,55058	583719
7,55470	531498
7,55883	476632
7,56295	434506
7,56707	396655
7,57120	357100
7,57532	321136
7,57943	287335
7,58355	258416
7,58768	228035
7,59180	207909
7,59592	183079
7,60005	168131
7,60417	156131
7,60828	134368
7,61242	124547
7,61653	111496
7,62065	101842
7,62478	95333
7,62890	87948
7,63302	81738
7,63715	75355
7,64127	71673
7,64538	65015
7,64952	64155
7,65363	58628
7,65775	54084
7,66188	55502
7,66600	49406
7,67012	49424
7,67423	45204
7,67837	44571
7,68248	42614
7,68660	43375
7,69073	40550
7,69485	40295
7,69897	41964
7,70310	40636
7,70722	37426
7,71133	38052
7,71547	38270
7,71958	37991
7,72370	39213
7,72783	36875
7,73195	38241
7,73607	35622
7,74020	39637
7,74432	36928
7,74843	38781
7,75257	39239
7,75668	36319
7,76080	35988
7,76492	36409
7,76905	35829
7,77317	36020
7,77728	35042
7,78142	36113
7,78553	34605
7,78965	35100
7,79378	34093
7,79790	34498
7,80202	32807
7,80615	33515
7,81027	31401
7,81438	31485
7,81852	31095
7,82263	31603
7,82675	31011
7,83088	31712
7,83500	32010
7,83912	31017
7,84325	30839
7,84737	30543
7,85148	30153
7,85560	30438
7,85973	30278
7,86385	30408
7,86797	31051
7,87210	30539
7,87622	29464
7,88033	29133
7,88447	29183
7,88858	29437
7,89270	28522
7,89683	28277
7,90095	28270
7,90507	29079
7,90920	27652
7,91332	28495
7,91743	27754
7,92157	27853
7,92568	28840
7,92980	27961
7,93393	28317
7,93805	29639
7,94217	28858
7,94628	29260
7,95042	29156
7,95453	27463
7,95865	27053
7,96278	29815
7,96690	29614
7,97102	31566
7,97515	29534
7,97927	29533
7,98338	30641
7,98752	30161
7,99163	32093
7,99575	32794
7,99988	33856
8,00400	32777
8,00812	33784
8,01225	34126
8,01637	35954
8,02048	36470
8,02462	44603
8,02873	54321
8,03285	73292
8,03697	98971
8,04110	139676
8,04522	190682
8,04933	256091
8,05347	325011
8,05758	404160
8,06170	472461
8,06583	538248
8,06995	598821
8,07407	644487
8,07820	671744
8,08232	689494
8,08643	701602
8,09057	688616
8,09468	679194
8,09880	655728
8,10293	629503
8,10705	608928
8,11117	581610
8,11530	562862
8,11942	529086
8,12353	501854
8,12765	477741
8,13178	451438
8,13590	420732
8,14002	396597
8,14415	366042
8,14827	336261
8,15238	313059
8,15652	285517
8,16063	256640
8,16475	230337
8,16888	213497
8,17300	192731
8,17712	171443
8,18125	153094
8,18537	138345
8,18948	125143
8,19362	112047
8,19773	101394
8,20185	94664
8,20598	86159
8,21010	80368
8,21422	75900
8,21835	69889
8,22247	72557
8,22658	78159
8,23070	88720
8,23483	116896
8,23895	152852
8,24307	203854
8,24720	273018
8,25132	355663
8,25543	439670
8,25957	525043
8,26368	600099
8,26780	672667
8,27193	712865
8,27605	746713
8,28017	766139
8,28430	782472
8,28842	773239
8,29253	777508
8,29667	757175
8,30078	722164
8,30490	692082
8,30903	670288
8,31315	632166
8,31727	601339
8,32138	569659
8,32552	531060
8,32963	496571
8,33375	454857
8,33788	421425
8,34200	384256
8,34612	356545
8,35025	320741
8,35437	290096
8,35848	257808
8,36262	234426
8,36673	211197
8,37085	184326
8,37498	164394
8,37910	145299
8,38322	134360
8,38735	119663
8,39147	105954
8,39558	96802
8,39972	88757
8,40383	76731
8,40795	73108
8,41207	68626
8,41620	62672
8,42032	60431
8,42443	55393
8,42857	51445
8,43268	49056
8,43680	44363
8,44093	43357
8,44505	43449
8,44917	40320
8,45330	36797
8,45742	35669
8,46153	35785
8,46567	34163
8,46978	34877
8,47390	32211
8,47803	31829
8,48215	30167
8,48627	31070
8,49040	28607
8,49452	30374
8,49863	27780
8,50275	29661
8,50688	27979
8,51100	27628
8,51512	25315
8,51925	26708
8,52337	25620
8,52748	26511
8,53162	26125
8,53573	24131
8,53985	25746
8,54398	23918
8,54810	24537
8,55222	23157
8,55635	24522
8,56047	24258
8,56458	24715
8,56872	23955
8,57283	21892
8,57695	23622
8,58108	23358
8,58520	23738
8,58932	22464
8,59343	22712
8,59757	22443
8,60168	22521
8,60580	21216
8,60993	23340
8,61405	22434
8,61817	21280
8,62230	20868
8,62642	23152
8,63053	22689
8,63467	21190
8,63878	21261
8,64290	22857
8,64703	20762
8,65115	20659
8,65527	20767
8,65940	19644
8,66352	20483
8,66763	19951
8,67177	19881
8,67588	20788
8,68000	22149
8,68412	20588
8,68825	21082
8,69237	20722
8,69648	20772
8,70062	21131
8,70473	19851
8,70885	21276
8,71298	19470
8,71710	20328
8,72122	19399
8,72535	20184
8,72947	19194
8,73358	20432
8,73772	20890
8,74183	18732
8,74595	19572
8,75008	18660
8,75420	19687
8,75832	18700
8,76245	20449
8,76657	20938
8,77068	18920
8,77480	19108
8,77893	19408
8,78305	19940
8,78717	19070
8,79130	18756
8,79542	18959
8,79953	18654
8,80367	19866
8,80778	18580
8,81190	19461
8,81603	18743
8,82015	19281
8,82427	19365
8,82840	18398
8,83252	17733
8,83663	17580
8,84077	18224
8,84488	18239
8,84900	19502
8,85313	16929
8,85725	18479
8,86137	19192
8,86548	18776
8,86962	16976
8,87373	16162
8,87785	17377
8,88198	19171
8,88610	20388
8,89022	19182
8,89435	19631
8,89847	23922
8,90258	29832
8,90672	38489
8,91083	57254
8,91495	81697
8,91908	120774
8,92320	169060
8,92732	235557
8,93145	306113
8,93557	389810
8,93968	476736
8,94382	554365
8,94793	630765
8,95205	683280
8,95617	724641
8,96030	762505
8,96442	775002
8,96853	775350
8,97267	768226
8,97678	759719
8,98090	723731
8,98503	691292
8,98915	661047
8,99327	626879
8,99740	585896
9,00152	541193
9,00563	492502
9,00977	459171
9,01388	419844
9,01800	386432
9,02213	348304
9,02625	312656
9,03037	273756
9,03450	248847
9,03862	222958
9,04273	197237
9,04685	171503
9,05098	151879
9,05510	133764
9,05922	120773
9,06335	107534
9,06747	97919
9,07158	85242
9,07572	77415
9,07983	70904
9,08395	64788
9,08808	60245
9,09220	55883
9,09632	49516
9,10045	48830
9,10457	48122
9,10868	47238
9,11282	50884
9,11693	60039
9,12105	81659
9,12518	117188
9,12930	179860
9,13342	279036
9,13753	415752
9,14167	588754
9,14578	805189
9,14990	1068168
9,15403	1360067
9,15815	1637480
9,16227	1892197
9,16640	2115967
9,17052	2310249
9,17463	2468763
9,17877	2571736
9,18288	2581176
9,18700	2613614
9,19113	2591992
9,19525	2495744
9,19937	2394101
9,20350	2286753
9,20762	2158517
9,21173	2018185
9,21587	1867107
9,21998	1716116
9,22410	1544515
9,22822	1400045
9,23235	1250050
9,23647	1113941
9,24058	979397
9,24472	861748
9,24883	753232
9,25295	649452
9,25708	573798
9,26120	493430
9,26532	432874
9,26945	380321
9,27357	332604
9,27768	289541
9,28182	256328
9,28593	225372
9,29005	200799
9,29418	178068
9,29830	163373
9,30242	146964
9,30655	132777
9,31067	123890
9,31478	111779
9,31890	106294
9,32303	98833
9,32715	89358
9,33127	82975
9,33540	76127
9,33952	72569
9,34363	69935
9,34777	65793
9,35188	64824
9,35600	59813
9,36013	57212
9,36425	54921
9,36837	51642
9,37250	52645
9,37662	46560
9,38073	46911
9,38487	44189
9,38898	43248
9,39310	41412
9,39723	39728
9,40135	41020
9,40547	37559
9,40958	36487
9,41372	36059
9,41783	36577
9,42195	34982
9,42608	33743
9,43020	32713
9,43432	32534
9,43845	30967
9,44257	29563
9,44668	29352
9,45082	29271
9,45493	29333
9,45905	28320
9,46318	28015
9,46730	27300
9,47142	27138
9,47555	26674
9,47967	26534
9,48378	26534
9,48792	25626
9,49203	24869
9,49615	25607
9,50027	24874
9,50440	25377
9,50852	24512
9,51263	23993
9,51677	22599
9,52088	22755
9,52500	22491
9,52913	23273
9,53325	22628
9,53737	21658
9,54150	24491
9,54562	21791
9,54973	22100
9,55387	23118
9,55798	21165
9,56210	21520
9,56623	22059
9,57035	21365
9,57447	22713
9,57860	20855
9,58272	22257
9,58683	20150
9,59095	22046
9,59508	21011
9,59920	20587
9,60332	21567
9,60745	20314
9,61157	20714
9,61568	20207
9,61982	20509
9,62393	21054
9,62805	21207
9,63218	21000
9,63630	19812
9,64042	19275
9,64455	19977
9,64867	20068
9,65278	19368
9,65692	18438
9,66103	19136
9,66515	18234
9,66928	18702
9,67340	18643
9,67752	20595
9,68163	19003
9,68577	19239
9,68988	20390
9,69400	18673
9,69813	21124
9,70225	20996
9,70637	19453
9,71050	20515
9,71462	20763
9,71873	21653
9,72287	24949
9,72698	30851
9,73110	39718
9,73523	57297
9,73935	84601
9,74347	121286
9,74760	172852
9,75172	239521
9,75583	321357
9,75997	406298
9,76408	495255
9,76820	584070
9,77232	666814
9,77645	739346
9,78057	799032
9,78468	828996
9,78882	841149
9,79293	841622
9,79705	841426
9,80118	812423
9,80530	784767
9,80942	746226
9,81355	697573
9,81767	644195
9,82178	591178
9,82592	546711
9,83003	484869
9,83415	441975
9,83828	390766
9,84240	346510
9,84652	307394
9,85065	266855
9,85477	235007
9,85888	207515
9,86302	183309
9,86713	159352
9,87125	143509
9,87537	126200
9,87950	111123
9,88362	101090
9,88773	89930
9,89187	81565
9,89598	73881
9,90010	71396
9,90423	67434
9,90835	63731
9,91247	57248
9,91660	54145
9,92072	52676
9,92483	47850
9,92897	46313
9,93308	44690
9,93720	41972
9,94133	41705
9,94545	39591
9,94957	37697
9,95370	36168
9,95782	34271
9,96193	33934
9,96605	31106
9,97018	29906
9,97430	28466
9,97842	27339
9,98255	26979
9,98667	27200
9,99078	26918
9,99492	26137
9,99903	26222
10,00315	24385
10,00728	24828
10,01140	23873
10,01552	25061
10,01965	25817
10,02377	23986
10,02788	25482
10,03202	22669
10,03613	25477
10,04025	24280
10,04438	25244
10,04850	25316
10,05262	25485
10,05673	24461
10,06087	24233
10,06498	25337
10,06910	24750
10,07323	24047
10,07735	25692
10,08147	28869
10,08560	33641
10,08972	42236
10,09383	58530
10,09797	84679
10,10208	126597
10,10620	176671
10,11033	246566
10,11445	332404
10,11857	431854
10,12270	529880
10,12682	636835
10,13093	733249
10,13507	821919
10,13918	894462
10,14330	948711
10,14742	971298
10,15155	970427
10,15567	962286
10,15978	937064
10,16392	890533
10,16803	840563
10,17215	780043
10,17628	715917
10,18040	649495
10,18452	581916
10,18865	524653
10,19277	464496
10,19688	404972
10,20102	357440
10,20513	309648
10,20925	268184
10,21338	233963
10,21750	205872
10,22162	175066
10,22575	156314
10,22987	134961
10,23398	121650
10,23810	108512
10,24223	97089
10,24635	86661
10,25047	77883
10,25460	71307
10,25872	65769
10,26283	60487
10,26697	58927
10,27108	53309
10,27520	50977
10,27933	46632
10,28345	45208
10,28757	40431
10,29170	39071
10,29582	39263
10,29993	36593
10,30407	35016
10,30818	32129
10,31230	32280
10,31643	31746
10,32055	30955
10,32467	31344
10,32878	27851
10,33292	27916
10,33703	26962
10,34115	25962
10,34528	25669
10,34940	25240
10,35352	24546
10,35765	24287
10,36177	23000
10,36588	24021
10,37002	22742
10,37413	22603
10,37825	22181
10,38238	22580
10,38650	20570
10,39062	20047
10,39475	20773
10,39887	19802
10,40298	19764
10,40712	20069
10,41123	19733
10,41535	18913
10,41947	18695
10,42360	17481
10,42772	19037
10,43183	18930
10,43597	17710
10,44008	17391
10,44420	18088
10,44833	18530
10,45245	17238
10,45657	18546
10,46070	17107
10,46482	17202
10,46893	16409
10,47307	16922
10,47718	16435
10,48130	19001
10,48543	16776
10,48955	16618
10,49367	17638
10,49780	15894
10,50192	17015
10,50603	15478
10,51015	16740
10,51428	18215
10,51840	17912
10,52252	14613
10,52665	15475
10,53077	14119
10,53488	16694
10,53902	14990
10,54313	14756
10,54725	15797
10,55138	15326
10,55550	15580
10,55962	15394
10,56375	16334
10,56787	15441
10,57198	15827
10,57612	14719
10,58023	14479
10,58435	14488
10,58848	16132
10,59260	15271
10,59672	15995
10,60083	14771
10,60497	14514
10,60908	14306
10,61320	14773
10,61733	13808
10,62145	14928
10,62557	14417
10,62970	14313
10,63382	13683
10,63793	15156
10,64207	15260
10,64618	15534
10,65030	14788
10,65443	15421
10,65855	14834
10,66267	15228
10,66680	14728
10,67092	12259
10,67503	14575
10,67917	12907
10,68328	14298
10,68740	14437
10,69152	15048
10,69565	14984
10,69977	13223
10,70388	15442
10,70802	14039
10,71213	15505
10,71625	16795
10,72038	18630
10,72450	24129
10,72862	33303
10,73275	44647
10,73687	68122
10,74098	99354
10,74512	145850
10,74923	208464
10,75335	282752
10,75748	371766
10,76160	471451
10,76572	579030
10,76985	680588
10,77397	772687
10,77808	845661
10,78220	909839
10,78633	953487
10,79045	968997
10,79457	964846
10,79870	943535
10,80282	902753
10,80693	849552
10,81107	783198
10,81518	716936
10,81930	638871
10,82343	585797
10,82755	515355
10,83167	456125
10,83580	390806
10,83992	337208
10,84403	299926
10,84817	260758
10,85228	226497
10,85640	199173
10,86053	175725
10,86465	151253
10,86877	133062
10,87288	116892
10,87702	105253
10,88113	93721
10,88525	84434
10,88938	80973
10,89350	72132
10,89762	68045
10,90175	62086
10,90587	55057
10,90998	52532
10,91412	49220
10,91823	47188
10,92235	43232
10,92648	41253
10,93060	38761
10,93472	36803
10,93885	35914
10,94297	33027
10,94708	33413
10,95122	32001
10,95533	30755
10,95945	30114
10,96357	28433
10,96770	27565
10,97182	25970
10,97593	26353
10,98007	24969
10,98418	24266
10,98830	24334
10,99243	23123
10,99655	23177
11,00067	22360
11,00480	21932
11,00892	22713
11,01303	21415
11,01717	20824
11,02128	21393
11,02540	19213
11,02953	19648
11,03365	19567
11,03777	19893
11,04190	17676
11,04602	18020
11,05013	17690
11,05425	18628
11,05838	19294
11,06250	16537
11,06662	17098
11,07075	16228
11,07487	16939
11,07898	16852
11,08312	18150
11,08723	16560
11,09135	18847
11,09548	24494
11,09960	30797
11,10372	42250
11,10785	67035
11,11197	106583
11,11608	162061
11,12022	248143
11,12433	362322
11,12845	519761
11,13258	708455
11,13670	926040
11,14082	1164941
11,14493	1400819
11,14907	1632217
11,15318	1832211
11,15730	2017072
11,16143	2134618
11,16555	2206468
11,16967	2231814
11,17380	2196992
11,17792	2118851
11,18203	1980207
11,18617	1838752
11,19028	1675733
11,19440	1512354
11,19853	1336132
11,20265	1173238
11,20677	1007203
11,21090	864240
11,21502	747213
11,21913	644810
11,22327	546784
11,22738	473538
11,23150	411546
11,23562	355301
11,23975	316307
11,24387	272088
11,24798	243325
11,25212	213540
11,25623	191619
11,26035	172792
11,26448	157578
11,26860	144260
11,27272	133406
11,27685	121690
11,28097	108843
11,28508	100255
11,28922	96273
11,29333	87997
11,29745	80415
11,30158	77253
11,30570	71141
11,30982	68349
11,31395	64169
11,31807	59434
11,32218	57705
11,32630	55521
11,33043	54258
11,33455	52629
11,33867	49113
11,34280	45957
11,34692	46180
11,35103	43267
11,35517	41721
11,35928	40596
11,36340	41064
11,36753	39770
11,37165	36687
11,37577	36815
11,37990	35047
11,38402	34638
11,38813	33252
11,39227	32552
11,39638	30254
11,40050	30497
11,40463	29822
11,40875	29039
11,41287	27748
11,41698	28148
11,42112	26343
11,42523	26549
11,42935	24931
11,43348	25292
11,43760	24777
11,44172	24305
11,44585	24255
11,44997	23179
11,45408	22349
11,45822	22550
11,46233	22639
11,46645	22251
11,47058	23485
11,47470	24899
11,47882	28646
11,48295	36752
11,48707	50044
11,49118	71694
11,49532	101064
11,49943	145210
11,50355	210498
11,50768	288882
11,51180	382134
11,51592	488288
11,52003	610796
11,52417	723505
11,52828	839147
11,53240	933439
11,53653	1008530
11,54065	1041475
11,54477	1070603
11,54890	1055514
11,55302	1029124
11,55713	985714
11,56127	915642
11,56538	836503
11,56950	756406
11,57363	678949
11,57775	600584
11,58187	522286
11,58600	451832
11,59012	401346
11,59423	344933
11,59837	298771
11,60248	258767
11,60660	225165
11,61072	191985
11,61485	170964
11,61897	152609
11,62308	135976
11,62722	123887
11,63133	112533
11,63545	101094
11,63958	92408
11,64370	83083
11,64782	80023
11,65195	71625
11,65607	67250
11,66018	65677
11,66432	61817
11,66843	63376
11,67255	65427
11,67668	80132
11,68080	102715
11,68492	132745
11,68905	188876
11,69317	267159
11,69728	375357
11,70140	522524
11,70553	698304
11,70965	908756
11,71377	1144703
11,71790	1409735
11,72202	1624848
11,72613	1835703
11,73027	2007602
11,73438	2132058
11,73850	2197099
11,74263	2200679
11,74675	2138038
11,75087	2042456
11,75500	1896219
11,75912	1721817
11,76323	1562237
11,76737	1397303
11,77148	1227468
11,77560	1069351
11,77973	914174
11,78385	787553
11,78797	685695
11,79208	590830
11,79622	509617
11,80033	442369
11,80445	383377
11,80858	337317
11,81270	299659
11,81682	263380
11,82095	238653
11,82507	209718
11,82918	189785
11,83332	174160
11,83743	155704
11,84155	144195
11,84568	133646
11,84980	119019
11,85392	115324
11,85805	104900
11,86217	98953
11,86628	93447
11,87042	86136
11,87453	79448
11,87865	76693
11,88277	71187
11,88690	71693
11,89102	66741
11,89513	61871
11,89927	59446
11,90338	58785
11,90750	53828
11,91163	53122
11,91575	52062
11,91987	49345
11,92400	45448
11,92812	46460
11,93223	43349
11,93637	43947
11,94048	41105
11,94460	39890
11,94873	39340
11,95285	37989
11,95697	36821
11,96110	36021
11,96522	34722
11,96933	33087
11,97345	32533
11,97758	31408
11,98170	31302
11,98582	31289
11,98995	29923
11,99407	27450
11,99818	28281
12,00232	27384
12,00643	26760
12,01055	27443
12,01468	26396
12,01880	26569
12,02292	23433
12,02705	24007
12,03117	24216
12,03528	25362
12,03942	23337
12,04353	22375
12,04765	23012
12,05178	21403
12,05590	23551
12,06002	25106
12,06413	21652
12,06827	23048
12,07238	20994
12,07650	20200
12,08063	20827
12,08475	20290
12,08887	21495
12,09300	22164
12,09712	23396
12,10123	24341
12,10537	28925
12,10948	36154
12,11360	47257
12,11773	68754
12,12185	99517
12,12597	141664
12,13010	202710
12,13422	275611
12,13833	378230
12,14247	485215
12,14658	614474
12,15070	748553
12,15482	874094
12,15895	996063
12,16307	1109525
12,16718	1236131
12,17132	1351605
12,17543	1496079
12,17955	1619586
12,18368	1797038
12,18780	1936179
12,19192	2123600
12,19605	2309716
12,20017	2486383
12,20428	2601577
12,20842	2654890
12,21253	2694859
12,21665	2636040
12,22078	2529843
12,22490	2369823
12,22902	2170640
12,23315	1945815
12,23727	1718241
12,24138	1508421
12,24550	1309359
12,24963	1142487
12,25375	988811
12,25787	841896
12,26200	725497
12,26612	623780
12,27023	540488
12,27437	471488
12,27848	416937
12,28260	366466
12,28673	323469
12,29085	291687
12,29497	258280
12,29910	241059
12,30322	220374
12,30733	195255
12,31147	182166
12,31558	167849
12,31970	157728
12,32383	144414
12,32795	134398
12,33207	124477
12,33618	118021
12,34032	108588
12,34443	104351
12,34855	98223
12,35268	95444
12,35680	87514
12,36092	84356
12,36505	77651
12,36917	74554
12,37328	70792
12,37742	69012
12,38153	66969
12,38565	61612
12,38978	61661
12,39390	58447
12,39802	58372
12,40215	56581
12,40627	53784
12,41038	50575
12,41452	49115
12,41863	46911
12,42275	46148
12,42687	46244
12,43100	44373
12,43512	44490
12,43923	41622
12,44337	40207
12,44748	38213
12,45160	37519
12,45573	38435
12,45985	36206
12,46397	36104
12,46810	33495
12,47222	34297
12,47633	34523
12,48047	33583
12,48458	31996
12,48870	31759
12,49283	31537
12,49695	31488
12,50107	31772
12,50520	30328
12,50932	30660
12,51343	28867
12,51755	27478
12,52168	27478
12,52580	26479
12,52992	24883
12,53405	25626
12,53817	24442
12,54228	25442
12,54642	26557
12,55053	27616
12,55465	29392
12,55878	35821
12,56290	44620
12,56702	62354
12,57115	86845
12,57527	127615
12,57938	176840
12,58352	243424
12,58763	327322
12,59175	428347
12,59588	533714
12,60000	645388
12,60412	743402
12,60823	829397
12,61237	900808
12,61648	963897
12,62060	983328
12,62473	967260
12,62885	950041
12,63297	884551
12,63710	825898
12,64122	748332
12,64533	670151
12,64947	601941
12,65358	530239
12,65770	460899
12,66183	395247
12,66595	340902
12,67007	291989
12,67420	255509
12,67832	227640
12,68243	200800
12,68657	175328
12,69068	154647
12,69480	133957
12,69892	121668
12,70305	112493
12,70717	101293
12,71128	92681
12,71542	86424
12,71953	81837
12,72365	75324
12,72778	69287
12,73190	63398
12,73602	57554
12,74015	56999
12,74427	53813
12,74838	49974
12,75252	49487
12,75663	47076
12,76075	43344
12,76488	44615
12,76900	43028
12,77312	40537
12,77725	39719
12,78137	36866
12,78548	36263
12,78960	36057
12,79373	35064
12,79785	35004
12,80197	33304
12,80610	32491
12,81022	32327
12,81433	30121
12,81847	29100
12,82258	29957
12,82670	27872
12,83083	27524
12,83495	26031
12,83907	26237
12,84320	25299
12,84732	24937
12,85143	25855
12,85557	23293
12,85968	24119
12,86380	23497
12,86793	22708
12,87205	22712
12,87617	23781
12,88028	20414
12,88442	21759
12,88853	23384
12,89265	20264
12,89678	21832
12,90090	20166
12,90502	20281
12,90915	19779
12,91327	19240
12,91738	19310
12,92152	19533
12,92563	19014
12,92975	17420
12,93388	18749
12,93800	17702
12,94212	17871
12,94625	18569
12,95037	16846
12,95448	17838
12,95862	17754
12,96273	16883
12,96685	17930
12,97097	17213
12,97510	17184
12,97922	18382
12,98333	16484
12,98747	16560
12,99158	16856
12,99570	16431
12,99983	15015
13,00395	17431
13,00807	15566
13,01220	15893
13,01632	15921
13,02043	16079
13,02457	14983
13,02868	14953
13,03280	15345
13,03693	13522
13,04105	15242
13,04517	15964
13,04930	15507
13,05342	15322
13,05753	15786
13,06165	16900
13,06578	15185
13,06990	14742
13,07402	15438
13,07815	13970
13,08227	15641
13,08638	14922
13,09052	15200
13,09463	16052
13,09875	14743
13,10288	14987
13,10700	13692
13,11112	15184
13,11525	14876
13,11937	14005
13,12348	13489
13,12762	13596
13,13173	14597
13,13585	14471
13,13998	15110
13,14410	15399
13,14822	14144
13,15235	14376
13,15647	14652
13,16058	15689
13,16470	12356
13,16883	13764
13,17295	13116
13,17707	14347
13,18120	14964
13,18532	17580
13,18943	18857
13,19357	24731
13,19768	36818
13,20180	50690
13,20593	77501
13,21005	119827
13,21417	182343
13,21830	271177
13,22242	399113
13,22653	563117
13,23067	762660
13,23478	1013884
13,23890	1305960
13,24303	1629927
13,24715	1949068
13,25127	2279526
13,25538	2589638
13,25952	2863947
13,26363	3089257
13,26775	3219965
13,27188	3293123
13,27600	3278204
13,28012	3167388
13,28425	2979333
13,28837	2726912
13,29248	2464325
13,29662	2175791
13,30073	1883002
13,30485	1618494
13,30898	1385479
13,31310	1198966
13,31722	1017796
13,32135	889928
13,32547	771231
13,32958	673614
13,33372	582578
13,33783	516141
13,34195	451950
13,34607	409049
13,35020	364370
13,35432	330984
13,35843	297889
13,36257	266281
13,36668	245818
13,37080	229387
13,37493	202993
13,37905	190970
13,38317	178553
13,38730	171211
13,39142	153723
13,39553	141012
13,39967	132410
13,40378	130729
13,40790	120956
13,41203	114467
13,41615	108795
13,42027	100277
13,42440	95280
13,42852	93266
13,43263	87492
13,43675	83704
13,44088	80858
13,44500	80179
13,44912	74337
13,45325	72675
13,45737	71874
13,46148	71516
13,46562	68696
13,46973	67694
13,47385	67176
13,47798	61992
13,48210	64018
13,48622	62172
13,49035	61449
13,49447	58884
13,49858	58217
13,50272	58390
13,50683	57380
13,51095	54071
13,51508	50249
13,51920	49480
13,52332	48427
13,52743	44943
13,53157	43992
13,53568	42650
13,53980	40848
13,54393	40090
13,54805	39987
13,55217	37784
13,55630	35258
13,56042	35840
13,56453	35212
13,56867	32780
13,57278	33277
13,57690	32859
13,58103	31578
13,58515	30537
13,58927	30781
13,59340	35532
13,59752	41046
13,60163	48290
13,60577	61991
13,60988	84812
13,61400	117789
13,61812	166155
13,62225	224136
13,62637	298957
13,63048	386123
13,63462	478314
13,63873	583138
13,64285	679645
13,64698	761834
13,65110	819663
13,65522	863454
13,65935	889058
13,66347	879522
13,66758	846539
13,67172	787695
13,67583	734931
13,67995	661767
13,68408	596039
13,68820	517261
13,69232	454579
13,69645	395128
13,70057	346148
13,70468	301188
13,70880	265722
13,71293	231749
13,71705	199498
13,72117	173614
13,72530	156564
13,72942	139979
13,73353	126037
13,73767	112607
13,74178	103356
13,74590	92934
13,75003	87177
13,75415	78453
13,75827	72730
13,76240	71004
13,76652	66104
13,77063	60403
13,77477	58341
13,77888	57246
13,78300	58685
13,78713	63408
13,79125	69064
13,79537	82858
13,79948	110072
13,80362	149376
13,80773	203253
13,81185	278502
13,81598	370230
13,82010	482252
13,82422	612214
13,82835	750334
13,83247	876371
13,83658	995634
13,84072	1088813
13,84483	1159888
13,84895	1190729
13,85308	1189913
13,85720	1147967
13,86132	1074946
13,86545	987105
13,86957	896743
13,87368	803832
13,87782	701454
13,88193	622027
13,88605	537947
13,89017	470483
13,89430	406561
13,89842	358234
13,90253	316488
13,90667	276679
13,91078	248522
13,91490	220549
13,91903	196877
13,92315	179412
13,92727	160671
13,93140	151122
13,93552	137754
13,93963	126116
13,94377	114193
13,94788	106858
13,95200	103441
13,95613	95297
13,96025	87690
13,96437	82518
13,96850	77936
13,97262	73221
13,97673	71113
13,98085	66376
13,98498	64380
13,98910	60784
13,99322	57449
13,99735	54039
14,00147	54122
14,00558	51221
14,00972	49779
14,01383	45322
14,01795	44022
14,02208	43941
14,02620	41839
14,03032	40021
14,03445	39003
14,03857	38775
14,04268	36855
14,04682	35375
14,05093	35837
14,05505	34031
14,05918	37284
14,06330	32605
14,06742	32101
14,07153	29823
14,07567	32079
14,07978	31259
14,08390	30334
14,08803	28023
14,09215	28066
14,09627	28685
14,10040	26874
14,10452	27191
14,10863	28014
14,11277	28945
14,11688	24661
14,12100	26425
14,12513	24147
14,12925	25871
14,13337	23300
14,13750	24379
14,14162	24289
14,14573	22973
14,14987	22722
14,15398	22555
14,15810	22248
14,16222	25160
14,16635	23289
14,17047	24062
14,17458	21527
14,17872	22265
14,18283	20929
14,18695	20363
14,19108	19953
14,19520	21990
14,19932	21361
14,20345	21466
14,20757	20285
14,21168	21665
14,21582	19579
14,21993	19556
14,22405	19899
14,22818	21119
14,23230	19928
14,23642	19039
14,24055	19380
14,24467	19104
14,24878	19823
14,25290	19604
14,25703	20576
14,26115	20151
14,26527	21354
14,26940	25022
14,27352	33544
14,27763	45923
14,28177	64099
14,28588	93533
14,29000	137599
14,29413	198533
14,29825	285434
14,30237	395851
14,30650	524960
14,31062	674411
14,31473	836157
14,31887	983564
14,32298	1105255
14,32710	1207508
14,33123	1264110
14,33535	1290324
14,33947	1255223
14,34358	1195751
14,34772	1110343
14,35183	1006454
14,35595	894232
14,36008	797725
14,36420	692697
14,36832	607377
14,37245	533729
14,37657	461151
14,38068	403438
14,38482	355934
14,38893	316357
14,39305	284311
14,39718	248522
14,40130	225866
14,40542	207685
14,40955	189175
14,41367	170812
14,41778	156557
14,42192	140531
14,42603	134844
14,43015	123811
14,43427	111507
14,43840	105750
14,44252	98614
14,44663	92881
14,45077	92797
14,45488	83634
14,45900	81535
14,46313	76101
14,46725	75244
14,47137	68590
14,47550	65248
14,47962	62848
14,48373	61199
14,48787	59153
14,49198	57013
14,49610	55170
14,50023	54309
14,50435	51095
14,50847	50802
14,51260	50136
14,51672	47187
14,52083	44648
14,52495	47340
14,52908	44327
14,53320	42018
14,53732	44015
14,54145	40524
14,54557	40700
14,54968	34978
14,55382	37740
14,55793	36016
14,56205	34911
14,56618	31070
14,57030	34089
14,57442	32111
14,57855	30833
14,58267	29938
14,58678	30735
14,59092	27823
14,59503	29068
14,59915	28614
14,60328	26830
14,60740	28069
14,61152	27466
14,61565	27663
14,61977	27679
14,62388	27176
14,62800	26110
14,63213	26174
14,63625	26100
14,64037	27025
14,64450	24669
14,64862	25515
14,65273	25195
14,65687	24092
14,66098	25119
14,66510	23161
14,66923	27027
14,67335	26070
14,67747	29053
14,68160	33276
14,68572	40459
14,68983	54052
14,69397	76217
14,69808	104956
14,70220	151940
14,70633	215910
14,71045	297068
14,71457	395696
14,71868	508367
14,72282	626924
14,72693	759611
14,73105	867343
14,73518	955153
14,73930	1020608
14,74342	1055541
14,74755	1031127
14,75167	1010386
14,75578	948405
14,75992	863894
14,76403	793398
14,76815	704796
14,77228	616424
14,77640	547783
14,78052	478792
14,78465	417808
14,78877	364617
14,79288	320714
14,79702	284377
14,80113	244620
14,80525	221434
14,80937	196725
14,81350	176875
14,81762	161380
14,82173	143850
14,82587	131792
14,82998	124739
14,83410	112600
14,83823	103166
14,84235	95279
14,84647	91267
14,85060	83555
14,85472	78810
14,85883	73847
14,86297	69395
14,86708	64299
14,87120	65540
14,87533	58866
14,87945	59258
14,88357	55975
14,88770	53837
14,89182	50984
14,89593	48873
14,90005	45923
14,90418	44680
14,90830	43075
14,91242	42378
14,91655	39580
14,92067	38957
14,92478	39428
14,92892	36695
14,93303	35695
14,93715	36039
14,94128	35410
14,94540	33614
14,94952	31872
14,95365	32724
14,95777	29957
14,96188	31880
14,96602	28887
14,97013	31523
14,97425	27674
14,97838	28641
14,98250	27384
14,98662	27396
14,99073	27313
14,99487	27205
14,99898	24739
15,00310	27313
15,00723	25580
15,01135	25301
15,01547	25103
15,01960	23421
15,02372	24454
15,02783	24404
15,03197	23734
15,03608	24419
15,04020	21602
15,04433	24166
15,04845	24022
15,05257	24015
15,05670	22695
15,06082	21296
15,06493	21567
15,06907	21748
15,07318	21570
15,07730	20221
15,08142	23141
15,08555	20663
15,08967	21084
15,09378	21375
15,09792	19572
15,10203	19744
15,10615	20627
15,11028	20098
15,11440	21248
15,11852	19886
15,12265	18964
15,12677	19815
15,13088	20195
15,13502	18883
15,13913	20242
15,14325	19657
15,14738	20805
15,15150	20407
15,15562	19859
15,15975	19767
15,16387	20145
15,16798	18617
15,17210	19918
15,17623	20781
15,18035	19722
15,18447	18909
15,18860	18985
15,19272	17148
15,19683	18870
15,20097	19076
15,20508	19369
15,20920	18103
15,21333	18717
15,21745	18018
15,22157	17569
15,22570	19148
15,22982	17919
15,23393	18218
15,23807	18337
15,24218	18233
15,24630	17168
15,25043	17050
15,25455	16171
15,25867	19020
15,26278	19493
15,26692	16678
15,27103	17303
15,27515	17764
15,27928	17640
15,28340	17508
15,28752	16903
15,29165	17108
15,29577	17278
15,29988	18651
15,30402	18905
15,30813	22017
15,31225	25034
15,31638	32033
15,32050	42383
15,32462	65966
15,32875	98032
15,33287	150384
15,33698	237683
15,34112	349922
15,34523	510007
15,34935	716372
15,35347	976867
15,35760	1264067
15,36172	1608259
15,36583	1980231
15,36997	2332532
15,37408	2681379
15,37820	2981897
15,38233	3220704
15,38645	3419182
15,39057	3517472
15,39470	3482362
15,39882	3344081
15,40293	3126668
15,40707	2855436
15,41118	2547722
15,41530	2254717
15,41943	1961833
15,42355	1699827
15,42767	1482668
15,43180	1267868
15,43592	1105922
15,44003	968985
15,44415	861639
15,44828	767498
15,45240	674718
15,45652	606931
15,46065	544918
15,46477	493484
15,46888	445779
15,47302	406477
15,47713	373084
15,48125	346295
15,48538	320624
15,48950	296406
15,49362	273657
15,49775	255142
15,50187	238192
15,50598	225783
15,51012	207892
15,51423	199410
15,51835	186135
15,52248	177455
15,52660	163265
15,53072	159278
15,53483	153068
15,53897	145004
15,54308	136467
15,54720	129879
15,55133	124091
15,55545	120623
15,55957	114686
15,56370	111454
15,56782	106607
15,57193	104600
15,57607	98117
15,58018	93754
15,58430	91636
15,58843	88058
15,59255	85666
15,59667	83444
15,60080	80112
15,60492	76544
15,60903	76193
15,61317	74936
15,61728	71213
15,62140	69388
15,62552	69595
15,62965	65976
15,63377	62703
15,63788	60047
15,64202	58299
15,64613	59484
15,65025	59003
15,65438	56171
15,65850	54386
15,66262	54243
15,66675	52664
15,67087	49249
15,67498	51102
15,67912	46564
15,68323	50417
15,68735	48095
15,69148	48668
15,69560	45530
15,69972	45934
15,70385	47226
15,70797	49261
15,71208	53083
15,71620	57781
15,72033	66529
15,72445	82202
15,72857	106529
15,73270	143359
15,73682	194370
15,74093	262895
15,74507	349066
15,74918	455732
15,75330	562436
15,75743	677978
15,76155	784611
15,76567	871862
15,76980	942456
15,77392	974569
15,77803	993333
15,78217	964812
15,78628	923080
15,79040	862393
15,79453	805889
15,79865	745049
15,80277	711054
15,80688	672318
15,81102	658722
15,81513	665275
15,81925	694774
15,82338	742002
15,82750	804938
15,83162	870523
15,83575	938170
15,83987	996218
15,84398	1025115
15,84812	1044296
15,85223	1038901
15,85635	996573
15,86048	948693
15,86460	884101
15,86872	805103
15,87285	719962
15,87697	644887
15,88108	581173
15,88522	513378
15,88933	462740
15,89345	415097
15,89757	386817
15,90170	372794
15,90582	363511
15,90993	377547
15,91407	414836
15,91818	467551
15,92230	545744
15,92643	645171
15,93055	764233
15,93467	885744
15,93880	1021705
15,94292	1130200
15,94703	1239563
15,95117	1283339
15,95528	1314391
15,95940	1278260
15,96353	1226136
15,96765	1128898
15,97177	1046056
15,97590	944085
15,98002	854942
15,98413	757414
15,98825	676108
15,99238	597583
15,99650	530189
16,00062	467854
16,00475	424449
16,00887	384286
16,01298	351170
16,01712	312348
16,02123	290443
16,02535	266706
16,02948	247691
16,03360	234330
16,03772	213819
16,04185	197837
16,04597	185909
16,05008	172325
16,05422	163579
16,05833	153101
16,06245	147298
16,06658	137874
16,07070	127836
16,07482	125861
16,07893	118553
16,08307	115363
16,08718	110611
16,09130	105638
16,09543	99694
16,09955	93345
16,10367	90902
16,10780	89395
16,11192	84064
16,11603	80693
16,12017	78926
16,12428	78831
16,12840	73750
16,13253	70581
16,13665	70351
16,14077	69857
16,14490	67859
16,14902	66099
16,15313	63722
16,15727	58608
16,16138	59459
16,16550	55841
16,16962	55662
16,17375	55000
16,17787	55048
16,18198	52367
16,18612	52996
16,19023	50643
16,19435	48790
16,19848	48008
16,20260	46583
16,20672	45673
16,21085	47529
16,21497	45297
16,21908	45473
16,22322	44313
16,22733	41923
16,23145	42408
16,23558	42919
16,23970	43449
16,24382	40905
16,24795	40151
16,25207	37971
16,25618	39095
16,26032	39141
16,26443	38760
16,26855	36972
16,27267	36958
16,27680	35837
16,28092	35544
16,28503	35959
16,28917	35248
16,29328	36249
16,29740	35257
16,30153	33020
16,30565	34495
16,30977	34836
16,31390	36194
16,31802	35260
16,32213	36688
16,32627	36310
16,33038	34693
16,33450	35037
16,33863	36651
16,34275	36277
16,34687	37756
16,35100	39352
16,35512	41557
16,35923	44994
16,36335	52474
16,36748	66771
16,37160	84881
16,37572	115851
16,37985	163605
16,38397	223450
16,38808	300771
16,39222	405007
16,39633	533004
16,40045	676097
16,40458	814349
16,40870	965485
16,41282	1093633
16,41695	1179108
16,42107	1231398
16,42518	1251359
16,42932	1218264
16,43343	1145435
16,43755	1064208
16,44168	974988
16,44580	862039
16,44992	776330
16,45403	683499
16,45817	610246
16,46228	546836
16,46640	498708
16,47053	442705
16,47465	399199
16,47877	358372
16,48290	319923
16,48702	299956
16,49113	273767
16,49527	255343
16,49938	234956
16,50350	219284
16,50763	203924
16,51175	189759
16,51587	180202
16,52000	168737
16,52412	161211
16,52823	153109
16,53237	143442
16,53648	133677
16,54060	130178
16,54472	125037
16,54885	117573
16,55297	115780
16,55708	109184
16,56122	104800
16,56533	102277
16,56945	97991
16,57358	95864
16,57770	92323
16,58182	91798
16,58595	85562
16,59007	86981
16,59418	81918
16,59832	78031
16,60243	79699
16,60655	73809
16,61068	72607
16,61480	71184
16,61892	70576
16,62305	66030
16,62717	64998
16,63128	63898
16,63540	64425
16,63953	62298
16,64365	61736
16,64777	60770
16,65190	58588
16,65602	55184
16,66013	52909
16,66427	52868
16,66838	51771
16,67250	53462
16,67663	52164
16,68075	47902
16,68487	47895
16,68900	47891
16,69312	46679
16,69723	46279
16,70137	45602
16,70548	46383
16,70960	45689
16,71373	43363
16,71785	42804
16,72197	42343
16,72608	41222
16,73022	41022
16,73433	41230
16,73845	39662
16,74258	38628
16,74670	37665
16,75082	39367
16,75495	39691
16,75907	40616
16,76318	45641
16,76732	51703
16,77143	63246
16,77555	80328
16,77968	101820
16,78380	142884
16,78792	194589
16,79205	264222
16,79617	359691
16,80028	472214
16,80442	585423
16,80853	711556
16,81265	828534
16,81677	935132
16,82090	1028208
16,82502	1060924
16,82913	1067981
16,83327	1040745
16,83738	992499
16,84150	916564
16,84563	850135
16,84975	770638
16,85387	701287
16,85800	642583
16,86212	587333
16,86623	548696
16,87037	530403
16,87448	530632
16,87860	555695
16,88273	587731
16,88685	652588
16,89097	709361
16,89510	777407
16,89922	844442
16,90333	899615
16,90745	948000
16,91158	969292
16,91570	973244
16,91982	943260
16,92395	899953
16,92807	841157
16,93218	769554
16,93632	702493
16,94043	626719
16,94455	565026
16,94868	504497
16,95280	446871
16,95692	393622
16,96105	352837
16,96517	314120
16,96928	284606
16,97342	258500
16,97753	233746
16,98165	212285
16,98578	193572
16,98990	183259
16,99402	168468
16,99813	155368
17,00227	147953
17,00638	139585
17,01050	128753
17,01463	119717
17,01875	117421
17,02287	108567
17,02700	101885
17,03112	95896
17,03523	90145
17,03937	87744
17,04348	86288
17,04760	84473
17,05173	77174
17,05585	76772
17,05997	74995
17,06410	71400
17,06822	69678
17,07233	67750
17,07647	64080
17,08058	65766
17,08470	62305
17,08882	60072
17,09295	58507
17,09707	56679
17,10118	55488
17,10532	56006
17,10943	53164
17,11355	53966
17,11768	51367
17,12180	51296
17,12592	49007
17,13005	49183
17,13417	46371
17,13828	46131
17,14242	45430
17,14653	47666
17,15065	45003
17,15478	45265
17,15890	41923
17,16302	42769
17,16715	42664
17,17127	42238
17,17538	40677
17,17950	42197
17,18363	41190
17,18775	41003
17,19187	41518
17,19600	38155
17,20012	40503
17,20423	40075
17,20837	37302
17,21248	36282
17,21660	38669
17,22073	37417
17,22485	36570
17,22897	37675
17,23310	37839
17,23722	36577
17,24133	35211
17,24547	34292
17,24958	36358
17,25370	35871
17,25783	34280
17,26195	34407
17,26607	33470
17,27018	32243
17,27432	33138
17,27843	32357
17,28255	31475
17,28668	31893
17,29080	32354
17,29492	29559
17,29905	30544
17,30317	31198
17,30728	29971
17,31142	32722
17,31553	29570
17,31965	31567
17,32378	30038
17,32790	30757
17,33202	31220
17,33615	29568
17,34027	30677
17,34438	30919
17,34852	29339
17,35263	30760
17,35675	29676
17,36087	29693
17,36500	33237
17,36912	31137
17,37323	37122
17,37737	42140
17,38148	49848
17,38560	61690
17,38973	80558
17,39385	105106
17,39797	143052
17,40210	196457
17,40622	276540
17,41033	371908
17,41447	502956
17,41858	661418
17,42270	871417
17,42683	1097677
17,43095	1365655
17,43507	1653701
17,43920	1914286
17,44332	2137121
17,44743	2326357
17,45155	2419820
17,45568	2455185
17,45980	2385897
17,46392	2264585
17,46805	2092143
17,47217	1887415
17,47628	1671784
17,48042	1485431
17,48453	1323800
17,48865	1157560
17,49278	1035831
17,49690	911597
17,50102	818858
17,50515	745435
17,50927	675531
17,51338	601608
17,51752	554537
17,52163	507720
17,52575	466517
17,52988	427790
17,53400	396109
17,53812	374894
17,54223	349216
17,54637	322054
17,55048	305635
17,55460	290095
17,55873	268412
17,56285	258301
17,56697	242258
17,57110	226249
17,57522	217420
17,57933	209488
17,58347	200960
17,58758	191256
17,59170	184206
17,59583	174221
17,59995	167310
17,60407	160509
17,60820	157239
17,61232	149139
17,61643	144756
17,62057	137649
17,62468	137194
17,62880	132727
17,63292	127371
17,63705	126451
17,64117	120624
17,64528	117723
17,64942	112857
17,65353	110882
17,65765	109102
17,66178	103767
17,66590	102368
17,67002	100603
17,67415	94403
17,67827	94893
17,68238	92325
17,68652	92806
17,69063	89459
17,69475	88258
17,69888	85165
17,70300	83603
17,70712	84251
17,71125	80898
17,71537	79838
17,71948	78618
17,72360	75787
17,72773	75552
17,73185	75509
17,73597	71935
17,74010	72746
17,74422	71601
17,74833	70393
17,75247	65975
17,75658	65592
17,76070	68889
17,76483	64736
17,76895	66750
17,77307	65071
17,77720	65647
17,78132	64013
17,78543	61279
17,78957	58813
17,79368	60003
17,79780	60971
17,80193	58326
17,80605	57311
17,81017	60195
17,81428	57011
17,81842	56851
17,82253	55452
17,82665	55404
17,83078	53063
17,83490	50838
17,83902	52668
17,84315	52239
17,84727	50293
17,85138	48742
17,85552	49338
17,85963	50062
17,86375	49337
17,86788	49379
17,87200	50223
17,87612	48191
17,88025	47424
17,88437	45596
17,88848	45178
17,89262	46284
17,89673	46542
17,90085	45836
17,90498	44511
17,90910	46595
17,91322	45357
17,91733	46136
17,92147	50832
17,92558	57791
17,92970	62809
17,93383	77183
17,93795	100096
17,94207	128354
17,94620	166199
17,95032	221787
17,95443	294422
17,95857	382429
17,96268	496703
17,96680	612037
17,97093	720933
17,97505	851134
17,97917	959312
17,98330	1044369
17,98742	1094879
17,99153	1117657
17,99567	1100148
17,99978	1052998
18,00390	997569
18,00802	917901
18,01215	849496
18,01627	770766
18,02038	697567
18,02452	625820
18,02863	563555
18,03275	514411
18,03688	470896
18,04100	426964
18,04512	393438
18,04925	358277
18,05337	335563
18,05748	306951
18,06162	282553
18,06573	264438
18,06985	247877
18,07398	232656
18,07810	219553
18,08222	209308
18,08635	198969
18,09047	186341
18,09458	180296
18,09870	169448
18,10283	159626
18,10695	153430
18,11107	146873
18,11520	145155
18,11932	137012
18,12343	133364
18,12757	129108
18,13168	122113
18,13580	116015
18,13993	118008
18,14405	109407
18,14817	106785
18,15230	105401
18,15642	99820
18,16053	98826
18,16467	96927
18,16878	94463
18,17290	90571
18,17703	88154
18,18115	86461
18,18527	84044
18,18938	83923
18,19352	81934
18,19763	80177
18,20175	78528
18,20588	77196
18,21000	75330
18,21412	72838
18,21825	69858
18,22237	70949
18,22648	73129
18,23062	68688
18,23473	68752
18,23885	68938
18,24298	62366
18,24710	63766
18,25122	63834
18,25535	59572
18,25947	61379
18,26358	60353
18,26772	60052
18,27183	56490
18,27595	55858
18,28007	57200
18,28420	57174
18,28832	54294
18,29243	54657
18,29657	53666
18,30068	54104
18,30480	51698
18,30893	52632
18,31305	52412
18,31717	52752
18,32130	53087
18,32542	55294
18,32953	55106
18,33367	58636
18,33778	63213
18,34190	64213
18,34603	69041
18,35015	72492
18,35427	80187
18,35840	86300
18,36252	92002
18,36663	96915
18,37075	102743
18,37488	103201
18,37900	105431
18,38312	104463
18,38725	105146
18,39137	100118
18,39548	95799
18,39962	90684
18,40373	87559
18,40785	82703
18,41198	78455
18,41610	73601
18,42022	70189
18,42435	64318
18,42847	64459
18,43258	61493
18,43672	58473
18,44083	56292
18,44495	53184
18,44908	55467
18,45320	50928
18,45732	48376
18,46143	51135
18,46557	48170
18,46968	47562
18,47380	47791
18,47793	44459
18,48205	42804
18,48617	43341
18,49030	41769
18,49442	43155
18,49853	43574
18,50267	40659
18,50678	40315
18,51090	39983
18,51503	40202
18,51915	39641
18,52327	39068
18,52740	38277
18,53152	40367
18,53563	39827
18,53977	40384
18,54388	40012
18,54800	38563
18,55212	37256
18,55625	38316
18,56037	36673
18,56448	38141
18,56862	37074
18,57273	35293
18,57685	37197
18,58098	38519
18,58510	36876
18,58922	36639
18,59335	38108
18,59747	37307
18,60158	37902
18,60572	36887
18,60983	37578
18,61395	37365
18,61808	36156
18,62220	36606
18,62632	37735
18,63045	35703
18,63457	35792
18,63868	35549
18,64280	35098
18,64693	36492
18,65105	35562
18,65517	35932
18,65930	35391
18,66342	35101
18,66753	37632
18,67167	36534
18,67578	34104
18,67990	36582
18,68403	34111
18,68815	36021
18,69227	35482
18,69640	35621
18,70052	36643
18,70463	34530
18,70877	36352
18,71288	34464
18,71700	35167
18,72113	35171
18,72525	35963
18,72937	36157
18,73348	35202
18,73762	33492
18,74173	34295
18,74585	32110
18,74998	32951
18,75410	34025
18,75822	35051
18,76235	32137
18,76647	33890
18,77058	32788
18,77472	33826
18,77883	32836
18,78295	35192
18,78708	34723
18,79120	32652
18,79532	34274
18,79945	35054
18,80357	32909
18,80768	32913
18,81182	33892
18,81593	33459
18,82005	36669
18,82417	32774
18,82830	33749
18,83242	33928
18,83653	33378
18,84067	32575
18,84478	33801
18,84890	33731
18,85303	35199
18,85715	34015
18,86127	32294
18,86540	33471
18,86952	36357
18,87363	34586
18,87777	33538
18,88188	34473
18,88600	34615
18,89013	33070
18,89425	35560
18,89837	33636
18,90250	34596
18,90662	33520
18,91073	34604
18,91485	34732
18,91898	34189
18,92310	36989
18,92722	35137
18,93135	33501
18,93547	36452
18,93958	36393
18,94372	36725
18,94783	35518
18,95195	33056
18,95608	34986
18,96020	35792
18,96432	35230
18,96845	35316
18,97257	33171
18,97668	34288
18,98082	35369
18,98493	36327
18,98905	34123
18,99318	32888
18,99730	33288
19,00142	35175
19,00553	32478
19,00967	35181
19,01378	33898
19,01790	33048
19,02203	33197
19,02615	34851
19,03027	33444
19,03440	34673
19,03852	33626
19,04263	34432
19,04677	35693
19,05088	32083
19,05500	33266
19,05913	34523
19,06325	33815
19,06737	32166
19,07150	33780
19,07562	34420
19,07973	34734
19,08387	33857
19,08798	33572
19,09210	34306
19,09622	31950
19,10035	34684
19,10447	32819
19,10858	32858
19,11272	32952
19,11683	33234
19,12095	32127
19,12508	30871
19,12920	33243
19,13332	33241
19,13745	33932
19,14157	34868
19,14568	33550
19,14982	33737
19,15393	35982
19,15805	33424
19,16218	34522
19,16630	32891
19,17042	33063
19,17455	35185
19,17867	32898
19,18278	33238
19,18690	34413
19,19103	33472
19,19515	34997
19,19927	32265
19,20340	31932
19,20752	34102
19,21163	33377
19,21577	33797
19,21988	34900
19,22400	36232
19,22813	36044
19,23225	35778
19,23637	34182
19,24050	34275
19,24462	34869
19,24873	34500
19,25287	34130
19,25698	33935
19,26110	35043
19,26523	32079
19,26935	33967
19,27347	35645
19,27758	33259
19,28172	34718
19,28583	33580
19,28995	33834
19,29408	36697
19,29820	35328
19,30232	33895
19,30645	34333
19,31057	35703
19,31468	35205
19,31882	34011
19,32293	34216
19,32705	33519
19,33118	33079
19,33530	34140
19,33942	33043
19,34355	34845
19,34767	33510
19,35178	36269
19,35592	34382
19,36003	35124
19,36415	35112
19,36827	37283
19,37240	36707
19,37652	38201
19,38063	42843
19,38477	46628
19,38888	56140
19,39300	70735
19,39713	91128
19,40125	119338
19,40537	155283
19,40950	211111
19,41362	266719
19,41773	339183
19,42187	409721
19,42598	486570
19,43010	564327
19,43423	628718
19,43835	663770
19,44247	686986
19,44660	680427
19,45072	674671
19,45483	648986
19,45895	603673
19,46308	570892
19,46720	516088
19,47132	467528
19,47545	414671
19,47957	373657
19,48368	338944
19,48782	307399
19,49193	276886
19,49605	251836
19,50018	230171
19,50430	204944
19,50842	192266
19,51255	176447
19,51667	160242
19,52078	151204
19,52492	137969
19,52903	128273
19,53315	123556
19,53728	116957
19,54140	110086
19,54552	107387
19,54965	101701
19,55377	93912
19,55788	91556
19,56200	88956
19,56613	86088
19,57025	82430
19,57437	81012
19,57850	76661
19,58262	76776
19,58673	72976
19,59087	71423
19,59498	70207
19,59910	68036
19,60323	70021
19,60735	65258
19,61147	62757
19,61560	61699
19,61972	62760
19,62383	62663
19,62797	60665
19,63208	59679
19,63620	58992
19,64033	57937
19,64445	57419
19,64857	54200
19,65268	55520
19,65682	53995
19,66093	53581
19,66505	52164
19,66918	54202
19,67330	53255
19,67742	52830
19,68155	52627
19,68567	48840
19,68978	49995
19,69392	48414
19,69803	50980
19,70215	48194
19,70628	49981
19,71040	46867
19,71452	44755
19,71865	47512
19,72277	47712
19,72688	48195
19,73102	46842
19,73513	47683
19,73925	45615
19,74337	47548
19,74750	45276
19,75162	46144
19,75573	47048
19,75987	47673
19,76398	47459
19,76810	44616
19,77223	45728
19,77635	45227
19,78047	45704
19,78460	45982
19,78872	42071
19,79283	47210
19,79697	46277
19,80108	45019
19,80520	47541
19,80933	44243
19,81345	46903
19,81757	47899
19,82170	47352
19,82582	46230
19,82993	45946
19,83405	44284
19,83818	44163
19,84230	46933
19,84642	46941
19,85055	45815
19,85467	45604
19,85878	43009
19,86292	43209
19,86703	42232
19,87115	43449
19,87528	43128
19,87940	42786
19,88352	43785
19,88765	46982
19,89177	43638
19,89588	43201
19,90002	42977
19,90413	44293
19,90825	44524
19,91238	42465
19,91650	42710
19,92062	41915
19,92473	42724
19,92887	42754
19,93298	42227
19,93710	44346
19,94123	41781
19,94535	41079
19,94947	43880
19,95360	43036
19,95772	42915
19,96183	44224
19,96597	44936
19,97008	44000
19,97420	45396
19,97833	42166
19,98245	42912
19,98657	44403
19,99070	43623
19,99482	43020
19,99893	43592
20,00307	45564
20,00718	43703
20,01130	43544
20,01542	41980
20,01955	44210
20,02367	42552
20,02778	43676
20,03192	44941
20,03603	41825
20,04015	45113
20,04428	42297
20,04840	45090
20,05252	45081
20,05665	42724
20,06077	42437
20,06488	38540
20,06902	43862
20,07313	43923
20,07725	43455
20,08138	43791
20,08550	42321
20,08962	41888
20,09375	43532
20,09787	44824
20,10198	44835
20,10610	42918
20,11023	41460
20,11435	40004
20,11847	41148
20,12260	41896
20,12672	42891
20,13083	42679
20,13497	42204
20,13908	43360
20,14320	43021
20,14733	43692
20,15145	44068
20,15557	44657
20,15970	42892
20,16382	43983
20,16793	44965
20,17207	42002
20,17618	43151
20,18030	44962
20,18443	45158
20,18855	44793
20,19267	42487
20,19678	45534
20,20092	43777
20,20503	45790
20,20915	42104
20,21328	42986
20,21740	43128
20,22152	45151
20,22565	44178
20,22977	42807
20,23388	42743
20,23802	43820
20,24213	43920
20,24625	43203
20,25038	40910
20,25450	43029
20,25862	44222
20,26275	44266
20,26687	43560
20,27098	44332
20,27512	43276
20,27923	43596
20,28335	44091
20,28747	43297
20,29160	42123
20,29572	43797
20,29983	42526
20,30397	44466
20,30808	41274
20,31220	43325
20,31633	42812
20,32045	43682
20,32457	44659
20,32870	43577
20,33282	42729
20,33693	44455
20,34107	45081
20,34518	45050
20,34930	44765
20,35343	43332
20,35755	44685
20,36167	42151
20,36580	42039
20,36992	44726
20,37403	46988
20,37815	42951
20,38228	42923
20,38640	43424
20,39052	42847
20,39465	43304
20,39877	42870
20,40288	42810
20,40702	46016
20,41113	44019
20,41525	40804
20,41938	42179
20,42350	43883
20,42762	45285
20,43175	45831
20,43587	46516
20,43998	44149
20,44412	43895
20,44823	44266
20,45235	44679
20,45648	46291
20,46060	44266
20,46472	44925
20,46883	45732
20,47297	45830
20,47708	45144
20,48120	44515
20,48533	47303
20,48945	44285
20,49357	45325
20,49770	44797
20,50182	45901
20,50593	46528
20,51007	44585
20,51418	45656
20,51830	40899
20,52243	48924
20,52655	44789
20,53067	47489
20,53480	45221
20,53892	45100
20,54303	43689
20,54717	43176
