D:\MassHunter\GCMS\1\data\Amal\Constant flow\100C\100C_1ml-min_5C-min_1.D Wed Jul 31 14:59:24 2024
Start of data points
5,84110,63338
5,84522,63450
5,84935,58303
5,85347,56250
5,85758,53834
5,86172,53007
5,86583,50666
5,86995,49266
5,87407,45819
5,87820,45469
5,88232,41873
5,88643,39196
5,89057,37627
5,89468,36745
5,89880,34487
5,90293,33561
5,90705,32101
5,91117,32186
5,91530,30002
5,91942,28440
5,92353,26400
5,92767,27488
5,93178,27474
5,93590,24948
5,94003,23247
5,94415,24969
5,94827,23551
5,95240,22682
5,95652,22123
5,96063,21081
5,96475,22612
5,96888,21655
5,97300,19698
5,97712,19143
5,98125,19032
5,98537,19274
5,98948,18472
5,99362,18579
5,99773,16704
6,00185,17349
6,00598,17329
6,01010,16947
6,01422,16464
6,01835,16173
6,02247,17062
6,02658,17124
6,03072,16861
6,03483,16577
6,03895,16383
6,04308,15421
6,04720,14496
6,05132,15719
6,05543,15531
6,05957,15368
6,06368,14701
6,06780,16021
6,07193,14860
6,07605,14201
6,08017,14441
6,08430,14390
6,08842,14204
6,09253,14139
6,09667,14857
6,10078,14464
6,10490,14108
6,10903,14922
6,11315,14292
6,11727,13922
6,12140,14168
6,12552,13772
6,12963,14295
6,13377,15030
6,13788,13859
6,14200,14143
6,14612,13819
6,15025,13121
6,15437,13992
6,15848,13520
6,16262,13097
6,16673,13693
6,17085,13936
6,17498,13924
6,17910,13051
6,18322,14453
6,18735,12947
6,19147,13326
6,19558,13575
6,19972,13973
6,20383,12984
6,20795,13687
6,21208,13295
6,21620,12922
6,22032,14321
6,22445,13788
6,22857,12586
6,23268,12665
6,23680,12894
6,24093,11255
6,24505,11846
6,24917,12644
6,25330,12323
6,25742,12762
6,26153,12238
6,26567,12333
6,26978,11991
6,27390,12709
6,27803,12652
6,28215,12893
6,28627,12662
6,29040,11802
6,29452,12123
6,29863,11897
6,30277,12997
6,30688,12960
6,31100,11926
6,31513,11991
6,31925,11532
6,32337,13596
6,32748,11674
6,33162,11708
6,33573,11004
6,33985,12096
6,34398,12190
6,34810,12360
6,35222,12018
6,35635,11978
6,36047,11642
6,36458,12721
6,36872,10536
6,37283,12006
6,37695,11921
6,38108,11334
6,38520,10873
6,38932,11968
6,39345,11913
6,39757,10786
6,40168,10752
6,40582,11795
6,40993,10533
6,41405,11017
6,41817,11072
6,42230,11193
6,42642,11386
6,43053,11885
6,43467,11699
6,43878,10930
6,44290,11613
6,44703,11849
6,45115,11491
6,45527,11773
6,45940,11119
6,46352,11394
6,46763,11442
6,47177,10088
6,47588,12122
6,48000,10298
6,48413,10678
6,48825,11459
6,49237,12172
6,49650,11918
6,50062,10859
6,50473,10727
6,50885,10873
6,51298,10286
6,51710,10516
6,52122,10973
6,52535,10361
6,52947,10258
6,53358,10447
6,53772,10598
6,54183,11116
6,54595,11250
6,55008,11136
6,55420,10674
6,55832,10384
6,56245,9816
6,56657,10009
6,57068,10363
6,57482,10241
6,57893,10456
6,58305,10113
6,58718,9460
6,59130,9948
6,59542,9837
6,59953,9981
6,60367,9936
6,60778,8885
6,61190,10304
6,61603,8724
6,62015,8868
6,62427,9207
6,62840,9165
6,63252,9571
6,63663,9926
6,64077,10282
6,64488,9732
6,64900,9534
6,65313,8896
6,65725,9278
6,66137,8992
6,66550,8947
6,66962,9041
6,67373,9386
6,67787,9365
6,68198,8750
6,68610,8932
6,69022,9933
6,69435,8524
6,69847,9471
6,70258,9800
6,70672,8808
6,71083,8556
6,71495,9506
6,71908,8783
6,72320,8342
6,72732,9177
6,73145,8684
6,73557,9067
6,73968,8484
6,74382,8710
6,74793,8638
6,75205,8050
6,75618,9755
6,76030,8417
6,76442,8465
6,76855,8517
6,77267,9290
6,77678,8891
6,78090,9117
6,78503,10101
6,78915,8929
6,79327,8864
6,79740,8693
6,80152,8380
6,80563,8198
6,80977,8611
6,81388,8713
6,81800,8427
6,82213,9005
6,82625,8144
6,83037,8725
6,83450,8259
6,83862,7168
6,84273,7516
6,84687,7671
6,85098,8153
6,85510,7721
6,85923,8743
6,86335,7945
6,86747,8475
6,87158,7852
6,87572,7979
6,87983,8240
6,88395,8374
6,88808,7786
6,89220,7539
6,89632,8465
6,90045,7942
6,90457,7924
6,90868,7998
6,91282,7917
6,91693,8018
6,92105,7695
6,92518,7582
6,92930,8883
6,93342,7243
6,93755,7552
6,94167,8764
6,94578,8311
6,94992,7418
6,95403,7873
6,95815,9893
6,96227,9972
6,96640,12418
6,97052,15828
6,97463,20984
6,97877,28485
6,98288,35188
6,98700,44398
6,99113,53606
6,99525,60955
6,99937,68743
7,00350,74707
7,00762,78872
7,01173,79224
7,01587,79676
7,01998,79643
7,02410,78348
7,02823,74716
7,03235,72641
7,03647,67854
7,04060,66637
7,04472,63726
7,04883,59992
7,05295,57667
7,05708,54922
7,06120,52179
7,06532,49051
7,06945,46098
7,07357,42854
7,07768,41959
7,08182,40296
7,08593,37923
7,09005,36690
7,09418,33028
7,09830,31480
7,10242,31865
7,10655,28798
7,11067,27662
7,11478,25471
7,11892,24009
7,12303,23453
7,12715,21980
7,13128,20202
7,13540,20069
7,13952,18721
7,14363,16746
7,14777,16730
7,15188,15456
7,15600,15044
7,16013,13261
7,16425,12510
7,16837,12466
7,17250,11387
7,17662,11106
7,18073,10654
7,18487,10323
7,18898,9381
7,19310,8656
7,19723,9827
7,20135,9185
7,20547,9066
7,20960,9039
7,21372,9139
7,21783,8764
7,22197,8908
7,22608,9067
7,23020,8866
7,23432,9923
7,23845,8245
7,24257,8605
7,24668,8298
7,25082,9263
7,25493,8335
7,25905,7958
7,26318,8347
7,26730,7939
7,27142,7670
7,27555,8377
7,27967,8479
7,28378,7710
7,28792,7626
7,29203,7597
7,29615,6774
7,30028,7151
7,30440,6936
7,30852,6531
7,31265,6733
7,31677,7134
7,32088,6839
7,32500,6400
7,32913,6483
7,33325,7007
7,33737,7167
7,34150,6780
7,34562,5921
7,34973,6612
7,35387,6940
7,35798,6172
7,36210,6416
7,36623,5576
7,37035,6780
7,37447,5854
7,37860,6371
7,38272,6269
7,38683,6833
7,39097,6858
7,39508,5890
7,39920,6251
7,40333,7026
7,40745,6278
7,41157,6639
7,41570,6047
7,41982,7074
7,42393,6543
7,42805,6474
7,43218,6323
7,43630,7163
7,44042,6693
7,44455,6203
7,44867,6200
7,45278,6478
7,45692,6047
7,46103,6344
7,46515,6688
7,46928,5661
7,47340,6231
7,47752,6732
7,48165,6459
7,48577,5504
7,48988,6579
7,49402,5884
7,49813,5987
7,50225,6615
7,50638,5943
7,51050,6202
7,51462,5322
7,51873,6061
7,52287,6156
7,52698,6877
7,53110,5765
7,53523,6166
7,53935,6060
7,54347,6087
7,54760,6195
7,55172,5825
7,55583,5450
7,55997,6043
7,56408,5929
7,56820,6602
7,57233,6212
7,57645,5419
7,58057,6196
7,58470,6284
7,58882,4979
7,59293,5544
7,59707,5671
7,60118,7049
7,60530,6269
7,60942,5617
7,61355,6553
7,61767,6060
7,62178,6428
7,62592,6572
7,63003,6133
7,63415,6058
7,63828,6073
7,64240,6004
7,64652,5889
7,65065,5606
7,65477,5803
7,65888,5890
7,66302,5200
7,66713,5490
7,67125,5503
7,67538,6156
7,67950,5245
7,68362,5894
7,68775,5952
7,69187,5814
7,69598,5411
7,70010,5867
7,70423,5809
7,70835,5776
7,71247,6400
7,71660,5745
7,72072,5690
7,72483,5707
7,72897,5559
7,73308,5402
7,73720,6568
7,74133,5995
7,74545,5818
7,74957,5771
7,75370,5531
7,75782,5986
7,76193,6266
7,76607,5498
7,77018,6000
7,77430,5961
7,77843,5918
7,78255,5851
7,78667,5584
7,79078,5548
7,79492,5923
7,79903,5692
7,80315,5261
7,80728,5175
7,81140,5989
7,81552,5958
7,81965,5652
7,82377,5712
7,82788,4793
7,83202,5625
7,83613,4821
7,84025,6073
7,84438,5962
7,84850,5186
7,85262,5364
7,85675,5215
7,86087,5571
7,86498,4986
7,86912,4877
7,87323,5353
7,87735,5183
7,88147,4810
7,88560,5385
7,88972,5272
7,89383,5544
7,89797,5168
7,90208,5532
7,90620,5481
7,91033,4773
7,91445,5090
7,91857,5752
7,92270,5318
7,92682,5020
7,93093,5337
7,93507,4748
7,93918,5112
7,94330,4945
7,94743,4928
7,95155,4513
7,95567,4747
7,95980,4951
7,96392,5139
7,96803,5291
7,97215,5069
7,97628,4449
7,98040,5179
7,98452,5187
7,98865,5132
7,99277,4589
7,99688,4861
8,00102,5123
8,00513,5205
8,00925,5424
8,01338,4933
8,01750,5473
8,02162,5257
8,02575,5350
8,02987,5738
8,03398,5317
8,03812,5518
8,04223,5206
8,04635,5284
8,05048,5145
8,05460,5552
8,05872,5379
8,06283,5521
8,06697,5465
8,07108,4970
8,07520,4892
8,07933,4901
8,08345,4732
8,08757,4724
8,09170,5445
8,09582,5068
8,09993,5215
8,10407,4951
8,10818,4810
8,11230,4923
8,11643,5067
8,12055,5000
8,12467,4793
8,12880,4744
8,13292,4950
8,13703,5503
8,14117,4673
8,14528,4888
8,14940,5311
8,15352,4521
8,15765,5066
8,16177,4646
8,16588,5224
8,17002,4863
8,17413,4843
8,17825,4958
8,18238,5417
8,18650,4672
8,19062,4892
8,19475,4941
8,19887,5387
8,20298,5509
8,20712,5985
8,21123,6084
8,21535,4869
8,21948,5669
8,22360,6309
8,22772,5818
8,23185,6311
8,23597,5594
8,24008,6608
8,24420,6154
8,24833,6284
8,25245,5959
8,25657,5654
8,26070,5498
8,26482,5352
8,26893,5286
8,27307,4842
8,27718,5052
8,28130,5745
8,28543,4942
8,28955,5291
8,29367,4597
8,29780,4335
8,30192,5390
8,30603,5234
8,31017,5008
8,31428,4740
8,31840,5116
8,32253,5333
8,32665,5113
8,33077,4867
8,33488,5069
8,33902,4321
8,34313,5334
8,34725,4230
8,35138,4337
8,35550,5057
8,35962,4770
8,36375,4306
8,36787,4131
8,37198,4680
8,37612,4738
8,38023,4177
8,38435,4656
8,38848,4677
8,39260,5220
8,39672,5014
8,40085,4338
8,40497,5069
8,40908,4054
8,41322,4260
8,41733,4853
8,42145,4790
8,42557,4505
8,42970,4909
8,43382,4754
8,43793,4048
8,44207,4628
8,44618,4342
8,45030,3993
8,45443,4421
8,45855,4686
8,46267,4079
8,46680,4836
8,47092,4321
8,47503,4158
8,47917,4582
8,48328,4235
8,48740,4675
8,49153,4299
8,49565,4432
8,49977,4102
8,50390,4678
8,50802,4125
8,51213,4448
8,51625,4202
8,52038,4514
8,52450,4760
8,52862,4304
8,53275,4271
8,53687,4066
8,54098,4973
8,54512,4136
8,54923,3930
8,55335,3932
8,55748,4322
8,56160,3767
8,56572,4845
8,56985,4615
8,57397,4019
8,57808,3960
8,58222,3472
8,58633,4328
8,59045,3978
8,59458,3951
8,59870,4125
8,60282,3351
8,60693,3685
8,61107,4433
8,61518,4935
8,61930,4199
8,62343,4995
8,62755,3631
8,63167,4456
8,63580,3873
8,63992,4251
8,64403,4817
8,64817,4044
8,65228,4291
8,65640,4062
8,66053,4545
8,66465,4642
8,66877,3718
8,67290,4047
8,67702,4552
8,68113,3893
8,68527,4310
8,68938,3856
8,69350,4129
8,69762,4244
8,70175,3959
8,70587,3737
8,70998,3741
8,71412,4781
8,71823,4301
8,72235,4234
8,72648,3978
8,73060,4593
8,73472,4172
8,73885,4457
8,74297,4178
8,74708,3749
8,75122,3973
8,75533,4315
8,75945,4081
8,76358,3765
8,76770,4200
8,77182,3989
8,77595,4715
8,78007,3524
8,78418,4064
8,78830,4131
8,79243,4182
8,79655,3805
8,80067,3887
8,80480,4203
8,80892,3752
8,81303,4158
8,81717,4335
8,82128,4187
8,82540,3824
8,82953,3529
8,83365,3998
8,83777,5040
8,84190,3892
8,84602,4014
8,85013,3478
8,85427,3866
8,85838,3651
8,86250,4094
8,86663,3914
8,87075,3998
8,87487,3989
8,87898,4681
8,88312,3932
8,88723,4201
8,89135,4060
8,89548,3823
8,89960,4154
8,90372,4281
8,90785,3937
8,91197,4636
8,91608,4072
8,92022,3980
8,92433,3876
8,92845,3977
8,93258,4149
8,93670,3397
8,94082,4220
8,94495,4055
8,94907,4104
8,95318,3959
8,95732,3855
8,96143,3612
8,96555,3818
8,96967,3978
8,97380,4813
8,97792,4095
8,98203,4160
8,98617,4278
8,99028,4078
8,99440,4241
8,99853,3584
9,00265,3365
9,00677,4344
9,01090,3652
9,01502,3637
9,01913,3359
9,02327,3342
9,02738,3908
9,03150,4020
9,03563,3481
9,03975,3682
9,04387,3391
9,04800,3928
9,05212,3779
9,05623,4022
9,06035,3651
9,06448,3776
9,06860,3871
9,07272,3842
9,07685,3924
9,08097,4106
9,08508,4320
9,08922,3686
9,09333,3595
9,09745,4164
9,10158,3826
9,10570,3878
9,10982,3811
9,11395,4009
9,11807,3501
9,12218,3766
9,12632,3524
9,13043,4027
9,13455,3967
9,13868,3514
9,14280,3155
9,14692,3350
9,15105,3805
9,15517,3879
9,15928,3758
9,16340,3575
9,16753,4073
9,17165,4714
9,17577,7096
9,17990,9383
9,18402,14455
9,18813,22144
9,19227,34772
9,19638,53182
9,20050,77337
9,20463,107358
9,20875,143468
9,21287,187556
9,21700,233199
9,22112,275983
9,22523,313482
9,22937,352949
9,23348,377886
9,23760,395164
9,24173,405721
9,24585,404422
9,24997,390785
9,25408,380922
9,25822,361165
9,26233,344557
9,26645,315772
9,27058,292824
9,27470,268075
9,27882,247234
9,28295,224987
9,28707,203023
9,29118,180446
9,29532,163827
9,29943,148195
9,30355,134613
9,30768,117223
9,31180,101731
9,31592,91230
9,32005,77855
9,32417,70316
9,32828,62356
9,33242,54492
9,33653,49105
9,34065,43049
9,34477,37622
9,34890,32698
9,35302,29847
9,35713,27664
9,36127,24114
9,36538,22612
9,36950,20669
9,37363,18976
9,37775,17711
9,38187,15388
9,38600,14992
9,39012,14021
9,39423,12574
9,39837,11257
9,40248,11278
9,40660,9757
9,41073,10553
9,41485,9519
9,41897,9795
9,42310,8543
9,42722,8270
9,43133,8238
9,43545,8527
9,43958,7471
9,44370,6675
9,44782,7813
9,45195,6965
9,45607,6041
9,46018,6385
9,46432,6110
9,46843,6632
9,47255,6072
9,47668,5908
9,48080,6168
9,48492,5606
9,48905,5940
9,49317,5162
9,49728,5543
9,50142,4793
9,50553,5943
9,50965,4381
9,51378,4519
9,51790,4020
9,52202,4273
9,52613,4615
9,53027,5126
9,53438,5131
9,53850,5119
9,54263,5147
9,54675,4434
9,55087,4025
9,55500,4206
9,55912,4369
9,56323,4990
9,56737,5298
9,57148,3940
9,57560,4083
9,57973,4652
9,58385,4184
9,58797,4613
9,59210,4048
9,59622,3972
9,60033,4067
9,60447,4148
9,60858,4115
9,61270,4931
9,61682,3619
9,62095,4083
9,62507,3917
9,62918,4003
9,63332,4155
9,63743,3573
9,64155,4956
9,64568,4101
9,64980,3676
9,65392,3888
9,65805,3399
9,66217,3861
9,66628,3646
9,67042,3386
9,67453,3444
9,67865,3401
9,68278,3081
9,68690,3296
9,69102,3400
9,69515,3918
9,69927,3551
9,70338,3570
9,70750,3588
9,71163,3773
9,71575,3715
9,71987,3493
9,72400,4031
9,72812,3299
9,73223,3719
9,73637,3379
9,74048,3157
9,74460,3756
9,74873,3060
9,75285,2812
9,75697,3270
9,76110,3450
9,76522,3216
9,76933,3043
9,77347,3596
9,77758,2866
9,78170,3337
9,78583,3122
9,78995,3507
9,79407,3447
9,79818,3435
9,80232,3192
9,80643,4332
9,81055,3816
9,81468,3374
9,81880,2773
9,82292,3077
9,82705,3617
9,83117,3237
9,83528,3499
9,83942,3360
9,84353,3071
9,84765,3294
9,85178,3057
9,85590,2757
9,86002,3101
9,86415,3241
9,86827,3076
9,87238,3016
9,87652,3111
9,88063,3199
9,88475,3294
9,88887,2610
9,89300,3228
9,89712,3022
9,90123,3268
9,90537,3271
9,90948,2848
9,91360,2817
9,91773,3366
9,92185,2582
9,92597,3334
9,93010,3126
9,93422,3236
9,93833,3144
9,94247,2872
9,94658,3280
9,95070,3018
9,95483,2655
9,95895,2971
9,96307,3672
9,96720,3536
9,97132,3578
9,97543,3262
9,97955,4313
9,98368,4029
9,98780,4318
9,99192,5202
9,99605,4696
10,00017,4434
10,00428,4172
10,00842,4174
10,01253,3419
10,01665,3176
10,02078,3832
10,02490,3662
10,02902,2748
10,03315,3193
10,03727,2616
10,04138,2870
10,04552,3074
10,04963,2574
10,05375,2757
10,05788,2816
10,06200,3103
10,06612,2437
10,07023,2978
10,07437,3049
10,07848,2600
10,08260,2824
10,08673,2448
10,09085,2860
10,09497,2996
10,09910,2654
10,10322,3144
10,10733,2994
10,11147,2680
10,11558,2808
10,11970,2948
10,12383,3109
10,12795,2772
10,13207,2839
10,13620,2735
10,14032,3302
10,14443,2517
10,14857,2867
10,15268,3277
10,15680,2679
10,16092,2630
10,16505,2525
10,16917,3066
10,17328,3208
10,17742,2325
10,18153,3159
10,18565,2910
10,18978,2712
10,19390,2863
10,19802,3137
10,20215,2776
10,20627,2223
10,21038,2976
10,21452,2787
10,21863,2762
10,22275,3699
10,22688,2799
10,23100,2969
10,23512,3371
10,23925,3011
10,24337,2741
10,24748,2991
10,25160,3242
10,25573,2816
10,25985,2800
10,26397,2994
10,26810,2797
10,27222,3150
10,27633,3263
10,28047,2692
10,28458,3374
10,28870,3175
10,29283,3183
10,29695,3225
10,30107,3352
10,30520,3204
10,30932,3460
10,31343,3076
10,31757,3169
10,32168,2795
10,32580,3261
10,32993,2994
10,33405,2679
10,33817,3005
10,34228,2973
10,34642,2945
10,35053,2360
10,35465,3424
10,35878,2641
10,36290,2772
10,36702,2856
10,37115,2901
10,37527,2549
10,37938,2675
10,38352,2731
10,38763,2279
10,39175,2252
10,39588,2724
10,40000,2701
10,40412,2536
10,40825,2791
10,41237,3073
10,41648,3106
10,42062,2358
10,42473,2639
10,42885,2465
10,43297,2763
10,43710,2621
10,44122,2402
10,44533,2778
10,44947,2943
10,45358,2599
10,45770,2484
10,46183,2934
10,46595,2871
10,47007,2652
10,47420,2507
10,47832,2192
10,48243,3208
10,48657,2754
10,49068,2966
10,49480,2902
10,49893,2442
10,50305,2371
10,50717,2213
10,51130,2816
10,51542,3165
10,51953,3293
10,52365,4082
10,52778,8004
10,53190,10666
10,53602,16857
10,54015,25745
10,54427,37786
10,54838,54950
10,55252,76133
10,55663,101244
10,56075,131022
10,56488,159087
10,56900,192700
10,57312,221135
10,57725,246116
10,58137,266964
10,58548,275748
10,58962,278331
10,59373,277986
10,59785,264947
10,60198,254460
10,60610,238875
10,61022,216066
10,61433,200128
10,61847,178330
10,62258,159784
10,62670,143267
10,63083,122381
10,63495,105868
10,63907,90704
10,64320,80125
10,64732,69351
10,65143,58802
10,65557,51585
10,65968,46047
10,66380,39074
10,66793,34092
10,67205,30634
10,67617,26432
10,68030,22350
10,68442,20015
10,68853,18235
10,69267,16356
10,69678,14481
10,70090,14328
10,70503,12596
10,70915,11222
10,71327,11313
10,71738,10446
10,72152,9944
10,72563,9820
10,72975,8953
10,73388,8271
10,73800,7988
10,74212,7867
10,74625,6902
10,75037,6419
10,75448,6260
10,75862,6404
10,76273,5986
10,76685,5634
10,77098,5592
10,77510,5662
10,77922,4905
10,78335,5138
10,78747,4869
10,79158,3784
10,79572,4231
10,79983,3958
10,80395,4722
10,80807,4412
10,81220,3805
10,81632,3699
10,82043,4027
10,82457,4088
10,82868,3517
10,83280,3828
10,83693,4330
10,84105,4578
10,84517,3939
10,84930,3732
10,85342,3555
10,85753,2819
10,86167,3032
10,86578,3123
10,86990,3146
10,87403,3677
10,87815,3114
10,88227,3312
10,88640,3402
10,89052,3271
10,89463,3268
10,89875,3401
10,90288,2766
10,90700,3273
10,91112,3269
10,91525,3025
10,91937,3039
10,92348,2733
10,92762,2899
10,93173,2526
10,93585,3168
10,93998,3068
10,94410,2838
10,94822,3287
10,95235,2840
10,95647,2730
10,96058,3154
10,96472,2602
10,96883,2598
10,97295,3467
10,97708,2935
10,98120,3137
10,98532,2887
10,98943,2712
10,99357,3278
10,99768,2360
11,00180,2687
11,00593,3261
11,01005,2555
11,01417,2713
11,01830,3063
11,02242,2165
11,02653,2200
11,03067,2456
11,03478,2666
11,03890,3299
11,04303,2640
11,04715,2714
11,05127,2594
11,05540,2731
11,05952,2678
11,06363,2545
11,06777,2023
11,07188,2642
11,07600,2666
11,08012,2301
11,08425,2606
11,08837,2754
11,09248,2490
11,09662,2721
11,10073,2922
11,10485,2703
11,10898,3161
11,11310,2441
11,11722,2744
11,12135,3723
11,12547,3430
11,12958,2651
11,13372,3285
11,13783,3724
11,14195,2848
11,14608,2887
11,15020,3655
11,15432,2334
11,15845,2916
11,16257,2510
11,16668,2688
11,17080,2877
11,17493,2974
11,17905,2647
11,18317,2366
11,18730,1983
11,19142,2188
11,19553,2650
11,19967,2174
11,20378,2258
11,20790,2643
11,21203,2484
11,21615,2314
11,22027,2226
11,22440,2266
11,22852,2141
11,23263,2074
11,23677,2072
11,24088,2348
11,24500,1702
11,24913,2145
11,25325,2948
11,25737,2379
11,26148,2485
11,26562,2087
11,26973,2321
11,27385,2140
11,27798,2464
11,28210,1910
11,28622,2240
11,29035,2349
11,29447,2430
11,29858,2450
11,30272,1834
11,30683,2444
11,31095,2128
11,31508,2412
11,31920,2552
11,32332,1740
11,32745,2514
11,33157,2026
11,33568,2324
11,33982,2695
11,34393,2296
11,34805,1907
11,35217,1639
11,35630,2746
11,36042,1861
11,36453,2450
11,36867,2389
11,37278,2359
11,37690,2096
11,38103,2343
11,38515,2121
11,38927,1996
11,39340,2517
11,39752,2195
11,40163,2146
11,40577,2100
11,40988,2465
11,41400,2078
11,41813,2375
11,42225,1883
11,42637,2609
11,43050,1795
11,43462,2109
11,43873,2162
11,44285,2067
11,44698,1835
11,45110,2025
11,45522,2155
11,45935,2452
11,46347,1892
11,46758,2012
11,47172,2086
11,47583,2229
11,47995,2310
11,48408,2072
11,48820,1935
11,49232,2090
11,49645,2152
11,50057,2204
11,50468,2187
11,50882,1986
11,51293,2226
11,51705,2165
11,52118,1858
11,52530,2036
11,52942,2102
11,53353,2722
11,53767,2028
11,54178,2259
11,54590,2180
11,55003,2287
11,55415,2133
11,55827,2450
11,56240,1961
11,56652,2035
11,57063,2169
11,57477,2594
11,57888,1923
11,58300,2011
11,58713,2077
11,59125,2177
11,59537,2106
11,59950,1760
11,60362,1723
11,60773,2684
11,61187,1992
11,61598,2366
11,62010,2139
11,62422,2240
11,62835,1906
11,63247,2318
11,63658,1998
11,64072,1752
11,64483,2448
11,64895,1972
11,65308,2118
11,65720,2368
11,66132,2058
11,66545,1941
11,66957,2412
11,67368,2191
11,67782,2499
11,68193,2197
11,68605,2284
11,69018,1997
11,69430,2165
11,69842,2149
11,70255,2291
11,70667,2108
11,71078,2009
11,71490,2023
11,71903,2389
11,72315,2304
11,72727,2129
11,73140,2563
11,73552,1565
11,73963,2278
11,74377,2478
11,74788,1996
11,75200,2813
11,75613,2192
11,76025,2294
11,76437,2379
11,76850,2402
11,77262,2331
11,77673,1971
11,78087,2554
11,78498,2040
11,78910,2349
11,79323,2257
11,79735,2233
11,80147,1679
11,80558,1931
11,80972,2103
11,81383,2655
11,81795,2063
11,82208,2305
11,82620,2543
11,83032,1716
11,83445,1715
11,83857,2875
11,84268,2658
11,84682,2531
11,85093,2633
11,85505,2236
11,85918,2449
11,86330,2038
11,86742,1733
11,87155,2009
11,87567,2501
11,87978,2326
11,88392,2527
11,88803,2118
11,89215,2249
11,89627,1781
11,90040,1837
11,90452,2169
11,90863,1836
11,91277,2579
11,91688,1889
11,92100,2103
11,92513,1807
11,92925,1681
11,93337,1937
11,93750,2480
11,94162,2077
11,94573,2473
11,94987,3619
11,95398,5422
11,95810,9585
11,96223,15640
11,96635,26872
11,97047,43139
11,97460,65297
11,97872,99795
11,98283,149205
11,98695,206513
11,99108,272732
11,99520,349511
11,99932,426958
12,00345,503313
12,00757,582278
12,01168,636499
12,01582,677965
12,01993,694644
12,02405,696620
12,02818,689129
12,03230,646877
12,03642,595344
12,04055,542961
12,04467,475787
12,04878,423433
12,05292,364958
12,05703,307109
12,06115,260759
12,06528,219690
12,06940,185642
12,07352,153905
12,07763,129304
12,08177,111619
12,08588,92335
12,09000,79878
12,09413,66134
12,09825,57810
12,10237,49569
12,10650,45693
12,11062,41173
12,11473,35333
12,11887,31152
12,12298,29378
12,12710,26325
12,13123,24894
12,13535,22009
12,13947,20119
12,14360,18370
12,14772,17058
12,15183,16947
12,15597,14973
12,16008,14728
12,16420,13137
12,16832,12700
12,17245,12207
12,17657,11991
12,18068,9641
12,18482,10724
12,18893,9597
12,19305,7878
12,19718,8425
12,20130,7051
12,20542,8558
12,20955,7786
12,21367,7024
12,21778,6606
12,22192,6299
12,22603,7237
12,23015,6299
12,23428,5394
12,23840,6494
12,24252,5593
12,24665,5851
12,25077,5188
12,25488,5074
12,25900,5105
12,26313,4894
12,26725,4876
12,27137,5174
12,27550,4242
12,27962,4738
12,28373,4222
12,28787,3641
12,29198,4107
12,29610,3834
12,30023,3475
12,30435,3783
12,30847,4104
12,31260,3468
12,31672,3448
12,32083,3140
12,32497,3299
12,32908,3395
12,33320,2960
12,33733,3022
12,34145,3050
12,34557,3189
12,34970,3603
12,35382,2504
12,35793,2722
12,36205,2526
12,36618,2993
12,37030,2722
12,37442,2943
12,37855,2813
12,38267,3121
12,38678,3666
12,39092,3092
12,39503,2913
12,39915,2697
12,40328,2248
12,40740,2340
12,41152,2959
12,41565,3208
12,41977,2852
12,42388,2932
12,42802,2699
12,43213,2487
12,43625,2453
12,44038,2797
12,44450,2423
12,44862,2267
12,45273,2196
12,45687,2198
12,46098,2922
12,46510,2727
12,46923,2716
12,47335,2431
12,47747,2064
12,48160,2419
12,48572,2346
12,48983,2323
12,49397,2572
12,49808,2165
12,50220,2409
12,50633,2907
12,51045,2018
12,51457,2442
12,51870,2559
12,52282,2156
12,52693,1959
12,53107,2162
12,53518,2257
12,53930,2103
12,54342,2095
12,54755,2247
12,55167,2153
12,55578,2193
12,55992,1953
12,56403,1615
12,56815,1783
12,57228,1951
12,57640,1958
12,58052,1888
12,58465,1907
12,58877,2023
12,59288,1694
12,59702,2238
12,60113,1852
12,60525,2310
12,60938,1782
12,61350,1894
12,61762,2230
12,62175,2006
12,62587,2645
12,62998,2468
12,63410,2203
12,63823,2383
12,64235,3133
12,64647,3009
12,65060,3367
12,65472,3909
12,65883,3110
12,66297,4566
12,66708,4295
12,67120,5113
12,67533,5440
12,67945,5783
12,68357,5746
12,68770,5612
12,69182,5350
12,69593,5080
12,70007,4814
12,70418,5378
12,70830,4596
12,71243,5341
12,71655,3935
12,72067,3833
12,72478,3672
12,72892,3245
12,73303,3295
12,73715,3006
12,74128,2211
12,74540,2328
12,74952,2239
12,75365,2174
12,75777,2131
12,76188,2168
12,76602,1644
12,77013,2323
12,77425,2604
12,77838,2120
12,78250,2452
12,78662,2123
12,79075,2078
12,79487,1960
12,79898,2140
12,80312,2215
12,80723,1625
12,81135,1983
12,81547,2057
12,81960,2181
12,82372,2165
12,82783,2051
12,83197,2114
12,83608,1769
12,84020,1240
12,84433,1620
12,84845,1730
12,85257,1534
12,85670,1528
12,86082,1745
12,86493,2269
12,86907,1813
12,87318,1667
12,87730,2149
12,88143,2029
12,88555,1354
12,88967,1856
12,89380,1992
12,89792,1647
12,90203,1447
12,90615,2106
12,91028,1339
12,91440,1899
12,91852,1789
12,92265,1870
12,92677,1361
12,93088,1812
12,93502,1739
12,93913,1571
12,94325,1690
12,94738,1972
12,95150,1732
12,95562,1917
12,95975,1408
12,96387,1379
12,96798,1814
12,97212,1372
12,97623,1397
12,98035,1597
12,98448,1633
12,98860,2004
12,99272,1629
12,99683,1740
13,00097,1495
13,00508,1638
13,00920,1401
13,01333,1306
13,01745,1709
13,02157,2071
13,02570,1714
13,02982,2144
13,03393,1578
13,03807,1438
13,04218,1525
13,04630,1482
13,05043,887
13,05455,1072
13,05867,1633
13,06280,1910
13,06692,1485
13,07103,1851
13,07517,1675
13,07928,2497
13,08340,2258
13,08752,3061
13,09165,2734
13,09577,2993
13,09988,2743
13,10402,2656
13,10813,2744
13,11225,1929
13,11638,1906
13,12050,1474
13,12462,1646
13,12875,1467
13,13287,2202
13,13698,1763
13,14112,1544
13,14523,1207
13,14935,1449
13,15348,1264
13,15760,1598
13,16172,1154
13,16585,1312
13,16997,1813
13,17408,1475
13,17820,1418
13,18233,1622
13,18645,1947
13,19057,1809
13,19470,1760
13,19882,1729
13,20293,1629
13,20707,1430
13,21118,1468
13,21530,1813
13,21943,1631
13,22355,1761
13,22767,1514
13,23180,1313
13,23592,1744
13,24003,1317
13,24417,1978
13,24828,1835
13,25240,1684
13,25653,1611
13,26065,1105
13,26477,1261
13,26888,1310
13,27302,1113
13,27713,1423
13,28125,1563
13,28538,1078
13,28950,1810
13,29362,1395
13,29775,1117
13,30187,1123
13,30598,1703
13,31012,1664
13,31423,1546
13,31835,1729
13,32248,1569
13,32660,1696
13,33072,1434
13,33485,1715
13,33897,1282
13,34308,1607
13,34722,1389
13,35133,1832
13,35545,1482
13,35957,1593
13,36370,1251
13,36782,1391
13,37193,1229
13,37607,1496
13,38018,1183
13,38430,1047
13,38843,1197
13,39255,1453
13,39667,928
13,40080,1547
13,40492,1872
13,40903,1149
13,41317,1546
13,41728,2038
13,42140,2707
13,42553,3968
13,42965,6809
13,43377,12163
13,43790,19722
13,44202,31310
13,44613,50777
13,45025,76432
13,45438,108424
13,45850,147209
13,46262,189354
13,46675,240351
13,47087,284074
13,47498,332564
13,47912,366800
13,48323,389208
13,48735,399957
13,49148,405024
13,49560,391996
13,49972,359614
13,50385,333287
13,50797,290164
13,51208,250664
13,51622,212988
13,52033,182193
13,52445,154708
13,52858,130835
13,53270,105772
13,53682,85948
13,54093,71507
13,54507,61970
13,54918,51966
13,55330,43575
13,55743,38235
13,56155,32714
13,56567,28626
13,56980,24933
13,57392,22130
13,57803,20263
13,58217,17870
13,58628,14744
13,59040,14039
13,59453,13705
13,59865,12203
13,60277,11476
13,60690,10211
13,61102,9606
13,61513,8810
13,61927,8820
13,62338,7597
13,62750,7926
13,63162,7997
13,63575,7481
13,63987,5587
13,64398,5703
13,64812,5673
13,65223,4512
13,65635,5245
13,66048,4597
13,66460,4889
13,66872,4057
13,67285,3792
13,67697,4274
13,68108,4147
13,68522,3479
13,68933,3628
13,69345,3664
13,69758,3930
13,70170,3017
13,70582,3439
13,70995,2709
13,71407,2976
13,71818,3238
13,72230,2782
13,72643,2578
13,73055,2354
13,73467,2397
13,73880,2843
13,74292,2375
13,74703,2380
13,75117,2367
13,75528,2168
13,75940,2011
13,76353,2665
13,76765,2516
13,77177,1895
13,77590,1581
13,78002,1729
13,78413,1799
13,78827,1809
13,79238,1848
13,79650,2308
13,80063,2029
13,80475,1955
13,80887,1743
13,81298,2157
13,81712,2367
13,82123,1756
13,82535,1307
13,82948,1802
13,83360,1429
13,83772,1462
13,84185,1724
13,84597,1004
13,85008,1649
13,85422,1952
13,85833,1654
13,86245,1378
13,86658,1991
13,87070,1960
13,87482,1366
13,87895,1482
13,88307,1626
13,88718,1699
13,89132,1415
13,89543,1461
13,89955,2099
13,90367,1761
13,90780,1524
13,91192,1324
13,91603,1244
13,92017,1471
13,92428,1864
13,92840,1659
13,93253,1224
13,93665,1123
13,94077,1457
13,94490,1247
13,94902,1881
13,95313,1488
13,95727,1918
13,96138,1323
13,96550,1512
13,96963,1304
13,97375,1281
13,97787,1019
13,98200,1408
13,98612,1075
13,99023,1181
13,99437,1657
13,99848,1110
14,00260,1208
14,00672,1676
14,01085,1545
14,01497,1646
14,01908,1342
14,02322,1320
14,02733,1693
14,03145,796
14,03558,1394
14,03970,1588
14,04382,1073
14,04795,1490
14,05207,1918
14,05618,1009
14,06032,1019
14,06443,899
14,06855,1189
14,07268,1643
14,07680,975
14,08092,1276
14,08505,1602
14,08917,1618
14,09328,1326
14,09740,1304
14,10153,1142
14,10565,1286
14,10977,1278
14,11390,1215
14,11802,1326
14,12213,1624
14,12627,1078
14,13038,1427
14,13450,1067
14,13863,1092
14,14275,1440
14,14687,1481
14,15100,1105
14,15512,1330
14,15923,1034
14,16337,1679
14,16748,1105
14,17160,1109
14,17573,1022
14,17985,1433
14,18397,1019
14,18808,811
14,19222,1471
14,19633,1518
14,20045,2188
14,20458,2245
14,20870,1543
14,21282,3023
14,21695,3426
14,22107,4013
14,22518,3492
14,22932,4310
14,23343,3299
14,23755,3053
14,24168,3241
14,24580,2926
14,24992,3577
14,25405,3322
14,25817,2351
14,26228,2684
14,26642,1984
14,27053,1669
14,27465,1891
14,27877,1986
14,28290,1549
14,28702,1515
14,29113,1637
14,29527,1145
14,29938,1020
14,30350,994
14,30763,1447
14,31175,1506
14,31587,1846
14,32000,1293
14,32412,1132
14,32823,1047
14,33237,929
14,33648,1124
14,34060,1403
14,34473,1300
14,34885,997
14,35297,1241
14,35710,1057
14,36122,1231
14,36533,1263
14,36945,854
14,37358,1309
14,37770,1163
14,38182,1142
14,38595,1120
14,39007,872
14,39418,976
14,39832,841
14,40243,1217
14,40655,1195
14,41068,1068
14,41480,1152
14,41892,1486
14,42305,869
14,42717,1060
14,43128,1128
14,43542,1424
14,43953,1032
14,44365,1218
14,44778,853
14,45190,1097
14,45602,874
14,46013,844
14,46427,922
14,46838,1396
14,47250,1166
14,47663,1255
14,48075,1052
14,48487,1164
14,48900,1105
14,49312,1460
14,49723,1206
14,50137,1315
14,50548,1120
14,50960,1044
14,51373,1043
14,51785,1077
14,52197,1085
14,52610,916
14,53022,1667
14,53433,1108
14,53847,1173
14,54258,1346
14,54670,1390
14,55082,1560
14,55495,614
14,55907,957
14,56318,916
14,56732,1293
14,57143,1183
14,57555,1136
14,57968,898
14,58380,985
14,58792,1115
14,59205,1310
14,59617,1355
14,60028,1247
14,60442,985
14,60853,1194
14,61265,1014
14,61678,945
14,62090,1076
14,62502,1169
14,62915,990
14,63327,1113
14,63738,1068
14,64150,1504
14,64563,975
14,64975,1256
14,65387,1098
14,65800,1118
14,66212,1038
14,66623,678
14,67037,1254
14,67448,1093
14,67860,1441
14,68273,1392
14,68685,1404
14,69097,1253
14,69510,662
14,69922,1513
14,70333,1210
14,70747,1141
14,71158,2035
14,71570,1896
14,71983,2170
14,72395,1726
14,72807,2126
14,73218,2423
14,73632,2176
14,74043,3566
14,74455,2466
14,74868,3516
14,75280,3702
14,75692,3271
14,76105,2587
14,76517,2540
14,76928,2477
14,77342,2295
14,77753,2854
14,78165,2094
14,78578,2191
14,78990,2034
14,79402,1889
14,79815,1777
14,80227,1387
14,80638,1296
14,81052,1339
14,81463,1514
14,81875,1296
14,82287,1440
14,82700,1233
14,83112,1478
14,83523,672
14,83937,1153
14,84348,1477
14,84760,925
14,85173,1157
14,85585,1063
14,85997,979
14,86410,1153
14,86822,948
14,87233,1274
14,87647,1345
14,88058,1455
14,88470,1557
14,88883,2671
14,89295,5510
14,89707,9125
14,90120,16643
14,90532,27333
14,90943,46546
14,91355,74398
14,91768,114720
14,92180,175265
14,92592,246883
14,93005,341039
14,93417,445360
14,93828,548659
14,94242,659316
14,94653,752957
14,95065,844708
14,95478,908966
14,95890,932260
14,96302,916894
14,96715,875260
14,97127,804682
14,97538,724742
14,97952,631087
14,98363,540369
14,98775,456244
14,99188,376428
14,99600,308905
15,00012,248502
15,00423,205028
15,00837,168195
15,01248,139189
15,01660,118629
15,02073,96926
15,02485,81414
15,02897,69982
15,03310,61778
15,03722,52283
15,04133,45838
15,04547,42404
15,04958,37043
15,05370,35445
15,05783,29610
15,06195,29083
15,06607,24367
15,07020,22950
15,07432,21544
15,07843,19676
15,08257,17923
15,08668,16540
15,09080,15649
15,09492,14688
15,09905,13679
15,10317,12738
15,10728,11482
15,11142,10934
15,11553,10931
15,11965,9696
15,12378,8205
15,12790,9284
15,13202,8496
15,13615,7995
15,14027,7804
15,14438,7564
15,14852,7515
15,15263,6354
15,15675,5371
15,16088,5691
15,16500,6179
15,16912,5416
15,17325,5024
15,17737,5054
15,18148,5762
15,18560,4263
15,18973,4239
15,19385,4204
15,19797,3932
15,20210,3624
15,20622,3760
15,21033,3125
15,21447,3535
15,21858,3676
15,22270,2960
15,22683,2639
15,23095,3280
15,23507,2846
15,23920,2623
15,24332,2378
15,24743,2859
15,25157,2963
15,25568,2758
15,25980,2525
15,26393,2141
15,26805,2069
15,27217,2640
15,27628,2547
15,28042,2031
15,28453,2420
15,28865,2471
15,29278,2195
15,29690,2030
15,30102,2195
15,30515,1740
15,30927,1489
15,31338,2108
15,31752,2022
15,32163,1730
15,32575,1938
15,32988,1188
15,33400,1637
15,33812,1757
15,34225,1640
15,34637,1592
15,35048,1677
15,35462,1338
15,35873,1286
15,36285,1566
15,36697,1697
15,37110,1441
15,37522,1498
15,37933,1050
15,38347,1235
15,38758,1635
15,39170,1335
15,39583,1553
15,39995,1724
15,40407,1110
15,40820,1102
15,41232,1031
15,41643,1064
15,42057,1415
15,42468,1437
15,42880,1288
15,43293,1259
15,43705,1373
15,44117,909
15,44530,1460
15,44942,1548
15,45353,1175
15,45765,1491
15,46178,905
15,46590,973
15,47002,1362
15,47415,754
15,47827,1062
15,48238,922
15,48652,986
15,49063,1383
15,49475,980
15,49888,848
15,50300,968
15,50712,789
15,51125,1335
15,51537,807
15,51948,696
15,52362,1327
15,52773,1401
15,53185,1595
15,53598,972
15,54010,806
15,54422,492
15,54835,940
15,55247,654
15,55658,1181
15,56070,659
15,56483,1179
15,56895,1040
15,57307,1062
15,57720,1084
15,58132,1096
15,58543,960
15,58957,736
15,59368,839
15,59780,1369
15,60193,741
15,60605,945
15,61017,1027
15,61430,1254
15,61842,526
15,62253,1092
15,62667,981
15,63078,1296
15,63490,937
15,63903,728
15,64315,1232
15,64727,1123
15,65138,1736
15,65552,1468
15,65963,1981
15,66375,1263
15,66788,1719
15,67200,2006
15,67612,2098
15,68025,2158
15,68437,2495
15,68848,2054
15,69262,1566
15,69673,1043
15,70085,1615
15,70498,1713
15,70910,1567
15,71322,1884
15,71735,1731
15,72147,1074
15,72558,1083
15,72972,1042
15,73383,1208
15,73795,1021
15,74207,909
15,74620,1430
15,75032,687
15,75443,933
15,75857,801
15,76268,874
15,76680,1210
15,77093,1123
15,77505,758
15,77917,1047
15,78330,1022
15,78742,953
15,79153,975
15,79567,1256
15,79978,713
15,80390,816
15,80803,811
15,81215,1044
15,81627,1026
15,82040,975
15,82452,759
15,82863,854
15,83275,918
15,83688,696
15,84100,1084
15,84512,1149
15,84925,856
15,85337,1085
15,85748,488
15,86162,717
15,86573,1093
15,86985,865
15,87398,961
15,87810,1034
15,88222,677
15,88635,1455
15,89047,2518
15,89458,4315
15,89872,8186
15,90283,13343
15,90695,25495
15,91108,39582
15,91520,60455
15,91932,87863
15,92343,125162
15,92757,173536
15,93168,222639
15,93580,268673
15,93993,325624
15,94405,368390
15,94817,400180
15,95230,422172
15,95642,429621
15,96053,414873
15,96467,399123
15,96878,358529
15,97290,323464
15,97703,281196
15,98115,243920
15,98527,205973
15,98940,170234
15,99352,143465
15,99763,116689
16,00177,94686
16,00588,80015
16,01000,66517
16,01412,55984
16,01825,47969
16,02237,41748
16,02648,36612
16,03062,30719
16,03473,27919
16,03885,23421
16,04298,20172
16,04710,17886
16,05122,17130
16,05535,15814
16,05947,14084
16,06358,12438
16,06772,11830
16,07183,11135
16,07595,10755
16,08008,9779
16,08420,9405
16,08832,9836
16,09245,8289
16,09657,8256
16,10068,6978
16,10480,6959
16,10893,6136
16,11305,5411
16,11717,4393
16,12130,4976
16,12542,3873
16,12953,4008
16,13367,3114
16,13778,3398
16,14190,2397
16,14603,3055
16,15015,3212
16,15427,2655
16,15840,2449
16,16252,2237
16,16663,2127
16,17077,2204
16,17488,2096
16,17900,2650
16,18313,1451
16,18725,1650
16,19137,2132
16,19548,1760
16,19962,2142
16,20373,1858
16,20785,1046
16,21198,1391
16,21610,1285
16,22022,2015
16,22435,1841
16,22847,2139
16,23258,2020
16,23672,1799
16,24083,2272
16,24495,2118
16,24908,1672
16,25320,1258
16,25732,1048
16,26145,1566
16,26557,1199
16,26968,1220
16,27382,1030
16,27793,807
16,28205,1137
16,28617,1123
16,29030,998
16,29442,968
16,29853,620
16,30267,1416
16,30678,641
16,31090,1223
16,31503,1132
16,31915,1499
16,32327,1144
16,32740,1597
16,33152,2117
16,33563,2464
16,33977,4016
16,34388,7197
16,34800,12330
16,35213,20063
16,35625,32465
16,36037,53019
16,36450,79788
16,36862,118500
16,37273,167702
16,37685,219053
16,38098,279439
16,38510,341665
16,38922,401797
16,39335,438292
16,39747,472954
16,40158,494658
16,40572,476674
16,40983,451446
16,41395,419061
16,41808,378833
16,42220,326165
16,42632,280645
16,43045,234658
16,43457,193687
16,43868,159513
16,44282,130670
16,44693,107858
16,45105,85416
16,45518,71077
16,45930,59822
16,46342,50940
16,46753,42778
16,47167,37301
16,47578,31484
16,47990,28055
16,48403,24221
16,48815,21743
16,49227,19024
16,49640,17300
16,50052,15720
16,50463,14870
16,50877,12854
16,51288,12259
16,51700,10067
16,52113,10607
16,52525,9669
16,52937,9437
16,53350,7724
16,53762,6576
16,54173,7299
16,54587,6085
16,54998,6563
16,55410,5449
16,55822,5000
16,56235,5315
16,56647,4990
16,57058,5359
16,57472,3797
16,57883,3721
16,58295,4611
16,58708,3420
16,59120,2842
16,59532,2964
16,59945,2895
16,60357,3787
16,60768,2104
16,61182,2821
16,61593,3150
16,62005,2455
16,62418,1886
16,62830,2842
16,63242,2550
16,63655,1856
16,64067,2073
16,64478,2249
16,64890,2249
16,65303,1676
16,65715,1682
16,66127,2118
16,66540,2163
16,66952,1682
16,67363,1877
16,67777,1643
16,68188,2110
16,68600,1974
16,69013,1272
16,69425,1745
16,69837,1996
16,70250,2089
16,70662,1822
16,71073,1884
16,71487,1756
16,71898,1594
16,72310,1732
16,72723,1674
16,73135,1583
16,73547,1369
16,73958,1525
16,74372,989
16,74783,1660
16,75195,1955
16,75608,1297
16,76020,1100
16,76432,1501
16,76845,1762
16,77257,1274
16,77668,1224
16,78082,1248
16,78493,1381
16,78905,1572
16,79318,1339
16,79730,1937
16,80142,1299
16,80555,1008
16,80967,841
16,81378,1403
16,81792,1552
16,82203,1423
16,82615,903
16,83027,1005
16,83440,828
16,83852,983
16,84263,1044
16,84677,1051
16,85088,1314
16,85500,991
16,85913,733
16,86325,969
16,86737,646
16,87150,1097
16,87562,1053
16,87973,683
16,88387,1533
16,88798,418
16,89210,1167
16,89623,901
16,90035,1307
16,90447,1213
16,90860,988
16,91272,870
16,91683,1235
16,92095,952
16,92508,1046
16,92920,589
16,93332,1302
16,93745,1206
16,94157,602
16,94568,892
16,94982,1008
16,95393,853
16,95805,1055
16,96218,867
16,96630,952
16,97042,757
16,97455,472
16,97867,712
16,98278,465
16,98692,1154
16,99103,917
16,99515,939
16,99928,681
17,00340,986
17,00752,1077
17,01163,915
17,01577,528
17,01988,771
17,02400,816
17,02813,1075
17,03225,783
17,03637,652
17,04050,1151
17,04462,830
17,04873,887
17,05287,863
17,05698,619
17,06110,772
17,06523,756
17,06935,790
17,07347,709
17,07760,878
17,08172,1081
17,08583,1107
17,08997,435
17,09408,713
17,09820,1138
17,10232,719
17,10645,762
17,11057,972
17,11468,495
17,11882,498
17,12293,757
17,12705,943
17,13118,1013
17,13530,811
17,13942,962
17,14355,458
17,14767,610
17,15178,747
17,15592,768
17,16003,241
17,16415,1338
17,16828,727
17,17240,1089
17,17652,712
17,18065,638
17,18477,1002
17,18888,465
17,19302,1013
17,19713,382
17,20125,960
17,20537,473
17,20950,678
17,21362,1166
17,21773,580
17,22187,1372
17,22598,705
17,23010,1358
17,23423,882
17,23835,1100
17,24247,1278
17,24660,765
17,25072,730
17,25483,792
17,25897,826
17,26308,1204
17,26720,959
17,27133,982
17,27545,1116
17,27957,940
17,28370,816
17,28782,1127
17,29193,915
17,29605,1253
17,30018,372
17,30430,634
17,30842,1011
17,31255,606
17,31667,1168
17,32078,918
17,32492,2111
17,32903,3268
17,33315,7666
17,33728,14680
17,34140,25038
17,34552,37201
17,34965,60293
17,35377,88761
17,35788,131909
17,36202,178928
17,36613,232996
17,37025,294280
17,37438,351711
17,37850,393415
17,38262,425874
17,38673,450421
17,39087,462150
17,39498,455189
17,39910,430583
17,40323,390233
17,40735,349115
17,41147,300262
17,41560,256359
17,41972,216852
17,42383,181124
17,42797,147032
17,43208,120537
17,43620,99852
17,44033,83655
17,44445,68788
17,44857,59372
17,45270,48719
17,45682,41443
17,46093,36459
17,46507,31057
17,46918,25411
17,47330,24201
17,47742,19526
17,48155,18686
17,48567,16673
17,48978,14585
17,49392,13144
17,49803,13070
17,50215,11993
17,50628,10209
17,51040,8814
17,51452,8618
17,51865,9258
17,52277,6976
17,52688,6652
17,53102,6343
17,53513,6163
17,53925,5287
17,54338,5250
17,54750,4846
17,55162,3793
17,55575,4129
17,55987,4470
17,56398,3801
17,56810,3264
17,57223,2763
17,57635,2427
17,58047,2954
17,58460,1933
17,58872,3192
17,59283,1854
17,59697,2257
17,60108,2396
17,60520,2031
17,60933,1446
17,61345,2032
17,61757,1406
17,62170,1898
17,62582,1955
17,62993,1139
17,63407,2324
17,63818,1305
17,64230,1522
17,64643,1470
17,65055,1076
17,65467,1053
17,65878,1534
17,66292,1138
17,66703,1395
17,67115,1418
17,67528,946
17,67940,1400
17,68352,1112
17,68765,1089
17,69177,919
17,69588,1118
17,70002,1128
17,70413,792
17,70825,719
17,71238,579
17,71650,1037
17,72062,689
17,72475,582
17,72887,1097
17,73298,1057
17,73712,1746
17,74123,2057
17,74535,4843
17,74947,9669
17,75360,17014
17,75772,32396
17,76183,53252
17,76597,87576
17,77008,136879
17,77420,204138
17,77833,289445
17,78245,411620
17,78657,540800
17,79070,682010
17,79482,865735
17,79893,1021591
17,80307,1188352
17,80718,1355363
17,81130,1480258
17,81543,1579508
17,81955,1599830
17,82367,1555479
17,82780,1431577
17,83192,1286823
17,83603,1127268
17,84015,955577
17,84428,778718
17,84840,636923
17,85252,511176
17,85665,411245
17,86077,330538
17,86488,266860
17,86902,217179
17,87313,183918
17,87725,153822
17,88138,132841
17,88550,112348
17,88962,99280
17,89375,85424
17,89787,77392
17,90198,67612
17,90612,62560
17,91023,54666
17,91435,48602
17,91848,45881
17,92260,42739
17,92672,40390
17,93083,34887
17,93497,32843
17,93908,30619
17,94320,29131
17,94733,25947
17,95145,23809
17,95557,21667
17,95970,21669
17,96382,19829
17,96793,18337
17,97207,17113
17,97618,16213
17,98030,14391
17,98443,14893
17,98855,13315
17,99267,12332
17,99680,12359
18,00092,12018
18,00503,10378
18,00917,9992
18,01328,9866
18,01740,8857
18,02152,8102
18,02565,8221
18,02977,8241
18,03388,6854
18,03802,6854
18,04213,7464
18,04625,6369
18,05038,5689
18,05450,6254
18,05862,4881
18,06275,4037
18,06687,5588
18,07098,5830
18,07512,4872
18,07923,5355
18,08335,4651
18,08748,4833
18,09160,3877
18,09572,3944
18,09985,4091
18,10397,3746
18,10808,3359
18,11220,3371
18,11633,3284
18,12045,3516
18,12457,3246
18,12870,2656
18,13282,3297
18,13693,2744
18,14107,2762
18,14518,2255
18,14930,2280
18,15343,2567
18,15755,2018
18,16167,2996
18,16580,2148
18,16992,2327
18,17403,2207
18,17817,2194
18,18228,1970
18,18640,1861
18,19053,1645
18,19465,1681
18,19877,1933
18,20288,1985
18,20702,1679
18,21113,1950
18,21525,1728
18,21938,1989
18,22350,1312
18,22762,2304
18,23175,1622
18,23587,1612
18,23998,2003
18,24412,1066
18,24823,1493
18,25235,1449
18,25648,1592
18,26060,1557
18,26472,1442
18,26885,1419
18,27297,1458
18,27708,1595
18,28122,1535
18,28533,1147
18,28945,1370
18,29357,1033
18,29770,1387
18,30182,1602
18,30593,1730
18,31007,1594
18,31418,2024
18,31830,1405
18,32243,1576
18,32655,1503
18,33067,1142
18,33480,1484
18,33892,1349
18,34303,665
18,34717,1212
18,35128,1149
18,35540,1548
18,35953,821
18,36365,1405
18,36777,1415
18,37190,2020
18,37602,1499
18,38013,1377
18,38425,1806
18,38838,1795
18,39250,1823
18,39662,2613
18,40075,3238
18,40487,3013
18,40898,3806
18,41312,3984
18,41723,3899
18,42135,4987
18,42548,5707
18,42960,5239
18,43372,5222
18,43785,5395
18,44197,5629
18,44608,5276
18,45022,4476
18,45433,4978
18,45845,4270
18,46258,3018
18,46670,2984
18,47082,2421
18,47493,2844
18,47907,2331
18,48318,2190
18,48730,2393
18,49143,1783
18,49555,1915
18,49967,1555
18,50380,1458
18,50792,1929
18,51203,1517
18,51617,1227
18,52028,1552
18,52440,1281
18,52853,2025
18,53265,3018
18,53677,3888
18,54090,7685
18,54502,13761
18,54913,23981
18,55327,41200
18,55738,63960
18,56150,97854
18,56562,138467
18,56975,185659
18,57387,239860
18,57798,301471
18,58212,360420
18,58623,407560
18,59035,448546
18,59448,474821
18,59860,479266
18,60272,470580
18,60685,450067
18,61097,410098
18,61508,358768
18,61922,311386
18,62333,259654
18,62745,220947
18,63158,179847
18,63570,150674
18,63982,122180
18,64395,103443
18,64807,83734
18,65218,70252
18,65630,57735
18,66043,49235
18,66455,43085
18,66867,37093
18,67280,31637
18,67692,26882
18,68103,23218
18,68517,21698
18,68928,19234
18,69340,17043
18,69753,14137
18,70165,14843
18,70577,12758
18,70990,11737
18,71402,10845
18,71813,9312
18,72227,8590
18,72638,8356
18,73050,8742
18,73463,7725
18,73875,6874
18,74287,6460
18,74700,7199
18,75112,6748
18,75523,6820
18,75935,5841
18,76348,7077
18,76760,5480
18,77172,5972
18,77585,6507
18,77997,7104
18,78408,5691
18,78822,5453
18,79233,5332
18,79645,5699
18,80058,3785
18,80470,3939
18,80882,3852
18,81295,3201
18,81707,2632
18,82118,2782
18,82532,2224
18,82943,2104
18,83355,2448
18,83768,1487
18,84180,1950
18,84592,1808
18,85003,2540
18,85417,1145
18,85828,2214
18,86240,1617
18,86653,1333
18,87065,2426
18,87477,1685
18,87890,1824
18,88302,2018
18,88713,2139
18,89127,1873
18,89538,2466
18,89950,1936
18,90363,1734
18,90775,2416
18,91187,1927
18,91600,1497
18,92012,1187
18,92423,2222
18,92837,1044
18,93248,1282
18,93660,923
18,94072,1521
18,94485,1794
18,94897,2173
18,95308,3321
18,95722,4043
18,96133,4128
18,96545,3991
18,96958,2368
18,97370,2228
18,97782,1290
18,98195,1744
18,98607,936
18,99018,940
18,99432,851
18,99843,1348
19,00255,1526
19,00668,879
19,01080,758
19,01492,672
19,01905,1098
19,02317,1563
19,02728,521
19,03140,973
19,03553,1002
19,03965,848
19,04377,687
19,04790,716
19,05202,1193
19,05613,648
19,06027,990
19,06438,889
19,06850,669
19,07263,572
19,07675,662
19,08087,764
19,08500,613
19,08912,1000
19,09323,1322
19,09737,1294
19,10148,1908
19,10560,2834
19,10973,3737
19,11385,7552
19,11797,12368
19,12208,21945
19,12622,37365
19,13033,63444
19,13445,94682
19,13858,139851
19,14270,189735
19,14682,248902
19,15095,320610
19,15507,389632
19,15918,449950
19,16332,496845
19,16743,529544
19,17155,544276
19,17568,536087
19,17980,514163
19,18392,466479
19,18805,412013
19,19217,357344
19,19628,304720
19,20042,252257
19,20453,205339
19,20865,165354
19,21277,136078
19,21690,110142
19,22102,93905
19,22513,75508
19,22927,62301
19,23338,54390
19,23750,43587
19,24163,39520
19,24575,33772
19,24987,28749
19,25400,27593
19,25812,24998
19,26223,21903
19,26637,18307
19,27048,18196
19,27460,16572
19,27873,16345
19,28285,14379
19,28697,13445
19,29110,12172
19,29522,11963
19,29933,10935
19,30345,9366
19,30758,9345
19,31170,9435
19,31582,7328
19,31995,7944
19,32407,6960
19,32818,6493
19,33232,5869
19,33643,5284
19,34055,4791
19,34468,4483
19,34880,4331
19,35292,4307
19,35705,3111
19,36117,3703
19,36528,2843
19,36942,3927
19,37353,3871
19,37765,3100
19,38178,2995
19,38590,2647
19,39002,3204
19,39413,2671
19,39827,2607
19,40238,2638
19,40650,2407
19,41063,2094
19,41475,1851
19,41887,1516
19,42300,2358
19,42712,2327
19,43123,1836
19,43537,1771
19,43948,1512
19,44360,1483
19,44773,2024
19,45185,1315
19,45597,1704
19,46010,1519
19,46422,1182
19,46833,1906
19,47247,1473
19,47658,1666
19,48070,1799
19,48482,1230
19,48895,1527
19,49307,1579
19,49718,832
19,50132,1872
19,50543,1278
19,50955,1706
19,51368,1462
19,51780,1609
19,52192,1131
19,52605,1451
19,53017,1638
19,53428,1352
19,53842,1180
19,54253,999
19,54665,1269
19,55078,1409
19,55490,1413
19,55902,1254
19,56315,1437
19,56727,1592
19,57138,1484
19,57550,1430
19,57963,1410
19,58375,1681
19,58787,1044
19,59200,1526
19,59612,1356
19,60023,1275
19,60437,1199
19,60848,1789
19,61260,1478
19,61673,1478
19,62085,1202
19,62497,1498
19,62910,1285
19,63322,884
19,63733,862
19,64147,1742
19,64558,1161
19,64970,1020
19,65383,1111
19,65795,1724
19,66207,1190
19,66618,795
19,67032,999
19,67443,776
19,67855,1072
19,68268,838
19,68680,1371
19,69092,596
19,69505,1155
19,69917,689
19,70328,1144
19,70742,734
19,71153,795
19,71565,918
19,71978,780
19,72390,1366
19,72802,842
19,73215,822
19,73627,1117
19,74038,1361
19,74452,683
19,74863,1304
19,75275,998
19,75687,924
19,76100,765
19,76512,515
19,76923,1043
19,77337,1011
19,77748,1070
19,78160,778
19,78573,647
19,78985,895
19,79397,944
19,79810,956
19,80222,971
19,80633,766
19,81047,573
19,81458,692
19,81870,1155
19,82283,839
19,82695,702
19,83107,834
19,83520,855
19,83932,792
19,84343,667
19,84755,1386
19,85168,1393
19,85580,861
19,85992,1273
19,86405,981
19,86817,1499
19,87228,2361
19,87642,3131
19,88053,4857
19,88465,9794
19,88878,15112
19,89290,28819
19,89702,45686
19,90115,70664
19,90527,109142
19,90938,153205
19,91352,210430
19,91763,273334
19,92175,341604
19,92588,409977
19,93000,458660
19,93412,499802
19,93823,527732
19,94237,527942
19,94648,510392
19,95060,480455
19,95473,430301
19,95885,374012
19,96297,325496
19,96710,277264
19,97122,230293
19,97533,185302
19,97947,152915
19,98358,127483
19,98770,108265
19,99183,90303
19,99595,76381
20,00007,65902
20,00420,58166
20,00832,52886
20,01243,48146
20,01657,41723
20,02068,39465
20,02480,35223
20,02892,33804
20,03305,29933
20,03717,26275
20,04128,22741
20,04542,21540
20,04953,20836
20,05365,18424
20,05778,15937
20,06190,14950
20,06602,12802
20,07015,11311
20,07427,11731
20,07838,10539
20,08252,8245
20,08663,8245
20,09075,7234
20,09488,7275
20,09900,6019
20,10312,5783
20,10725,6201
20,11137,5787
20,11548,4978
20,11960,4848
20,12373,4495
20,12785,4819
20,13197,4423
20,13610,4315
20,14022,4426
20,14433,3570
20,14847,3206
20,15258,3732
20,15670,3193
20,16083,2075
20,16495,2904
20,16907,2487
20,17320,2931
20,17732,1116
20,18143,2639
20,18557,2322
20,18968,2471
20,19380,1857
20,19793,1604
20,20205,2183
20,20617,1656
20,21028,1787
20,21442,1718
20,21853,1098
20,22265,1923
20,22678,1342
20,23090,1300
20,23502,1519
20,23915,2004
20,24327,1569
20,24738,1376
20,25152,795
20,25563,1682
20,25975,1539
20,26388,885
20,26800,1677
20,27212,1270
20,27625,967
20,28037,1669
20,28448,623
20,28862,1232
20,29273,1344
20,29685,1086
20,30097,1343
20,30510,1006
20,30922,1088
20,31333,1162
20,31747,795
20,32158,1713
20,32570,1217
20,32983,1313
20,33395,1416
20,33807,1393
20,34220,1307
20,34632,1383
20,35043,2147
20,35457,992
20,35868,1363
20,36280,560
20,36693,929
20,37105,962
20,37517,1500
20,37930,815
20,38342,790
20,38753,885
20,39167,1089
20,39578,1130
20,39990,529
20,40402,1326
20,40815,1048
20,41227,746
20,41638,1245
20,42052,2925
20,42463,4546
20,42875,7072
20,43288,13715
20,43700,24767
20,44112,43253
20,44525,69736
20,44937,108208
20,45348,162846
20,45762,228597
20,46173,311060
20,46585,415987
20,46998,537806
20,47410,656421
20,47822,793959
20,48235,908050
20,48647,1031857
20,49058,1112828
20,49470,1169636
20,49883,1176296
20,50295,1155875
20,50707,1083274
20,51120,974004
20,51532,835582
20,51943,712065
20,52357,581621
20,52768,473544
20,53180,382590
20,53593,314639
20,54005,253797
20,54417,207318
20,54830,170043
20,55242,142584
20,55653,120832
20,56067,101774
20,56478,88864
20,56890,78053
20,57303,68445
20,57715,63665
20,58127,54866
20,58538,47720
20,58952,43786
20,59363,41604
20,59775,36472
20,60188,32616
20,60600,30750
20,61012,26622
20,61425,25860
20,61837,24299
20,62248,22578
20,62662,21793
20,63073,18241
20,63485,18966
20,63898,17123
20,64310,15769
20,64722,15329
20,65135,12612
20,65547,12927
20,65958,12510
20,66372,9906
20,66783,10641
20,67195,10839
20,67607,9466
20,68020,9635
20,68432,8548
20,68843,8418
20,69257,7542
20,69668,6802
20,70080,7479
20,70493,7010
20,70905,4926
20,71317,5379
20,71730,6395
20,72142,6000
20,72553,4347
20,72967,5116
20,73378,5597
20,73790,3854
20,74203,3959
20,74615,4303
20,75027,3367
20,75440,4012
20,75852,3752
20,76263,4576
20,76675,3421
20,77088,3215
20,77500,3364
20,77912,3205
20,78325,3143
20,78737,3282
20,79148,3046
20,79562,2937
20,79973,3059
20,80385,2567
20,80798,2434
20,81210,2273
20,81622,2574
20,82035,1854
20,82447,2264
20,82858,1947
20,83272,2802
20,83683,2795
20,84095,3330
20,84508,2930
20,84920,3263
20,85332,3775
20,85743,7315
20,86157,11301
20,86568,18684
20,86980,30747
20,87393,51315
20,87805,78408
20,88217,114987
20,88630,161118
20,89042,216610
20,89453,279692
20,89867,343255
20,90278,402565
20,90690,465785
20,91103,512864
20,91515,537117
20,91927,555901
20,92340,538971
20,92752,513909
20,93163,474728
20,93577,422310
20,93988,362884
20,94400,307787
20,94812,261139
20,95225,216736
20,95637,176245
20,96048,146790
20,96462,123774
20,96873,103528
20,97285,84943
20,97698,71330
20,98110,60078
20,98522,51707
20,98935,43101
20,99347,38664
20,99758,33648
21,00172,30465
21,00583,27040
21,00995,24216
21,01408,22068
21,01820,19776
21,02232,18734
21,02645,15628
21,03057,14764
21,03468,14421
21,03880,11753
21,04293,11695
21,04705,12269
21,05117,11222
21,05530,10174
21,05942,11520
21,06353,11244
21,06767,13500
21,07178,18805
21,07590,27996
21,08003,43247
21,08415,64789
21,08827,101130
21,09240,149442
21,09652,210532
21,10063,295205
21,10477,394913
21,10888,503578
21,11300,639735
21,11713,766265
21,12125,880423
21,12537,989512
21,12948,1065411
21,13362,1109324
21,13773,1109086
21,14185,1060275
21,14598,970594
21,15010,874926
21,15422,770852
21,15835,652912
21,16247,543064
21,16658,446074
21,17072,368591
21,17483,299385
21,17895,243084
21,18308,202914
21,18720,168784
21,19132,141280
21,19545,121865
21,19957,103052
21,20368,91205
21,20782,79615
21,21193,67945
21,21605,63206
21,22017,55556
21,22430,51257
21,22842,44084
21,23253,42490
21,23667,38822
21,24078,34574
21,24490,32354
21,24903,30044
21,25315,28094
21,25727,25053
21,26140,24789
21,26552,22160
21,26963,19722
21,27377,18484
21,27788,17488
21,28200,16271
21,28613,15868
21,29025,15926
21,29437,13906
21,29850,12124
21,30262,11667
21,30673,11432
21,31085,11516
21,31498,10672
21,31910,9860
21,32322,10555
21,32735,8444
21,33147,7763
21,33558,7335
21,33972,7480
21,34383,6545
21,34795,6840
21,35208,5921
21,35620,5824
21,36032,5523
21,36445,5307
21,36857,5483
21,37268,5090
21,37682,5504
21,38093,4835
21,38505,5257
21,38918,4452
21,39330,4368
21,39742,3720
21,40153,4087
21,40567,3500
21,40978,3467
21,41390,3772
21,41803,2837
21,42215,3947
21,42627,2894
21,43040,2616
21,43452,3385
21,43863,3170
21,44277,2959
21,44688,2669
21,45100,2718
21,45513,3186
21,45925,2500
21,46337,2645
21,46750,2591
21,47162,2763
21,47573,2651
21,47987,3417
21,48398,3399
21,48810,3475
21,49222,3346
21,49635,3122
21,50047,2718
21,50458,3537
21,50872,3817
21,51283,4349
21,51695,3575
21,52108,3325
21,52520,3309
21,52932,2054
21,53345,3398
21,53757,2251
21,54168,2912
21,54582,2198
21,54993,2936
21,55405,2665
21,55818,2468
21,56230,2058
21,56642,2872
21,57055,2160
21,57467,1899
21,57878,2716
21,58290,2733
21,58703,3915
21,59115,4991
21,59527,8900
21,59940,13992
21,60352,23025
21,60763,36737
21,61177,59136
21,61588,91347
21,62000,130846
21,62413,183866
21,62825,236881
21,63237,301606
21,63650,366411
21,64062,421563
21,64473,472967
21,64887,506306
21,65298,518233
21,65710,518231
21,66123,489729
21,66535,447720
21,66947,399869
21,67358,353129
21,67772,298639
21,68183,250300
21,68595,201430
21,69008,170249
21,69420,138101
21,69832,116038
21,70245,96718
21,70657,79732
21,71068,65834
21,71482,59997
21,71893,51397
21,72305,43626
21,72718,38783
21,73130,33776
21,73542,31534
21,73955,29184
21,74367,26978
21,74778,25074
21,75192,21539
21,75603,21006
21,76015,18503
21,76427,17224
21,76840,16752
21,77252,14498
21,77663,13702
21,78077,12671
21,78488,10947
21,78900,12584
21,79313,10455
21,79725,8197
21,80137,8677
21,80550,8905
21,80962,8972
21,81373,7843
21,81787,7825
21,82198,6623
21,82610,6309
21,83023,6802
21,83435,6128
21,83847,5851
21,84260,5845
21,84672,5643
21,85083,4491
21,85495,4929
21,85908,5086
21,86320,4052
21,86732,4306
21,87145,4720
21,87557,4510
21,87968,3702
21,88382,4042
21,88793,4131
21,89205,3577
21,89618,4748
21,90030,4506
21,90442,3919
21,90855,4058
21,91267,3445
21,91678,3171
21,92092,2789
21,92503,2671
21,92915,3173
21,93328,2388
21,93740,2090
21,94152,2351
21,94563,2588
21,94977,2790
21,95388,2461
21,95800,1864
21,96213,2512
21,96625,2462
21,97037,3093
21,97450,2899
21,97862,1874
21,98273,2335
21,98687,3036
21,99098,2408
21,99510,2477
21,99923,2642
22,00335,2306
22,00747,2343
22,01160,2504
22,01572,2368
22,01983,2742
22,02397,3140
22,02808,2686
22,03220,2504
22,03633,2928
22,04045,2115
22,04457,2669
22,04868,2696
22,05282,2475
22,05693,2541
22,06105,2686
22,06518,2390
22,06930,2818
22,07342,3101
22,07755,4515
22,08167,7012
22,08578,11972
22,08992,18818
22,09403,33226
22,09815,51814
22,10228,80090
22,10640,114952
22,11052,158307
22,11465,211285
22,11877,273377
22,12288,336329
22,12702,393284
22,13113,438904
22,13525,469802
22,13937,487620
22,14350,487496
22,14762,472898
22,15173,432381
22,15587,391665
22,15998,348975
22,16410,294153
22,16823,247032
22,17235,206726
22,17647,169423
22,18060,141215
22,18472,117912
22,18883,94251
22,19297,78397
22,19708,68510
22,20120,58008
22,20533,47172
22,20945,39895
22,21357,36548
22,21770,32124
22,22182,27968
22,22593,26672
22,23005,22019
22,23418,20083
22,23830,17957
22,24242,17212
22,24655,16589
22,25067,14484
22,25478,14223
22,25892,11638
22,26303,12118
22,26715,10530
22,27128,11538
22,27540,7811
22,27952,7775
22,28365,8694
22,28777,7400
22,29188,7502
22,29602,6371
22,30013,6867
22,30425,7053
22,30838,6139
22,31250,5410
22,31662,5526
22,32073,5670
22,32487,5711
22,32898,5086
22,33310,4172
22,33723,5042
22,34135,3990
22,34547,4469
22,34960,3068
22,35372,4080
22,35783,4185
22,36197,4695
22,36608,4116
22,37020,4137
22,37433,4162
22,37845,4225
22,38257,3700
22,38670,3810
22,39082,3222
22,39493,2559
22,39907,3171
22,40318,2495
22,40730,3303
22,41142,3053
22,41555,2057
22,41967,2915
22,42378,2030
22,42792,2733
22,43203,3245
22,43615,2298
22,44028,2053
22,44440,2021
22,44852,1906
22,45265,2502
22,45677,2294
22,46088,1800
22,46502,2083
22,46913,1201
22,47325,1991
22,47738,1166
22,48150,1548
22,48562,1899
22,48975,872
22,49387,1584
22,49798,1200
22,50210,1379
22,50623,2799
22,51035,1221
22,51447,1570
22,51860,1806
22,52272,2103
22,52683,1951
22,53097,1495
22,53508,1181
22,53920,2023
22,54333,1594
22,54745,1832
22,55157,1087
22,55570,1655
22,55982,1375
22,56393,1271
22,56807,1373
22,57218,1564
22,57630,1396
22,58043,2447
22,58455,1518
22,58867,1652
22,59278,1105
22,59692,1823
22,60103,970
22,60515,2057
22,60928,1521
22,61340,1430
22,61752,1653
22,62165,1575
22,62577,935
22,62988,2391
22,63402,1107
22,63813,1625
22,64225,1014
22,64638,1481
22,65050,1877
22,65462,1684
22,65875,1545
22,66287,1707
22,66698,1189
22,67112,880
22,67523,1463
22,67935,1833
22,68347,892
22,68760,1085
22,69172,1044
22,69583,2529
22,69997,1658
22,70408,1807
22,70820,752
22,71233,1777
22,71645,1901
22,72057,2127
22,72470,1587
22,72882,1189
22,73293,1564
22,73707,1370
22,74118,847
22,74530,1171
22,74943,1558
22,75355,1458
22,75767,1943
22,76180,1136
22,76592,1358
22,77003,1770
22,77415,2220
22,77828,2638
22,78240,3148
22,78652,5227
22,79065,8402
22,79477,12530
22,79888,23750
22,80302,38815
22,80713,59266
22,81125,84984
22,81538,124885
22,81950,169358
22,82362,215561
22,82775,268483
22,83187,318980
22,83598,368424
22,84012,402285
22,84423,425943
22,84835,434153
22,85248,426304
22,85660,406898
22,86072,369504
22,86483,334511
22,86897,290468
22,87308,251489
22,87720,211542
22,88133,178660
22,88545,145742
22,88957,124704
22,89370,103172
22,89782,88361
22,90193,77453
22,90607,70077
22,91018,66125
22,91430,67958
22,91843,70194
22,92255,84405
22,92667,103461
22,93080,135433
22,93492,173854
22,93903,231713
22,94317,302599
22,94728,391910
22,95140,500266
22,95552,627877
22,95965,758318
22,96377,923270
22,96788,1049260
22,97202,1164324
22,97613,1266536
22,98025,1316398
22,98438,1333433
22,98850,1294490
22,99262,1207512
22,99675,1066328
23,00087,924250
23,00498,775421
23,00912,634702
23,01323,522347
23,01735,422274
23,02148,336832
23,02560,281951
23,02972,235333
23,03385,194721
23,03797,166314
23,04208,143088
23,04620,121044
23,05033,109919
23,05445,94941
23,05857,81832
23,06270,77069
23,06682,70141
23,07093,64584
23,07507,57869
23,07918,53114
23,08330,47308
23,08743,45939
23,09155,39678
23,09567,36467
23,09980,34233
23,10392,30942
23,10803,31621
23,11217,28558
23,11628,27416
23,12040,25575
23,12453,24017
23,12865,23243
23,13277,21459
23,13688,18912
23,14102,19369
23,14513,16423
23,14925,15906
23,15338,17548
23,15750,14944
23,16162,13218
23,16575,14307
23,16987,14288
23,17398,12632
23,17812,11726
23,18223,11722
23,18635,10274
23,19048,10656
23,19460,9584
23,19872,9418
23,20285,8904
23,20697,8779
23,21108,8621
23,21522,9186
23,21933,8179
23,22345,8402
23,22757,7083
23,23170,7279
23,23582,6893
23,23993,9437
23,24407,9430
23,24818,13752
23,25230,19486
23,25643,29238
23,26055,43788
23,26467,61462
23,26880,88338
23,27292,124006
23,27703,161582
23,28117,214842
23,28528,267998
23,28940,320779
23,29353,366705
23,29765,394045
23,30177,419627
23,30590,423906
23,31002,419342
23,31413,400971
23,31825,369580
23,32238,324469
23,32650,284102
23,33062,242314
23,33475,205324
23,33887,172118
23,34298,140623
23,34712,118867
23,35123,101475
23,35535,83341
23,35948,69775
23,36360,62544
23,36772,50385
23,37185,44008
23,37597,40971
23,38008,36023
23,38422,32509
23,38833,30004
23,39245,26465
23,39658,23822
23,40070,22246
23,40482,21570
23,40893,18916
23,41307,16841
23,41718,15409
23,42130,15070
23,42543,14094
23,42955,12552
23,43367,13517
23,43780,12269
23,44192,10829
23,44603,11130
23,45017,10023
23,45428,10928
23,45840,9810
23,46253,9760
23,46665,9011
23,47077,8953
23,47490,7356
23,47902,7461
23,48313,6299
23,48727,7677
23,49138,6274
23,49550,6546
23,49962,6931
23,50375,7437
23,50787,8028
23,51198,10976
23,51612,15290
23,52023,23815
23,52435,36824
23,52848,54334
23,53260,81528
23,53672,119041
23,54085,170633
23,54497,227608
23,54908,290486
23,55322,362770
23,55733,429994
23,56145,496314
23,56558,553384
23,56970,592494
23,57382,605017
23,57795,590984
23,58207,569284
23,58618,518865
23,59030,458634
23,59443,401946
23,59855,345098
23,60267,289386
23,60680,240064
23,61092,196756
23,61503,168349
23,61917,139022
23,62328,115974
23,62740,96311
23,63153,82778
23,63565,71795
23,63977,61885
23,64390,56297
23,64802,46103
23,65213,43958
23,65627,39383
23,66038,35166
23,66450,31321
23,66863,30587
23,67275,26018
23,67687,23543
23,68100,22812
23,68512,21098
23,68923,19363
23,69335,18508
23,69748,17928
23,70160,16223
23,70572,15742
23,70985,13709
23,71397,13535
23,71808,12583
23,72222,11557
23,72633,11728
23,73045,10025
23,73458,9475
23,73870,9645
23,74282,8484
23,74695,8798
23,75107,7738
23,75518,8000
23,75932,7453
23,76343,6928
23,76755,6972
23,77168,6957
23,77580,6062
23,77992,5896
23,78403,6559
23,78817,6165
23,79228,6263
23,79640,5556
23,80053,5353
23,80465,5202
23,80877,5237
23,81290,5339
23,81702,4643
23,82113,3983
23,82527,5191
23,82938,3825
23,83350,5327
23,83763,4536
23,84175,4050
23,84587,4324
23,85000,3857
23,85412,3866
23,85823,4262
23,86237,4215
23,86648,4032
23,87060,4008
23,87472,4065
23,87885,3771
23,88297,3190
23,88708,2865
23,89122,4274
23,89533,2901
23,89945,3094
23,90358,3509
23,90770,3018
23,91182,2636
23,91595,3467
23,92007,3404
23,92418,2715
23,92832,2835
23,93243,2856
23,93655,3316
23,94068,2546
23,94480,2400
23,94892,3079
23,95305,3523
23,95717,2458
23,96128,2459
23,96540,2568
23,96953,3859
23,97365,1582
23,97777,2700
23,98190,2905
23,98602,2056
23,99013,3420
23,99427,3431
23,99838,2524
24,00250,2836
24,00663,1982
24,01075,2352
24,01487,2978
24,01900,2759
24,02312,2796
24,02723,2755
24,03137,2146
24,03548,1817
24,03960,3027
24,04373,2340
24,04785,2528
24,05197,2568
24,05608,2039
24,06022,3172
24,06433,2690
24,06845,3753
24,07258,3326
24,07670,5829
24,08082,7232
24,08495,12498
24,08907,21274
24,09318,34842
24,09732,53293
24,10143,82991
24,10555,122401
24,10968,174245
24,11380,234948
24,11792,305156
24,12205,389425
24,12617,472400
24,13028,549329
24,13442,620413
24,13853,672688
24,14265,694308
24,14677,695815
24,15090,666676
24,15502,604442
24,15913,540646
24,16327,463985
24,16738,397496
24,17150,326230
24,17563,267481
24,17975,224046
24,18387,183837
24,18800,145911
24,19212,125594
24,19623,107405
24,20037,93147
24,20448,79500
24,20860,67512
24,21273,62269
24,21685,54778
24,22097,50059
24,22510,45332
24,22922,41864
24,23333,38625
24,23745,37225
24,24158,34480
24,24570,31715
24,24982,29546
24,25395,26923
24,25807,25448
24,26218,21953
24,26632,21048
24,27043,18992
24,27455,17481
24,27868,18207
24,28280,18449
24,28692,17193
24,29105,14742
24,29517,13982
24,29928,15489
24,30342,13699
24,30753,12015
24,31165,10874
24,31578,12139
24,31990,10164
24,32402,10995
24,32813,9238
24,33227,9252
24,33638,8475
24,34050,8532
24,34463,8682
24,34875,7638
24,35287,8079
24,35700,8171
24,36112,6051
24,36523,6951
24,36937,6194
24,37348,5929
24,37760,6520
24,38173,7223
24,38585,6155
24,38997,6127
24,39410,6668
24,39822,6114
24,40233,4990
24,40647,4750
24,41058,5174
24,41470,5479
24,41882,5186
24,42295,4666
24,42707,5386
24,43118,5204
24,43532,4887
24,43943,4733
24,44355,5365
24,44768,4785
24,45180,3889
24,45592,3569
24,46005,4640
24,46417,4542
24,46828,6658
24,47242,7996
24,47653,14202
24,48065,19340
24,48478,32062
24,48890,48128
24,49302,75491
24,49715,109866
24,50127,152548
24,50538,208806
24,50950,269546
24,51363,337274
24,51775,393586
24,52187,456197
24,52600,495200
24,53012,526343
24,53423,527812
24,53837,516683
24,54248,490955
24,54660,444605
24,55073,398863
24,55485,347985
24,55897,296720
24,56310,244443
24,56722,205945
24,57133,172375
24,57547,140797
24,57958,118092
24,58370,100094
24,58783,84045
24,59195,70910
24,59607,63228
24,60018,53974
24,60432,49083
24,60843,44674
24,61255,40580
24,61668,34335
24,62080,31680
24,62492,29733
24,62905,25978
24,63317,23262
24,63728,22384
24,64142,21117
24,64553,18676
24,64965,18768
24,65378,17114
24,65790,16636
24,66202,14291
24,66615,13953
24,67027,13700
24,67438,13029
24,67852,12192
24,68263,11946
24,68675,10618
24,69087,11344
24,69500,9608
24,69912,9225
24,70323,8682
24,70737,8891
24,71148,8383
24,71560,7798
24,71973,8015
24,72385,7386
24,72797,8011
24,73210,7171
24,73622,7524
24,74033,6999
24,74447,5876
24,74858,6449
24,75270,6417
24,75683,6310
24,76095,5399
24,76507,5148
24,76920,5734
24,77332,5143
24,77743,5416
24,78155,5532
24,78568,4757
24,78980,5337
24,79392,4071
24,79805,5078
24,80217,4490
24,80628,4619
24,81042,4289
24,81453,3758
24,81865,4959
24,82278,4155
24,82690,4978
24,83102,5041
24,83515,3650
24,83927,4176
24,84338,4272
24,84752,5118
24,85163,3568
24,85575,3153
24,85988,4463
24,86400,4552
24,86812,4379
24,87223,3499
24,87637,4121
24,88048,3834
24,88460,3500
24,88873,4247
24,89285,3894
24,89697,3945
24,90110,4487
24,90522,4649
24,90933,4565
24,91347,3493
24,91758,4202
24,92170,4077
24,92583,3632
24,92995,4444
24,93407,3797
24,93820,3591
24,94232,3770
24,94643,3249
24,95057,3639
24,95468,3611
24,95880,3564
24,96292,3475
24,96705,3322
24,97117,3962
24,97528,4034
24,97942,3071
24,98353,3004
24,98765,4454
24,99178,3023
24,99590,3832
25,00002,4480
25,00415,4484
25,00827,4495
25,01238,4183
25,01652,4159
25,02063,4910
25,02475,4760
25,02888,5090
25,03300,3813
25,03712,5203
25,04125,5021
25,04537,4477
25,04948,5204
25,05360,5409
25,05773,4576
25,06185,4539
25,06597,4068
25,07010,3583
25,07422,3096
25,07833,4124
25,08247,2545
25,08658,3247
25,09070,2432
25,09483,3407
25,09895,2425
25,10307,3212
25,10720,3009
25,11132,2529
25,11543,2724
25,11957,3158
25,12368,4003
25,12780,3637
25,13193,5922
25,13605,6835
25,14017,9031
25,14430,16780
25,14842,27315
25,15253,40585
25,15665,63028
25,16078,93586
25,16490,132408
25,16902,182917
25,17315,234989
25,17727,291539
25,18138,344353
25,18552,388038
25,18963,431070
25,19375,466343
25,19788,473587
25,20200,469100
25,20612,445212
25,21025,413054
25,21437,378231
25,21848,336655
25,22262,297531
25,22673,264254
25,23085,252626
25,23498,244415
25,23910,260622
25,24322,278918
25,24733,319539
25,25147,381176
25,25558,462226
25,25970,556428
25,26383,660660
25,26795,788397
25,27207,913603
25,27620,1052043
25,28032,1162377
25,28443,1284729
25,28857,1373409
25,29268,1432408
25,29680,1423221
25,30093,1393632
25,30505,1290498
25,30917,1141942
25,31330,974022
25,31742,807975
25,32153,675748
25,32567,550118
25,32978,444854
25,33390,373946
25,33802,308319
25,34215,259623
25,34627,223642
25,35038,189782
25,35452,168562
25,35863,153646
25,36275,134023
25,36688,120520
25,37100,109048
25,37512,98872
25,37925,89900
25,38337,81767
25,38748,77161
25,39162,73209
25,39573,65743
25,39985,61024
25,40398,55562
25,40810,52950
25,41222,48033
25,41635,46067
25,42047,44724
25,42458,40876
25,42870,38545
25,43283,36254
25,43695,35290
25,44107,32826
25,44520,32935
25,44932,29641
25,45343,29602
25,45757,27840
25,46168,26056
25,46580,25884
25,46993,24191
25,47405,25636
25,47817,21783
25,48230,22408
25,48642,21214
25,49053,19577
25,49467,19303
25,49878,18635
25,50290,17394
25,50703,17437
25,51115,17584
25,51527,16487
25,51938,17116
25,52352,16310
25,52763,15976
25,53175,16755
25,53588,15557
25,54000,15773
25,54412,15484
25,54825,16798
25,55237,15340
25,55648,15614
25,56062,15863
25,56473,19083
25,56885,22844
25,57298,29615
25,57710,40312
25,58122,57088
25,58535,79787
25,58947,112557
25,59358,152591
25,59772,203088
25,60183,256188
25,60595,315449
25,61007,374572
25,61420,427396
25,61832,457253
25,62243,488350
25,62657,488726
25,63068,483475
25,63480,463203
25,63893,438770
25,64305,404927
25,64717,377385
25,65130,363792
25,65542,356221
25,65953,355239
25,66367,375947
25,66778,396912
25,67190,429180
25,67603,457463
25,68015,481633
25,68427,489913
25,68840,496580
25,69252,472219
25,69663,444811
25,70075,413285
25,70488,370632
25,70900,329878
25,71312,288148
25,71725,241395
25,72137,205319
25,72548,173271
25,72962,146654
25,73373,123366
25,73785,108733
25,74198,91194
25,74610,83757
25,75022,71363
25,75435,62745
25,75847,57533
25,76258,53744
25,76672,47368
25,77083,44163
25,77495,41521
25,77908,39681
25,78320,40929
25,78732,39479
25,79143,41282
25,79557,47892
25,79968,62028
25,80380,78444
25,80793,108162
25,81205,141832
25,81617,191289
25,82030,250174
25,82442,313454
25,82853,394998
25,83267,470024
25,83678,539522
25,84090,595881
25,84503,639147
25,84915,665507
25,85327,657829
25,85740,636394
25,86152,584661
25,86563,531525
25,86977,472289
25,87388,397175
25,87800,337603
25,88212,285077
25,88625,242002
25,89037,201066
25,89448,172626
25,89862,147769
25,90273,124767
25,90685,110703
25,91098,97640
25,91510,82197
25,91922,75921
25,92335,71535
25,92747,60886
25,93158,57860
25,93572,49975
25,93983,47549
25,94395,43756
25,94808,39979
25,95220,39943
25,95632,37168
25,96045,35956
25,96457,33166
25,96868,33365
25,97280,29143
25,97693,28231
25,98105,25495
25,98517,23726
25,98930,22446
25,99342,23706
25,99753,20374
26,00167,20280
26,00578,19058
26,00990,19417
26,01403,18175
26,01815,16373
26,02227,17395
26,02640,15162
26,03052,16229
26,03463,14406
26,03877,14536
26,04288,15527
26,04700,13690
26,05113,14274
26,05525,14684
26,05937,14222
26,06348,13375
26,06762,12218
26,07173,13443
26,07585,13053
26,07998,11538
26,08410,11737
26,08822,10024
26,09235,9637
26,09647,11128
26,10058,10141
26,10472,9983
26,10883,8846
26,11295,10516
26,11708,9047
26,12120,9558
26,12532,9361
26,12945,8151
26,13357,8229
26,13768,8767
26,14182,8481
26,14593,7810
26,15005,7588
26,15417,7526
26,15830,7259
26,16242,7813
26,16653,7300
26,17067,7043
26,17478,6604
26,17890,6774
26,18303,6879
26,18715,6062
26,19127,7408
26,19540,6928
26,19952,6808
26,20363,6500
26,20777,6485
26,21188,5762
26,21600,6604
26,22013,6101
26,22425,6276
26,22837,5022
26,23250,6345
26,23662,5493
26,24073,5366
26,24485,6440
26,24898,6151
26,25310,5986
26,25722,6806
26,26135,6622
26,26547,5858
26,26958,5621
26,27372,6201
26,27783,6279
26,28195,7274
26,28608,6797
26,29020,8894
26,29432,9578
26,29845,10727
26,30257,14468
26,30668,18720
26,31082,25969
26,31493,41391
26,31905,61587
26,32318,92293
26,32730,129288
26,33142,178343
26,33553,239002
26,33967,307784
26,34378,383183
26,34790,456751
26,35203,540014
26,35615,618035
26,36027,676293
26,36440,732072
26,36852,744880
26,37263,726881
26,37677,678553
26,38088,626081
26,38500,549733
26,38913,478157
26,39325,406712
26,39737,340905
26,40150,281672
26,40562,232208
26,40973,199458
26,41387,167176
26,41798,144539
26,42210,122277
26,42622,109198
26,43035,95761
26,43447,87840
26,43858,78965
26,44272,68656
26,44683,63248
26,45095,58775
26,45508,53673
26,45920,47891
26,46332,45894
26,46745,43176
26,47157,39917
26,47568,38738
26,47982,34787
26,48393,32999
26,48805,30506
26,49218,30208
26,49630,30396
26,50042,26778
26,50455,27881
26,50867,24161
26,51278,24747
26,51690,22395
26,52103,23129
26,52515,22371
26,52927,21568
26,53340,20000
26,53752,18767
26,54163,18853
26,54577,17488
26,54988,16981
26,55400,16354
26,55813,15642
26,56225,17087
26,56637,14933
26,57050,13283
26,57462,13378
26,57873,13364
26,58287,11887
26,58698,11685
26,59110,12176
26,59523,11750
26,59935,12150
26,60347,10947
26,60758,11342
26,61172,11774
26,61583,10616
26,61995,10610
26,62408,11137
26,62820,10825
26,63232,10627
26,63645,10977
26,64057,10259
26,64468,10900
26,64882,11118
26,65293,11132
26,65705,12687
26,66118,12584
26,66530,13339
26,66942,12954
26,67355,12193
26,67767,12428
26,68178,11281
26,68592,12572
26,69003,15652
26,69415,17708
26,69827,23381
26,70240,32537
26,70652,46982
26,71063,68287
26,71477,100031
26,71888,142187
26,72300,193542
26,72713,253026
26,73125,328131
26,73537,396024
26,73950,458339
26,74362,517179
26,74773,566964
26,75187,594333
26,75598,604270
26,76010,600521
26,76423,592150
26,76835,570100
26,77247,553438
26,77660,535590
26,78072,537963
26,78483,529912
26,78897,532159
26,79308,534415
26,79720,531158
26,80132,519050
26,80545,499111
26,80957,476464
26,81368,438440
26,81782,402562
26,82193,356359
26,82605,311105
26,83018,269505
26,83430,232359
26,83842,201704
26,84255,172338
26,84667,147117
26,85078,128811
26,85492,112209
26,85903,95728
26,86315,85287
26,86728,78223
26,87140,69963
26,87552,61008
26,87965,55529
26,88377,50099
26,88788,51534
26,89200,45019
26,89613,41301
26,90025,38141
26,90437,38897
26,90850,33656
26,91262,33710
26,91673,31247
26,92087,29076
26,92498,28570
26,92910,25338
26,93323,24650
26,93735,24761
26,94147,22354
26,94560,22893
26,94972,21363
26,95383,21029
26,95797,20199
26,96208,19376
26,96620,16972
26,97033,18385
26,97445,16568
26,97857,17865
26,98268,16098
26,98682,14049
26,99093,16422
26,99505,14377
26,99918,13967
27,00330,14303
27,00742,14976
27,01155,12194
27,01567,14564
27,01978,13520
27,02392,14227
27,02803,10804
27,03215,12387
27,03628,11098
27,04040,11009
27,04452,11752
27,04865,10602
27,05277,8925
27,05688,9423
27,06102,10060
27,06513,11010
27,06925,11170
27,07337,8875
27,07750,8691
27,08162,10240
27,08573,11427
27,08987,9106
27,09398,9830
27,09810,8635
27,10223,8672
27,10635,9991
27,11047,8678
27,11460,8634
27,11872,9366
27,12283,8053
27,12697,7060
27,13108,9110
27,13520,8962
27,13933,7888
27,14345,9297
27,14757,8967
27,15170,7574
27,15582,7861
27,15993,7886
27,16405,7965
27,16818,8111
27,17230,7625
27,17642,8917
27,18055,7927
27,18467,6829
27,18878,7966
27,19292,7599
27,19703,7758
27,20115,7869
27,20528,8693
27,20940,7660
27,21352,6987
27,21765,7654
27,22177,7280
27,22588,7853
27,23002,7391
27,23413,8505
27,23825,7499
27,24238,7365
27,24650,6176
27,25062,6291
27,25473,7487
27,25887,6754
27,26298,7199
27,26710,5553
27,27123,6549
27,27535,5674
27,27947,5307
27,28360,7706
27,28772,7672
27,29183,6561
27,29597,5978
27,30008,7097
27,30420,7177
27,30833,7270
27,31245,6280
27,31657,7204
27,32070,5728
27,32482,7924
27,32893,5904
27,33307,6797
27,33718,7279
27,34130,7192
27,34542,6542
27,34955,8547
27,35367,9787
27,35778,11845
27,36192,13079
27,36603,20045
27,37015,30150
27,37428,42868
27,37840,62926
27,38252,93073
27,38665,131981
27,39077,181210
27,39488,241091
27,39902,315440
27,40313,401184
27,40725,487377
27,41138,592057
27,41550,709336
27,41962,832890
27,42375,975432
27,42787,1110070
27,43198,1221583
27,43610,1348460
27,44023,1421685
27,44435,1471852
27,44847,1451767
27,45260,1377211
27,45672,1258324
27,46083,1083072
27,46497,921449
27,46908,763923
27,47320,626509
27,47733,527259
27,48145,427994
27,48557,364313
27,48970,308420
27,49382,267071
27,49793,233070
27,50207,199174
27,50618,178749
27,51030,163956
27,51443,145537
27,51855,136661
27,52267,126859
27,52678,113337
27,53092,103477
27,53503,94508
27,53915,91022
27,54328,83769
27,54740,77823
27,55152,75612
27,55565,69817
27,55977,65894
27,56388,62924
27,56802,59430
27,57213,56843
27,57625,54610
27,58038,52819
27,58450,49485
27,58862,46391
27,59275,46738
27,59687,44329
27,60098,41726
27,60512,41949
27,60923,40115
27,61335,35763
27,61747,37024
27,62160,35635
27,62572,34006
27,62983,31575
27,63397,31375
27,63808,29628
27,64220,30316
27,64633,28247
27,65045,28860
27,65457,26293
27,65870,26048
27,66282,24872
27,66693,24337
27,67107,22358
27,67518,23076
27,67930,23075
27,68343,20862
27,68755,21689
27,69167,21934
27,69580,19695
27,69992,18962
27,70403,18099
27,70815,19170
27,71228,17079
27,71640,18025
27,72052,16706
27,72465,17537
27,72877,16650
27,73288,16002
27,73702,17644
27,74113,16341
27,74525,17020
27,74938,14814
27,75350,14970
27,75762,15233
27,76175,15947
27,76587,13680
27,76998,15272
27,77412,14402
27,77823,14011
27,78235,14283
27,78648,14192
27,79060,13609
27,79472,13859
27,79883,14614
27,80297,13352
27,80708,12996
27,81120,14236
27,81533,12740
27,81945,12825
27,82357,12208
27,82770,11290
27,83182,13758
27,83593,11454
27,84007,10855
27,84418,10343
27,84830,11817
27,85243,10619
27,85655,12421
27,86067,11260
27,86480,10556
27,86892,11900
27,87303,11051
27,87717,11088
27,88128,10140
27,88540,10159
27,88952,11074
27,89365,11946
27,89777,13176
27,90188,14444
27,90602,16622
27,91013,23103
27,91425,30294
27,91838,42961
27,92250,63807
27,92662,89111
27,93075,127468
27,93487,173891
27,93898,234197
27,94312,304609
27,94723,382267
27,95135,460607
27,95548,536973
27,95960,608002
27,96372,657164
27,96785,697262
27,97197,703860
27,97608,694763
27,98020,652136
27,98433,606095
27,98845,538514
27,99257,473796
27,99670,399447
28,00082,347737
28,00493,293903
28,00907,247545
28,01318,209627
28,01730,176457
28,02143,158825
28,02555,135770
28,02967,121890
28,03380,110500
28,03792,96558
28,04203,90523
28,04617,78119
28,05028,73886
28,05440,66780
28,05853,63184
28,06265,60397
28,06677,53539
28,07088,52203
28,07502,49605
28,07913,47265
28,08325,42472
28,08738,41991
28,09150,39119
28,09562,36961
28,09975,33856
28,10387,30805
28,10798,31189
28,11212,30350
28,11623,29560
28,12035,26953
28,12448,27334
28,12860,23707
28,13272,25357
28,13685,24875
28,14097,22263
28,14508,22896
28,14922,20597
28,15333,20332
28,15745,22040
28,16157,19454
28,16570,19768
28,16982,18169
28,17393,16724
28,17807,19165
28,18218,17140
28,18630,18145
28,19043,17486
28,19455,17273
28,19867,16735
28,20280,14820
28,20692,15716
28,21103,14489
28,21517,15286
28,21928,15746
28,22340,15397
28,22753,15275
28,23165,14066
28,23577,15203
28,23990,14990
28,24402,15288
28,24813,15721
28,25225,16275
28,25638,15675
28,26050,16323
28,26462,15996
28,26875,16990
28,27287,19355
28,27698,16216
28,28112,18209
28,28523,17240
28,28935,15460
28,29348,15230
28,29760,13527
28,30172,14773
28,30585,14064
28,30997,15204
28,31408,13904
28,31822,13119
28,32233,11894
28,32645,13102
28,33058,11938
28,33470,12184
28,33882,12356
28,34295,12031
28,34707,11479
28,35118,12841
28,35530,11965
28,35943,11847
28,36355,9974
28,36767,10648
28,37180,12032
28,37592,10707
28,38003,11307
28,38417,11467
28,38828,10760
28,39240,9880
28,39653,10405
28,40065,10718
28,40477,9346
28,40890,10196
28,41302,11066
28,41713,10912
28,42127,11243
28,42538,9610
28,42950,10903
28,43363,10925
28,43775,9480
28,44187,10555
28,44598,9620
28,45012,8974
28,45423,9335
28,45835,10174
28,46248,10199
28,46660,9765
28,47072,10298
28,47485,11088
28,47897,10239
28,48308,9884
28,48722,11076
28,49133,9191
28,49545,9514
28,49958,9371
28,50370,10067
28,50782,10188
28,51195,10506
28,51607,10747
28,52018,9302
28,52432,10342
28,52843,9849
28,53255,8594
28,53667,10754
28,54080,9231
28,54492,9834
28,54903,8487
28,55317,8978
28,55728,10036
28,56140,10252
28,56553,10757
28,56965,9170
28,57377,10382
28,57790,10168
28,58202,9481
28,58613,10721
28,59027,10217
28,59438,11200
28,59850,10008
28,60263,10293
28,60675,10795
28,61087,9450
28,61500,10279
28,61912,11046
28,62323,9018
28,62735,10336
28,63148,8644
28,63560,9768
28,63972,8836
28,64385,8125
28,64797,8427
28,65208,9901
28,65622,9354
28,66033,7698
28,66445,8514
28,66858,8550
28,67270,8835
28,67682,8016
28,68095,8096
28,68507,8523
28,68918,8376
28,69332,8281
28,69743,7979
28,70155,7948
28,70568,8405
28,70980,8276
28,71392,8728
28,71803,9621
28,72217,8993
28,72628,8134
28,73040,9112
28,73453,9141
28,73865,9774
28,74277,9264
28,74690,9024
28,75102,8749
28,75513,9560
28,75927,8638
28,76338,7850
28,76750,9183
28,77163,8537
28,77575,7635
28,77987,8435
28,78400,8659
28,78812,8278
28,79223,9567
28,79637,10856
28,80048,10456
28,80460,10122
28,80872,10261
28,81285,8824
28,81697,9070
28,82108,8677
28,82522,9554
28,82933,10382
28,83345,9119
28,83758,9133
28,84170,9401
28,84582,8927
28,84995,8437
28,85407,8545
28,85818,9141
28,86232,8546
28,86643,7997
28,87055,8880
28,87468,8314
28,87880,10138
28,88292,9502
28,88705,10139
28,89117,8826
28,89528,9440
28,89940,9678
28,90353,8061
28,90765,9613
28,91177,9647
28,91590,9626
28,92002,9644
28,92413,11334
28,92827,9930
28,93238,11529
28,93650,8671
28,94063,11529
28,94475,10592
28,94887,11388
28,95300,12028
28,95712,11487
28,96123,11412
28,96537,12036
28,96948,10949
28,97360,11880
28,97773,11797
28,98185,10090
28,98597,9868
28,99008,10513
28,99422,9910
28,99833,9286
29,00245,9409
29,00658,9756
29,01070,7999
29,01482,9618
29,01895,10649
29,02307,9849
29,02718,9260
29,03132,9595
29,03543,10158
29,03955,10645
29,04368,9908
29,04780,10914
29,05192,8441
29,05605,10174
29,06017,10188
29,06428,11590
29,06842,9869
29,07253,9316
29,07665,9390
29,08077,10752
29,08490,10621
29,08902,10830
29,09313,9699
29,09727,8974
29,10138,9324
29,10550,8735
29,10963,10156
29,11375,9092
29,11787,8839
29,12200,9021
29,12612,8967
29,13023,10086
29,13437,9891
29,13848,10384
29,14260,10314
29,14673,9663
29,15085,10453
29,15497,8769
29,15910,11103
29,16322,9522
29,16733,9692
29,17145,9589
29,17558,10159
29,17970,8479
29,18382,9494
29,18795,10708
29,19207,10373
29,19618,9681
29,20032,9987
29,20443,9816
29,20855,10669
29,21268,9168
29,21680,9852
29,22092,10399
29,22505,10859
29,22917,10409
29,23328,10787
29,23742,9326
29,24153,10177
29,24565,9759
29,24978,9347
29,25390,10531
29,25802,10118
29,26213,9792
29,26627,10635
29,27038,9646
29,27450,9866
29,27863,10070
29,28275,11079
29,28687,10288
29,29100,10855
29,29512,10985
29,29923,9664
29,30337,10749
29,30748,11323
29,31160,9886
29,31573,9954
29,31985,9937
29,32397,9764
29,32810,11368
29,33222,10249
29,33633,9776
29,34047,10295
29,34458,9379
29,34870,10662
29,35282,12382
29,35695,12966
29,36107,16539
29,36518,18846
29,36932,25605
29,37343,36512
29,37755,51629
29,38168,68671
29,38580,93755
29,38992,132038
29,39405,170993
29,39817,214699
29,40228,258842
29,40642,307164
29,41053,339168
29,41465,375316
29,41878,388748
29,42290,394519
29,42702,377951
29,43115,362474
29,43527,333409
29,43938,296932
29,44350,264746
29,44763,225040
29,45175,196413
29,45587,168700
29,46000,149095
29,46412,126101
29,46823,105766
29,47237,92753
29,47648,82789
29,48060,74012
29,48473,65083
29,48885,58010
29,49297,53399
29,49710,49654
29,50122,45584
29,50533,43372
29,50947,37695
29,51358,38088
29,51770,34063
29,52183,30541
29,52595,29169
29,53007,29330
29,53418,27366
29,53832,26905
29,54243,25482
29,54655,25575
29,55068,22269
29,55480,21439
29,55892,23295
29,56305,22134
29,56717,21807
29,57128,20699
29,57542,20451
29,57953,20417
29,58365,19164
29,58778,18878
29,59190,18597
29,59602,17919
29,60015,18866
29,60427,16208
29,60838,17536
29,61252,16654
29,61663,16543
29,62075,15477
29,62487,16538
29,62900,15330
29,63312,15123
29,63723,15148
29,64137,15161
29,64548,15752
29,64960,15051
29,65373,13707
29,65785,14960
29,66197,15921
29,66610,14503
29,67022,14781
29,67433,14004
29,67847,13756
29,68258,12935
29,68670,12755
29,69083,13967
29,69495,12763
29,69907,14845
29,70320,14738
29,70732,13386
29,71143,12785
29,71555,14271
29,71968,14688
29,72380,12922
29,72792,13453
29,73205,13981
29,73617,14638
29,74028,14423
29,74442,12360
29,74853,14510
29,75265,13308
29,75678,11808
29,76090,13205
29,76502,13384
29,76915,12976
29,77327,14364
29,77738,12157
29,78152,11466
29,78563,11875
29,78975,12165
29,79388,13100
29,79800,10845
29,80212,12909
29,80623,12793
29,81037,10971
29,81448,12203
29,81860,13229
29,82273,12509
29,82685,13233
29,83097,12458
29,83510,12765
29,83922,11344
29,84333,11649
29,84747,12666
29,85158,12226
29,85570,13093
29,85983,13393
29,86395,12505
29,86807,12113
29,87220,13272
29,87632,13258
29,88043,11872
29,88457,13198
29,88868,12545
29,89280,11509
29,89693,12549
29,90105,12382
29,90517,11830
29,90928,13451
29,91342,13282
29,91753,12469
29,92165,14025
29,92578,13047
29,92990,13364
29,93402,12472
29,93815,13662
29,94227,12484
29,94638,13314
29,95052,13724
29,95463,12780
29,95875,12880
29,96288,11564
29,96700,12875
29,97112,12304
29,97525,12587
29,97937,12940
29,98348,13154
29,98762,12940
29,99173,11253
