D:\MassHunter\GCMS\1\data\Amal\Constant flow\130C\130C_1ml-min_4C-min_1.D Mon Jul 29 15:29:59 2024
Start of data points
5,59133,49464
5,59578,47719
5,60023,47007
5,60467,45063
5,60912,45412
5,61355,44796
5,61800,44251
5,62243,44620
5,62688,44209
5,63132,44253
5,63577,43521
5,64020,41273
5,64465,41129
5,64908,41712
5,65353,42020
5,65797,41277
5,66242,42104
5,66685,41136
5,67130,40314
5,67573,40717
5,68018,41077
5,68462,40797
5,68907,39244
5,69350,38344
5,69795,39252
5,70238,38285
5,70683,38682
5,71127,38075
5,71572,37335
5,72017,38549
5,72460,38615
5,72905,36495
5,73348,39069
5,73793,37441
5,74237,36700
5,74682,37009
5,75125,37793
5,75570,35853
5,76013,36947
5,76458,37662
5,76902,34347
5,77347,37619
5,77790,35081
5,78235,36874
5,78678,35367
5,79123,38204
5,79567,37328
5,80012,36766
5,80455,37786
5,80900,35729
5,81343,35988
5,81788,36288
5,82232,36553
5,82677,35548
5,83120,36122
5,83565,36383
5,84010,36356
5,84453,34373
5,84898,37215
5,85342,36721
5,85787,36951
5,86230,36169
5,86675,34385
5,87118,36337
5,87563,37200
5,88007,35252
5,88452,36564
5,88895,35648
5,89340,34410
5,89783,36174
5,90228,34968
5,90672,34771
5,91117,34385
5,91560,35842
5,92005,34578
5,92448,33522
5,92893,35192
5,93337,34507
5,93782,34249
5,94225,33719
5,94670,34136
5,95113,33616
5,95558,33705
5,96003,34841
5,96447,33522
5,96892,34727
5,97335,34230
5,97780,32857
5,98223,32514
5,98668,31525
5,99112,33345
5,99557,32845
6,00000,32983
6,00445,33081
6,00888,32994
6,01333,32623
6,01777,32761
6,02222,33358
6,02665,31562
6,03110,32647
6,03553,31705
6,03998,31174
6,04442,30952
6,04887,31613
6,05330,30900
6,05775,31324
6,06218,31412
6,06663,31850
6,07107,31076
6,07552,31490
6,07997,30564
6,08440,30606
6,08885,31557
6,09328,31424
6,09773,31314
6,10217,30633
6,10662,30312
6,11105,31653
6,11550,31093
6,11993,30514
6,12438,32482
6,12882,31560
6,13327,32159
6,13770,32340
6,14215,31908
6,14658,31826
6,15103,31357
6,15547,32562
6,15992,30570
6,16435,31700
6,16880,29834
6,17323,30640
6,17768,31067
6,18212,29455
6,18657,30780
6,19100,30019
6,19545,29211
6,19988,29706
6,20433,30066
6,20878,29893
6,21322,28183
6,21767,30258
6,22210,28349
6,22655,28954
6,23098,28109
6,23543,29081
6,23987,27867
6,24432,27138
6,24875,27598
6,25320,27884
6,25763,27866
6,26208,27186
6,26652,26927
6,27097,27593
6,27540,25754
6,27985,26713
6,28428,27215
6,28873,27539
6,29317,26835
6,29762,26531
6,30205,26689
6,30650,25655
6,31093,26283
6,31538,26103
6,31982,25532
6,32427,24713
6,32872,26015
6,33315,25680
6,33760,26601
6,34203,25105
6,34648,23977
6,35092,25137
6,35537,25679
6,35980,26481
6,36425,25426
6,36868,25194
6,37313,25120
6,37757,24653
6,38202,26198
6,38645,25759
6,39090,23380
6,39533,24074
6,39978,25142
6,40422,25135
6,40867,25259
6,41310,24001
6,41755,24886
6,42198,25004
6,42643,25972
6,43087,24931
6,43532,25321
6,43975,24575
6,44420,25064
6,44865,24756
6,45308,26798
6,45753,26074
6,46197,29727
6,46642,34499
6,47085,47885
6,47530,68463
6,47973,100219
6,48418,149998
6,48862,207866
6,49307,274305
6,49750,335376
6,50195,389018
6,50638,423719
6,51083,453680
6,51527,459324
6,51972,458781
6,52415,449412
6,52860,439326
6,53303,417042
6,53748,397658
6,54192,383348
6,54637,368023
6,55080,350198
6,55525,333678
6,55968,314889
6,56413,302312
6,56858,290335
6,57302,273655
6,57747,258709
6,58190,249645
6,58635,235118
6,59078,221407
6,59523,212129
6,59967,199422
6,60412,189191
6,60855,178832
6,61300,163166
6,61743,156531
6,62188,150545
6,62632,145484
6,63077,132196
6,63520,124928
6,63965,119250
6,64408,110101
6,64853,103548
6,65297,95030
6,65742,92011
6,66185,85389
6,66630,79796
6,67073,73605
6,67518,68143
6,67962,63768
6,68407,58097
6,68852,54996
6,69295,49597
6,69740,49567
6,70183,45695
6,70628,43549
6,71072,41309
6,71517,38010
6,71960,37207
6,72405,34846
6,72848,33715
6,73293,32862
6,73737,31463
6,74182,29326
6,74625,29903
6,75070,26636
6,75513,27807
6,75958,27833
6,76402,26267
6,76847,25194
6,77290,23128
6,77735,24267
6,78178,24398
6,78623,23572
6,79067,23818
6,79512,23294
6,79955,22788
6,80400,22844
6,80845,22547
6,81288,22540
6,81733,22860
6,82177,21963
6,82622,22749
6,83065,21427
6,83510,22634
6,83953,21907
6,84398,21873
6,84842,21677
6,85287,21767
6,85730,20558
6,86175,20946
6,86618,21302
6,87063,21005
6,87507,19975
6,87952,20516
6,88395,22623
6,88840,21234
6,89283,21151
6,89728,20915
6,90172,20145
6,90617,20154
6,91060,21702
6,91505,20004
6,91948,20475
6,92393,21908
6,92837,20650
6,93282,20702
6,93727,20774
6,94170,20065
6,94615,21142
6,95058,19288
6,95503,20236
6,95947,19629
6,96392,19493
6,96835,20056
6,97280,20564
6,97723,20807
6,98168,19685
6,98612,19518
6,99057,19074
6,99500,18766
6,99945,20256
7,00388,19234
7,00833,18920
7,01277,18742
7,01722,17607
7,02165,17866
7,02610,18576
7,03053,19510
7,03498,18441
7,03942,18508
7,04387,19357
7,04830,19009
7,05275,18915
7,05720,18853
7,06163,18807
7,06608,17705
7,07052,19007
7,07497,18660
7,07940,18774
7,08385,17575
7,08828,17608
7,09273,18796
7,09717,17862
7,10162,18242
7,10605,18376
7,11050,18657
7,11493,18308
7,11938,17407
7,12382,17909
7,12827,17593
7,13270,17521
7,13715,17907
7,14158,17847
7,14603,16978
7,15047,19259
7,15492,18359
7,15935,17450
7,16380,18478
7,16823,18955
7,17268,17037
7,17713,17552
7,18157,17856
7,18602,17682
7,19045,18882
7,19490,17860
7,19933,17318
7,20378,16825
7,20822,17073
7,21267,17004
7,21710,18617
7,22155,18285
7,22598,17454
7,23043,18088
7,23487,17508
7,23932,17789
7,24375,16873
7,24820,18255
7,25263,18543
7,25708,17242
7,26152,18382
7,26597,20911
7,27040,24443
7,27485,32464
7,27928,46211
7,28373,63132
7,28817,89797
7,29262,120743
7,29707,158760
7,30150,192334
7,30595,222401
7,31038,254303
7,31483,270520
7,31927,282402
7,32372,290353
7,32815,291887
7,33260,286457
7,33703,273955
7,34148,263622
7,34592,259994
7,35037,243804
7,35480,236032
7,35925,222879
7,36368,210817
7,36813,200156
7,37257,191809
7,37702,182235
7,38145,168778
7,38590,159246
7,39033,148458
7,39478,140479
7,39922,133275
7,40367,124593
7,40810,117261
7,41255,109726
7,41700,100733
7,42143,98376
7,42588,88422
7,43032,84353
7,43477,79012
7,43920,72652
7,44365,64135
7,44808,60466
7,45253,57627
7,45697,53074
7,46142,50054
7,46585,45185
7,47030,43007
7,47473,37706
7,47918,35998
7,48362,33982
7,48807,31155
7,49250,28906
7,49695,29398
7,50138,25405
7,50583,25069
7,51027,24138
7,51472,23668
7,51915,23414
7,52360,21421
7,52803,21446
7,53248,21163
7,53693,20729
7,54137,21122
7,54582,20037
7,55025,19601
7,55470,18897
7,55913,18106
7,56358,18151
7,56802,17907
7,57247,18330
7,57690,18836
7,58135,17391
7,58578,17786
7,59023,16666
7,59467,16468
7,59912,17426
7,60355,16662
7,60800,17097
7,61243,16487
7,61688,17466
7,62132,17857
7,62577,16698
7,63020,16908
7,63465,18174
7,63908,18554
7,64353,17847
7,64797,18280
7,65242,18109
7,65685,18346
7,66130,18919
7,66575,18961
7,67018,17283
7,67463,17995
7,67907,17706
7,68352,17993
7,68795,17236
7,69240,18421
7,69683,17520
7,70128,16834
7,70572,17634
7,71017,17587
7,71460,17666
7,71905,16276
7,72348,16271
7,72793,17889
7,73237,16551
7,73682,16009
7,74125,15681
7,74570,15059
7,75013,15954
7,75458,16094
7,75902,15731
7,76347,15952
7,76790,14525
7,77235,14795
7,77678,15524
7,78123,14328
7,78568,15338
7,79012,15241
7,79457,15508
7,79900,14159
7,80345,15092
7,80788,14904
7,81233,14284
7,81677,14625
7,82122,15321
7,82565,14893
7,83010,14738
7,83453,14800
7,83898,14585
7,84342,14097
7,84787,14776
7,85230,13759
7,85675,13864
7,86118,13719
7,86563,14179
7,87007,14081
7,87452,13862
7,87895,14162
7,88340,14631
7,88783,13638
7,89228,14672
7,89672,15025
7,90117,13926
7,90562,14150
7,91005,14298
7,91450,14410
7,91893,13659
7,92338,14623
7,92782,13177
7,93227,14195
7,93670,13527
7,94115,13633
7,94558,13223
7,95003,13626
7,95447,14647
7,95892,13759
7,96335,14060
7,96780,14163
7,97223,14158
7,97668,13906
7,98112,13476
7,98557,13736
7,99000,14562
7,99445,13659
7,99888,13381
8,00333,13631
8,00777,13863
8,01222,14300
8,01665,14105
8,02110,13484
8,02555,13767
8,02998,13803
8,03443,13121
8,03887,13756
8,04332,14468
8,04775,13834
8,05220,13547
8,05663,13908
8,06108,14323
8,06552,13294
8,06997,13289
8,07440,13091
8,07885,13250
8,08328,13679
8,08773,13519
8,09217,13590
8,09662,13990
8,10105,13670
8,10550,13261
8,10993,12725
8,11438,14392
8,11882,13517
8,12327,12797
8,12770,13307
8,13215,13900
8,13658,12607
8,14103,13644
8,14548,13614
8,14992,14044
8,15437,13336
8,15880,13434
8,16325,13553
8,16768,13484
8,17213,13413
8,17657,12923
8,18102,12664
8,18545,12283
8,18990,13788
8,19433,13269
8,19878,13157
8,20322,13268
8,20767,12283
8,21210,13915
8,21655,13192
8,22098,13195
8,22543,13196
8,22987,13929
8,23432,14662
8,23875,15258
8,24320,20395
8,24763,27554
8,25208,38326
8,25652,59551
8,26097,91090
8,26542,136697
8,26985,196125
8,27430,264778
8,27873,341245
8,28318,422635
8,28762,496397
8,29207,561404
8,29650,620928
8,30095,642144
8,30538,672857
8,30983,676176
8,31427,671764
8,31872,650633
8,32315,634587
8,32760,603422
8,33203,581492
8,33648,547336
8,34092,517778
8,34537,491012
8,34980,452386
8,35425,429128
8,35868,399340
8,36313,371506
8,36757,343702
8,37202,319103
8,37645,290422
8,38090,269426
8,38533,248048
8,38978,223612
8,39423,200011
8,39867,185563
8,40312,169583
8,40755,150801
8,41200,134159
8,41643,122251
8,42088,107624
8,42532,95251
8,42977,86177
8,43420,76157
8,43865,70419
8,44308,61692
8,44753,54866
8,45197,49855
8,45642,45985
8,46085,42921
8,46530,39150
8,46973,36052
8,47418,33819
8,47862,33246
8,48307,30614
8,48750,27957
8,49195,26986
8,49638,24781
8,50083,24035
8,50527,23166
8,50972,21397
8,51417,20800
8,51860,20617
8,52305,19509
8,52748,19516
8,53193,18658
8,53637,19218
8,54082,16372
8,54525,17665
8,54970,16786
8,55413,16327
8,55858,15541
8,56302,17158
8,56747,16673
8,57190,15913
8,57635,16122
8,58078,14150
8,58523,16031
8,58967,15371
8,59412,15324
8,59855,13730
8,60300,13757
8,60743,15478
8,61188,13674
8,61632,14116
8,62077,13035
8,62520,13887
8,62965,13727
8,63410,13903
8,63853,13646
8,64298,14229
8,64742,13480
8,65187,13633
8,65630,14434
8,66075,13454
8,66518,14048
8,66963,14772
8,67407,12891
8,67852,13831
8,68295,12579
8,68740,14692
8,69183,13816
8,69628,13301
8,70072,12903
8,70517,13495
8,70960,13414
8,71405,12917
8,71848,13067
8,72293,12766
8,72737,12834
8,73182,11613
8,73625,13024
8,74070,12216
8,74513,11349
8,74958,12585
8,75403,11197
8,75847,12689
8,76292,13547
8,76735,12287
8,77180,11770
8,77623,11960
8,78068,12705
8,78512,11960
8,78957,12234
8,79400,11608
8,79845,11793
8,80288,11665
8,80733,12004
8,81177,11360
8,81622,11296
8,82065,12608
8,82510,11347
8,82953,12496
8,83398,11205
8,83842,12135
8,84287,11756
8,84730,12140
8,85175,12731
8,85618,12380
8,86063,10493
8,86507,12240
8,86952,11652
8,87397,13373
8,87840,11529
8,88285,11372
8,88728,12208
8,89173,10177
8,89617,11842
8,90062,11861
8,90505,12553
8,90950,11678
8,91393,11167
8,91838,11732
8,92282,10861
8,92727,12094
8,93170,11125
8,93615,10858
8,94058,11380
8,94503,11544
8,94947,12305
8,95392,11427
8,95835,11691
8,96280,12845
8,96723,11562
8,97168,11396
8,97612,11324
8,98057,10635
8,98500,10510
8,98945,11360
8,99390,11494
8,99833,10468
9,00278,10738
9,00722,11880
9,01167,10890
9,01610,11815
9,02055,11542
9,02498,11116
9,02943,10946
9,03387,11347
9,03832,10520
9,04275,11122
9,04720,10765
9,05163,10389
9,05608,11003
9,06052,10573
9,06497,11382
9,06940,10786
9,07385,10819
9,07828,11392
9,08273,12384
9,08717,11994
9,09162,12242
9,09605,11541
9,10050,12682
9,10493,12206
9,10938,13203
9,11382,13693
9,11827,14038
9,12272,14208
9,12715,15297
9,13160,15172
9,13603,14793
9,14048,14356
9,14492,14103
9,14937,14111
9,15380,15526
9,15825,14100
9,16268,14472
9,16713,14422
9,17157,13950
9,17602,14059
9,18045,13880
9,18490,13986
9,18933,13432
9,19378,14165
9,19822,12380
9,20267,13217
9,20710,12150
9,21155,11929
9,21598,13301
9,22043,11878
9,22487,11247
9,22932,11961
9,23375,11134
9,23820,12016
9,24265,11589
9,24708,11799
9,25153,12218
9,25597,10352
9,26042,11643
9,26485,11193
9,26930,11181
9,27373,11779
9,27818,11506
9,28262,11041
9,28707,10471
9,29150,11328
9,29595,10571
9,30038,10629
9,30483,11054
9,30927,10561
9,31372,11881
9,31815,10804
9,32260,10646
9,32703,10665
9,33148,10426
9,33592,10150
9,34037,10486
9,34480,10639
9,34925,10688
9,35368,9929
9,35813,10040
9,36258,10804
9,36702,10828
9,37147,9857
9,37590,9422
9,38035,12326
9,38478,12291
9,38923,15175
9,39367,18904
9,39812,25880
9,40255,37456
9,40700,54390
9,41143,77412
9,41588,111719
9,42032,144670
9,42477,188833
9,42920,230989
9,43365,275229
9,43808,317647
9,44253,355327
9,44697,377853
9,45142,395425
9,45585,397259
9,46030,397960
9,46473,391596
9,46918,380650
9,47362,370742
9,47807,351774
9,48252,332341
9,48695,311214
9,49140,289113
9,49583,254747
9,50028,245689
9,50472,225192
9,50917,204311
9,51360,182307
9,51805,166757
9,52248,149822
9,52693,134289
9,53137,120378
9,53582,105847
9,54025,93194
9,54470,83677
9,54913,72349
9,55358,65394
9,55802,59359
9,56247,51650
9,56690,45540
9,57135,40800
9,57578,36484
9,58023,32533
9,58467,30596
9,58912,28957
9,59355,26089
9,59800,25120
9,60245,22563
9,60688,21743
9,61133,22127
9,61577,20191
9,62022,18137
9,62465,17683
9,62910,17498
9,63353,14863
9,63798,15017
9,64242,15472
9,64687,14219
9,65130,14253
9,65575,15478
9,66018,12950
9,66463,13454
9,66907,14377
9,67352,13079
9,67795,13569
9,68240,12175
9,68683,11554
9,69128,12667
9,69572,11657
9,70017,11111
9,70460,12240
9,70905,12855
9,71348,10486
9,71793,12674
9,72238,10774
9,72682,10989
9,73127,11440
9,73570,11898
9,74015,10071
9,74458,10822
9,74903,10668
9,75347,11446
9,75792,10716
9,76235,10396
9,76680,11721
9,77123,10769
9,77568,8921
9,78012,10677
9,78457,10956
9,78900,10392
9,79345,10189
9,79788,10368
9,80233,10051
9,80677,11444
9,81122,10410
9,81565,10190
9,82010,9839
9,82453,9508
9,82898,10446
9,83342,9821
9,83787,10069
9,84230,10208
9,84675,10489
9,85120,9659
9,85563,8908
9,86008,10207
9,86452,9411
9,86897,9902
9,87340,9612
9,87785,9410
9,88228,9575
9,88673,10006
9,89117,8542
9,89562,10209
9,90005,9971
9,90450,9508
9,90893,9602
9,91338,9996
9,91782,9574
9,92227,9570
9,92670,9033
9,93115,10328
9,93558,9717
9,94003,9375
9,94447,10002
9,94892,9279
9,95335,8772
9,95780,9329
9,96223,9087
9,96668,10153
9,97113,9549
9,97557,9649
9,98002,9528
9,98445,9687
9,98890,9402
9,99333,9763
9,99778,9035
10,00222,8581
10,00667,9354
10,01110,10371
10,01555,10226
10,01998,9104
10,02443,9927
10,02887,9583
10,03332,9538
10,03775,9909
10,04220,9680
10,04663,10174
10,05108,10389
10,05552,10760
10,05997,10021
10,06440,10570
10,06885,11176
10,07328,11284
10,07773,11526
10,08217,11562
10,08662,10110
10,09107,10069
10,09550,10762
10,09995,10470
10,10438,10687
10,10883,10464
10,11327,10380
10,11772,10608
10,12215,10186
10,12660,11243
10,13103,11018
10,13548,9511
10,13992,9478
10,14437,9469
10,14880,9526
10,15325,9005
10,15768,9500
10,16213,10402
10,16657,8900
10,17102,9656
10,17545,8796
10,17990,9346
10,18433,8789
10,18878,8958
10,19322,9464
10,19767,8963
10,20210,8793
10,20655,8952
10,21100,8968
10,21543,9449
10,21988,8976
10,22432,10202
10,22877,9047
10,23320,8903
10,23765,9548
10,24208,9261
10,24653,9310
10,25097,8510
10,25542,8870
10,25985,9252
10,26430,9344
10,26873,9243
10,27318,10643
10,27762,11603
10,28207,9985
10,28650,10106
10,29095,9641
10,29538,9332
10,29983,9369
10,30427,10482
10,30872,10181
10,31315,10527
10,31760,9934
10,32203,9948
10,32648,10549
10,33093,10275
10,33537,9381
10,33982,9522
10,34425,9259
10,34870,9579
10,35313,9048
10,35758,8740
10,36202,10667
10,36647,9764
10,37090,9781
10,37535,9254
10,37978,9665
10,38423,9881
10,38867,8895
10,39312,8410
10,39755,9218
10,40200,8936
10,40643,9116
10,41088,9623
10,41532,9477
10,41977,8603
10,42420,8436
10,42865,8576
10,43308,9211
10,43753,9643
10,44197,9163
10,44642,10219
10,45087,9708
10,45530,9289
10,45975,8866
10,46418,8422
10,46863,8875
10,47307,8808
10,47752,9014
10,48195,8757
10,48640,9291
10,49083,8826
10,49528,8568
10,49972,8618
10,50417,9685
10,50860,9130
10,51305,8730
10,51748,8222
10,52193,8881
10,52637,9852
10,53082,8552
10,53525,9314
10,53970,8744
10,54413,8380
10,54858,8135
10,55302,8642
10,55747,9604
10,56190,8564
10,56635,8795
10,57078,8667
10,57523,8835
10,57968,8651
10,58412,9369
10,58857,8875
10,59300,8938
10,59745,9149
10,60188,9158
10,60633,9190
10,61077,8266
10,61522,9276
10,61965,8288
10,62410,8764
10,62853,8553
10,63298,8533
10,63742,9189
10,64187,8628
10,64630,8462
10,65075,9015
10,65518,8330
10,65963,9238
10,66407,10066
10,66852,12324
10,67295,16329
10,67740,23121
10,68183,36791
10,68628,58075
10,69072,86160
10,69517,131770
10,69962,189309
10,70405,260537
10,70850,350875
10,71293,445352
10,71738,551006
10,72182,649563
10,72627,741732
10,73070,817824
10,73515,875653
10,73958,921990
10,74403,941664
10,74847,948062
10,75292,917845
10,75735,899160
10,76180,854433
10,76623,791092
10,77068,746431
10,77512,668627
10,77957,611424
10,78400,547811
10,78845,485994
10,79288,432082
10,79733,379039
10,80177,327023
10,80622,286197
10,81065,248804
10,81510,211411
10,81955,181433
10,82398,153963
10,82843,137667
10,83287,120584
10,83732,104963
10,84175,90916
10,84620,76894
10,85063,69932
10,85508,62012
10,85952,55120
10,86397,51707
10,86840,43867
10,87285,42249
10,87728,39876
10,88173,35763
10,88617,32434
10,89062,32365
10,89505,29890
10,89950,28931
10,90393,25514
10,90838,24303
10,91282,24008
10,91727,21856
10,92170,20652
10,92615,19818
10,93058,19396
10,93503,17579
10,93948,17478
10,94392,16749
10,94837,16769
10,95280,17350
10,95725,16613
10,96168,15761
10,96613,15448
10,97057,15296
10,97502,15620
10,97945,14778
10,98390,14947
10,98833,14726
10,99278,13513
10,99722,14497
11,00167,16216
11,00610,16112
11,01055,14770
11,01498,14253
11,01943,14796
11,02387,13821
11,02832,14278
11,03275,13019
11,03720,12986
11,04163,13424
11,04608,12729
11,05052,12709
11,05497,11777
11,05942,12125
11,06385,12098
11,06830,11292
11,07273,10508
11,07718,11016
11,08162,10300
11,08607,11203
11,09050,10961
11,09495,10400
11,09938,9881
11,10383,9770
11,10827,9896
11,11272,9879
11,11715,10185
11,12160,8995
11,12603,9182
11,13048,8293
11,13492,9248
11,13937,9252
11,14380,9687
11,14825,9136
11,15268,8935
11,15713,9433
11,16157,8479
11,16602,8183
11,17045,9610
11,17490,9315
11,17935,8977
11,18378,9549
11,18823,9348
11,19267,8866
11,19712,9530
11,20155,8620
11,20600,9144
11,21043,8316
11,21488,9084
11,21932,9088
11,22377,9293
11,22820,7964
11,23265,8240
11,23708,9068
11,24153,8031
11,24597,9033
11,25042,8821
11,25485,8683
11,25930,8234
11,26373,8992
11,26818,7868
11,27262,8765
11,27707,8775
11,28150,7901
11,28595,8055
11,29038,9493
11,29483,7906
11,29927,7553
11,30372,8521
11,30817,8457
11,31260,8921
11,31705,7379
11,32148,8376
11,32593,8981
11,33037,8670
11,33482,7554
11,33925,9198
11,34370,8179
11,34813,8093
11,35258,7990
11,35702,7014
11,36147,8155
11,36590,7970
11,37035,8037
11,37478,7794
11,37923,8420
11,38367,7892
11,38812,8661
11,39255,8748
11,39700,8752
11,40143,8659
11,40588,9018
11,41032,9364
11,41477,8802
11,41920,8851
11,42365,9316
11,42810,9573
11,43253,8943
11,43698,9216
11,44142,8613
11,44587,8394
11,45030,8583
11,45475,8679
11,45918,8609
11,46363,8791
11,46807,8922
11,47252,8880
11,47695,8293
11,48140,8903
11,48583,8795
11,49028,7796
11,49472,8018
11,49917,8093
11,50360,8963
11,50805,7594
11,51248,7802
11,51693,8776
11,52137,8169
11,52582,8001
11,53025,8060
11,53470,7435
11,53913,8773
11,54358,8733
11,54803,8352
11,55247,8158
11,55692,8003
11,56135,8157
11,56580,7475
11,57023,7714
11,57468,7494
11,57912,7843
11,58357,8180
11,58800,8264
11,59245,8765
11,59688,8761
11,60133,9475
11,60577,8964
11,61022,10370
11,61465,9252
11,61910,9190
11,62353,8969
11,62798,8291
11,63242,7598
11,63687,8201
11,64130,9111
11,64575,9131
11,65018,9086
11,65463,11721
11,65907,14417
11,66352,23562
11,66797,34487
11,67240,50708
11,67685,73184
11,68128,101846
11,68573,134773
11,69017,181864
11,69462,230256
11,69905,281875
11,70350,326974
11,70793,371999
11,71238,404468
11,71682,436036
11,72127,444472
11,72570,447809
11,73015,444642
11,73458,436002
11,73903,414212
11,74347,392283
11,74792,366326
11,75235,330400
11,75680,301320
11,76123,268285
11,76568,232087
11,77012,205279
11,77457,181143
11,77900,160538
11,78345,135674
11,78790,117092
11,79233,101636
11,79678,87357
11,80122,76130
11,80567,66366
11,81010,60323
11,81455,51202
11,81898,46378
11,82343,41223
11,82787,37152
11,83232,32252
11,83675,28603
11,84120,27731
11,84563,26694
11,85008,22517
11,85452,20647
11,85897,20464
11,86340,19876
11,86785,17586
11,87228,16979
11,87673,17158
11,88117,15201
11,88562,16184
11,89005,14420
11,89450,13752
11,89893,12595
11,90338,13439
11,90782,12657
11,91227,11409
11,91672,12230
11,92115,11977
11,92560,10595
11,93003,10940
11,93448,8773
11,93892,10020
11,94337,9856
11,94780,9620
11,95225,9384
11,95668,10827
11,96113,9469
11,96557,8303
11,97002,9351
11,97445,9623
11,97890,8679
11,98333,8709
11,98778,9175
11,99222,9398
11,99667,8456
12,00110,8165
12,00555,7173
12,00998,7979
12,01443,8038
12,01887,8313
12,02332,7771
12,02775,8117
12,03220,8853
12,03665,8362
12,04108,8393
12,04553,8610
12,04997,9231
12,05442,9587
12,05885,9958
12,06330,13277
12,06773,16743
12,07218,26033
12,07662,37345
12,08107,56920
12,08550,79858
12,08995,113262
12,09438,154890
12,09883,206614
12,10327,256819
12,10772,311351
12,11215,369490
12,11660,414444
12,12103,463048
12,12548,488225
12,12992,505349
12,13437,522747
12,13880,516067
12,14325,502153
12,14768,475480
12,15213,441336
12,15658,404083
12,16102,368914
12,16547,325971
12,16990,286948
12,17435,254847
12,17878,216198
12,18323,182200
12,18767,157777
12,19212,134524
12,19655,112447
12,20100,97967
12,20543,84541
12,20988,73843
12,21432,64462
12,21877,53722
12,22320,48906
12,22765,44670
12,23208,39497
12,23653,35388
12,24097,31723
12,24542,30165
12,24985,27591
12,25430,24579
12,25873,23850
12,26318,21792
12,26762,21703
12,27207,19753
12,27652,17899
12,28095,17483
12,28540,16359
12,28983,17176
12,29428,15164
12,29872,14370
12,30317,13303
12,30760,14396
12,31205,12876
12,31648,13300
12,32093,13560
12,32537,12509
12,32982,11264
12,33425,11061
12,33870,11257
12,34313,10381
12,34758,11257
12,35202,11343
12,35647,9653
12,36090,10123
12,36535,9566
12,36978,9309
12,37423,9129
12,37867,9802
12,38312,8751
12,38755,9017
12,39200,9635
12,39645,9240
12,40088,8412
12,40533,9134
12,40977,9296
12,41422,7941
12,41865,9128
12,42310,7909
12,42753,8475
12,43198,8628
12,43642,8272
12,44087,8980
12,44530,8104
12,44975,7574
12,45418,7873
12,45863,8418
12,46307,7619
12,46752,8010
12,47195,7754
12,47640,7286
12,48083,8389
12,48528,7610
12,48972,6829
12,49417,8343
12,49860,7351
12,50305,7718
12,50748,8027
12,51193,7431
12,51638,8424
12,52082,7454
12,52527,7000
12,52970,7382
12,53415,7172
12,53858,7379
12,54303,7341
12,54747,7282
12,55192,7462
12,55635,7831
12,56080,8173
12,56523,7216
12,56968,7372
12,57412,7871
12,57857,8047
12,58300,7781
12,58745,8226
12,59188,7925
12,59633,7388
12,60077,7282
12,60522,7643
12,60965,6884
12,61410,7690
12,61853,8126
12,62298,7759
12,62742,7848
12,63187,7910
12,63630,6741
12,64075,8094
12,64520,7780
12,64963,7541
12,65408,7052
12,65852,7556
12,66297,7917
12,66740,8117
12,67185,7797
12,67628,7106
12,68073,7448
12,68517,6734
12,68962,7203
12,69405,6974
12,69850,7771
12,70293,7856
12,70738,7310
12,71182,6912
12,71627,7729
12,72070,7153
12,72515,7110
12,72958,6636
12,73403,7842
12,73847,6808
12,74292,7343
12,74735,7674
12,75180,7191
12,75623,7737
12,76068,6776
12,76513,6977
12,76957,6785
12,77402,8021
12,77845,7363
12,78290,6625
12,78733,7604
12,79178,7099
12,79622,7262
12,80067,6808
12,80510,7462
12,80955,6928
12,81398,7203
12,81843,7532
12,82287,7601
12,82732,7268
12,83175,6550
12,83620,6982
12,84063,7141
12,84508,6367
12,84952,8323
12,85397,7228
12,85840,7412
12,86285,6885
12,86728,7110
12,87173,6871
12,87617,7045
12,88062,8016
12,88507,7194
12,88950,6660
12,89395,7450
12,89838,7078
12,90283,6836
12,90727,7251
12,91172,7577
12,91615,7278
12,92060,6983
12,92503,7893
12,92948,7060
12,93392,6428
12,93837,7850
12,94280,7142
12,94725,6417
12,95168,7146
12,95613,7215
12,96057,6395
12,96502,7460
12,96945,7122
12,97390,7437
12,97833,6958
12,98278,7092
12,98722,7308
12,99167,7012
12,99610,6567
13,00055,6694
13,00500,7477
13,00943,6406
13,01388,6958
13,01832,7026
13,02277,7396
13,02720,7140
13,03165,7148
13,03608,7659
13,04053,7546
13,04497,6970
13,04942,6910
13,05385,6730
13,05830,7236
13,06273,7319
13,06718,7275
13,07162,7761
13,07607,7957
13,08050,6898
13,08495,6787
13,08938,7906
13,09383,8382
13,09827,11041
13,10272,14260
13,10715,18287
13,11160,26741
13,11603,40967
13,12048,62051
13,12493,88307
13,12937,121071
13,13382,164855
13,13825,213751
13,14270,270289
13,14713,322414
13,15158,376811
13,15602,429466
13,16047,461184
13,16490,490281
13,16935,505828
13,17378,507110
13,17823,498944
13,18267,479308
13,18712,448184
13,19155,407126
13,19600,373627
13,20043,330519
13,20488,289249
13,20932,250534
13,21377,218233
13,21820,185784
13,22265,158270
13,22708,134533
13,23153,113740
13,23597,99566
13,24042,86810
13,24487,74231
13,24930,64561
13,25375,55763
13,25818,52240
13,26263,42704
13,26707,39772
13,27152,35607
13,27595,30884
13,28040,27976
13,28483,26313
13,28928,25278
13,29372,22527
13,29817,21604
13,30260,19409
13,30705,18952
13,31148,17427
13,31593,15414
13,32037,15801
13,32482,14016
13,32925,15127
13,33370,13970
13,33813,13856
13,34258,12300
13,34702,11470
13,35147,12003
13,35590,11122
13,36035,11249
13,36478,9697
13,36923,9836
13,37368,9541
13,37812,10126
13,38257,8309
13,38700,9433
13,39145,9464
13,39588,9024
13,40033,8384
13,40477,9611
13,40922,8678
13,41365,8289
13,41810,8930
13,42253,9733
13,42698,7834
13,43142,8471
13,43587,7889
13,44030,8556
13,44475,8533
13,44918,7981
13,45363,7547
13,45807,7928
13,46252,7780
13,46695,7022
13,47140,7839
13,47583,7435
13,48028,7328
13,48472,7423
13,48917,6930
13,49362,6743
13,49805,8156
13,50250,7922
13,50693,8724
13,51138,10865
13,51582,16732
13,52027,24581
13,52470,37725
13,52915,58461
13,53358,92913
13,53803,136820
13,54247,204098
13,54692,289401
13,55135,390526
13,55580,512656
13,56023,663011
13,56468,825553
13,56912,985714
13,57357,1155018
13,57800,1327132
13,58245,1488267
13,58688,1617809
13,59133,1720738
13,59577,1746969
13,60022,1773028
13,60465,1719678
13,60910,1617379
13,61355,1489570
13,61798,1336850
13,62243,1146290
13,62687,991667
13,63132,839104
13,63575,697290
13,64020,580404
13,64463,475742
13,64908,399147
13,65352,327319
13,65797,282919
13,66240,239395
13,66685,207147
13,67128,174892
13,67573,150489
13,68017,133444
13,68462,118150
13,68905,101755
13,69350,94871
13,69793,83700
13,70238,78240
13,70682,70017
13,71127,63499
13,71570,57508
13,72015,53000
13,72458,52146
13,72903,47887
13,73348,42780
13,73792,40642
13,74237,38498
13,74680,36243
13,75125,34725
13,75568,32722
13,76013,30845
13,76457,28014
13,76902,28033
13,77345,25791
13,77790,24405
13,78233,24881
13,78678,24630
13,79122,21829
13,79567,22371
13,80010,21457
13,80455,19754
13,80898,17529
13,81343,17434
13,81787,16998
13,82232,17120
13,82675,16348
13,83120,15457
13,83563,16216
13,84008,15794
13,84452,14592
13,84897,15429
13,85342,13230
13,85785,13578
13,86230,14960
13,86673,12243
13,87118,11514
13,87562,13175
13,88007,11839
13,88450,11579
13,88895,10996
13,89338,10812
13,89783,11306
13,90227,10977
13,90672,11639
13,91115,10610
13,91560,10729
13,92003,9714
13,92448,10367
13,92892,9546
13,93337,10631
13,93780,8956
13,94225,9399
13,94668,9623
13,95113,8676
13,95557,8557
13,96002,9893
13,96445,9614
13,96890,9000
13,97335,8775
13,97778,8370
13,98223,8776
13,98667,8814
13,99112,8569
13,99555,8168
14,00000,7638
14,00443,7618
14,00888,7951
14,01332,8564
14,01777,8088
14,02220,8560
14,02665,7154
14,03108,8025
14,03553,7804
14,03997,7678
14,04442,7734
14,04885,7738
14,05330,8648
14,05773,7655
14,06218,6624
14,06662,8463
14,07107,7756
14,07550,8104
14,07995,8260
14,08438,7154
14,08883,6950
14,09327,8111
14,09772,7383
14,10217,6847
14,10660,7286
14,11105,8162
14,11548,8496
14,11993,7307
14,12437,8001
14,12882,7316
14,13325,7232
14,13770,7288
14,14213,7189
14,14658,7497
14,15102,8620
14,15547,7408
14,15990,7723
14,16435,8291
14,16878,8513
14,17323,8246
14,17767,8134
14,18212,7445
14,18655,7758
14,19100,7632
14,19543,7243
14,19988,7471
14,20432,7389
14,20877,7017
14,21320,7283
14,21765,7326
14,22210,7059
14,22653,7142
14,23098,6499
14,23542,7113
14,23987,7624
14,24430,6652
14,24875,6968
14,25318,7467
14,25763,7537
14,26207,6848
14,26652,8054
14,27095,7359
14,27540,7460
14,27983,7433
14,28428,7853
14,28872,7624
14,29317,7248
14,29760,7252
14,30205,8206
14,30648,7790
14,31093,7592
14,31537,8198
14,31982,7452
14,32425,7118
14,32870,7372
14,33313,8296
14,33758,7457
14,34203,7767
14,34647,8460
14,35092,7903
14,35535,7495
14,35980,8669
14,36423,9554
14,36868,8593
14,37312,11010
14,37757,11719
14,38200,12668
14,38645,14480
14,39088,17037
14,39533,21812
14,39977,28342
14,40422,41453
14,40865,57256
14,41310,83608
14,41753,116990
14,42198,154488
14,42642,209011
14,43087,256880
14,43530,322857
14,43975,375906
14,44418,429548
14,44863,476984
14,45307,519852
14,45752,542485
14,46197,537945
14,46640,533696
14,47085,507963
14,47528,473814
14,47973,432573
14,48417,389766
14,48862,339957
14,49305,297805
14,49750,253814
14,50193,217530
14,50638,183510
14,51082,154626
14,51527,132587
14,51970,110530
14,52415,92931
14,52858,82046
14,53303,73912
14,53747,65755
14,54192,55218
14,54635,48712
14,55080,42559
14,55523,39033
14,55968,34833
14,56412,32087
14,56857,31895
14,57300,26592
14,57745,25057
14,58190,23823
14,58633,21493
14,59078,20489
14,59522,19762
14,59967,18959
14,60410,18432
14,60855,15688
14,61298,16261
14,61743,16104
14,62187,15665
14,62632,14529
14,63075,15440
14,63520,15568
14,63963,13878
14,64408,14816
14,64852,14459
14,65297,14699
14,65740,13404
14,66185,14331
14,66628,15649
14,67073,13926
14,67517,13609
14,67962,12509
14,68405,11808
14,68850,11255
14,69293,11857
14,69738,9997
14,70183,10389
14,70627,9455
14,71072,9551
14,71515,8749
14,71960,9416
14,72403,9192
14,72848,8057
14,73292,8762
14,73737,8673
14,74180,6961
14,74625,8124
14,75068,7465
14,75513,6378
14,75957,8098
14,76402,7192
14,76845,7393
14,77290,7269
14,77733,7252
14,78178,6956
14,78622,7392
14,79067,6825
14,79510,7818
14,79955,7813
14,80398,7305
14,80843,6879
14,81287,7149
14,81732,7492
14,82175,7196
14,82620,6567
14,83065,6970
14,83508,7074
14,83953,8883
14,84397,8842
14,84842,9527
14,85285,9402
14,85730,8824
14,86173,8538
14,86618,7906
14,87062,7973
14,87507,7257
14,87950,7447
14,88395,7503
14,88838,6058
14,89283,6702
14,89727,7182
14,90172,7459
14,90615,6817
14,91060,6548
14,91503,5992
14,91948,6790
14,92392,6808
14,92837,6525
14,93280,6705
14,93725,7603
14,94168,6655
14,94613,6294
14,95058,7278
14,95502,7045
14,95947,6256
14,96390,7087
14,96835,6795
14,97278,6472
14,97723,7077
14,98167,6367
14,98612,6223
14,99055,7748
14,99500,7262
14,99943,8378
15,00388,9586
15,00832,12315
15,01277,18915
15,01720,26070
15,02165,38971
15,02608,58661
15,03053,86394
15,03497,123001
15,03942,168453
15,04385,225553
15,04830,291228
15,05273,357177
15,05718,423357
15,06162,487290
15,06607,543865
15,07052,583251
15,07495,625840
15,07940,620281
15,08383,598486
15,08828,572800
15,09272,533619
15,09717,482226
15,10160,428051
15,10605,376508
15,11048,321735
15,11493,266662
15,11937,226753
15,12382,190330
15,12825,159835
15,13270,131056
15,13713,111033
15,14158,97896
15,14602,81321
15,15047,70782
15,15490,59836
15,15935,56111
15,16378,48738
15,16823,41352
15,17267,38728
15,17712,35092
15,18155,32009
15,18600,29626
15,19045,27401
15,19488,26840
15,19933,24355
15,20377,23057
15,20822,20476
15,21265,19434
15,21710,20013
15,22153,17383
15,22598,17166
15,23042,16237
15,23487,15792
15,23930,15019
15,24375,15066
15,24818,13859
15,25263,13554
15,25707,13140
15,26152,13450
15,26595,12972
15,27040,12923
15,27483,12175
15,27928,11359
15,28372,11163
15,28817,11024
15,29260,10592
15,29705,9605
15,30148,10422
15,30593,9345
15,31038,10395
15,31482,8770
15,31927,8879
15,32370,8561
15,32815,9275
15,33258,8971
15,33703,9083
15,34147,8979
15,34592,8233
15,35035,8749
15,35480,8063
15,35923,7621
15,36368,8349
15,36812,7702
15,37257,8345
15,37700,7505
15,38145,7240
15,38588,7370
15,39033,7836
15,39477,7523
15,39922,6659
15,40365,6915
15,40810,6774
15,41253,7897
15,41698,6981
15,42142,7613
15,42587,6608
15,43032,7791
15,43475,7055
15,43920,6633
15,44363,7657
15,44808,6855
15,45252,6380
15,45697,6642
15,46140,7005
15,46585,6802
15,47028,7569
15,47473,7593
15,47917,6539
15,48362,6105
15,48805,7307
15,49250,6470
15,49693,6832
15,50138,6867
15,50582,7063
15,51027,6851
15,51470,6267
15,51915,7744
15,52358,7320
15,52803,6410
15,53247,7225
15,53692,6717
15,54135,6770
15,54580,6660
15,55023,7281
15,55468,6472
15,55913,6789
15,56357,7434
15,56802,7058
15,57245,7032
15,57690,7321
15,58133,6953
15,58578,6735
15,59022,7935
15,59467,6622
15,59910,6554
15,60355,7319
15,60798,7077
15,61243,6407
15,61687,6451
15,62132,6527
15,62575,6924
15,63020,6434
15,63463,6827
15,63908,6729
15,64352,6509
15,64797,6557
15,65240,6627
15,65685,7240
15,66128,6685
15,66573,6469
15,67017,6424
15,67462,6881
15,67907,5900
15,68350,6309
15,68795,6357
15,69238,7094
15,69683,6729
15,70127,6316
15,70572,6698
15,71015,5761
15,71460,6391
15,71903,6720
15,72348,6629
15,72792,5903
15,73237,6708
15,73680,5701
15,74125,6127
15,74568,6261
15,75013,6162
15,75457,6279
15,75902,5727
15,76345,6543
15,76790,6623
15,77233,6274
15,77678,6500
15,78122,6690
15,78567,6425
15,79010,6234
15,79455,6614
15,79900,7290
15,80343,7074
15,80788,6636
15,81232,6675
15,81677,6973
15,82120,6814
15,82565,5663
15,83008,7073
15,83453,6704
15,83897,6089
15,84342,6900
15,84785,7083
15,85230,6543
15,85673,6238
15,86118,6210
15,86562,6508
15,87007,7619
15,87450,7833
15,87895,7751
15,88338,10189
15,88783,10837
15,89227,16042
15,89672,22968
15,90115,34553
15,90560,51434
15,91003,76946
15,91448,108267
15,91893,148303
15,92337,199865
15,92782,261598
15,93225,316033
15,93670,384770
15,94113,449028
15,94558,505119
15,95002,549637
15,95447,576869
15,95890,594479
15,96335,587635
15,96778,564336
15,97223,523432
15,97667,477938
15,98112,424697
15,98555,370158
15,99000,319444
15,99443,274280
15,99888,228464
16,00332,199669
16,00777,165611
16,01220,137155
16,01665,118268
16,02108,98590
16,02553,86982
16,02997,72861
16,03442,63760
16,03887,59028
16,04330,48769
16,04775,46610
16,05218,39545
16,05663,39125
16,06107,35724
16,06552,32671
16,06995,32998
16,07440,32128
16,07883,30242
16,08328,30105
16,08772,27782
16,09217,28173
16,09660,28279
16,10105,28264
16,10548,25347
16,10993,23072
16,11437,22889
16,11882,23098
16,12325,21648
16,12770,23006
16,13213,20662
16,13658,18491
16,14102,18350
16,14547,16305
16,14990,16006
16,15435,15226
16,15880,14669
16,16323,14510
16,16768,13519
16,17212,12443
16,17657,12038
16,18100,11336
16,18545,10234
16,18988,11122
16,19433,9402
16,19877,11258
16,20322,8523
16,20765,8547
16,21210,9131
16,21653,8861
16,22098,8843
16,22542,7712
16,22987,7726
16,23430,8860
16,23875,7647
16,24318,8262
16,24763,6831
16,25207,7067
16,25652,7009
16,26095,6815
16,26540,7647
16,26983,7625
16,27428,7431
16,27872,7015
16,28317,8119
16,28762,7725
16,29205,6967
16,29650,6200
16,30093,7012
16,30538,6717
16,30982,7717
16,31427,6034
16,31870,6417
16,32315,7052
16,32758,7615
16,33203,7119
16,33647,7656
16,34092,6253
16,34535,6577
16,34980,7166
16,35423,6202
16,35868,8237
16,36312,6330
16,36757,6922
16,37200,6420
16,37645,7132
16,38088,7366
16,38533,6642
16,38977,6830
16,39422,6158
16,39865,6671
16,40310,6923
16,40755,6610
16,41198,7198
16,41643,6445
16,42087,6617
16,42532,6938
16,42975,6768
16,43420,7075
16,43863,6882
16,44308,6799
16,44752,7374
16,45197,7012
16,45640,6354
16,46085,6449
16,46528,6888
16,46973,6874
16,47417,6684
16,47862,6772
16,48305,6646
16,48750,7432
16,49193,7928
16,49638,10157
16,50082,11652
16,50527,18097
16,50970,24839
16,51415,38461
16,51858,60829
16,52303,88980
16,52748,132380
16,53192,182109
16,53637,253620
16,54080,337975
16,54525,432689
16,54968,537769
16,55413,659280
16,55857,792933
16,56302,925984
16,56745,1054715
16,57190,1163634
16,57633,1263942
16,58078,1325020
16,58522,1345161
16,58967,1294687
16,59410,1236883
16,59855,1130243
16,60298,1002256
16,60743,868945
16,61187,743434
16,61632,617693
16,62075,511596
16,62520,425258
16,62963,355133
16,63408,293027
16,63852,244932
16,64297,207719
16,64742,177305
16,65185,153131
16,65630,129629
16,66073,116593
16,66518,102956
16,66962,90678
16,67407,82977
16,67850,74791
16,68295,66537
16,68738,57158
16,69183,55958
16,69627,51198
16,70072,49133
16,70515,45469
16,70960,41208
16,71403,37914
16,71848,35803
16,72292,33494
16,72737,31079
16,73180,29878
16,73625,27854
16,74068,25367
16,74513,25525
16,74957,21572
16,75402,22083
16,75845,21349
16,76290,20478
16,76735,19361
16,77178,18914
16,77623,18917
16,78067,17364
16,78512,16098
16,78955,16873
16,79400,16167
16,79843,15502
16,80288,15073
16,80732,13225
16,81177,13205
16,81620,14234
16,82065,12621
16,82508,11912
16,82953,13231
16,83397,11375
16,83842,11484
16,84285,11067
16,84730,11521
16,85173,12278
16,85618,10923
16,86062,10435
16,86507,10708
16,86950,10840
16,87395,9692
16,87838,9444
16,88283,10594
16,88728,10104
16,89172,9655
16,89617,8730
16,90060,9195
16,90505,8953
16,90948,9573
16,91393,9687
16,91837,9153
16,92282,8301
16,92725,8309
16,93170,8341
16,93613,8470
16,94058,9190
16,94502,8759
16,94947,8219
16,95390,7997
16,95835,7813
16,96278,7533
16,96723,8045
16,97167,6937
16,97612,8208
16,98055,7692
16,98500,7509
16,98943,8172
16,99388,7828
16,99832,7530
17,00277,8649
17,00720,12627
17,01165,14294
17,01610,19889
17,02053,29117
17,02498,45503
17,02942,70193
17,03387,97940
17,03830,137390
17,04275,180851
17,04718,234573
17,05163,301440
17,05607,364774
17,06052,428950
17,06495,493119
17,06940,548601
17,07383,591444
17,07828,616584
17,08272,624809
17,08717,612509
17,09160,581008
17,09605,525596
17,10048,473504
17,10493,418040
17,10937,363519
17,11382,308498
17,11825,268676
17,12270,218908
17,12713,185597
17,13158,156734
17,13603,134757
17,14047,113560
17,14492,97804
17,14935,84400
17,15380,73231
17,15823,65347
17,16268,56960
17,16712,51695
17,17157,47240
17,17600,40589
17,18045,38029
17,18488,34592
17,18933,29963
17,19377,29228
17,19822,26541
17,20265,24976
17,20710,22412
17,21153,22251
17,21598,20524
17,22042,20381
17,22487,17380
17,22930,17033
17,23375,16494
17,23818,16299
17,24263,16476
17,24707,16829
17,25152,19959
17,25597,21458
17,26040,27096
17,26485,35261
17,26928,52409
17,27373,73129
17,27817,104321
17,28262,147455
17,28705,204077
17,29150,278904
17,29593,369951
17,30038,468032
17,30482,579458
17,30927,712371
17,31370,836721
17,31815,960962
17,32258,1073507
17,32703,1168552
17,33147,1218497
17,33592,1238274
17,34035,1222111
17,34480,1167084
17,34923,1066809
17,35368,948092
17,35812,821756
17,36257,706691
17,36700,596654
17,37145,499790
17,37590,419618
17,38033,347456
17,38478,298055
17,38922,250810
17,39367,215542
17,39810,181293
17,40255,158519
17,40698,137358
17,41143,120158
17,41587,105662
17,42032,94889
17,42475,86980
17,42920,76919
17,43363,70172
17,43808,62295
17,44252,59792
17,44697,54116
17,45140,48786
17,45585,44127
17,46028,45561
17,46473,39761
17,46917,37839
17,47362,35895
17,47805,32470
17,48250,31774
17,48693,29105
17,49138,27616
17,49583,26490
17,50027,23631
17,50472,24109
17,50915,22738
17,51360,21281
17,51803,19969
17,52248,20106
17,52692,19425
17,53137,16828
17,53580,16912
17,54025,15227
17,54468,17444
17,54913,16128
17,55357,15735
17,55802,14360
17,56245,14417
17,56690,12319
17,57133,14124
17,57578,13149
17,58022,13329
17,58467,13082
17,58910,12082
17,59355,11003
17,59798,11753
17,60243,10375
17,60687,11233
17,61132,11355
17,61577,10348
17,62020,10937
17,62465,10501
17,62908,9221
17,63353,9657
17,63797,8620
17,64242,9108
17,64685,8975
17,65130,9328
17,65573,8585
17,66018,8604
17,66462,9900
17,66907,8274
17,67350,9260
17,67795,9107
17,68238,8044
17,68683,9357
17,69127,8379
17,69572,8527
17,70015,8829
17,70460,8290
17,70903,8030
17,71348,8502
17,71792,8184
17,72237,7829
17,72680,7533
17,73125,7521
17,73570,7757
17,74013,8076
17,74458,8790
17,74902,8716
17,75347,8356
17,75790,8233
17,76235,7522
17,76678,8753
17,77123,7230
17,77567,7152
17,78012,8427
17,78455,8137
17,78900,7440
17,79343,7578
17,79788,8175
17,80232,7389
17,80677,7259
17,81120,7494
17,81565,7534
17,82008,6856
17,82453,6940
17,82897,6882
17,83342,6965
17,83785,6239
17,84230,7458
17,84673,6360
17,85118,7133
17,85562,6075
17,86007,7539
17,86452,7780
17,86895,8465
17,87340,9942
17,87783,13154
17,88228,18066
17,88672,26690
17,89117,38559
17,89560,57968
17,90005,82572
17,90448,120288
17,90893,160130
17,91337,213567
17,91782,275858
17,92225,333039
17,92670,395943
17,93113,460059
17,93558,508803
17,94002,543667
17,94447,569729
17,94890,568568
17,95335,557443
17,95778,523607
17,96223,475336
17,96667,429904
17,97112,373444
17,97555,322918
17,98000,276973
17,98445,233802
17,98888,198076
17,99333,164707
17,99777,139046
18,00222,119913
18,00665,102335
18,01110,89689
18,01553,76615
18,01998,68438
18,02442,58603
18,02887,55272
18,03330,49001
18,03775,46098
18,04218,41293
18,04663,39049
18,05107,36559
18,05552,31901
18,05995,32615
18,06440,28191
18,06883,27424
18,07328,23847
18,07772,22980
18,08217,22991
18,08660,20412
18,09105,19324
18,09548,18377
18,09993,18985
18,10438,15461
18,10882,16872
18,11327,18419
18,11770,17188
18,12215,15955
18,12658,17671
18,13103,15457
18,13547,14815
18,13992,12737
18,14435,13457
18,14880,13569
18,15323,11945
18,15768,11723
18,16212,11505
18,16657,11113
18,17100,11360
18,17545,10841
18,17988,9783
18,18433,10969
18,18877,10433
18,19322,8936
18,19765,9236
18,20210,9569
18,20653,9774
18,21098,9199
18,21542,9297
18,21987,8825
18,22432,8730
18,22875,8685
18,23320,8428
18,23763,8309
18,24208,8897
18,24652,8386
18,25097,9552
18,25540,8836
18,25985,8500
18,26428,7647
18,26873,8024
18,27317,8144
18,27762,7885
18,28205,8336
18,28650,8661
18,29093,7554
18,29538,7491
18,29982,8266
18,30427,7661
18,30870,7087
18,31315,7455
18,31758,7646
18,32203,6743
18,32647,7499
18,33092,7918
18,33535,7982
18,33980,8009
18,34425,7997
18,34868,8167
18,35313,7845
18,35757,6742
18,36202,7430
18,36645,7924
18,37090,8116
18,37533,8535
18,37978,9218
18,38422,7584
18,38867,8638
18,39310,8063
18,39755,8151
18,40198,8383
18,40643,8490
18,41087,7331
18,41532,7533
18,41975,7112
18,42420,7558
18,42863,7497
18,43308,7834
18,43752,7428
18,44197,8289
18,44640,9783
18,45085,13022
18,45528,18442
18,45973,29551
18,46418,41479
18,46862,58690
18,47307,82402
18,47750,117784
18,48195,162569
18,48638,212331
18,49083,270930
18,49527,330981
18,49972,394180
18,50415,446138
18,50860,496657
18,51303,526676
18,51748,540155
18,52192,537713
18,52637,521239
18,53080,485328
18,53525,450461
18,53968,401003
18,54413,350584
18,54857,305831
18,55302,260725
18,55745,219413
18,56190,191500
18,56633,154759
18,57078,132368
18,57522,115696
18,57967,97391
18,58410,85270
18,58855,73257
18,59300,64830
18,59743,55659
18,60188,50694
18,60632,45663
18,61077,40798
18,61520,37264
18,61965,34092
18,62408,31020
18,62853,29030
18,63297,26156
18,63742,25833
18,64185,23534
18,64630,24011
18,65073,20490
18,65518,20720
18,65962,19026
18,66407,17953
18,66850,16428
18,67295,14954
18,67738,14594
18,68183,13346
18,68627,14577
18,69072,12981
18,69515,13289
18,69960,12505
18,70403,12003
18,70848,12724
18,71293,11516
18,71737,10596
18,72182,11357
18,72625,11225
18,73070,10194
18,73513,10768
18,73958,11199
18,74402,10117
18,74847,10287
18,75290,9766
18,75735,10414
18,76178,9727
18,76623,9773
18,77067,9931
18,77512,9915
18,77955,8637
18,78400,9801
18,78843,9786
18,79288,8175
18,79732,8713
18,80177,9296
18,80620,9785
18,81065,8506
18,81508,8080
18,81953,8357
18,82397,7826
18,82842,7326
18,83287,8366
18,83730,8051
18,84175,6933
18,84618,6947
18,85063,7295
18,85507,7719
18,85952,6387
18,86395,7096
18,86840,5867
18,87283,8273
18,87728,7723
18,88172,8094
18,88617,6992
18,89060,7062
18,89505,6897
18,89948,6518
18,90393,6826
18,90837,8072
18,91282,7344
18,91725,6770
18,92170,7021
18,92613,6560
18,93058,7256
18,93502,7908
18,93947,7407
18,94390,6233
18,94835,6947
18,95280,5830
18,95723,6832
18,96168,5757
18,96612,6741
18,97057,6104
18,97500,6617
18,97945,6928
18,98388,7283
18,98833,6981
18,99277,7140
18,99722,6369
19,00165,6328
19,00610,7225
19,01053,6738
19,01498,6606
19,01942,6766
19,02387,7708
19,02830,7088
19,03275,6428
19,03718,5957
19,04163,7353
19,04607,6565
19,05052,6617
19,05495,6099
19,05940,6438
19,06383,5812
19,06828,6982
19,07273,6368
19,07717,6488
19,08162,6018
19,08605,5882
19,09050,6002
19,09493,6617
19,09938,6893
19,10382,6690
19,10827,7335
19,11270,6445
19,11715,6816
19,12158,6555
19,12603,6692
19,13047,7285
19,13492,6319
19,13935,6595
19,14380,7050
19,14823,6689
19,15268,6721
19,15712,5827
19,16157,7027
19,16600,6302
19,17045,5880
19,17488,6881
19,17933,6138
19,18377,6473
19,18822,6473
19,19267,6756
19,19710,6372
19,20155,6291
19,20598,7166
19,21043,6770
19,21487,7266
19,21932,6337
19,22375,6694
19,22820,6776
19,23263,6452
19,23708,6852
19,24152,7182
19,24597,6313
19,25040,6978
19,25485,6929
19,25928,6064
19,26373,6064
19,26817,6785
19,27262,7073
19,27705,8061
19,28150,8134
19,28593,9014
19,29038,11997
19,29482,18349
19,29927,25539
19,30370,36091
19,30815,55662
19,31258,81605
19,31703,114969
19,32148,154501
19,32592,201279
19,33037,255836
19,33480,306669
19,33925,356248
19,34368,410743
19,34813,443850
19,35257,472501
19,35702,487838
19,36145,487409
19,36590,469915
19,37033,442405
19,37478,408562
19,37922,367036
19,38367,322377
19,38810,283435
19,39255,247086
19,39698,209111
19,40143,180737
19,40587,156834
19,41032,133548
19,41475,115268
19,41920,96425
19,42363,84824
19,42808,77915
19,43252,69491
19,43697,63142
19,44142,59367
19,44585,58794
19,45030,64520
19,45473,73577
19,45918,88907
19,46362,112744
19,46807,145289
19,47250,188859
19,47695,242100
19,48138,314921
19,48583,404235
19,49027,490583
19,49472,598633
19,49915,711570
19,50360,840285
19,50803,971261
19,51248,1102502
19,51692,1198693
19,52137,1307794
19,52580,1371080
19,53025,1394386
19,53468,1360385
19,53913,1300309
19,54357,1177725
19,54802,1038847
19,55245,900732
19,55690,757983
19,56135,632762
19,56578,533134
19,57023,441337
19,57467,365742
19,57912,301830
19,58355,256948
19,58800,221306
19,59243,188201
19,59688,165374
19,60132,149803
19,60577,130726
19,61020,116139
19,61465,103922
19,61908,94310
19,62353,84506
19,62797,75201
19,63242,73886
19,63685,66676
19,64130,59578
19,64573,57000
19,65018,51282
19,65462,45555
19,65907,45182
19,66350,43428
19,66795,39556
19,67238,36774
19,67683,36095
19,68128,34214
19,68572,32435
19,69017,32041
19,69460,29132
19,69905,27778
19,70348,25628
19,70793,25157
19,71237,23872
19,71682,23415
19,72125,22662
19,72570,22428
19,73013,20286
19,73458,19196
19,73902,19313
19,74347,19018
19,74790,18618
19,75235,17442
19,75678,15264
19,76123,14901
19,76567,16062
19,77012,15737
19,77455,15080
19,77900,15707
19,78343,14462
19,78788,14152
19,79232,13601
19,79677,13576
19,80122,13342
19,80565,12869
19,81010,12757
19,81453,12990
19,81898,11711
19,82342,12299
19,82787,11927
19,83230,14334
19,83675,17508
19,84118,20497
19,84563,28569
19,85007,37402
19,85452,51272
19,85895,70873
19,86340,98080
19,86783,134220
19,87228,175569
19,87672,221879
19,88117,278917
19,88560,332615
19,89005,380634
19,89448,424098
19,89893,451838
19,90337,468542
19,90782,470589
19,91225,460997
19,91670,440963
19,92115,405815
19,92558,366053
19,93003,321389
19,93447,280156
19,93892,242655
19,94335,206781
19,94780,179732
19,95223,148367
19,95668,129610
19,96112,108901
19,96557,94005
19,97000,80514
19,97445,73300
19,97888,63034
19,98333,55182
19,98777,52515
19,99222,45376
19,99665,43504
20,00110,38304
20,00553,35708
20,00998,32967
20,01442,29761
20,01887,27749
20,02330,27369
20,02775,23700
20,03218,22856
20,03663,21078
20,04107,20709
20,04552,19991
20,04997,18444
20,05440,17849
20,05885,17608
20,06328,16238
20,06773,17049
20,07217,14852
20,07662,14685
20,08105,14002
20,08550,14415
20,08993,12689
20,09438,13590
20,09882,13219
20,10327,13347
20,10770,12382
20,11215,11971
20,11658,11794
20,12103,11562
20,12547,11130
20,12992,12105
20,13435,10295
20,13880,11760
20,14323,10498
20,14768,10774
20,15212,11084
20,15657,9880
20,16100,12635
20,16545,13560
20,16990,16810
20,17433,23791
20,17878,30373
20,18322,42522
20,18767,61604
20,19210,89276
20,19655,121689
20,20098,168087
20,20543,221422
20,20987,280654
20,21432,347474
20,21875,412745
20,22320,478425
20,22763,536781
20,23208,580950
20,23652,610847
20,24097,626319
20,24540,618177
20,24985,599672
20,25428,560058
20,25873,510210
20,26317,446137
20,26762,388165
20,27205,336747
20,27650,281382
20,28093,241877
20,28538,203662
20,28983,172141
20,29427,145740
20,29872,125560
20,30315,111294
20,30760,95616
20,31203,84117
20,31648,72753
20,32092,65830
20,32537,59453
20,32980,51731
20,33425,47756
20,33868,44419
20,34313,41776
20,34757,36511
20,35202,33760
20,35645,32820
20,36090,29517
20,36533,29407
20,36978,27387
20,37422,25839
20,37867,24056
20,38310,22363
20,38755,20432
20,39198,21009
20,39643,19135
20,40087,19033
20,40532,17743
20,40977,17219
20,41420,16960
20,41865,16501
20,42308,15079
20,42753,15829
20,43197,14287
20,43642,12683
20,44085,13239
20,44530,12702
20,44973,12128
20,45418,11947
20,45862,12422
20,46307,11963
20,46750,11456
20,47195,11028
20,47638,9884
20,48083,11059
20,48527,9900
20,48972,10364
20,49415,10338
20,49860,9491
20,50303,9872
20,50748,11010
20,51192,8937
20,51637,9808
20,52080,10047
20,52525,9247
20,52970,8707
20,53413,8451
20,53858,8588
20,54302,8357
20,54747,8971
20,55190,8369
20,55635,8191
20,56078,8551
20,56523,8896
20,56967,8816
20,57412,8361
20,57855,8219
20,58300,8135
20,58743,7285
20,59188,7880
20,59632,7235
20,60077,6805
20,60520,7755
20,60965,7300
20,61408,7740
20,61853,7985
20,62297,6919
20,62742,7468
20,63185,6676
20,63630,7233
20,64073,7287
20,64518,7476
20,64962,6746
20,65407,7690
20,65852,7286
20,66295,7581
20,66740,7254
20,67183,7920
20,67628,7052
20,68072,6812
20,68517,7039
20,68960,7846
20,69405,8618
20,69848,7127
20,70293,7463
20,70737,7740
20,71182,7885
20,71625,8640
20,72070,6759
20,72513,8410
20,72958,6889
20,73402,7458
20,73847,6207
20,74290,7434
20,74735,7151
20,75178,7037
20,75623,7573
20,76067,7016
20,76512,6946
20,76955,7127
20,77400,7989
20,77845,6931
20,78288,6898
20,78733,7494
20,79177,6866
20,79622,7173
20,80065,7750
20,80510,7278
20,80953,6900
20,81398,7493
20,81842,7434
20,82287,6788
20,82730,8048
20,83175,7746
20,83618,6897
20,84063,7580
20,84507,7532
20,84952,7405
20,85395,7947
20,85840,8030
20,86283,9589
20,86728,12030
20,87172,14492
20,87617,21476
20,88060,29195
20,88505,43701
20,88948,64544
20,89393,91284
20,89838,128763
20,90282,170372
20,90727,227217
20,91170,293802
20,91615,363618
20,92058,440963
20,92503,517593
20,92947,585651
20,93392,642065
20,93835,683954
20,94280,690551
20,94723,686059
20,95168,663673
20,95612,617847
20,96057,562721
20,96500,491103
20,96945,412900
20,97388,353290
20,97833,294922
20,98277,249418
20,98722,209644
20,99165,178800
20,99610,148689
21,00053,129054
21,00498,112135
21,00942,99166
21,01387,87289
21,01832,74944
21,02275,68974
21,02720,62812
21,03163,54896
21,03608,50498
21,04052,47865
21,04497,41495
21,04940,41551
21,05385,36257
21,05828,35309
21,06273,32765
21,06717,31497
21,07162,28329
21,07605,26073
21,08050,25379
21,08493,24721
21,08938,23779
21,09382,22437
21,09827,20261
21,10270,20815
21,10715,20703
21,11158,19937
21,11603,19542
21,12047,17278
21,12492,18272
21,12935,18496
21,13380,16580
21,13825,16125
21,14268,15686
21,14713,14845
21,15157,14818
21,15602,14070
21,16045,13127
21,16490,13649
21,16933,13536
21,17378,11884
21,17822,12804
21,18267,12278
21,18710,11926
21,19155,11821
21,19598,10323
21,20043,12057
21,20487,11707
21,20932,11566
21,21375,10590
21,21820,11392
21,22263,10625
21,22708,9507
21,23152,9599
21,23597,10804
21,24040,9542
21,24485,9696
21,24928,9626
21,25373,9892
21,25818,10716
21,26262,10543
21,26707,10076
21,27150,11120
21,27595,11077
21,28038,11229
21,28483,12198
21,28927,12047
21,29372,10905
21,29815,11565
21,30260,10912
21,30703,10280
21,31148,8720
21,31592,9328
21,32037,9765
21,32480,12453
21,32925,14971
21,33368,19284
21,33813,27069
21,34257,36745
21,34702,55772
21,35145,84251
21,35590,112548
21,36033,153878
21,36478,203771
21,36922,264438
21,37367,320262
21,37810,384005
21,38255,440837
21,38700,491778
21,39143,528135
21,39588,548740
21,40032,558806
21,40477,536878
21,40920,515790
21,41365,466915
21,41808,432836
21,42253,377790
21,42697,329379
21,43142,283218
21,43585,237069
21,44030,200497
21,44473,174000
21,44918,145686
21,45362,125677
21,45807,107114
21,46250,95893
21,46695,83018
21,47138,72401
21,47583,64196
21,48027,58144
21,48472,51236
21,48915,46969
21,49360,42099
21,49803,39318
21,50248,38981
21,50693,34522
21,51137,31248
21,51582,28829
21,52025,26547
21,52470,24943
21,52913,24699
21,53358,21935
21,53802,20226
21,54247,20461
21,54690,19700
21,55135,18207
21,55578,18667
21,56023,17875
21,56467,16423
21,56912,15833
21,57355,16411
21,57800,14651
21,58243,14081
21,58688,14571
21,59132,13899
21,59577,12979
21,60020,13567
21,60465,13991
21,60908,13479
21,61353,12742
21,61797,11826
21,62242,10882
21,62687,13031
21,63130,11424
21,63575,10478
21,64018,10695
21,64463,11818
21,64907,10431
21,65352,10388
21,65795,9712
21,66240,10867
21,66683,11085
21,67128,8601
21,67572,9238
21,68017,10121
21,68460,9029
21,68905,10412
21,69348,9523
21,69793,10207
21,70237,9878
21,70682,9024
21,71125,8465
21,71570,9459
21,72013,8517
21,72458,8989
21,72902,8910
21,73347,8376
21,73790,8480
21,74235,9018
21,74680,7868
21,75123,7505
21,75568,8515
21,76012,9396
21,76457,9351
21,76900,10108
21,77345,9049
21,77788,8343
21,78233,7974
21,78677,8698
21,79122,7561
21,79565,8229
21,80010,8264
21,80453,8796
21,80898,8332
21,81342,8026
21,81787,8668
21,82230,8402
21,82675,8039
21,83118,8059
21,83563,8328
21,84007,8045
21,84452,8252
21,84895,7965
21,85340,8560
21,85783,8583
21,86228,8413
21,86673,8423
21,87117,8863
21,87562,9683
21,88005,9174
21,88450,8791
21,88893,9037
21,89338,8631
21,89782,9157
21,90227,9048
21,90670,9755
21,91115,9674
21,91558,10252
21,92003,9251
21,92447,9532
21,92892,8351
21,93335,8971
21,93780,8038
21,94223,8617
21,94668,8300
21,95112,7809
21,95557,8780
21,96000,9339
21,96445,8620
21,96888,7686
21,97333,7058
21,97777,7610
21,98222,7643
21,98667,7450
21,99110,8782
21,99555,7408
21,99998,8359
22,00443,8120
22,00887,8155
22,01332,8726
22,01775,7483
22,02220,7296
22,02663,7714
22,03108,7914
22,03552,7669
22,03997,7047
22,04440,7305
22,04885,8350
22,05328,7362
22,05773,7399
22,06217,6456
22,06662,7453
22,07105,8063
22,07550,7307
22,07993,7751
22,08438,7307
22,08882,7583
22,09327,8393
22,09770,6944
22,10215,7521
22,10660,8248
22,11103,7615
22,11548,7983
22,11992,8826
22,12437,8958
22,12880,11842
22,13325,14106
22,13768,18271
22,14213,24210
22,14657,36753
22,15102,51695
22,15545,74889
22,15990,105897
22,16433,143931
22,16878,190848
22,17322,238634
22,17767,296663
22,18210,351766
22,18655,410526
22,19098,454937
22,19543,482481
22,19987,506522
22,20432,501169
22,20875,491969
22,21320,462725
22,21763,426304
22,22208,395616
22,22652,346174
22,23097,305969
22,23542,260568
22,23985,221253
22,24430,188128
22,24873,165984
22,25318,140580
22,25762,126463
22,26207,116843
22,26650,109248
22,27095,112555
22,27538,121423
22,27983,134911
22,28427,162875
22,28872,194309
22,29315,241069
22,29760,293896
22,30203,360491
22,30648,440955
22,31092,525413
22,31537,626604
22,31980,722764
22,32425,828784
22,32868,939096
22,33313,1044011
22,33757,1155817
22,34202,1248513
22,34645,1304565
22,35090,1337347
22,35535,1314883
22,35978,1254748
22,36423,1145619
22,36867,1025966
22,37312,884425
22,37755,752207
22,38200,634577
22,38643,525106
22,39088,435180
22,39532,374834
22,39977,312705
22,40420,265710
22,40865,236004
22,41308,205237
22,41753,184158
22,42197,157856
22,42642,145319
22,43085,127195
22,43530,117471
22,43973,106523
22,44418,99909
22,44862,90754
22,45307,85753
22,45750,75700
22,46195,73481
22,46638,66422
22,47083,61571
22,47528,57751
22,47972,55987
22,48417,51405
22,48860,50970
22,49305,46168
22,49748,46035
22,50193,43577
22,50637,40702
22,51082,38841
22,51525,38291
22,51970,35845
22,52413,35151
22,52858,33659
22,53302,34591
22,53747,31762
22,54190,32472
22,54635,29910
22,55078,29978
22,55523,28114
22,55967,27201
22,56412,27111
22,56855,26847
22,57300,26334
22,57743,25404
22,58188,21644
22,58632,23407
22,59077,21549
22,59522,21675
22,59965,20983
22,60410,19900
22,60853,19775
22,61298,18258
22,61742,16874
22,62187,17441
22,62630,16955
22,63075,17384
22,63518,17426
22,63963,16308
22,64407,16391
22,64852,17960
22,65295,18200
22,65740,20308
22,66183,24096
22,66628,30707
22,67072,39851
22,67517,55773
22,67960,75454
22,68405,102447
22,68848,133914
22,69293,173261
22,69737,222903
22,70182,272616
22,70625,333035
22,71070,381064
22,71515,432320
22,71958,470695
22,72403,490456
22,72847,503957
22,73292,514158
22,73735,508739
22,74180,496842
22,74623,474854
22,75068,463329
22,75512,446909
22,75957,444788
22,76400,445957
22,76845,459922
22,77288,476605
22,77733,503803
22,78177,520722
22,78622,538367
22,79065,545498
22,79510,525450
22,79953,513931
22,80398,491901
22,80842,451049
22,81287,409737
22,81730,373171
22,82175,332392
22,82618,290729
22,83063,252613
22,83507,218279
22,83952,187557
22,84397,162279
22,84840,138397
22,85285,123682
22,85728,106785
22,86173,94842
22,86617,83405
22,87062,79854
22,87505,70401
22,87950,62138
22,88393,57219
22,88838,54863
22,89282,49292
22,89727,44534
22,90170,42693
22,90615,38040
22,91058,37851
22,91503,35494
22,91947,33044
22,92392,32107
22,92835,30282
22,93280,28306
22,93723,27576
22,94168,27598
22,94612,28261
22,95057,29606
22,95500,33106
22,95945,38009
22,96390,48595
22,96833,60535
22,97278,81819
22,97722,111136
22,98167,141683
22,98610,185710
22,99055,234636
22,99498,293137
22,99943,352367
23,00387,423478
23,00832,488096
23,01275,533765
23,01720,575675
23,02163,608197
23,02608,619067
23,03052,612609
23,03497,588183
23,03940,539993
23,04385,492559
23,04828,434752
23,05273,389708
23,05717,336176
23,06162,293075
23,06605,245561
23,07050,211750
23,07493,180915
23,07938,155994
23,08383,137943
23,08827,118097
23,09272,106302
23,09715,93299
23,10160,83067
23,10603,78509
23,11048,68650
23,11492,63344
23,11937,58247
23,12380,54271
23,12825,50268
23,13268,47619
23,13713,44120
23,14157,40999
23,14602,40014
23,15045,36910
23,15490,37240
23,15933,33645
23,16378,31430
23,16822,30317
23,17267,30506
23,17710,26648
23,18155,27508
23,18598,26305
23,19043,25274
23,19487,21516
23,19932,23459
23,20377,22193
23,20820,23130
23,21265,21762
23,21708,20701
23,22153,21143
23,22597,18614
23,23042,19085
23,23485,16809
23,23930,17347
23,24373,16952
23,24818,17991
23,25262,16480
23,25707,15053
23,26150,16011
23,26595,14389
23,27038,15754
23,27483,13795
23,27927,14839
23,28372,13977
23,28815,12871
23,29260,13294
23,29703,13502
23,30148,13723
23,30592,12072
23,31037,12849
23,31480,11761
23,31925,12237
23,32370,12453
23,32813,11208
23,33258,10997
23,33702,11923
23,34147,12468
23,34590,11645
23,35035,10650
23,35478,10594
23,35923,10118
23,36367,10225
23,36812,12298
23,37255,10832
23,37700,11280
23,38143,10537
23,38588,11107
23,39032,11623
23,39477,10217
23,39920,11713
23,40365,10951
23,40808,9538
23,41253,10068
23,41697,10336
23,42142,9445
23,42585,9956
23,43030,10324
23,43473,9934
23,43918,10372
23,44363,10085
23,44807,10079
23,45252,10926
23,45695,10024
23,46140,9766
23,46583,9862
23,47028,10236
23,47472,9935
23,47917,9618
23,48360,10424
23,48805,10838
23,49248,10275
23,49693,10150
23,50137,11304
23,50582,10640
23,51025,11038
23,51470,11611
23,51913,10648
23,52358,12020
23,52802,12999
23,53247,11601
23,53690,11302
23,54135,12185
23,54578,11727
23,55023,10842
23,55467,10225
23,55912,10544
23,56355,10405
23,56800,9960
23,57245,10013
23,57688,10344
23,58133,8554
23,58577,10524
23,59022,9920
23,59465,12329
23,59910,12119
23,60353,14735
23,60798,20402
23,61242,26913
23,61687,37496
23,62130,51781
23,62575,74336
23,63018,99185
23,63463,136457
23,63907,182843
23,64352,241513
23,64795,299639
23,65240,362950
23,65683,431142
23,66128,500048
23,66572,558272
23,67017,614421
23,67460,645364
23,67905,652920
23,68348,648992
23,68793,629561
23,69238,582322
23,69682,523109
23,70127,455274
23,70570,401830
23,71015,338215
23,71458,289778
23,71903,242902
23,72347,206480
23,72792,182271
23,73235,155596
23,73680,136643
23,74123,121572
23,74568,105619
23,75012,94987
23,75457,84922
23,75900,78273
23,76345,70087
23,76788,65254
23,77233,62385
23,77677,58340
23,78122,51174
23,78565,47834
23,79010,45492
23,79453,41941
23,79898,38864
23,80342,36191
23,80787,35259
23,81232,34937
23,81675,33047
23,82120,31663
23,82563,29710
23,83008,30356
23,83452,29502
23,83897,27084
23,84340,25643
23,84785,27221
23,85228,23894
23,85673,22523
23,86117,22935
23,86562,21771
23,87005,22165
23,87450,19904
23,87893,19266
23,88338,19561
23,88782,18564
23,89227,18123
23,89670,18067
23,90115,18133
23,90558,15755
23,91003,17454
23,91447,15906
23,91892,15793
23,92335,15535
23,92780,14877
23,93225,15086
23,93668,14332
23,94113,14196
23,94557,15513
23,95002,13908
23,95445,13114
23,95890,14043
23,96333,13470
23,96778,13707
23,97222,13704
23,97667,14129
23,98110,13014
23,98555,13277
23,98998,13169
23,99443,13056
23,99887,11825
24,00332,12238
24,00775,12959
24,01220,12855
24,01663,12354
24,02108,13790
24,02552,13235
24,02997,12070
24,03440,12457
24,03885,13455
24,04328,12401
24,04773,12480
24,05218,14386
24,05662,14767
24,06107,18445
24,06550,24211
24,06995,30339
24,07438,43561
24,07883,63562
24,08327,86231
24,08772,123241
24,09215,168265
24,09660,224983
24,10103,292262
24,10548,365807
24,10992,449427
24,11437,539876
24,11880,621342
24,12325,684998
24,12768,758639
24,13213,799176
24,13657,828001
24,14102,846463
24,14545,849168
24,14990,818818
24,15433,772231
24,15878,732546
24,16322,676075
24,16767,612347
24,17212,554561
24,17655,495543
24,18100,429502
24,18543,379317
24,18988,335400
24,19432,281515
24,19877,248943
24,20320,215042
24,20765,186154
24,21208,164246
24,21653,143452
24,22097,124791
24,22542,110588
24,22985,101663
24,23430,90586
24,23873,82354
24,24318,74431
24,24762,68549
24,25207,62686
24,25650,59453
24,26095,57570
24,26538,51331
24,26983,49340
24,27427,47272
24,27872,43617
24,28315,42357
24,28760,40955
24,29203,38549
24,29648,39109
24,30093,37284
24,30537,34908
24,30982,33932
24,31425,32981
24,31870,30185
24,32313,28784
24,32758,27288
24,33202,26159
24,33647,25703
24,34090,24000
24,34535,23816
24,34978,23025
24,35423,23129
24,35867,21141
24,36312,21963
24,36755,20023
24,37200,19224
24,37643,19483
24,38088,19409
24,38532,17599
24,38977,18949
24,39420,17995
24,39865,17210
24,40308,18099
24,40753,16525
24,41197,17241
24,41642,13859
24,42087,15216
24,42530,15801
24,42975,16076
24,43418,14751
24,43863,15155
24,44307,14035
24,44752,15347
24,45195,14251
24,45640,14079
24,46083,14375
24,46528,13646
24,46972,13537
24,47417,14325
24,47860,13021
24,48305,12974
24,48748,14159
24,49193,12911
24,49637,11598
24,50082,12804
24,50525,11910
24,50970,12081
24,51413,12172
24,51858,12397
24,52302,13092
24,52747,13390
24,53190,13424
24,53635,12867
24,54080,13502
24,54523,12205
24,54968,12688
24,55412,11279
24,55857,12435
24,56300,11999
24,56745,12485
24,57188,12534
24,57633,11427
24,58077,12124
24,58522,11067
24,58965,11433
24,59410,11833
24,59853,11000
24,60298,11409
24,60742,11300
24,61187,10990
24,61630,11792
24,62075,10699
24,62518,12570
24,62963,11677
24,63407,12477
24,63852,11456
24,64295,11248
24,64740,10719
24,65183,11175
24,65628,11741
24,66073,10869
24,66517,11491
24,66962,10469
24,67405,10550
24,67850,10359
24,68293,10493
24,68738,10334
24,69182,10508
24,69627,10196
24,70070,10295
24,70515,9741
24,70958,11156
24,71403,10443
24,71847,11102
24,72292,9026
24,72735,9642
24,73180,10387
24,73623,10406
24,74068,9782
24,74512,9953
24,74957,10003
24,75400,10208
24,75845,9960
24,76288,10616
24,76733,11567
24,77177,9705
24,77622,11784
24,78067,9959
24,78510,10556
24,78955,10057
24,79398,10232
24,79843,10409
24,80287,11339
24,80732,11983
24,81175,11413
24,81620,10000
24,82063,10336
24,82508,10988
24,82952,9360
24,83397,10449
24,83840,10765
24,84285,9263
24,84728,10835
24,85173,11281
24,85617,10376
24,86062,11021
24,86505,10813
24,86950,11151
24,87393,10456
24,87838,11087
24,88282,11326
24,88727,10737
24,89170,9377
24,89615,11484
24,90060,11526
24,90503,11984
24,90948,11780
24,91392,14602
24,91837,18346
24,92280,22827
24,92725,30540
24,93168,42430
24,93613,59292
24,94057,80454
24,94502,110360
24,94945,149257
24,95390,193695
24,95833,251048
24,96278,315299
24,96722,381319
24,97167,460049
24,97610,555850
24,98055,644596
24,98498,749566
24,98943,851208
24,99387,952028
24,99832,1052527
25,00275,1143883
25,00720,1213827
25,01163,1238279
25,01608,1232745
25,02053,1197375
25,02497,1098552
25,02942,974838
25,03385,860202
25,03830,732368
25,04273,618369
25,04718,518092
25,05162,440884
25,05607,373032
25,06050,321135
25,06495,280273
25,06938,246073
25,07383,212935
25,07827,190756
25,08272,168640
25,08715,154595
25,09160,141508
25,09603,128693
25,10048,115774
25,10492,104295
25,10937,99565
25,11380,92527
25,11825,88096
25,12268,81339
25,12713,75959
25,13157,71908
25,13602,67285
25,14045,61759
25,14490,60329
25,14935,56670
25,15378,56010
25,15823,51566
25,16267,48089
25,16712,47339
25,17155,45327
25,17600,44523
25,18043,40524
25,18488,40204
25,18932,38845
25,19377,37594
25,19820,34730
25,20265,35424
25,20708,33324
25,21153,33798
25,21597,32757
25,22042,31259
25,22485,28394
25,22930,28831
25,23373,28957
25,23818,27485
25,24262,26612
25,24707,25708
25,25150,26249
25,25595,23395
25,26038,23060
25,26483,24607
25,26928,22294
25,27372,22810
25,27817,23504
25,28260,21122
25,28705,21077
25,29148,20526
25,29593,19675
25,30037,20238
25,30482,19956
25,30925,21466
25,31370,19874
25,31813,18811
25,32258,19275
25,32702,19507
25,33147,17599
25,33590,18577
25,34035,19530
25,34478,16799
25,34923,17591
25,35367,17052
25,35812,17828
25,36255,16914
25,36700,15830
25,37143,16963
25,37588,17282
25,38032,16335
25,38477,17716
25,38922,17038
25,39365,16837
25,39810,15670
25,40253,16360
25,40698,15474
25,41142,15641
25,41587,15694
25,42030,15386
25,42475,16115
25,42918,15039
25,43363,16345
25,43807,15572
25,44252,15767
25,44695,15791
25,45140,15459
25,45583,14396
25,46028,15843
25,46472,13812
25,46917,13528
25,47360,14174
25,47805,13950
25,48248,13859
25,48693,15377
25,49137,13718
25,49582,14352
25,50025,14119
25,50470,14854
25,50915,12927
25,51358,14200
25,51803,14062
25,52247,13644
25,52692,12945
25,53135,14172
25,53580,13002
25,54023,14785
25,54468,12778
25,54912,13945
25,55357,13901
25,55800,13831
25,56245,15027
25,56688,14318
25,57133,15647
25,57577,17810
25,58022,23594
25,58465,25735
25,58910,34413
25,59353,47599
25,59798,63865
25,60242,84056
25,60687,112684
25,61130,150456
25,61575,198364
25,62018,246485
25,62463,304747
25,62908,364091
25,63352,428478
25,63797,490304
25,64240,540876
25,64685,573746
25,65128,600580
25,65573,597397
25,66017,584144
25,66462,547985
25,66905,499558
25,67350,449281
25,67793,397090
25,68238,349493
25,68682,302334
25,69127,257329
25,69570,224178
25,70015,192961
25,70458,165884
25,70903,151817
25,71347,133371
25,71792,115787
25,72235,105130
25,72680,94480
25,73123,86266
25,73568,78478
25,74012,76950
25,74457,67929
25,74900,61083
25,75345,57366
25,75790,51889
25,76233,49457
25,76678,48616
25,77122,44220
25,77567,42106
25,78010,41415
25,78455,38589
25,78898,36467
25,79343,33874
25,79787,33728
25,80232,33046
25,80675,31944
25,81120,31053
25,81563,28427
25,82008,27469
25,82452,28326
25,82897,24804
25,83340,26390
25,83785,26942
25,84228,23290
25,84673,24415
25,85117,24049
25,85562,23022
25,86005,24037
25,86450,21292
25,86893,22505
25,87338,21396
25,87783,20961
25,88227,21435
25,88672,21424
25,89115,21639
25,89560,20298
25,90003,20308
25,90448,19405
25,90892,18833
25,91337,19177
25,91780,18793
25,92225,19411
25,92668,18100
25,93113,17739
25,93557,18932
25,94002,18184
25,94445,19840
25,94890,18812
25,95333,17578
25,95778,18409
25,96222,19181
25,96667,19162
25,97110,17628
25,97555,16204
25,97998,17565
25,98443,17343
25,98887,17523
25,99332,17629
25,99777,16501
26,00220,15422
26,00665,16499
26,01108,16098
26,01553,14888
26,01997,14403
26,02442,14833
26,02885,13601
26,03330,14600
26,03773,14106
26,04218,13659
26,04662,13660
26,05107,13058
26,05550,14214
26,05995,13623
26,06438,12898
26,06883,13139
26,07327,13320
26,07772,12758
26,08215,12927
26,08660,12729
26,09103,11376
26,09548,13654
26,09992,13055
26,10437,14846
26,10880,12744
26,11325,12551
26,11770,12023
26,12213,14066
26,12658,11196
26,13102,12607
26,13547,12855
26,13990,14584
26,14435,14406
26,14878,11633
26,15323,12898
26,15767,13138
26,16212,13633
26,16655,13143
26,17100,13200
26,17543,13156
26,17988,13028
26,18432,14303
26,18877,12688
26,19320,13765
26,19765,14045
26,20208,13674
26,20653,13170
26,21097,12079
26,21542,12964
26,21985,12543
26,22430,13777
26,22873,14161
26,23318,13216
26,23763,12424
26,24207,13217
26,24652,13683
26,25095,14144
26,25540,13014
26,25983,12938
26,26428,14175
26,26872,13295
26,27317,12481
26,27760,13634
26,28205,11699
26,28648,11987
26,29093,12992
26,29537,13389
26,29982,12539
26,30425,12923
26,30870,12004
26,31313,13115
26,31758,14251
26,32202,13461
26,32647,12966
26,33090,12716
26,33535,14096
26,33978,13063
26,34423,12731
26,34867,13537
26,35312,14637
26,35757,13045
26,36200,12971
26,36645,12844
26,37088,14066
26,37533,13710
26,37977,10888
26,38422,13458
26,38865,12472
26,39310,12310
26,39753,12560
26,40198,11668
26,40642,12574
26,41087,12459
26,41530,11912
26,41975,13109
26,42418,10622
26,42863,11279
26,43307,11746
26,43752,12888
26,44195,12778
26,44640,11276
26,45083,12661
26,45528,11177
26,45972,11001
26,46417,12296
26,46860,13397
26,47305,12227
26,47750,13141
26,48193,12707
26,48638,13419
26,49082,12322
26,49527,13761
26,49970,12506
26,50415,13448
26,50858,13150
26,51303,13139
26,51747,12434
26,52192,12394
26,52635,13953
26,53080,12651
26,53523,12476
26,53968,13585
26,54412,13118
26,54857,12626
26,55300,12307
26,55745,13085
26,56188,13813
26,56633,10455
26,57077,11720
26,57522,12372
26,57965,11992
26,58410,11740
26,58853,11722
26,59298,11807
26,59742,12924
26,60187,10929
26,60632,12026
26,61075,10869
26,61520,11212
26,61963,12536
26,62408,12054
26,62852,11100
26,63297,10720
26,63740,12563
26,64185,11967
26,64628,11505
26,65073,11212
26,65517,11498
26,65962,10575
26,66405,11420
26,66850,12396
26,67293,11918
26,67738,12503
26,68182,12342
26,68627,13183
26,69070,11704
26,69515,13120
26,69958,13399
26,70403,12546
26,70847,11369
26,71292,12588
26,71735,12907
26,72180,11557
26,72625,12555
26,73068,12793
26,73513,14244
26,73957,12474
26,74402,13086
26,74845,11711
26,75290,11711
26,75733,12129
26,76178,12795
26,76622,12907
26,77067,12081
26,77510,12328
26,77955,11769
26,78398,12221
26,78843,12267
26,79287,12402
26,79732,12622
26,80175,11702
26,80620,12346
26,81063,12383
26,81508,12329
26,81952,10982
26,82397,12553
26,82840,12421
26,83285,12786
26,83728,10870
26,84173,12363
26,84618,13143
26,85062,11051
26,85507,11421
26,85950,12459
26,86395,12304
26,86838,11355
26,87283,13495
26,87727,12810
26,88172,11124
26,88615,12403
26,89060,13707
26,89503,12390
26,89948,12416
26,90392,13695
26,90837,11828
26,91280,11736
26,91725,13120
26,92168,12933
26,92613,12222
26,93057,12719
26,93502,12630
26,93945,13032
26,94390,11553
26,94833,13619
26,95278,11912
26,95722,11741
26,96167,13118
26,96612,11730
26,97055,10998
26,97500,12338
26,97943,11444
26,98388,11724
26,98832,12374
26,99277,12199
26,99720,12903
27,00165,12477
27,00608,12661
27,01053,11814
27,01497,12444
27,01942,11903
27,02385,12424
27,02830,11895
27,03273,13146
27,03718,11593
27,04162,12929
27,04607,12326
27,05050,13623
27,05495,12370
27,05938,12174
27,06383,12974
27,06827,12755
27,07272,11787
27,07715,12482
27,08160,13259
27,08605,12183
27,09048,13767
27,09493,12270
27,09937,12028
27,10382,12872
27,10825,12746
27,11270,13062
27,11713,12416
27,12158,12309
27,12602,12329
27,13047,14381
27,13490,14182
27,13935,12673
27,14378,13140
27,14823,14902
27,15267,15046
27,15712,15387
27,16155,15548
27,16600,14688
27,17043,14874
27,17488,15110
27,17932,13692
27,18377,14533
27,18820,12937
27,19265,13312
27,19708,13689
27,20153,13423
27,20597,13539
27,21042,13299
27,21487,12433
27,21930,13182
27,22375,13054
27,22818,12908
27,23263,12854
27,23707,12943
27,24152,12611
27,24595,12835
27,25040,13157
27,25483,13536
27,25928,12633
27,26372,12886
27,26817,14061
27,27260,13130
27,27705,11280
27,28148,12540
27,28593,13766
27,29037,13224
27,29482,12749
27,29925,12080
27,30370,13709
27,30813,13118
27,31258,13140
27,31702,13430
27,32147,15882
27,32590,19384
27,33035,22901
27,33480,28392
27,33923,36075
27,34368,47317
27,34812,65010
27,35257,86814
27,35700,114797
27,36145,145410
27,36588,185833
27,37033,226274
27,37477,268377
27,37922,305204
27,38365,335978
27,38810,359344
27,39253,373855
27,39698,371400
27,40142,363661
27,40587,349312
27,41030,320658
27,41475,295522
27,41918,266331
27,42363,235921
27,42807,210210
27,43252,182078
27,43695,155603
27,44140,139617
27,44583,120059
27,45028,105402
27,45473,95305
27,45917,83168
27,46362,77214
27,46805,67301
27,47250,62550
27,47693,57628
27,48138,48965
27,48582,44966
27,49027,44478
27,49470,42064
27,49915,39735
27,50358,36341
27,50803,34824
27,51247,34650
27,51692,30349
27,52135,29580
27,52580,27783
27,53023,29135
27,53468,27887
27,53912,25368
27,54357,25001
27,54800,24304
27,55245,22808
27,55688,23108
27,56133,21414
27,56577,22449
27,57022,21310
27,57467,21452
27,57910,18883
27,58355,20125
27,58798,19695
27,59243,22055
27,59687,18527
27,60132,18815
27,60575,19385
27,61020,17975
27,61463,19849
27,61908,19207
27,62352,18081
27,62797,19733
27,63240,18628
27,63685,18026
27,64128,17432
27,64573,17479
27,65017,17839
27,65462,18097
27,65905,17214
27,66350,15891
27,66793,17583
27,67238,16521
27,67682,16480
27,68127,16515
27,68570,16031
27,69015,16383
27,69460,14369
27,69903,15696
27,70348,15381
27,70792,16201
27,71237,16051
27,71680,13720
27,72125,15463
27,72568,16239
27,73013,14760
27,73457,15370
27,73902,15319
27,74345,15081
27,74790,14192
27,75233,13901
27,75678,15255
27,76122,14683
27,76567,14459
27,77010,14061
27,77455,12969
27,77898,15233
27,78343,15096
27,78787,14566
27,79232,14699
27,79675,15456
27,80120,13951
27,80563,14348
27,81008,15050
27,81453,13900
27,81897,11930
27,82342,15130
27,82785,14566
27,83230,14506
27,83673,15534
27,84118,14144
27,84562,14737
27,85007,15627
27,85450,14932
27,85895,14306
27,86338,13633
27,86783,14451
27,87227,15726
27,87672,15764
27,88115,16310
27,88560,15792
27,89003,13442
27,89448,16529
27,89892,13764
27,90337,15411
27,90780,16321
27,91225,14776
27,91668,16595
27,92113,13933
27,92557,14902
27,93002,14835
27,93445,14678
27,93890,15104
27,94335,14115
27,94778,14078
27,95223,16205
27,95667,13858
27,96112,14598
27,96555,16029
27,97000,15220
27,97443,14509
27,97888,14997
27,98332,14931
27,98777,15385
27,99220,13705
27,99665,13093
28,00108,14453
28,00553,14249
28,00997,14815
28,01442,15193
28,01885,14147
28,02330,13595
28,02773,13517
28,03218,14655
28,03662,15211
28,04107,15307
28,04550,14554
28,04995,14009
28,05438,14852
28,05883,14486
28,06328,13360
28,06772,14515
28,07217,14102
28,07660,15537
28,08105,15348
28,08548,14971
28,08993,14575
28,09437,15141
28,09882,14998
28,10325,15061
28,10770,15930
28,11213,13960
28,11658,16347
28,12102,15529
28,12547,14961
28,12990,14748
28,13435,15867
28,13878,13823
28,14323,14781
28,14767,14553
28,15212,14340
28,15655,14880
28,16100,14204
28,16543,15823
28,16988,14927
28,17432,14583
28,17877,13881
28,18322,14576
28,18765,14612
28,19210,14659
28,19653,15049
28,20098,15463
28,20542,15948
28,20987,15633
28,21430,14589
28,21875,15811
28,22318,14513
28,22763,14063
28,23207,15932
28,23652,14787
28,24095,15825
28,24540,14654
