D:\MassHunter\GCMS\1\data\Amal\Constant flow\150C\150C_1ml-min_8C-min_4.D Tue Sep 24 19:33:36 2024
Start of data points
4,69093	1,128332E+07
4,69507	1,069386E+07
4,69918	1,017467E+07
4,70330	9645853
4,70743	9136968
4,71155	8714377
4,71567	8257485
4,71980	7861803
4,72392	7458710
4,72803	7060158
4,73217	6706638
4,73628	6371335
4,74040	5984079
4,74452	5694514
4,74865	5485598
4,75277	5206393
4,75688	4934838
4,76102	4720008
4,76513	4466193
4,76925	4157083
4,77338	4016457
4,77750	3834849
4,78162	3642549
4,78575	3462850
4,78987	3252643
4,79398	3079753
4,79812	2928763
4,80223	2784885
4,80635	2642148
4,81048	2510275
4,81460	2377974
4,81872	2264170
4,82285	2157829
4,82697	2044878
4,83108	1929409
4,83520	1837562
4,83933	1723967
4,84345	1635746
4,84757	1552283
4,85170	1467261
4,85582	1393894
4,85993	1355331
4,86407	1261125
4,86818	1211234
4,87230	1150464
4,87643	1106391
4,88055	1043715
4,88467	1008396
4,88880	941564
4,89292	910513
4,89703	853588
4,90117	811737
4,90528	781717
4,90940	745975
4,91353	705460
4,91765	680963
4,92177	661605
4,92590	623125
4,93002	592036
4,93413	580437
4,93825	542245
4,94238	522319
4,94650	510584
4,95062	493089
4,95475	469316
4,95887	452820
4,96298	429051
4,96712	409804
4,97123	391507
4,97535	374489
4,97948	366994
4,98360	350200
4,98772	340115
4,99185	331226
4,99597	318680
5,00008	310896
5,00422	298769
5,00833	292235
5,01245	278203
5,01658	273560
5,02070	276625
5,02482	277869
5,02893	306772
5,03307	377704
5,03718	501796
5,04130	677962
5,04543	858072
5,04955	1011892
5,05367	1145246
5,05780	1214616
5,06192	1239627
5,06603	1248274
5,07017	1242408
5,07428	1228177
5,07840	1200852
5,08253	1178444
5,08665	1144608
5,09077	1116841
5,09490	1080735
5,09902	1059178
5,10313	1024036
5,10727	974592
5,11138	953257
5,11550	927644
5,11962	897857
5,12375	866950
5,12787	847945
5,13198	819217
5,13612	791513
5,14023	767542
5,14435	731981
5,14848	703004
5,15260	682886
5,15672	654226
5,16085	630629
5,16497	605945
5,16908	577211
5,17322	562620
5,17733	543567
5,18145	517705
5,18558	490249
5,18970	462187
5,19382	433134
5,19795	409400
5,20207	383285
5,20618	362344
5,21030	340016
5,21443	317850
5,21855	297948
5,22267	278029
5,22680	263698
5,23092	252951
5,23503	237312
5,23917	219375
5,24328	211408
5,24740	199219
5,25153	188959
5,25565	180388
5,25977	172095
5,26390	167380
5,26802	159335
5,27213	154033
5,27627	150168
5,28038	143127
5,28450	137220
5,28863	134727
5,29275	130623
5,29687	128212
5,30098	125603
5,30512	123634
5,30923	121813
5,31335	117728
5,31748	120054
5,32160	119504
5,32572	126982
5,32985	145581
5,33397	186187
5,33808	247229
5,34222	341561
5,34633	439531
5,35045	535719
5,35458	617171
5,35870	662449
5,36282	686685
5,36695	700495
5,37107	703244
5,37518	701174
5,37932	680706
5,38343	662390
5,38755	654441
5,39167	634531
5,39580	621363
5,39992	599267
5,40403	586577
5,40817	567035
5,41228	551712
5,41640	533810
5,42053	521891
5,42465	501654
5,42877	491242
5,43290	479583
5,43702	457270
5,44113	436565
5,44527	427552
5,44938	414519
5,45350	398416
5,45763	381736
5,46175	366875
5,46587	351222
5,47000	343068
5,47412	317208
5,47823	305163
5,48235	289242
5,48648	272345
5,49060	254004
5,49472	238065
5,49885	228015
5,50297	213466
5,50708	199163
5,51122	186847
5,51533	173672
5,51945	166826
5,52358	157642
5,52770	151323
5,53182	142661
5,53595	139097
5,54007	128072
5,54418	124444
5,54832	119109
5,55243	116106
5,55655	109354
5,56068	108734
5,56480	104766
5,56892	102860
5,57303	100085
5,57717	100408
5,58128	97707
5,58540	96101
5,58953	93463
5,59365	91937
5,59777	88553
5,60190	89054
5,60602	91214
5,61013	88241
5,61427	84658
5,61838	85720
5,62250	85795
5,62663	85514
5,63075	84632
5,63487	85244
5,63900	80992
5,64312	84653
5,64723	82962
5,65137	82210
5,65548	82225
5,65960	79273
5,66372	77060
5,66785	80458
5,67197	81178
5,67608	83382
5,68022	82014
5,68433	83334
5,68845	92996
5,69258	110717
5,69670	153254
5,70082	239438
5,70495	369335
5,70907	559027
5,71318	778723
5,71732	985686
5,72143	1183912
5,72555	1312597
5,72968	1401766
5,73380	1447435
5,73792	1450144
5,74205	1441853
5,74617	1397465
5,75028	1380554
5,75440	1345941
5,75853	1310993
5,76265	1273931
5,76677	1222643
5,77090	1184191
5,77502	1165519
5,77913	1121609
5,78327	1082904
5,78738	1041040
5,79150	1007932
5,79563	971804
5,79975	942639
5,80387	897964
5,80800	868942
5,81212	837418
5,81623	794199
5,82037	746663
5,82448	701221
5,82860	663742
5,83273	619063
5,83685	578565
5,84097	536592
5,84508	488925
5,84922	444750
5,85333	411666
5,85745	371629
5,86158	340537
5,86570	304772
5,86982	283193
5,87395	257034
5,87807	231183
5,88218	210338
5,88632	195400
5,89043	179361
5,89455	166655
5,89868	154923
5,90280	145817
5,90692	133383
5,91105	126482
5,91517	121524
5,91928	114438
5,92342	107683
5,92753	103461
5,93165	98776
5,93577	94579
5,93990	91840
5,94402	88690
5,94813	88939
5,95227	83947
5,95638	81223
5,96050	79406
5,96463	77772
5,96875	78369
5,97287	77101
5,97700	74802
5,98112	73031
5,98523	74796
5,98937	72034
5,99348	70645
5,99760	72384
6,00173	70163
6,00585	69616
6,00997	67349
6,01410	68683
6,01822	67664
6,02233	65811
6,02645	68143
6,03058	66158
6,03470	64708
6,03882	65352
6,04295	63331
6,04707	63936
6,05118	65975
6,05532	63671
6,05943	63104
6,06355	62520
6,06768	61316
6,07180	62984
6,07592	58506
6,08005	61849
6,08417	57981
6,08828	60949
6,09242	57608
6,09653	57590
6,10065	60512
6,10478	57658
6,10890	58326
6,11302	58565
6,11713	60345
6,12127	60724
6,12538	67183
6,12950	82286
6,13363	109906
6,13775	157429
6,14187	233249
6,14600	333967
6,15012	451399
6,15423	568983
6,15837	675631
6,16248	747460
6,16660	794557
6,17073	824144
6,17485	835018
6,17897	820566
6,18310	799868
6,18722	780431
6,19133	766667
6,19547	743154
6,19958	723942
6,20370	696709
6,20782	678070
6,21195	664723
6,21607	636667
6,22018	613892
6,22432	606454
6,22843	577178
6,23255	560111
6,23668	533152
6,24080	514573
6,24492	482644
6,24905	454033
6,25317	423874
6,25728	399061
6,26142	360045
6,26553	331055
6,26965	305871
6,27378	277291
6,27790	253547
6,28202	227278
6,28615	205947
6,29027	187019
6,29438	174165
6,29850	156580
6,30263	144251
6,30675	137474
6,31087	126122
6,31500	116970
6,31912	111802
6,32323	104149
6,32737	98211
6,33148	93498
6,33560	87690
6,33973	83592
6,34385	80686
6,34797	77939
6,35210	74716
6,35622	72781
6,36033	71690
6,36447	70948
6,36858	70262
6,37270	67461
6,37683	67737
6,38095	67555
6,38507	66623
6,38918	67005
6,39332	63981
6,39743	63623
6,40155	64039
6,40568	63504
6,40980	61755
6,41392	60849
6,41805	58211
6,42217	62108
6,42628	59160
6,43042	60616
6,43453	60051
6,43865	55355
6,44278	56178
6,44690	55138
6,45102	55976
6,45515	54170
6,45927	54163
6,46338	54617
6,46752	55350
6,47163	52185
6,47575	50235
6,47988	52936
6,48400	51564
6,48812	50901
6,49223	48172
6,49637	48068
6,50048	48277
6,50460	48441
6,50873	49671
6,51285	48890
6,51697	48593
6,52110	50130
6,52522	47620
6,52933	48717
6,53347	46951
6,53758	45671
6,54170	44012
6,54583	48311
6,54995	46253
6,55407	48564
6,55820	46296
6,56232	46791
6,56643	47377
6,57057	46278
6,57468	47241
6,57880	43757
6,58292	46611
6,58705	46114
6,59117	46694
6,59528	46928
6,59942	48029
6,60353	45513
6,60765	44902
6,61178	44228
6,61590	46650
6,62002	47067
6,62415	55446
6,62827	69737
6,63238	109075
6,63652	178755
6,64063	299053
6,64475	477498
6,64888	698092
6,65300	965922
6,65712	1229563
6,66125	1471908
6,66537	1639878
6,66948	1757958
6,67360	1828068
6,67773	1856704
6,68185	1826384
6,68597	1797451
6,69010	1757670
6,69422	1705966
6,69833	1667253
6,70247	1612391
6,70658	1555317
6,71070	1509922
6,71483	1465211
6,71895	1401278
6,72307	1341619
6,72720	1290260
6,73132	1228249
6,73543	1156155
6,73957	1070911
6,74368	986795
6,74780	898688
6,75193	810004
6,75605	732646
6,76017	645305
6,76428	578130
6,76842	504908
6,77253	444665
6,77665	389103
6,78078	343654
6,78490	304334
6,78902	267830
6,79315	233945
6,79727	209074
6,80138	182700
6,80552	165781
6,80963	148981
6,81375	134958
6,81788	123561
6,82200	112229
6,82612	105225
6,83025	99142
6,83437	89123
6,83848	82823
6,84262	80593
6,84673	76576
6,85085	74063
6,85497	68703
6,85910	67678
6,86322	63370
6,86733	62927
6,87147	62264
6,87558	60120
6,87970	56983
6,88383	56608
6,88795	56636
6,89207	52561
6,89620	53300
6,90032	50595
6,90443	52250
6,90857	52157
6,91268	54154
6,91680	53886
6,92093	54574
6,92505	55704
6,92917	57068
6,93330	55228
6,93742	57266
6,94153	57828
6,94565	56487
6,94978	54685
6,95390	55634
6,95802	52558
6,96215	55466
6,96627	51632
6,97038	51880
6,97452	52383
6,97863	50148
6,98275	49687
6,98688	50477
6,99100	53624
6,99512	52043
6,99925	54705
7,00337	54938
7,00748	52448
7,01162	54012
7,01573	54234
7,01985	51466
7,02398	52556
7,02810	50407
7,03222	50884
7,03633	50086
7,04047	49611
7,04458	50553
7,04870	49152
7,05283	48935
7,05695	49846
7,06107	55125
7,06520	61134
7,06932	80282
7,07343	117875
7,07757	169317
7,08168	251396
7,08580	357040
7,08993	478013
7,09405	598947
7,09817	722694
7,10230	806478
7,10642	893070
7,11053	933656
7,11467	947788
7,11878	942889
7,12290	938213
7,12702	921434
7,13115	897336
7,13527	861458
7,13938	829446
7,14352	803128
7,14763	770986
7,15175	742022
7,15588	705234
7,16000	668127
7,16412	625668
7,16825	573879
7,17237	526073
7,17648	485092
7,18062	435208
7,18473	396520
7,18885	358443
7,19298	347633
7,19710	343360
7,20122	370215
7,20535	436548
7,20947	537409
7,21358	662820
7,21770	787467
7,22183	901029
7,22595	1011197
7,23007	1070361
7,23420	1108148
7,23832	1123378
7,24243	1117449
7,24657	1096999
7,25068	1055915
7,25480	1025520
7,25893	996951
7,26305	969084
7,26717	935037
7,27130	899654
7,27542	849813
7,27953	798427
7,28367	752124
7,28778	699089
7,29190	637985
7,29603	583488
7,30015	519550
7,30427	460183
7,30838	404676
7,31252	351903
7,31663	308462
7,32075	270330
7,32488	239023
7,32900	204891
7,33312	181986
7,33725	157512
7,34137	141495
7,34548	128015
7,34962	114460
7,35373	104499
7,35785	95919
7,36198	86871
7,36610	80654
7,37022	74013
7,37435	70667
7,37847	67548
7,38258	65023
7,38672	59255
7,39083	58421
7,39495	59921
7,39907	55663
7,40320	54177
7,40732	51580
7,41143	50456
7,41557	49922
7,41968	45045
7,42380	44863
7,42793	48186
7,43205	44229
7,43617	44056
7,44030	43309
7,44442	43300
7,44853	42255
7,45267	42610
7,45678	41607
7,46090	40545
7,46503	40025
7,46915	40103
7,47327	39980
7,47740	39045
7,48152	38188
7,48563	37226
7,48975	36768
7,49388	39238
7,49800	36478
7,50212	36411
7,50625	36555
7,51037	34502
7,51448	35327
7,51862	34131
7,52273	34877
7,52685	34369
7,53098	35494
7,53510	35796
7,53922	34513
7,54335	33502
7,54747	32573
7,55158	33321
7,55572	31527
7,55983	33780
7,56395	32806
7,56808	31921
7,57220	31951
7,57632	33583
7,58043	30638
7,58457	31822
7,58868	32258
7,59280	31497
7,59693	31578
7,60105	32340
7,60517	32329
7,60930	30608
7,61342	31042
7,61753	30976
7,62167	31367
7,62578	31411
7,62990	31160
7,63403	31950
7,63815	32029
7,64227	30479
7,64640	31754
7,65052	32402
7,65463	32707
7,65877	33153
7,66288	41292
7,66700	50631
7,67112	73133
7,67525	111554
7,67937	171519
7,68348	262403
7,68762	381873
7,69173	520927
7,69585	667603
7,69998	805393
7,70410	919912
7,70822	1000989
7,71235	1067790
7,71647	1091336
7,72058	1094022
7,72472	1083389
7,72883	1052892
7,73295	1029170
7,73708	986368
7,74120	959289
7,74532	901242
7,74945	849169
7,75357	789661
7,75768	720268
7,76180	659265
7,76593	593175
7,77005	517213
7,77417	454197
7,77830	397461
7,78242	345625
7,78653	310074
7,79067	271706
7,79478	258602
7,79890	275584
7,80303	330797
7,80715	462246
7,81127	691927
7,81540	1003052
7,81952	1422024
7,82363	1888792
7,82777	2379371
7,83188	2870164
7,83600	3242592
7,84013	3499153
7,84425	3674691
7,84837	3760768
7,85248	3756136
7,85662	3722777
7,86073	3621762
7,86485	3484057
7,86898	3343853
7,87310	3198513
7,87722	2995103
7,88135	2748001
7,88547	2517889
7,88958	2274937
7,89372	2013839
7,89783	1770699
7,90195	1533946
7,90608	1312517
7,91020	1125624
7,91432	947188
7,91845	809229
7,92257	674182
7,92668	577565
7,93082	490820
7,93493	420596
7,93905	359771
7,94317	311218
7,94730	279006
7,95142	244155
7,95553	213725
7,95967	194353
7,96378	177416
7,96790	158256
7,97203	145761
7,97615	135180
7,98027	123795
7,98440	114767
7,98852	106952
7,99263	106033
7,99677	99983
8,00088	91336
8,00500	82569
8,00913	81551
8,01325	79588
8,01737	76852
8,02150	73800
8,02562	71566
8,02973	68917
8,03385	66251
8,03798	65576
8,04210	63137
8,04622	63002
8,05035	59132
8,05447	58084
8,05858	57251
8,06272	56664
8,06683	57274
8,07095	54503
8,07508	56622
8,07920	54702
8,08332	54301
8,08745	52150
8,09157	50246
8,09568	49952
8,09982	50823
8,10393	49368
8,10805	50070
8,11218	49345
8,11630	47077
8,12042	44960
8,12453	45757
8,12867	44492
8,13278	45033
8,13690	44549
8,14103	43023
8,14515	42280
8,14927	42463
8,15340	42548
8,15752	39791
8,16163	39390
8,16577	37706
8,16988	39198
8,17400	38088
8,17813	37602
8,18225	36789
8,18637	37897
8,19050	36760
8,19462	37743
8,19873	40463
8,20287	37719
8,20698	38653
8,21110	41950
8,21523	45332
8,21935	57408
8,22347	80818
8,22758	116888
8,23172	177555
8,23583	268840
8,23995	396891
8,24408	557135
8,24820	717022
8,25232	887425
8,25645	1022765
8,26057	1122523
8,26468	1208124
8,26882	1229017
8,27293	1241764
8,27705	1232215
8,28118	1204896
8,28530	1168749
8,28942	1114005
8,29355	1038765
8,29767	957583
8,30178	874038
8,30592	793648
8,31003	696136
8,31415	604647
8,31827	524894
8,32240	452163
8,32652	382272
8,33063	330182
8,33477	283230
8,33888	243996
8,34300	209813
8,34713	184534
8,35125	159573
8,35537	142306
8,35950	126867
8,36362	113735
8,36773	105015
8,37187	93761
8,37598	89637
8,38010	82703
8,38423	77398
8,38835	72999
8,39247	68680
8,39660	61881
8,40072	60919
8,40483	57098
8,40895	54968
8,41308	54850
8,41720	50764
8,42132	49238
8,42545	46586
8,42957	45449
8,43368	49747
8,43782	54994
8,44193	71910
8,44605	103135
8,45018	156162
8,45430	244532
8,45842	365679
8,46255	530521
8,46667	716940
8,47078	913178
8,47492	1104594
8,47903	1240403
8,48315	1368817
8,48728	1434694
8,49140	1454821
8,49552	1442773
8,49963	1403913
8,50377	1364425
8,50788	1285629
8,51200	1198376
8,51613	1102279
8,52025	984155
8,52437	888646
8,52850	772374
8,53262	671549
8,53673	577412
8,54087	486251
8,54498	413884
8,54910	359127
8,55323	306158
8,55735	264682
8,56147	231999
8,56560	197772
8,56972	170458
8,57383	156579
8,57797	141802
8,58208	127384
8,58620	115090
8,59032	108841
8,59445	98055
8,59857	91126
8,60268	87431
8,60682	81453
8,61093	75345
8,61505	74417
8,61918	69859
8,62330	66752
8,62742	62923
8,63155	62325
8,63567	60472
8,63978	52577
8,64392	54368
8,64803	52210
8,65215	50031
8,65628	46185
8,66040	46921
8,66452	45829
8,66865	43676
8,67277	41777
8,67688	42897
8,68100	41831
8,68513	41157
8,68925	39125
8,69337	39535
8,69750	39424
8,70162	37271
8,70573	36858
8,70987	35694
8,71398	37291
8,71810	36667
8,72223	33679
8,72635	33010
8,73047	32458
8,73460	32553
8,73872	34702
8,74283	33537
8,74697	32031
8,75108	34546
8,75520	35233
8,75933	35498
8,76345	34762
8,76757	35305
8,77168	35407
8,77582	33764
8,77993	33342
8,78405	33259
8,78818	33058
8,79230	32907
8,79642	31814
8,80055	32212
8,80467	31045
8,80878	31881
8,81292	30596
8,81703	30186
8,82115	30649
8,82528	29807
8,82940	29029
8,83352	29297
8,83765	27862
8,84177	28131
8,84588	27611
8,85002	28128
8,85413	27777
8,85825	27692
8,86237	28037
8,86650	28448
8,87062	31062
8,87473	35359
8,87887	49941
8,88298	73977
8,88710	113423
8,89123	185952
8,89535	285558
8,89947	428297
8,90360	607689
8,90772	807665
8,91183	995819
8,91597	1170255
8,92008	1313632
8,92420	1420624
8,92833	1479031
8,93245	1492347
8,93657	1470867
8,94070	1386416
8,94482	1316925
8,94893	1217288
8,95305	1092522
8,95718	958739
8,96130	845058
8,96542	720419
8,96955	618283
8,97367	519073
8,97778	432753
8,98192	362557
8,98603	316605
8,99015	259531
8,99428	218045
8,99840	193342
9,00252	166473
9,00665	146444
9,01077	129476
9,01488	120102
9,01902	108424
9,02313	97119
9,02725	90837
9,03138	83060
9,03550	79870
9,03962	75812
9,04373	71822
9,04787	63499
9,05198	60839
9,05610	60176
9,06023	54280
9,06435	54176
9,06847	51793
9,07260	49287
9,07672	45859
9,08083	45577
9,08497	43202
9,08908	44292
9,09320	46344
9,09733	49044
9,10145	58295
9,10557	82162
9,10970	133371
9,11382	222501
9,11793	365211
9,12207	600094
9,12618	900002
9,13030	1292873
9,13442	1756447
9,13855	2215008
9,14267	2671646
9,14678	3065089
9,15092	3341263
9,15503	3455025
9,15915	3493762
9,16328	3377762
9,16740	3186825
9,17152	2923059
9,17565	2635595
9,17977	2327057
9,18388	2017606
9,18802	1723845
9,19213	1437409
9,19625	1185039
9,20038	984958
9,20450	818509
9,20862	674060
9,21275	563672
9,21687	479493
9,22098	406017
9,22510	347891
9,22923	306930
9,23335	260786
9,23747	236556
9,24160	211783
9,24572	189551
9,24983	172136
9,25397	156722
9,25808	147718
9,26220	134297
9,26633	125598
9,27045	114921
9,27457	110868
9,27870	105802
9,28282	101879
9,28693	98320
9,29107	96898
9,29518	97990
9,29930	96035
9,30343	100543
9,30755	93355
9,31167	95812
9,31578	92979
9,31992	91824
9,32403	94859
9,32815	91174
9,33228	86880
9,33640	83463
9,34052	79793
9,34465	77238
9,34877	75801
9,35288	74216
9,35702	76630
9,36113	85970
9,36525	106161
9,36938	149914
9,37350	217737
9,37762	333759
9,38175	494626
9,38587	690668
9,38998	920020
9,39412	1140837
9,39823	1355588
9,40235	1516333
9,40647	1634892
9,41060	1691570
9,41472	1666904
9,41883	1614917
9,42297	1530413
9,42708	1396723
9,43120	1246634
9,43533	1088811
9,43945	955824
9,44357	799259
9,44770	673170
9,45182	561477
9,45593	471587
9,46007	392845
9,46418	334249
9,46830	281127
9,47243	242791
9,47655	212579
9,48067	187336
9,48480	169589
9,48892	156079
9,49303	157020
9,49715	174007
9,50128	218632
9,50540	308842
9,50952	459142
9,51365	690499
9,51777	1033801
9,52188	1443689
9,52602	1879015
9,53013	2354989
9,53425	2776109
9,53838	3118588
9,54250	3352822
9,54662	3457537
9,55075	3425626
9,55487	3284709
9,55898	3052892
9,56312	2772285
9,56723	2440673
9,57135	2096800
9,57548	1766464
9,57960	1482387
9,58372	1224362
9,58783	1005680
9,59197	842007
9,59608	695639
9,60020	586720
9,60433	497473
9,60845	428674
9,61257	370208
9,61670	324085
9,62082	279856
9,62493	252438
9,62907	225119
9,63318	205315
9,63730	187771
9,64143	173276
9,64555	160960
9,64967	147603
9,65380	139467
9,65792	131468
9,66203	123007
9,66617	117777
9,67028	107070
9,67440	102681
9,67852	99311
9,68265	94107
9,68677	87629
9,69088	85697
9,69502	84286
9,69913	79111
9,70325	76891
9,70738	71463
9,71150	70220
9,71562	68091
9,71975	63209
9,72387	66389
9,72798	63393
9,73212	57409
9,73623	58954
9,74035	56474
9,74448	54152
9,74860	55340
9,75272	54920
9,75685	52896
9,76097	53503
9,76508	58534
9,76920	72055
9,77333	102171
9,77745	157729
9,78157	249969
9,78570	416117
9,78982	670796
9,79393	1007304
9,79807	1471025
9,80218	2023714
9,80630	2632678
9,81043	3277069
9,81455	3841399
9,81867	4388915
9,82280	4782802
9,82692	5012639
9,83103	5004609
9,83517	4842581
9,83928	4510837
9,84340	4059368
9,84753	3511735
9,85165	2981192
9,85577	2509254
9,85990	2069827
9,86402	1695533
9,86813	1385699
9,87225	1131779
9,87638	930588
9,88050	788647
9,88462	669415
9,88875	569729
9,89287	494681
9,89698	434754
9,90112	383357
9,90523	343473
9,90935	309502
9,91348	277670
9,91760	250596
9,92172	229693
9,92585	213573
9,92997	193876
9,93408	184018
9,93822	174218
9,94233	157509
9,94645	149670
9,95058	139655
9,95470	135941
9,95882	129497
9,96293	120262
9,96707	118027
9,97118	110193
9,97530	106455
9,97943	100883
9,98355	98059
9,98767	95949
9,99180	91015
9,99592	87920
10,00003	81196
10,00417	82840
10,00828	79685
10,01240	76846
10,01653	75664
10,02065	74653
10,02477	73275
10,02890	66976
10,03302	67639
10,03713	64970
10,04127	65334
10,04538	64736
10,04950	59127
10,05362	63035
10,05775	61108
10,06187	59210
10,06598	61603
10,07012	59865
10,07423	61919
10,07835	68072
10,08248	87973
10,08660	123140
10,09072	175640
10,09485	273895
10,09897	401000
10,10308	571520
10,10722	763007
10,11133	986156
10,11545	1189408
10,11958	1355247
10,12370	1485940
10,12782	1547870
10,13195	1546941
10,13607	1488110
10,14018	1391989
10,14430	1236993
10,14843	1084492
10,15255	929505
10,15667	767134
10,16080	644639
10,16492	537217
10,16903	451854
10,17317	373377
10,17728	317861
10,18140	272665
10,18553	237411
10,18965	209235
10,19377	185603
10,19790	166104
10,20202	151307
10,20613	135432
10,21027	129117
10,21438	118345
10,21850	111619
10,22263	101707
10,22675	95143
10,23087	90591
10,23498	85183
10,23912	80232
10,24323	77425
10,24735	74393
10,25148	69375
10,25560	67806
10,25972	63766
10,26385	63298
10,26797	59487
10,27208	58607
10,27622	59724
10,28033	55562
10,28445	53720
10,28858	50781
10,29270	53872
10,29682	49570
10,30095	49174
10,30507	45557
10,30918	46185
10,31332	43864
10,31743	44626
10,32155	44601
10,32567	42155
10,32980	40914
10,33392	40149
10,33803	40518
10,34217	39668
10,34628	39995
10,35040	37713
10,35453	37779
10,35865	39544
10,36277	35438
10,36690	37403
10,37102	36351
10,37513	34593
10,37927	34984
10,38338	34081
10,38750	33971
10,39163	35474
10,39575	32998
10,39987	34607
10,40400	33897
10,40812	35029
10,41223	36522
10,41635	34103
10,42048	33358
10,42460	34602
10,42872	32144
10,43285	33201
10,43697	33039
10,44108	31906
10,44522	32551
10,44933	35894
10,45345	44170
10,45758	58339
10,46170	93683
10,46582	164091
10,46995	288367
10,47407	487197
10,47818	789206
10,48232	1190933
10,48643	1734582
10,49055	2291245
10,49468	2913291
10,49880	3484219
10,50292	3979490
10,50703	4288905
10,51117	4392353
10,51528	4287447
10,51940	4025756
10,52353	3684861
10,52765	3361242
10,53177	3088286
10,53590	2850520
10,54002	2670675
10,54413	2538092
10,54827	2334261
10,55238	2157788
10,55650	1970381
10,56063	1771755
10,56475	1545829
10,56887	1335547
10,57300	1147585
10,57712	971026
10,58123	836813
10,58537	700743
10,58948	601071
10,59360	520004
10,59772	445312
10,60185	392801
10,60597	350243
10,61008	311286
10,61422	281885
10,61833	250767
10,62245	233378
10,62658	212376
10,63070	196560
10,63482	181064
10,63895	172879
10,64307	156888
10,64718	152927
10,65132	141588
10,65543	132913
10,65955	125727
10,66368	119248
10,66780	115912
10,67192	110857
10,67605	106529
10,68017	100756
10,68428	97702
10,68840	95361
10,69253	89296
10,69665	86690
10,70077	81951
10,70490	82204
10,70902	79172
10,71313	77520
10,71727	74523
10,72138	72545
10,72550	71479
10,72963	68661
10,73375	67910
10,73787	67102
10,74200	68350
10,74612	67766
10,75023	66948
10,75437	70126
10,75848	82282
10,76260	103029
10,76673	135937
10,77085	201465
10,77497	294074
10,77908	428889
10,78322	607955
10,78733	807530
10,79145	1027015
10,79558	1195672
10,79970	1339524
10,80382	1412044
10,80795	1419944
10,81207	1381390
10,81618	1279021
10,82032	1164376
10,82443	1010890
10,82855	860566
10,83268	725479
10,83680	611723
10,84092	519720
10,84505	442682
10,84917	396617
10,85328	381402
10,85742	409188
10,86153	477587
10,86565	617913
10,86977	810695
10,87390	1061176
10,87802	1341611
10,88213	1614488
10,88627	1860282
10,89038	2000136
10,89450	2040890
10,89863	1987345
10,90275	1838214
10,90687	1633336
10,91100	1416025
10,91512	1206677
10,91923	1000147
10,92337	843429
10,92748	704436
10,93160	585516
10,93573	498881
10,93985	423696
10,94397	363607
10,94810	315570
10,95222	283668
10,95633	252420
10,96045	232558
10,96458	207637
10,96870	187700
10,97282	172775
10,97695	158480
10,98107	148765
10,98518	137624
10,98932	131759
10,99343	122236
10,99755	117350
11,00168	113708
11,00580	105938
11,00992	99952
11,01405	95467
11,01817	89567
11,02228	90237
11,02642	84867
11,03053	81790
11,03465	79216
11,03878	77143
11,04290	72039
11,04702	69487
11,05113	70104
11,05527	69446
11,05938	66326
11,06350	64580
11,06763	61791
11,07175	60723
11,07587	61353
11,08000	58946
11,08412	57625
11,08823	57303
11,09237	52642
11,09648	57782
11,10060	54603
11,10473	54865
11,10885	52807
11,11297	53060
11,11710	55639
11,12122	52658
11,12533	53870
11,12947	64885
11,13358	79041
11,13770	116418
11,14182	178867
11,14595	283474
11,15007	445123
11,15418	677213
11,15832	990548
11,16243	1318986
11,16655	1646281
11,17068	1907369
11,17480	2081610
11,17892	2164584
11,18305	2102154
11,18717	1955212
11,19128	1739971
11,19542	1483868
11,19953	1238948
11,20365	1018308
11,20778	847306
11,21190	702964
11,21602	589706
11,22015	495032
11,22427	422652
11,22838	369262
11,23250	322915
11,23663	286671
11,24075	259419
11,24487	232505
11,24900	212167
11,25312	189130
11,25723	175591
11,26137	159450
11,26548	150438
11,26960	139251
11,27373	132066
11,27785	127427
11,28197	117218
11,28610	115588
11,29022	109617
11,29433	102758
11,29847	95461
11,30258	96934
11,30670	92442
11,31083	87738
11,31495	85884
11,31907	86772
11,32318	84557
11,32732	81892
11,33143	78792
11,33555	74450
11,33968	75075
11,34380	71252
11,34792	70153
11,35205	68314
11,35617	65280
11,36028	64692
11,36442	63367
11,36853	62606
11,37265	62458
11,37678	60903
11,38090	56355
11,38502	59029
11,38915	56135
11,39327	58024
11,39738	56186
11,40152	52764
11,40563	55762
11,40975	52380
11,41388	52193
11,41800	52619
11,42212	51952
11,42623	59904
11,43037	73275
11,43448	99422
11,43860	147268
11,44273	228250
11,44685	359526
11,45097	534793
11,45510	756689
11,45922	1015535
11,46333	1254292
11,46747	1455618
11,47158	1630774
11,47570	1686773
11,47983	1657760
11,48395	1568441
11,48807	1405565
11,49220	1233526
11,49632	1040214
11,50043	876441
11,50457	730840
11,50868	605044
11,51280	507290
11,51692	430597
11,52105	370230
11,52517	310728
11,52928	275339
11,53342	238617
11,53753	217614
11,54165	192300
11,54578	173375
11,54990	161488
11,55402	151167
11,55815	138277
11,56227	130443
11,56638	121799
11,57052	114618
11,57463	106323
11,57875	105534
11,58288	98865
11,58700	94282
11,59112	88472
11,59525	85828
11,59937	84566
11,60348	78804
11,60760	76093
11,61173	73401
11,61585	73653
11,61997	70891
11,62410	66475
11,62822	67886
11,63233	67235
11,63647	61200
11,64058	61036
11,64470	59271
11,64883	56088
11,65295	56242
11,65707	55251
11,66120	53960
11,66532	53446
11,66943	52422
11,67357	51260
11,67768	51325
11,68180	51074
11,68593	50768
11,69005	48476
11,69417	48018
11,69828	47056
11,70242	48222
11,70653	45194
11,71065	44341
11,71478	44137
11,71890	46934
11,72302	43606
11,72715	45861
11,73127	44281
11,73538	43362
11,73952	47308
11,74363	44552
11,74775	48690
11,75188	43608
11,75600	45837
11,76012	42281
11,76425	42218
11,76837	41807
11,77248	44530
11,77662	44061
11,78073	41841
11,78485	44147
11,78897	53716
11,79310	66003
11,79722	93599
11,80133	148010
11,80547	245239
11,80958	398750
11,81370	647531
11,81783	986332
11,82195	1451845
11,82607	2006083
11,83020	2616353
11,83432	3220070
11,83843	3836683
11,84257	4266202
11,84668	4481599
11,85080	4477762
11,85493	4134785
11,85905	3715098
11,86317	3285145
11,86730	2897555
11,87142	2614888
11,87553	2444461
11,87965	2397376
11,88378	2382669
11,88790	2341090
11,89202	2273061
11,89615	2164827
11,90027	2004534
11,90438	1795154
11,90852	1571428
11,91263	1367716
11,91675	1165640
11,92088	987694
11,92500	842804
11,92912	718893
11,93325	622551
11,93737	547624
11,94148	486740
11,94562	432343
11,94973	393187
11,95385	360004
11,95798	328598
11,96210	299365
11,96622	279193
11,97033	258268
11,97447	241742
11,97858	224738
11,98270	213652
11,98683	201808
11,99095	189525
11,99507	180573
11,99920	170005
12,00332	166975
12,00743	160612
12,01157	151509
12,01568	144547
12,01980	138619
12,02393	132565
12,02805	128705
12,03217	124085
12,03630	121047
12,04042	119177
12,04453	113617
12,04867	111219
12,05278	111118
12,05690	103194
12,06102	105576
12,06515	107562
12,06927	100100
12,07338	99963
12,07752	97545
12,08163	102176
12,08575	101998
12,08988	105176
12,09400	112237
12,09812	131859
12,10225	165057
12,10637	223956
12,11048	316401
12,11462	453509
12,11873	632293
12,12285	847085
12,12698	1082592
12,13110	1287790
12,13522	1458364
12,13935	1561820
12,14347	1560592
12,14758	1480287
12,15170	1351059
12,15583	1213269
12,15995	1061695
12,16407	935689
12,16820	848753
12,17232	836202
12,17643	864058
12,18057	993398
12,18468	1197362
12,18880	1502544
12,19293	1863316
12,19705	2234283
12,20117	2610374
12,20530	2939352
12,20942	3194263
12,21353	3288848
12,21767	3270103
12,22178	3106587
12,22590	2849941
12,23003	2522387
12,23415	2181665
12,23827	1834675
12,24238	1544488
12,24652	1288174
12,25063	1078334
12,25475	910841
12,25888	792929
12,26300	686871
12,26712	605335
12,27125	541616
12,27537	490598
12,27948	441457
12,28362	406673
12,28773	369509
12,29185	341814
12,29598	311981
12,30010	292452
12,30422	271748
12,30835	254869
12,31247	232642
12,31658	224647
12,32072	209836
12,32483	197139
12,32895	186986
12,33307	178632
12,33720	167380
12,34132	163170
12,34543	158106
12,34957	150800
12,35368	145170
12,35780	140913
12,36193	133264
12,36605	134140
12,37017	128808
12,37430	121260
12,37842	119850
12,38253	118384
12,38667	114093
12,39078	110077
12,39490	109670
12,39903	106112
12,40315	100666
12,40727	99454
12,41140	99279
12,41552	92044
12,41963	93455
12,42375	94000
12,42788	90770
12,43200	91499
12,43612	92069
12,44025	95864
12,44437	112013
12,44848	139118
12,45262	189911
12,45673	280035
12,46085	421398
12,46498	625151
12,46910	892530
12,47322	1201042
12,47735	1549549
12,48147	1863671
12,48558	2071615
12,48972	2186022
12,49383	2164509
12,49795	2017889
12,50208	1797918
12,50620	1538958
12,51032	1312248
12,51443	1101266
12,51857	927780
12,52268	788237
12,52680	672795
12,53093	582759
12,53505	500356
12,53917	450587
12,54330	405009
12,54742	365535
12,55153	335590
12,55567	307293
12,55978	283673
12,56390	262900
12,56803	244225
12,57215	226582
12,57627	217329
12,58040	202571
12,58452	192499
12,58863	188013
12,59277	174614
12,59688	170064
12,60100	164151
12,60512	157429
12,60925	154226
12,61337	152086
12,61748	147501
12,62162	143434
12,62573	139114
12,62985	138517
12,63398	134004
12,63810	130984
12,64222	124470
12,64635	120979
12,65047	116478
12,65458	113043
12,65872	108609
12,66283	103315
12,66695	101354
12,67108	99922
12,67520	97522
12,67932	94304
12,68345	94660
12,68757	91801
12,69168	91006
12,69580	90950
12,69993	88127
12,70405	85293
12,70817	87260
12,71230	84748
12,71642	85062
12,72053	86932
12,72467	83303
12,72878	83866
12,73290	83797
12,73703	94475
12,74115	104534
12,74527	129307
12,74940	182848
12,75352	265669
12,75763	402604
12,76177	587958
12,76588	816499
12,77000	1060960
12,77413	1307186
12,77825	1527760
12,78237	1680293
12,78648	1716073
12,79062	1665114
12,79473	1558755
12,79885	1384105
12,80298	1210746
12,80710	1033084
12,81122	879914
12,81535	747415
12,81947	637303
12,82358	545351
12,82772	474192
12,83183	417742
12,83595	373646
12,84008	332001
12,84420	305455
12,84832	290807
12,85245	282455
12,85657	296322
12,86068	329910
12,86482	391696
12,86893	492491
12,87305	614227
12,87717	770916
12,88130	942320
12,88542	1094314
12,88953	1208014
12,89367	1288665
12,89778	1305117
12,90190	1271120
12,90603	1180937
12,91015	1058526
12,91427	938144
12,91840	812266
12,92252	703592
12,92663	599840
12,93077	515553
12,93488	444114
12,93900	387578
12,94313	340217
12,94725	307733
12,95137	278288
12,95550	254867
12,95962	227105
12,96373	209074
12,96785	194671
12,97198	180138
12,97610	172022
12,98022	160952
12,98435	156650
12,98847	144567
12,99258	138035
12,99672	135049
13,00083	125972
13,00495	121382
13,00908	121405
13,01320	117389
13,01732	110684
13,02145	107630
13,02557	103291
13,02968	101394
13,03382	98908
13,03793	97004
13,04205	98340
13,04618	93467
13,05030	92737
13,05442	90436
13,05855	87708
13,06267	85586
13,06678	85968
13,07090	87242
13,07503	84761
13,07915	83886
13,08327	85268
13,08740	86184
13,09152	89878
13,09563	99946
13,09977	120734
13,10388	159431
13,10800	215811
13,11213	315244
13,11625	466242
13,12037	676799
13,12450	980183
13,12862	1383152
13,13273	1818218
13,13687	2330539
13,14098	2886994
13,14510	3378388
13,14923	3795199
13,15335	3993418
13,15747	3952813
13,16158	3717066
13,16572	3317334
13,16983	2873546
13,17395	2459265
13,17808	2051989
13,18220	1739255
13,18632	1472859
13,19045	1264225
13,19457	1080814
13,19868	945810
13,20282	838471
13,20693	742696
13,21105	667736
13,21518	606454
13,21930	557333
13,22342	508085
13,22755	467711
13,23167	429776
13,23578	406014
13,23992	378467
13,24403	349539
13,24815	331860
13,25227	316156
13,25640	301195
13,26052	287662
13,26463	274167
13,26877	260728
13,27288	246168
13,27700	235707
13,28113	226388
13,28525	219047
13,28937	208476
13,29350	196607
13,29762	191537
13,30173	185070
13,30587	179894
13,30998	177198
13,31410	167857
13,31823	163566
13,32235	159220
13,32647	154389
13,33060	148921
13,33472	142004
13,33883	142918
13,34295	137773
13,34708	136586
13,35120	134372
13,35532	129679
13,35945	125895
13,36357	123895
13,36768	123380
13,37182	121102
13,37593	116383
13,38005	115324
13,38418	116573
13,38830	111978
13,39242	107519
13,39655	107132
13,40067	104814
13,40478	104709
13,40892	104303
13,41303	102225
13,41715	103170
13,42128	97190
13,42540	96394
13,42952	98494
13,43363	96376
13,43777	96891
13,44188	95045
13,44600	95507
13,45013	91658
13,45425	91163
13,45837	91041
13,46250	94066
13,46662	90741
13,47073	86937
13,47487	88179
13,47898	93630
13,48310	101142
13,48723	112907
13,49135	133522
13,49547	170838
13,49960	234368
13,50372	321774
13,50783	443782
13,51197	618568
13,51608	818924
13,52020	1051460
13,52432	1295659
13,52845	1517238
13,53257	1678134
13,53668	1767240
13,54082	1756830
13,54493	1684842
13,54905	1566046
13,55318	1400363
13,55730	1233098
13,56142	1082810
13,56555	943213
13,56967	814651
13,57378	719697
13,57792	634270
13,58203	560952
13,58615	508438
13,59028	458168
13,59440	415791
13,59852	381109
13,60265	348905
13,60677	326370
13,61088	300951
13,61500	282098
13,61913	266233
13,62325	247081
13,62737	238043
13,63150	227853
13,63562	215515
13,63973	204870
13,64387	198640
13,64798	188428
13,65210	178640
13,65623	171254
13,66035	168034
13,66447	163758
13,66860	157638
13,67272	148679
13,67683	150932
13,68097	142458
13,68508	139117
13,68920	133422
13,69333	130702
13,69745	128643
13,70157	124107
13,70568	123351
13,70982	119290
13,71393	115700
13,71805	111246
13,72218	112946
13,72630	108816
13,73042	107277
13,73455	103129
13,73867	100342
13,74278	101904
13,74692	98562
13,75103	95726
13,75515	96240
13,75928	94568
13,76340	92699
13,76752	91096
13,77165	92257
13,77577	89550
13,77988	89047
13,78402	88523
13,78813	87637
13,79225	85029
13,79637	81885
13,80050	85874
13,80462	87264
13,80873	83718
13,81287	82734
13,81698	80965
13,82110	81117
13,82523	77444
13,82935	78949
13,83347	80747
13,83760	76533
13,84172	79540
13,84583	80400
13,84997	77142
13,85408	78844
13,85820	78128
13,86233	79463
13,86645	80382
13,87057	80409
13,87470	81099
13,87882	77964
13,88293	79631
13,88705	80899
13,89118	81257
13,89530	78044
13,89942	78722
13,90355	79028
13,90767	78033
13,91178	72723
13,91592	72657
13,92003	74106
13,92415	70227
13,92828	70897
13,93240	70487
13,93652	68106
13,94065	68503
13,94477	67762
13,94888	65259
13,95302	65867
13,95713	64566
13,96125	65855
13,96538	66437
13,96950	62238
13,97362	65432
13,97773	67551
13,98187	72765
13,98598	76823
13,99010	84196
13,99423	89645
13,99835	97888
14,00247	108577
14,00660	117293
14,01072	131243
14,01483	136235
14,01897	143723
14,02308	144138
14,02720	146911
14,03133	143023
14,03545	132214
14,03957	128296
14,04370	125691
14,04782	112966
14,05193	108955
14,05607	101459
14,06018	92603
14,06430	90291
14,06842	83301
14,07255	81579
14,07667	78826
14,08078	76436
14,08492	71834
14,08903	74178
14,09315	71634
14,09728	70408
14,10140	68825
14,10552	66430
14,10965	68393
14,11377	65629
14,11788	70093
14,12202	63520
14,12613	64645
14,13025	66157
14,13438	66085
14,13850	59885
14,14262	63162
14,14675	64096
14,15087	60095
14,15498	62625
14,15910	58884
14,16323	60074
14,16735	59385
14,17147	61705
14,17560	57334
14,17972	57522
14,18383	57953
14,18797	57916
14,19208	57723
14,19620	56048
14,20033	56335
14,20445	59108
14,20857	56731
14,21270	55528
14,21682	53066
14,22093	56444
14,22507	55481
14,22918	56373
14,23330	56282
14,23743	55993
14,24155	56010
14,24567	57147
14,24978	56826
14,25392	52455
14,25803	56661
14,26215	54481
14,26628	55778
14,27040	59175
14,27452	53383
14,27865	54500
14,28277	56969
14,28688	54743
14,29102	54328
14,29513	51768
14,29925	55135
14,30338	55038
14,30750	54113
14,31162	55194
14,31575	54201
14,31987	53368
14,32398	53506
14,32812	52227
14,33223	50936
14,33635	53328
14,34047	52210
14,34460	52336
14,34872	52543
14,35283	53931
14,35697	52840
14,36108	53033
14,36520	50964
14,36933	53118
14,37345	52273
14,37757	52137
14,38170	51115
14,38582	50938
14,38993	51765
14,39407	50643
14,39818	50920
14,40230	51028
14,40643	51692
14,41055	50146
14,41467	49240
14,41880	50527
14,42292	49963
14,42703	51110
14,43115	52944
14,43528	52400
14,43940	52810
14,44352	50870
14,44765	50824
14,45177	50387
14,45588	49207
14,46002	53079
14,46413	51724
14,46825	53480
14,47238	53259
14,47650	52035
14,48062	50264
14,48475	48403
14,48887	51229
14,49298	51126
14,49712	50703
14,50123	49230
14,50535	49483
14,50948	49873
14,51360	48282
14,51772	46085
14,52183	47667
14,52597	46815
14,53008	48329
14,53420	48892
14,53833	47772
14,54245	49131
14,54657	48670
14,55070	49588
14,55482	48794
14,55893	48484
14,56307	47481
14,56718	47787
14,57130	49887
14,57543	49840
14,57955	50048
14,58367	50127
14,58780	48431
14,59192	50314
14,59603	50762
14,60017	49393
14,60428	49419
14,60840	48440
14,61253	47206
14,61665	50344
14,62077	50682
14,62488	51478
14,62902	52705
14,63313	60091
14,63725	70348
14,64138	89530
14,64550	111576
14,64962	143190
14,65375	195761
14,65787	259179
14,66198	339098
14,66612	424848
14,67023	520288
14,67435	610470
14,67848	676518
14,68260	740432
14,68672	772292
14,69085	779664
14,69497	770527
14,69908	732483
14,70322	687915
14,70733	631068
14,71145	582763
14,71557	522931
14,71970	470221
14,72382	423256
14,72793	380271
14,73207	340609
14,73618	311646
14,74030	276602
14,74443	253232
14,74855	237782
14,75267	217498
14,75680	197783
14,76092	184892
14,76503	173677
14,76917	160863
14,77328	153258
14,77740	147617
14,78153	134698
14,78565	131991
14,78977	126056
14,79390	122816
14,79802	115970
14,80213	113439
14,80625	107661
14,81038	101288
14,81450	101014
14,81862	100532
14,82275	94544
14,82687	93710
14,83098	88974
14,83512	88635
14,83923	85809
14,84335	83892
14,84748	79850
14,85160	82758
14,85572	77918
14,85985	77538
14,86397	79240
14,86808	78943
14,87222	72196
14,87633	73764
14,88045	73533
14,88458	72675
14,88870	71800
14,89282	71154
14,89693	67208
14,90107	69765
14,90518	66579
14,90930	69509
14,91343	67390
14,91755	66524
14,92167	66472
14,92580	64327
14,92992	65446
14,93403	65508
14,93817	65540
14,94228	63730
14,94640	61806
14,95053	60672
14,95465	57244
14,95877	60754
14,96290	61916
14,96702	61736
14,97113	59441
14,97527	57501
14,97938	58754
14,98350	58072
14,98762	58299
14,99175	58109
14,99587	58900
14,99998	55861
15,00412	55708
15,00823	54853
15,01235	55071
15,01648	57064
15,02060	55764
15,02472	52066
15,02885	54388
15,03297	54208
15,03708	55591
15,04122	55049
15,04533	51777
15,04945	53577
15,05358	51901
15,05770	53746
15,06182	52557
15,06595	52326
15,07007	51028
15,07418	52176
15,07830	52140
15,08243	50501
15,08655	52800
15,09067	53347
15,09480	49696
15,09892	51694
15,10303	52533
15,10717	54612
15,11128	52960
15,11540	52221
15,11953	50673
15,12365	50735
15,12777	51434
15,13190	51507
15,13602	51825
15,14013	50841
15,14427	50370
15,14838	49511
15,15250	49531
15,15663	50710
15,16075	53013
15,16487	52665
15,16898	50415
15,17312	51777
15,17723	48845
15,18135	52583
15,18548	51553
15,18960	47794
15,19372	51397
15,19785	49642
15,20197	49515
15,20608	50311
15,21022	49655
15,21433	49968
15,21845	48511
15,22258	49507
15,22670	50880
15,23082	49304
15,23495	52389
15,23907	46274
15,24318	49445
15,24732	48924
15,25143	48869
15,25555	46182
15,25967	48466
15,26380	47891
15,26792	48413
15,27203	47927
15,27617	46473
15,28028	46123
15,28440	45789
15,28853	47875
15,29265	47688
15,29677	47545
15,30090	47806
15,30502	46583
15,30913	47332
15,31327	51205
15,31738	46670
15,32150	47660
15,32563	48164
15,32975	49250
15,33387	49863
15,33800	50889
15,34212	48031
15,34623	47993
15,35035	47027
15,35448	48278
15,35860	48473
15,36272	48218
15,36685	48985
15,37097	48832
15,37508	49202
15,37922	49874
15,38333	48103
15,38745	47310
15,39158	47499
15,39570	50894
15,39982	50110
15,40395	48070
15,40807	46514
15,41218	46861
15,41632	47352
15,42043	47350
15,42455	48186
15,42868	47694
15,43280	47194
15,43692	47857
15,44103	47418
15,44517	50034
15,44928	49025
15,45340	50760
15,45753	47368
15,46165	46994
15,46577	45770
15,46990	47209
15,47402	47381
15,47813	47476
15,48227	46586
15,48638	45778
15,49050	47017
15,49463	47547
15,49875	49330
15,50287	46891
15,50700	50113
15,51112	46483
15,51523	46087
15,51937	48765
15,52348	46317
15,52760	46313
15,53172	44619
15,53585	48036
15,53997	45765
15,54408	45908
15,54822	47103
15,55233	43652
15,55645	45808
15,56058	46652
15,56470	48304
15,56882	47745
15,57295	44672
15,57707	46482
15,58118	47407
15,58532	45724
15,58943	44056
15,59355	44964
15,59768	46603
15,60180	42656
15,60592	43675
15,61005	43616
15,61417	44781
15,61828	46631
15,62240	43043
15,62653	43862
15,63065	47053
15,63477	48539
15,63890	49385
15,64302	45787
15,64713	48240
15,65127	46485
15,65538	46029
15,65950	46147
15,66363	44644
15,66775	45033
15,67187	45011
15,67600	45484
15,68012	46781
15,68423	47066
15,68837	48612
15,69248	44908
15,69660	49136
15,70073	45248
15,70485	47892
15,70897	43492
15,71308	44486
15,71722	47976
15,72133	47028
15,72545	47261
15,72958	48690
15,73370	48132
15,73782	48594
15,74195	45641
15,74607	46643
15,75018	48748
15,75432	49846
15,75843	49126
15,76255	49680
15,76668	48561
15,77080	48585
15,77492	49806
15,77905	49155
15,78317	50434
15,78728	52467
15,79142	48206
15,79553	49038
15,79965	48400
15,80377	49788
15,80790	46267
15,81202	48887
15,81613	48302
15,82027	49315
15,82438	46383
15,82850	48962
15,83263	49532
15,83675	48824
15,84087	46497
15,84500	47248
15,84912	45977
15,85323	46394
15,85737	47319
15,86148	46233
15,86560	46013
15,86973	44446
15,87385	46171
15,87797	46317
15,88210	46233
15,88622	47015
15,89033	46010
15,89445	44656
15,89858	45294
15,90270	44578
15,90682	41695
15,91095	42733
15,91507	42544
15,91918	45600
15,92332	43780
15,92743	44775
15,93155	46267
15,93568	44121
15,93980	44809
15,94392	44225
15,94805	44914
15,95217	44628
15,95628	44951
15,96042	47218
15,96453	43280
15,96865	42428
15,97278	45586
15,97690	44337
15,98102	42839
15,98513	44954
15,98927	40496
15,99338	43434
15,99750	44079
16,00163	44730
16,00575	44629
16,00987	43314
16,01400	44368
16,01812	43770
16,02223	42980
16,02637	43373
16,03048	41310
16,03460	43417
16,03873	43249
16,04285	41451
16,04697	42780
16,05110	42464
16,05522	39819
16,05933	44272
16,06347	43948
16,06758	40751
16,07170	41441
16,07582	42950
16,07995	44404
16,08407	41239
16,08818	40902
16,09232	39964
16,09643	44224
16,10055	42980
16,10468	41897
16,10880	42001
16,11292	41258
16,11705	43193
16,12117	42672
16,12528	40521
16,12942	43339
16,13353	46411
16,13765	44605
16,14178	44632
16,14590	45539
16,15002	42494
16,15415	46436
16,15827	45257
16,16238	44742
16,16652	45144
16,17063	46302
16,17475	45800
16,17887	46204
16,18300	42670
16,18712	43169
16,19123	44482
16,19537	45728
16,19948	44385
16,20360	40228
16,20773	44825
16,21185	45141
16,21597	43935
16,22010	42575
16,22422	45420
16,22833	42795
16,23247	45376
16,23658	43325
16,24070	47583
16,24483	43218
16,24895	44349
16,25307	44280
16,25720	44985
16,26132	42020
16,26543	45682
16,26955	45026
16,27368	44657
16,27780	42328
16,28192	44213
16,28605	42948
16,29017	42893
16,29428	44136
16,29842	44146
16,30253	43939
16,30665	44783
16,31078	40982
16,31490	41617
16,31902	42299
16,32315	41469
16,32727	41176
16,33138	43543
16,33552	42375
16,33963	43189
16,34375	40873
16,34788	44121
16,35200	44136
16,35612	40763
16,36023	41681
16,36437	44453
16,36848	45245
16,37260	40195
16,37673	44284
16,38085	42829
16,38497	44875
16,38910	40615
16,39322	43375
16,39733	42102
16,40147	40917
16,40558	40772
16,40970	43832
16,41383	41123
16,41795	42763
16,42207	43519
16,42620	42875
16,43032	41988
16,43443	40552
16,43857	44707
16,44268	40694
16,44680	37360
16,45092	40860
16,45505	42383
16,45917	45027
16,46328	42562
16,46742	41518
16,47153	42596
16,47565	42953
16,47978	40638
16,48390	41181
16,48802	40340
16,49215	42520
16,49627	40925
16,50038	42067
16,50452	42475
16,50863	40179
16,51275	42580
16,51688	39790
16,52100	41684
16,52512	40254
16,52925	40770
16,53337	41242
16,53748	40728
16,54160	40322
16,54573	42286
16,54985	41581
16,55397	41520
16,55810	40823
16,56222	40558
16,56633	41386
16,57047	37718
16,57458	37410
16,57870	42355
16,58283	42193
16,58695	43014
16,59107	40195
16,59520	40632
16,59932	39994
16,60343	41551
16,60757	42086
16,61168	40508
16,61580	41683
16,61993	44490
16,62405	40839
16,62817	43023
16,63228	41514
16,63642	44134
16,64053	42345
16,64465	43574
16,64878	42802
16,65290	43476
16,65702	42006
16,66115	40630
16,66527	43020
16,66938	40458
16,67352	40583
16,67763	41303
16,68175	42402
16,68588	43001
16,69000	42093
16,69412	43765
16,69825	39936
16,70237	43461
16,70648	44172
16,71062	40298
16,71473	39648
16,71885	42477
16,72297	43047
16,72710	39837
16,73122	41907
16,73533	42019
16,73947	41493
16,74358	39584
16,74770	40521
16,75183	40435
16,75595	41238
16,76007	42800
16,76420	42951
16,76832	44614
16,77243	44431
16,77657	43056
16,78068	45307
16,78480	43086
16,78893	45794
