D:\MassHunter\GCMS\1\data\Amal\Constant flow\90C\90C_1ml-min_6C-min_2.D Thu Sep 05 16:43:22 2024
Start of data points
5,59097,176807
5,59510,176835
5,59922,170270
5,60333,169598
5,60747,165811
5,61158,165417
5,61570,163458
5,61983,156548
5,62395,156388
5,62807,152479
5,63220,155235
5,63632,149332
5,64043,154057
5,64457,150261
5,64868,144378
5,65280,146359
5,65693,146086
5,66105,142974
5,66517,137763
5,66930,139598
5,67342,139372
5,67753,138575
5,68165,138430
5,68578,134018
5,68990,131196
5,69402,131994
5,69815,129611
5,70227,124862
5,70638,126707
5,71052,121177
5,71463,122186
5,71875,119946
5,72288,118894
5,72700,115708
5,73112,114716
5,73525,115710
5,73937,111290
5,74348,110427
5,74762,106691
5,75173,108762
5,75585,106375
5,75998,108918
5,76410,106910
5,76822,103214
5,77233,105528
5,77647,99526
5,78058,101966
5,78470,97849
5,78883,98552
5,79295,97457
5,79707,97218
5,80120,97373
5,80532,94555
5,80943,96358
5,81357,92683
5,81768,93805
5,82180,94259
5,82593,92645
5,83005,91699
5,83417,89865
5,83830,88163
5,84242,93460
5,84653,88305
5,85067,89349
5,85478,89141
5,85890,88610
5,86302,87676
5,86715,86308
5,87127,88651
5,87538,92226
5,87952,93136
5,88363,106373
5,88775,120684
5,89188,152131
5,89600,199186
5,90012,258264
5,90425,340113
5,90837,404273
5,91248,481168
5,91662,538513
5,92073,588018
5,92485,610316
5,92898,617697
5,93310,605351
5,93722,592731
5,94135,571866
5,94547,543999
5,94958,525045
5,95370,500564
5,95783,476267
5,96195,452677
5,96607,426300
5,97020,410459
5,97432,388166
5,97843,377088
5,98257,353032
5,98668,334367
5,99080,322284
5,99493,309394
5,99905,297301
6,00317,287829
6,00730,263864
6,01142,259013
6,01553,250868
6,01967,239529
6,02378,230005
6,02790,222199
6,03203,211266
6,03615,203933
6,04027,194721
6,04438,187750
6,04852,174670
6,05263,166839
6,05675,162188
6,06088,150327
6,06500,143574
6,06912,137448
6,07325,132249
6,07737,123433
6,08148,118630
6,08562,113808
6,08973,111004
6,09385,104716
6,09798,103892
6,10210,101147
6,10622,94013
6,11035,92574
6,11447,88495
6,11858,87136
6,12272,85046
6,12683,85150
6,13095,81784
6,13507,81362
6,13920,79712
6,14332,75391
6,14743,75426
6,15157,73900
6,15568,73337
6,15980,69858
6,16393,72828
6,16805,70309
6,17217,68513
6,17630,65595
6,18042,65542
6,18453,67457
6,18867,65365
6,19278,64710
6,19690,65063
6,20103,64590
6,20515,64723
6,20927,61616
6,21340,65360
6,21752,65123
6,22163,63289
6,22575,62807
6,22988,61929
6,23400,61812
6,23812,61975
6,24225,59233
6,24637,60266
6,25048,59924
6,25462,59632
6,25873,58067
6,26285,60686
6,26698,57688
6,27110,57549
6,27522,60389
6,27935,56409
6,28347,57756
6,28758,59953
6,29172,56441
6,29583,58290
6,29995,58727
6,30408,55751
6,30820,55959
6,31232,55502
6,31643,52981
6,32057,53562
6,32468,53988
6,32880,57129
6,33293,54978
6,33705,52983
6,34117,54386
6,34530,55712
6,34942,53854
6,35353,54336
6,35767,53695
6,36178,53357
6,36590,54218
6,37003,55154
6,37415,53767
6,37827,53394
6,38240,52720
6,38652,52381
6,39063,52963
6,39477,52891
6,39888,51777
6,40300,51484
6,40712,51874
6,41125,52131
6,41537,50932
6,41948,50269
6,42362,49153
6,42773,50252
6,43185,48747
6,43598,50533
6,44010,49561
6,44422,50745
6,44835,49502
6,45247,49960
6,45658,49802
6,46072,48173
6,46483,48050
6,46895,48922
6,47308,50347
6,47720,48584
6,48132,49152
6,48545,46954
6,48957,50400
6,49368,49707
6,49780,49830
6,50193,50198
6,50605,48500
6,51017,48850
6,51430,48001
6,51842,46889
6,52253,47775
6,52667,46932
6,53078,45274
6,53490,46180
6,53903,48476
6,54315,45950
6,54727,45178
6,55140,45467
6,55552,46174
6,55963,46284
6,56377,45102
6,56788,44744
6,57200,47238
6,57613,43635
6,58025,45092
6,58437,45706
6,58848,43844
6,59262,45523
6,59673,45157
6,60085,43302
6,60498,42587
6,60910,44300
6,61322,43981
6,61735,44173
6,62147,43516
6,62558,43853
6,62972,44878
6,63383,41968
6,63795,42961
6,64208,43094
6,64620,43200
6,65032,42512
6,65445,42986
6,65857,42625
6,66268,42007
6,66682,41137
6,67093,40416
6,67505,39578
6,67917,40338
6,68330,41170
6,68742,40630
6,69153,39075
6,69567,40107
6,69978,40045
6,70390,40795
6,70803,38633
6,71215,40979
6,71627,38647
6,72040,39431
6,72452,38614
6,72863,38177
6,73277,38906
6,73688,38250
6,74100,39991
6,74513,37713
6,74925,38237
6,75337,38668
6,75750,38446
6,76162,38458
6,76573,37972
6,76987,37425
6,77398,38851
6,77810,38242
6,78222,36569
6,78635,37826
6,79047,38025
6,79458,38122
6,79872,37860
6,80283,37110
6,80695,36810
6,81108,37313
6,81520,38017
6,81932,35805
6,82345,36768
6,82757,37314
6,83168,37341
6,83582,36782
6,83993,36281
6,84405,36227
6,84818,35831
6,85230,36534
6,85642,36439
6,86055,37138
6,86467,36428
6,86878,36311
6,87290,36321
6,87703,35978
6,88115,36779
6,88527,34422
6,88940,34743
6,89352,35692
6,89763,35351
6,90177,34017
6,90588,34724
6,91000,32387
6,91413,33342
6,91825,34463
6,92237,34569
6,92650,34545
6,93062,35509
6,93473,35560
6,93887,35553
6,94298,35795
6,94710,36265
6,95123,36197
6,95535,37164
6,95947,38384
6,96358,37900
6,96772,39190
6,97183,39505
6,97595,39710
6,98008,40506
6,98420,41726
6,98832,41644
6,99245,40014
6,99657,40753
7,00068,38823
7,00482,41328
7,00893,39760
7,01305,39197
7,01718,40031
7,02130,39725
7,02542,40511
7,02955,42688
7,03367,42686
7,03778,44282
7,04192,44008
7,04603,43581
7,05015,44826
7,05427,45264
7,05840,47542
7,06252,44518
7,06663,45395
7,07077,46064
7,07488,48166
7,07900,44408
7,08313,47018
7,08725,45917
7,09137,46814
7,09550,44258
7,09962,45307
7,10373,45470
7,10787,43416
7,11198,45245
7,11610,42854
7,12023,42633
7,12435,40757
7,12847,42917
7,13260,40194
7,13672,40120
7,14083,40089
7,14495,38820
7,14908,39504
7,15320,36384
7,15732,37852
7,16145,38628
7,16557,36775
7,16968,37725
7,17382,35803
7,17793,35182
7,18205,34485
7,18618,35942
7,19030,34567
7,19442,34918
7,19855,33926
7,20267,35016
7,20678,34494
7,21092,34713
7,21503,31906
7,21915,33755
7,22328,33337
7,22740,31829
7,23152,32144
7,23563,32066
7,23977,32927
7,24388,31498
7,24800,32348
7,25213,31196
7,25625,31312
7,26037,33440
7,26450,30628
7,26862,32258
7,27273,32027
7,27687,31297
7,28098,31705
7,28510,31616
7,28923,30993
7,29335,33037
7,29747,30291
7,30160,31122
7,30572,29590
7,30983,30616
7,31397,29987
7,31808,30815
7,32220,31019
7,32632,31182
7,33045,31465
7,33457,29287
7,33868,31197
7,34282,29429
7,34693,30798
7,35105,30702
7,35518,29290
7,35930,30262
7,36342,28994
7,36755,30120
7,37167,29249
7,37578,29418
7,37992,30540
7,38403,31082
7,38815,30010
7,39228,30217
7,39640,29381
7,40052,30141
7,40465,27643
7,40877,29637
7,41288,29187
7,41700,26047
7,42113,28765
7,42525,28434
7,42937,27685
7,43350,29709
7,43762,29188
7,44173,28081
7,44587,28394
7,44998,25640
7,45410,27118
7,45823,27178
7,46235,29296
7,46647,28209
7,47060,27034
7,47472,26930
7,47883,27641
7,48297,27771
7,48708,28346
7,49120,26574
7,49533,27200
7,49945,27055
7,50357,28158
7,50768,24948
7,51182,28001
7,51593,27497
7,52005,29704
7,52418,34096
7,52830,41785
7,53242,57597
7,53655,79009
7,54067,113569
7,54478,168947
7,54892,236692
7,55303,327996
7,55715,425013
7,56128,553205
7,56540,657704
7,56952,762406
7,57365,849116
7,57777,911008
7,58188,956207
7,58602,959167
7,59013,952405
7,59425,930496
7,59837,894121
7,60250,849261
7,60662,804899
7,61073,764161
7,61487,712887
7,61898,652656
7,62310,616461
7,62723,570962
7,63135,528365
7,63547,478723
7,63960,442513
7,64372,409725
7,64783,370547
7,65197,335583
7,65608,304442
7,66020,281696
7,66433,258263
7,66845,233836
7,67257,207859
7,67670,189522
7,68082,170846
7,68493,151717
7,68905,140775
7,69318,127629
7,69730,117215
7,70142,106852
7,70555,99778
7,70967,88790
7,71378,82506
7,71792,78130
7,72203,72094
7,72615,68877
7,73028,63686
7,73440,59920
7,73852,56323
7,74265,53295
7,74677,51205
7,75088,50182
7,75502,45374
7,75913,43125
7,76325,43531
7,76738,43793
7,77150,40379
7,77562,39276
7,77973,37794
7,78387,36968
7,78798,35910
7,79210,35418
7,79623,34106
7,80035,34009
7,80447,34066
7,80860,33657
7,81272,33579
7,81683,32104
7,82097,31015
7,82508,30979
7,82920,30193
7,83333,30499
7,83745,28887
7,84157,28489
7,84570,30473
7,84982,29414
7,85393,29497
7,85807,28854
7,86218,27375
7,86630,27864
7,87042,28631
7,87455,28162
7,87867,27444
7,88278,27022
7,88692,26381
7,89103,27584
7,89515,26765
7,89928,26034
7,90340,26444
7,90752,25884
7,91165,24537
7,91577,26737
7,91988,25106
7,92402,24517
7,92813,24662
7,93225,24532
7,93638,24444
7,94050,25007
7,94462,24910
7,94875,24925
7,95287,22715
7,95698,23254
7,96110,23641
7,96523,23650
7,96935,22968
7,97347,22371
7,97760,22889
7,98172,23311
7,98583,23244
7,98997,23776
7,99408,26014
7,99820,24324
8,00233,22157
8,00645,23326
8,01057,22193
8,01470,24336
8,01882,24791
8,02293,25143
8,02707,23500
8,03118,21571
8,03530,24679
8,03943,22615
8,04355,21722
8,04767,21644
8,05178,22257
8,05592,24008
8,06003,22585
8,06415,21263
8,06828,22223
8,07240,21962
8,07652,21285
8,08065,21363
8,08477,22780
8,08888,22233
8,09302,22179
8,09713,20230
8,10125,22502
8,10538,21113
8,10950,21652
8,11362,20428
8,11775,21152
8,12187,20836
8,12598,20644
8,13012,21741
8,13423,21417
8,13835,21647
8,14247,20586
8,14660,20421
8,15072,21883
8,15483,21556
8,15897,21404
8,16308,22070
8,16720,22665
8,17133,21999
8,17545,21164
8,17957,21899
8,18370,22108
8,18782,20694
8,19193,21684
8,19607,20887
8,20018,21118
8,20430,20875
8,20843,20144
8,21255,19671
8,21667,19852
8,22080,20172
8,22492,19970
8,22903,20903
8,23315,20063
8,23728,20386
8,24140,20715
8,24552,21238
8,24965,20112
8,25377,20433
8,25788,19211
8,26202,19831
8,26613,20610
8,27025,18533
8,27438,20925
8,27850,20197
8,28262,21784
8,28675,19818
8,29087,21312
8,29498,19675
8,29912,20526
8,30323,20313
8,30735,18945
8,31148,20552
8,31560,20694
8,31972,19788
8,32385,18635
8,32797,21254
8,33208,19839
8,33620,20308
8,34033,19725
8,34445,20080
8,34857,20416
8,35270,19858
8,35682,20623
8,36093,19933
8,36507,19295
8,36918,19471
8,37330,18768
8,37743,20676
8,38155,21255
8,38567,19025
8,38980,19553
8,39392,21547
8,39803,19414
8,40217,18147
8,40628,19650
8,41040,19179
8,41453,19864
8,41865,18016
8,42277,18648
8,42688,18916
8,43102,19584
8,43513,17940
8,43925,19522
8,44338,18992
8,44750,18781
8,45162,20288
8,45575,17811
8,45987,19007
8,46398,19749
8,46812,18047
8,47223,18263
8,47635,19047
8,48048,18333
8,48460,18545
8,48872,19330
8,49285,18960
8,49697,19354
8,50108,19780
8,50522,19066
8,50933,19304
8,51345,17959
8,51757,18334
8,52170,19881
8,52582,18233
8,52993,18853
8,53407,18402
8,53818,19155
8,54230,18502
8,54643,17494
8,55055,17425
8,55467,17650
8,55880,17175
8,56292,16976
8,56703,16640
8,57117,18417
8,57528,17907
8,57940,17169
8,58353,19321
8,58765,17496
8,59177,17903
8,59590,17431
8,60002,18364
8,60413,17601
8,60825,17026
8,61238,17763
8,61650,17441
8,62062,17800
8,62475,17699
8,62887,18330
8,63298,17356
8,63712,17830
8,64123,17932
8,64535,18138
8,64948,17854
8,65360,17741
8,65772,18104
8,66185,17152
8,66597,18212
8,67008,17924
8,67422,18970
8,67833,19367
8,68245,18234
8,68658,17709
8,69070,19625
8,69482,18282
8,69893,19114
8,70307,16766
8,70718,18293
8,71130,17020
8,71543,18134
8,71955,18290
8,72367,18417
8,72780,18134
8,73192,17761
8,73603,17381
8,74017,17250
8,74428,16291
8,74840,15807
8,75253,17426
8,75665,17703
8,76077,16518
8,76490,17303
8,76902,18256
8,77313,17273
8,77727,16456
8,78138,16043
8,78550,17761
8,78962,17055
8,79375,17145
8,79787,17685
8,80198,17579
8,80612,17930
8,81023,18837
8,81435,18584
8,81848,17094
8,82260,19306
8,82672,18690
8,83085,18320
8,83497,19474
8,83908,19393
8,84322,20441
8,84733,18541
8,85145,18470
8,85558,19241
8,85970,18819
8,86382,17019
8,86795,16980
8,87207,17353
8,87618,16875
8,88030,17805
8,88443,17480
8,88855,17307
8,89267,16392
8,89680,18584
8,90092,16669
8,90503,17640
8,90917,17804
8,91328,16823
8,91740,18227
8,92153,17887
8,92565,17826
8,92977,18023
8,93390,18121
8,93802,19297
8,94213,17345
8,94627,17629
8,95038,17347
8,95450,17530
8,95863,16187
8,96275,17303
8,96687,16879
8,97098,16268
8,97512,16652
8,97923,16440
8,98335,17792
8,98748,15878
8,99160,17633
8,99572,15479
8,99985,16574
9,00397,15683
9,00808,14740
9,01222,16533
9,01633,14882
9,02045,15715
9,02458,16387
9,02870,16090
9,03282,16453
9,03695,16393
9,04107,15990
9,04518,15353
9,04932,14817
9,05343,15704
9,05755,15397
9,06167,15747
9,06580,14206
9,06992,15936
9,07403,15374
9,07817,15360
9,08228,16576
9,08640,14336
9,09053,15710
9,09465,14246
9,09877,15071
9,10290,15503
9,10702,14837
9,11113,15512
9,11527,14578
9,11938,13759
9,12350,15703
9,12763,14839
9,13175,15792
9,13587,14674
9,14000,15820
9,14412,15288
9,14823,15252
9,15235,16545
9,15648,15326
9,16060,15684
9,16472,15187
9,16885,14981
9,17297,14890
9,17708,14459
9,18122,14854
9,18533,14790
9,18945,15975
9,19358,15118
9,19770,15207
9,20182,14518
9,20595,14745
9,21007,16200
9,21418,13839
9,21832,14710
9,22243,15296
9,22655,15330
9,23068,15069
9,23480,14152
9,23892,14830
9,24303,14799
9,24717,14770
9,25128,15347
9,25540,14658
9,25953,13979
9,26365,15022
9,26777,13914
9,27190,13702
9,27602,15040
9,28013,13450
9,28427,14409
9,28838,14194
9,29250,13664
9,29663,13394
9,30075,13917
9,30487,14112
9,30900,14065
9,31312,14416
9,31723,13598
9,32137,15605
9,32548,13900
9,32960,15322
9,33372,13911
9,33785,13727
9,34197,14958
9,34608,14442
9,35022,13871
9,35433,14188
9,35845,14175
9,36258,14456
9,36670,13910
9,37082,14200
9,37495,14237
9,37907,14467
9,38318,13828
9,38732,13959
9,39143,13249
9,39555,13446
9,39968,13698
9,40380,12463
9,40792,13049
9,41205,14039
9,41617,13523
9,42028,14713
9,42440,14401
9,42853,13957
9,43265,14287
9,43677,13272
9,44090,15858
9,44502,13779
9,44913,14408
9,45327,15877
9,45738,13973
9,46150,14052
9,46563,14207
9,46975,15402
9,47387,14883
9,47800,14028
9,48212,14064
9,48623,14293
9,49037,13713
9,49448,13908
9,49860,14273
9,50273,13414
9,50685,13370
9,51097,14119
9,51508,14128
9,51922,13899
9,52333,14433
9,52745,13305
9,53158,14439
9,53570,12699
9,53982,13051
9,54395,14554
9,54807,13800
9,55218,13787
9,55632,13351
9,56043,14835
9,56455,12921
9,56868,13144
9,57280,13404
9,57692,13595
9,58105,14294
9,58517,13155
9,58928,12396
9,59342,13369
9,59753,13307
9,60165,13828
9,60577,13673
9,60990,13518
9,61402,12600
9,61813,12973
9,62227,13750
9,62638,13181
9,63050,12938
9,63463,12326
9,63875,12071
9,64287,12693
9,64700,13178
9,65112,13980
9,65523,14165
9,65937,13232
9,66348,13264
9,66760,12640
9,67173,14199
9,67585,13732
9,67997,13502
9,68410,13873
9,68822,14149
9,69233,13861
9,69645,13044
9,70058,13846
9,70470,14413
9,70882,14231
9,71295,14745
9,71707,14577
9,72118,14320
9,72532,14224
9,72943,13576
9,73355,13983
9,73768,14292
9,74180,12799
9,74592,13016
9,75005,12635
9,75417,11829
9,75828,13652
9,76242,13171
9,76653,12609
9,77065,13364
9,77478,12951
9,77890,12636
9,78302,12636
9,78713,13180
9,79127,12570
9,79538,12677
9,79950,12254
9,80363,13011
9,80775,12635
9,81187,13231
9,81600,12972
9,82012,11621
9,82423,13297
9,82837,13091
9,83248,11888
9,83660,15452
9,84073,16724
9,84485,20412
9,84897,26946
9,85310,40761
9,85722,64238
9,86133,101692
9,86547,154520
9,86958,234722
9,87370,335489
9,87782,472351
9,88195,629329
9,88607,808784
9,89018,975148
9,89432,1135643
9,89843,1269710
9,90255,1372814
9,90668,1437452
9,91080,1449973
9,91492,1424293
9,91905,1373787
9,92317,1296538
9,92728,1198114
9,93142,1101771
9,93553,976813
9,93965,865244
9,94378,756626
9,94790,654583
9,95202,571776
9,95615,497843
9,96027,417756
9,96438,364563
9,96852,314554
9,97263,269871
9,97675,232328
9,98087,207031
9,98500,179918
9,98912,160968
9,99323,142948
9,99737,127415
10,00148,114133
10,00560,100652
10,00973,89449
10,01385,82615
10,01797,78086
10,02210,72168
10,02622,66163
10,03033,62496
10,03447,57454
10,03858,53414
10,04270,51039
10,04683,48605
10,05095,45143
10,05507,42991
10,05920,42376
10,06332,42322
10,06743,37673
10,07155,36186
10,07568,34784
10,07980,33559
10,08392,32986
10,08805,31749
10,09217,30928
10,09628,29199
10,10042,29131
10,10453,29165
10,10865,28523
10,11278,26589
10,11690,25455
10,12102,26811
10,12515,25773
10,12927,25293
10,13338,22662
10,13752,21949
10,14163,23535
10,14575,21210
10,14988,22131
10,15400,20754
10,15812,20764
10,16223,21390
10,16637,20039
10,17048,19951
10,17460,20246
10,17873,18983
10,18285,18960
10,18697,19070
10,19110,18718
10,19522,19635
10,19933,18645
10,20347,19197
10,20758,19274
10,21170,18259
10,21583,16876
10,21995,18254
10,22407,18622
10,22820,17824
10,23232,17681
10,23643,17438
10,24057,18903
10,24468,18853
10,24880,18783
10,25292,17958
10,25705,16495
10,26117,15722
10,26528,16444
10,26942,17154
10,27353,16055
10,27765,17936
10,28178,15394
10,28590,15597
10,29002,15362
10,29415,15396
10,29827,14723
10,30238,14279
10,30652,14955
10,31063,13577
10,31475,14573
10,31888,14860
10,32300,13869
10,32712,13740
10,33125,14639
10,33537,13437
10,33948,14656
10,34360,13800
10,34773,14018
10,35185,12805
10,35597,13400
10,36010,13022
10,36422,13980
10,36833,12635
10,37247,13512
10,37658,13625
10,38070,13079
10,38483,13398
10,38895,14023
10,39307,15248
10,39720,13122
10,40132,13315
10,40543,12829
10,40957,13026
10,41368,13315
10,41780,13513
10,42193,12732
10,42605,13521
10,43017,12521
10,43428,13347
10,43842,13196
10,44253,16258
10,44665,12335
10,45078,13550
10,45490,14080
10,45902,14669
10,46315,12662
10,46727,12439
10,47138,14092
10,47552,14950
10,47963,12914
10,48375,13014
10,48788,13041
10,49200,12934
10,49612,12073
10,50025,12205
10,50437,13881
10,50848,13183
10,51262,12996
10,51673,13529
10,52085,13590
10,52497,12330
10,52910,12905
10,53322,12868
10,53733,12788
10,54147,13338
10,54558,14230
10,54970,13874
10,55383,14204
10,55795,12136
10,56207,12523
10,56620,13412
10,57032,11962
10,57443,11213
10,57857,14004
10,58268,13719
10,58680,12437
10,59093,11805
10,59505,12302
10,59917,11848
10,60330,11510
10,60742,11981
10,61153,11786
10,61565,11916
10,61978,10933
10,62390,11808
10,62802,11425
10,63215,10853
10,63627,10553
10,64038,11728
10,64452,10966
10,64863,11578
10,65275,11734
10,65688,11613
10,66100,9799
10,66512,11897
10,66925,10556
10,67337,10753
10,67748,10688
10,68162,10619
10,68573,11043
10,68985,11019
10,69398,10789
10,69810,12267
10,70222,12780
10,70633,12532
10,71047,12451
10,71458,11879
10,71870,13366
10,72283,12024
10,72695,12268
10,73107,12254
10,73520,13553
10,73932,10589
10,74343,12684
10,74757,11189
10,75168,12340
10,75580,11479
10,75993,12029
10,76405,10777
10,76817,11722
10,77230,10246
10,77642,11611
10,78053,10849
10,78467,10240
10,78878,12143
10,79290,11257
10,79702,12182
10,80115,10553
10,80527,11925
10,80938,11601
10,81352,10840
10,81763,11438
10,82175,10464
10,82588,11226
10,83000,11105
10,83412,11961
10,83825,10888
10,84237,11767
10,84648,11416
10,85062,11119
10,85473,10967
10,85885,11008
10,86298,10619
10,86710,11195
10,87122,11873
10,87535,11289
10,87947,11544
10,88358,10980
10,88770,11284
10,89183,11750
10,89595,12163
10,90007,11098
10,90420,11537
10,90832,9834
10,91243,12100
10,91657,10957
10,92068,11446
10,92480,10867
10,92893,10772
10,93305,11222
10,93717,10825
10,94130,11254
10,94542,9560
10,94953,10319
10,95367,9616
10,95778,11289
10,96190,10685
10,96603,10736
10,97015,11249
10,97427,10520
10,97838,10792
10,98252,11378
10,98663,10335
10,99075,10099
10,99488,11637
10,99900,10802
11,00312,10371
11,00725,10277
11,01137,10432
11,01548,11509
11,01962,10538
11,02373,10321
11,02785,9555
11,03198,11424
11,03610,10058
11,04022,10916
11,04435,10549
11,04847,10781
11,05258,9969
11,05672,10866
11,06083,10852
11,06495,10748
11,06907,8481
11,07320,9182
11,07732,10362
11,08143,9918
11,08557,9541
11,08968,10069
11,09380,9387
11,09793,9387
11,10205,10095
11,10617,9583
11,11030,9402
11,11442,10381
11,11853,9085
11,12267,10171
11,12678,9076
11,13090,10169
11,13503,11503
11,13915,13623
11,14327,16446
11,14740,21939
11,15152,29562
11,15563,46239
11,15975,73673
11,16388,108392
11,16800,162503
11,17212,231505
11,17625,323969
11,18037,421819
11,18448,525620
11,18862,621868
11,19273,707221
11,19685,775627
11,20098,825563
11,20510,843319
11,20922,833014
11,21335,795261
11,21747,741059
11,22158,669296
11,22572,598534
11,22983,521921
11,23395,452721
11,23808,384268
11,24220,333758
11,24632,278941
11,25043,240937
11,25457,204216
11,25868,172798
11,26280,147358
11,26693,128948
11,27105,111709
11,27517,101342
11,27930,84944
11,28342,77759
11,28753,71192
11,29167,63773
11,29578,58139
11,29990,53897
11,30403,50259
11,30815,47410
11,31227,41855
11,31640,40415
11,32052,36863
11,32463,35175
11,32877,34051
11,33288,32662
11,33700,31395
11,34112,30019
11,34525,28759
11,34937,25785
11,35348,26127
11,35762,24460
11,36173,23518
11,36585,24076
11,36998,23238
11,37410,22009
11,37822,20813
11,38235,19749
11,38647,21266
11,39058,19520
11,39472,19647
11,39883,18466
11,40295,18694
11,40708,17694
11,41120,17417
11,41532,17121
11,41945,17155
11,42357,17021
11,42768,15062
11,43180,15519
11,43593,14305
11,44005,14960
11,44417,14816
11,44830,15046
11,45242,13833
11,45653,14562
11,46067,14406
11,46478,14579
11,46890,13720
11,47303,13248
11,47715,12811
11,48127,12731
11,48540,13341
11,48952,13070
11,49363,11601
11,49777,13170
11,50188,12219
11,50600,12817
11,51013,12883
11,51425,10602
11,51837,11561
11,52248,11829
11,52662,11805
11,53073,11466
11,53485,11964
11,53898,10918
11,54310,11966
11,54722,11413
11,55135,11365
11,55547,11131
11,55958,11715
11,56372,10759
11,56783,11630
11,57195,10683
11,57608,10447
11,58020,10061
11,58432,10400
11,58845,10384
11,59257,10481
11,59668,10551
11,60082,10102
11,60493,9551
11,60905,10016
11,61318,10228
11,61730,9665
11,62142,10984
11,62553,9771
11,62967,10291
11,63378,10026
11,63790,10857
11,64203,10115
11,64615,10622
11,65027,10635
11,65440,9939
11,65852,10418
11,66263,9790
11,66677,10346
11,67088,9164
11,67500,10051
11,67913,10070
11,68325,10844
11,68737,11536
11,69150,11742
11,69562,11924
11,69973,12646
11,70387,12445
11,70798,13937
11,71210,12546
11,71622,13675
11,72035,14977
11,72447,13662
11,72858,13879
11,73272,13630
11,73683,12816
11,74095,11811
11,74508,11290
11,74920,11988
11,75332,10216
11,75745,9019
11,76157,9746
11,76568,10772
11,76982,9537
11,77393,9437
11,77805,9963
11,78218,9147
11,78630,9650
11,79042,8896
11,79455,9020
11,79867,9814
11,80278,9041
11,80690,9826
11,81103,9229
11,81515,8884
11,81927,10327
11,82340,9123
11,82752,9259
11,83163,9925
11,83577,9517
11,83988,9511
11,84400,10716
11,84813,9546
11,85225,8969
11,85637,9529
11,86050,10217
11,86462,10711
11,86873,9818
11,87287,8350
11,87698,9035
11,88110,9108
11,88523,10278
11,88935,9376
11,89347,8727
11,89758,8736
11,90172,10127
11,90583,9149
11,90995,9344
11,91408,7880
11,91820,9875
11,92232,8918
11,92645,8802
11,93057,8917
11,93468,9861
11,93882,9434
11,94293,7975
11,94705,9146
11,95118,9667
11,95530,9686
11,95942,9469
11,96355,9496
11,96767,8334
11,97178,9346
11,97592,8870
11,98003,9681
11,98415,8569
11,98827,9130
11,99240,8275
11,99652,8928
12,00063,9060
12,00477,8722
12,00888,9003
12,01300,9094
12,01713,8235
12,02125,9679
12,02537,8107
12,02950,8120
12,03362,8218
12,03773,8479
12,04187,8624
12,04598,7644
12,05010,8481
12,05423,9514
12,05835,8532
12,06247,8900
12,06660,7066
12,07072,7591
12,07483,8631
12,07895,8995
12,08308,8657
12,08720,8778
12,09132,8358
12,09545,8886
12,09957,8334
12,10368,8711
12,10782,7791
12,11193,8865
12,11605,7896
12,12018,9263
12,12430,8869
12,12842,8216
12,13255,8540
12,13667,8746
12,14078,8850
12,14492,8262
12,14903,8658
12,15315,7589
12,15728,8869
12,16140,8626
12,16552,8197
12,16963,8880
12,17377,9096
12,17788,8655
12,18200,8800
12,18613,8782
12,19025,8651
12,19437,9127
12,19850,10028
12,20262,8837
12,20673,8937
12,21087,9999
12,21498,8706
12,21910,8846
12,22323,9301
12,22735,7670
12,23147,9672
12,23560,10091
12,23972,8842
12,24383,8350
12,24797,9377
12,25208,9829
12,25620,9513
12,26032,8873
12,26445,10261
12,26857,9352
12,27268,8695
12,27682,9126
12,28093,9719
12,28505,8558
12,28918,9275
12,29330,10265
12,29742,9468
12,30155,9772
12,30567,9525
12,30978,8208
12,31392,9782
12,31803,8718
12,32215,7803
12,32628,9295
12,33040,9886
12,33452,8825
12,33865,7165
12,34277,8441
12,34688,8551
12,35100,7197
12,35513,8041
12,35925,8048
12,36337,8712
12,36750,9251
12,37162,8125
12,37573,8009
12,37987,8140
12,38398,7979
12,38810,7983
12,39223,7153
12,39635,7849
12,40047,7935
12,40460,8888
12,40872,8314
12,41283,8272
12,41697,7207
12,42108,7787
12,42520,7200
12,42933,7189
12,43345,7608
12,43757,8099
12,44168,7901
12,44582,8185
12,44993,9121
12,45405,9497
12,45818,13248
12,46230,18474
12,46642,29174
12,47055,48486
12,47467,84505
12,47878,138355
12,48292,223329
12,48703,341925
12,49115,504162
12,49528,699969
12,49940,929435
12,50352,1173440
12,50765,1429807
12,51177,1614396
12,51588,1790078
12,52002,1877512
12,52413,1930997
12,52825,1868075
12,53237,1755002
12,53650,1595557
12,54062,1431746
12,54473,1231455
12,54887,1045136
12,55298,897695
12,55710,748262
12,56123,617412
12,56535,514936
12,56947,432916
12,57360,359370
12,57772,308234
12,58183,264922
12,58597,227154
12,59008,200947
12,59420,168468
12,59833,154530
12,60245,132867
12,60657,123249
12,61070,113470
12,61482,100455
12,61893,92769
12,62305,82479
12,62718,77221
12,63130,72150
12,63542,66120
12,63955,60784
12,64367,57504
12,64778,56000
12,65192,52094
12,65603,48493
12,66015,46735
12,66428,41166
12,66840,39554
12,67252,38138
12,67665,38998
12,68077,36337
12,68488,34064
12,68902,30827
12,69313,31549
12,69725,29886
12,70138,27568
12,70550,27524
12,70962,25409
12,71373,25716
12,71787,26679
12,72198,25094
12,72610,22224
12,73023,22880
12,73435,22606
12,73847,21879
12,74260,21806
12,74672,19750
12,75083,19806
12,75497,20154
12,75908,19451
12,76320,19005
12,76733,18918
12,77145,16908
12,77557,16736
12,77970,16599
12,78382,16884
12,78793,15942
12,79207,15737
12,79618,15943
12,80030,16696
12,80442,15558
12,80855,14746
12,81267,14778
12,81678,14085
12,82092,13157
12,82503,14447
12,82915,14603
12,83328,13581
12,83740,12441
12,84152,14405
12,84565,14036
12,84977,12912
12,85388,12794
12,85802,12396
12,86213,12622
12,86625,12308
12,87038,12983
12,87450,12864
12,87862,12697
12,88275,10848
12,88687,11885
12,89098,11294
12,89510,11088
12,89923,10730
12,90335,10489
12,90747,11174
12,91160,10941
12,91572,11106
12,91983,10791
12,92397,10691
12,92808,10251
12,93220,11243
12,93633,10183
12,94045,10746
12,94457,10901
12,94870,10460
12,95282,10539
12,95693,9947
12,96107,10048
12,96518,9906
12,96930,10536
12,97343,9277
12,97755,9933
12,98167,10124
12,98578,9066
12,98992,8739
12,99403,9625
12,99815,9121
13,00228,8854
13,00640,8850
13,01052,9156
13,01465,9181
13,01877,8532
13,02288,8792
13,02702,9258
13,03113,8547
13,03525,9407
13,03938,8754
13,04350,8660
13,04762,8615
13,05175,8135
13,05587,8181
13,05998,9372
13,06412,8755
13,06823,8357
13,07235,9050
13,07647,9599
13,08060,9292
13,08472,10296
13,08883,10085
13,09297,11062
13,09708,11853
13,10120,13241
13,10533,12360
13,10945,15017
13,11357,13878
13,11770,15686
13,12182,13744
13,12593,14412
13,13007,14350
13,13418,13763
13,13830,13381
13,14243,15476
13,14655,13522
13,15067,13425
13,15480,12653
13,15892,11289
13,16303,10976
13,16715,11153
13,17128,9921
13,17540,10923
13,17952,9834
13,18365,9247
13,18777,9614
13,19188,9538
13,19602,8864
13,20013,10154
13,20425,8452
13,20838,8718
13,21250,9121
13,21662,8360
13,22075,7925
13,22487,8039
13,22898,7371
13,23312,8807
13,23723,8463
13,24135,8362
13,24548,8120
13,24960,8635
13,25372,7350
13,25785,7908
13,26197,6840
13,26608,8407
13,27020,8734
13,27433,8075
13,27845,7628
13,28257,8604
13,28670,7664
13,29082,6873
13,29493,8084
13,29907,7845
13,30318,7585
13,30730,6833
13,31143,7725
13,31555,8372
13,31967,7843
13,32380,8084
13,32792,6533
13,33203,7794
13,33617,6722
13,34028,7518
13,34440,7959
13,34853,6851
13,35265,7487
13,35677,6738
13,36088,7510
13,36502,7103
13,36913,7467
13,37325,7606
13,37738,7907
13,38150,7206
13,38562,8158
13,38975,7306
13,39387,6660
13,39798,7732
13,40212,7401
13,40623,7931
13,41035,6195
13,41448,7177
13,41860,6762
13,42272,6990
13,42685,6617
13,43097,7939
13,43508,8759
13,43922,7623
13,44333,6900
13,44745,7525
13,45157,7333
13,45570,7309
13,45982,7324
13,46393,8507
13,46807,7612
13,47218,7337
13,47630,7258
13,48043,8283
13,48455,7367
13,48867,7608
13,49280,7781
13,49692,7272
13,50103,7355
13,50517,7280
13,50928,6926
13,51340,6419
13,51753,7685
13,52165,6499
13,52577,7080
13,52990,7307
13,53402,7331
13,53813,7116
13,54225,5999
13,54638,7868
13,55050,6991
13,55462,7480
13,55875,6954
13,56287,7991
13,56698,6926
13,57112,8338
13,57523,6910
13,57935,7912
13,58348,7928
13,58760,7572
13,59172,7849
13,59585,7424
13,59997,7739
13,60408,8548
13,60822,6972
13,61233,7820
13,61645,7986
13,62058,8001
13,62470,7716
13,62882,7950
13,63293,6510
13,63707,7005
13,64118,7268
13,64530,7359
13,64943,7175
13,65355,6512
13,65767,8152
13,66180,7126
13,66592,7632
13,67003,8364
13,67417,6943
13,67828,7453
13,68240,7408
13,68653,7707
13,69065,6452
13,69477,8408
13,69890,8102
13,70302,7399
13,70713,7415
13,71127,8258
13,71538,7121
13,71950,7590
13,72362,7503
13,72775,6985
13,73187,6791
13,73598,6599
13,74012,7002
13,74423,6265
13,74835,6469
13,75248,7221
13,75660,7371
13,76072,6753
13,76485,8452
13,76897,10290
13,77308,15218
13,77722,20632
13,78133,35350
13,78545,57577
13,78958,94162
13,79370,145374
13,79782,224354
13,80195,327608
13,80607,441466
13,81018,579412
13,81430,711998
13,81843,837551
13,82255,939863
13,82667,1006426
13,83080,1021449
13,83492,999630
13,83903,948776
13,84317,869004
13,84728,775720
13,85140,669199
13,85553,568219
13,85965,482842
13,86377,396092
13,86790,329380
13,87202,273269
13,87613,229956
13,88027,191762
13,88438,161185
13,88850,140530
13,89263,119125
13,89675,104088
13,90087,91118
13,90498,80017
13,90912,72980
13,91323,64341
13,91735,59394
13,92148,53400
13,92560,51271
13,92972,45185
13,93385,40643
13,93797,38454
13,94208,37133
13,94622,34656
13,95033,31836
13,95445,30422
13,95858,28517
13,96270,26979
13,96682,25309
13,97095,24428
13,97507,23324
13,97918,22481
13,98332,20549
13,98743,21013
13,99155,19222
13,99567,18389
13,99980,19603
14,00392,17302
14,00803,16797
14,01217,16763
14,01628,15264
14,02040,15559
14,02453,14807
14,02865,14907
14,03277,14224
14,03690,14295
14,04102,12546
14,04513,13612
14,04927,13479
14,05338,12514
14,05750,12051
14,06163,12159
14,06575,12341
14,06987,11594
14,07400,12519
14,07812,10813
14,08223,9883
14,08635,11446
14,09048,11713
14,09460,10346
14,09872,9647
14,10285,10078
14,10697,10738
14,11108,11135
14,11522,9405
14,11933,9383
14,12345,8726
14,12758,8518
14,13170,9094
14,13582,8819
14,13995,8940
14,14407,7957
14,14818,9578
14,15232,9637
14,15643,8879
14,16055,9604
14,16468,8793
14,16880,9336
14,17292,7770
14,17703,8819
14,18117,8557
14,18528,8619
14,18940,8104
14,19353,8758
14,19765,9695
14,20177,8326
14,20590,7442
14,21002,7978
14,21413,7871
14,21827,7056
14,22238,8174
14,22650,8051
14,23063,8127
14,23475,8133
14,23887,6657
14,24300,6941
14,24712,7327
14,25123,7241
14,25537,7360
14,25948,8199
14,26360,6839
14,26772,7661
14,27185,7941
14,27597,7338
14,28008,7076
14,28422,7036
14,28833,6859
14,29245,6499
14,29658,6954
14,30070,6907
14,30482,7014
14,30895,6947
14,31307,6737
14,31718,6633
14,32132,7226
14,32543,6228
14,32955,7706
14,33368,6764
14,33780,6846
14,34192,7394
14,34605,6722
14,35017,6896
14,35428,5496
14,35840,6398
14,36253,7578
14,36665,6968
14,37077,6086
14,37490,6091
14,37902,6308
14,38313,6855
14,38727,6793
14,39138,6774
14,39550,5646
14,39963,5550
14,40375,7134
14,40787,7617
14,41200,5894
14,41612,5182
14,42023,5857
14,42437,6054
14,42848,6852
14,43260,6333
14,43673,6269
14,44085,6466
14,44497,7341
14,44908,8274
14,45322,8956
14,45733,8051
14,46145,9781
14,46558,11197
14,46970,11258
14,47382,12176
14,47795,12035
14,48207,12507
14,48618,13453
14,49032,13723
14,49443,14342
14,49855,13687
14,50268,13484
14,50680,14703
14,51092,13476
14,51505,12244
14,51917,12102
14,52328,11520
14,52742,10795
14,53153,9767
14,53565,10418
14,53977,8767
14,54390,9758
14,54802,8221
14,55213,8075
14,55627,8799
14,56038,7609
14,56450,7165
14,56863,7651
14,57275,7202
14,57687,7610
14,58100,7368
14,58512,7408
14,58923,6386
14,59337,6543
14,59748,5521
14,60160,7493
14,60573,6134
14,60985,6643
14,61397,7260
14,61810,7164
14,62222,6898
14,62633,6642
14,63045,6629
14,63458,6357
14,63870,6130
14,64282,6256
14,64695,6095
14,65107,6101
14,65518,7062
14,65932,4549
14,66343,6615
14,66755,5811
14,67168,6869
14,67580,5838
14,67992,5390
14,68405,6141
14,68817,5798
14,69228,5539
14,69642,5680
14,70053,7447
14,70465,5834
14,70878,5694
14,71290,6874
14,71702,7185
14,72113,6142
14,72527,6153
14,72938,6121
14,73350,5983
14,73763,5329
14,74175,6640
14,74587,6122
14,75000,6175
14,75412,6680
14,75823,5953
14,76237,6150
14,76648,5803
14,77060,6101
14,77473,6777
14,77885,6571
14,78297,5423
14,78710,5985
14,79122,6343
14,79533,6423
14,79947,6585
14,80358,6847
14,80770,6669
14,81183,6131
14,81595,6112
14,82007,6932
14,82418,6914
14,82832,5426
14,83243,6592
14,83655,5502
14,84068,6172
14,84480,6236
14,84892,5388
14,85305,5915
14,85717,5744
14,86128,7633
14,86542,5521
14,86953,4875
14,87365,4997
14,87778,5379
14,88190,5065
14,88602,5048
14,89015,6311
14,89427,5049
14,89838,5744
14,90252,6141
14,90663,5856
14,91075,6116
14,91487,6641
14,91900,6765
14,92312,6740
14,92723,7683
14,93137,7874
14,93548,8484
14,93960,8973
14,94373,10218
14,94785,11689
14,95197,12073
14,95610,12453
14,96022,11940
14,96433,13514
14,96847,13364
14,97258,12138
14,97670,11671
14,98083,12460
14,98495,11827
14,98907,11087
14,99320,9521
14,99732,10083
15,00143,8085
15,00555,9110
15,00968,8586
15,01380,6604
15,01792,7707
15,02205,6876
15,02617,6624
15,03028,7386
15,03442,7140
15,03853,8396
15,04265,9093
15,04678,10195
15,05090,16787
15,05502,26618
15,05915,47625
15,06327,86397
15,06738,141232
15,07152,234344
15,07563,370548
15,07975,566285
15,08388,811126
15,08800,1066220
15,09212,1343877
15,09623,1623123
15,10037,1877974
15,10448,2095742
15,10860,2205920
15,11273,2196992
15,11685,2123617
15,12097,1986223
15,12510,1770563
15,12922,1540816
15,13333,1311124
15,13747,1089269
15,14158,910193
15,14570,745193
15,14983,610357
15,15395,503843
15,15807,419847
15,16220,348511
15,16632,298170
15,17043,257628
15,17457,220202
15,17868,195331
15,18280,166752
15,18692,148337
15,19105,135333
15,19517,118433
15,19928,110115
15,20342,96119
15,20753,92438
15,21165,82645
15,21578,75852
15,21990,71032
15,22402,63606
15,22815,60941
15,23227,56859
15,23638,53357
15,24052,48799
15,24463,45751
15,24875,43869
15,25288,40457
15,25700,37703
15,26112,37095
15,26525,36086
15,26937,34301
15,27348,32086
15,27760,28379
15,28173,28822
15,28585,29364
15,28997,27383
15,29410,25786
15,29822,26582
15,30233,24212
15,30647,23456
15,31058,23038
15,31470,22266
15,31883,21281
15,32295,20989
15,32707,18556
15,33120,18810
15,33532,18178
15,33943,18135
15,34357,16885
15,34768,14791
15,35180,14908
15,35593,14838
15,36005,14914
15,36417,14766
15,36828,13106
15,37242,13786
15,37653,14839
15,38065,13528
15,38478,13435
15,38890,13214
15,39302,12422
15,39715,12760
15,40127,12002
15,40538,11553
15,40952,12095
15,41363,10832
15,41775,10670
15,42188,11045
15,42600,10458
15,43012,11232
15,43425,11071
15,43837,10800
15,44248,10680
15,44662,9881
15,45073,11370
15,45485,9784
15,45897,10016
15,46310,8780
15,46722,10793
15,47133,9016
15,47547,8313
15,47958,9097
15,48370,9397
15,48783,9539
15,49195,9111
15,49607,9236
15,50020,8385
15,50432,8447
15,50843,8247
15,51257,7685
15,51668,8142
15,52080,7462
15,52493,7490
15,52905,8599
15,53317,7156
15,53730,7710
15,54142,7347
15,54553,6171
15,54965,7954
15,55378,7248
15,55790,6706
15,56202,8538
15,56615,6668
15,57027,8050
15,57438,8064
15,57852,7502
15,58263,6780
15,58675,6715
15,59088,8353
15,59500,6328
15,59912,6132
15,60325,6411
15,60737,6254
15,61148,6531
15,61562,6417
15,61973,6869
15,62385,6500
15,62798,6241
15,63210,6001
15,63622,6177
15,64033,7136
15,64447,6263
15,64858,6181
15,65270,6272
15,65683,6099
15,66095,6252
15,66507,6312
15,66920,5923
15,67332,6371
15,67743,7109
15,68157,6604
15,68568,6059
15,68980,6324
15,69393,5906
15,69805,6365
15,70217,7064
15,70630,7129
15,71042,7772
15,71453,8591
15,71867,8571
15,72278,9816
15,72690,8735
15,73102,7880
15,73515,7916
15,73927,9218
15,74338,9096
15,74752,8395
15,75163,8939
15,75575,7886
15,75988,8168
15,76400,7703
15,76812,6867
15,77225,7359
15,77637,6047
15,78048,7308
15,78462,5645
15,78873,6451
15,79285,6362
15,79698,6850
15,80110,6000
15,80522,6506
15,80935,6146
15,81347,5874
15,81758,5331
15,82170,5673
15,82583,6173
15,82995,5555
15,83407,6344
15,83820,5518
15,84232,6206
15,84643,6165
15,85057,4566
15,85468,5505
15,85880,6003
15,86293,5256
15,86705,6141
15,87117,5811
15,87530,5447
15,87942,5411
15,88353,6293
15,88767,5262
15,89178,5105
15,89590,5286
15,90003,5433
15,90415,5155
15,90827,6961
15,91238,8721
15,91652,14415
15,92063,21217
15,92475,32891
15,92888,57457
15,93300,93197
15,93712,147018
15,94125,227980
15,94537,325831
15,94948,450305
15,95362,586546
15,95773,717779
15,96185,834488
15,96598,934097
15,97010,993276
15,97422,1016589
15,97835,999507
15,98247,944183
15,98658,857755
15,99072,749583
15,99483,641695
15,99895,545827
16,00307,458531
16,00720,381999
16,01132,318636
16,01543,259938
16,01957,220541
16,02368,186216
16,02780,157098
16,03193,136324
16,03605,120102
16,04017,101729
16,04430,89398
16,04842,80733
16,05253,74842
16,05667,67085
16,06078,60098
16,06490,52771
16,06903,49055
16,07315,45604
16,07727,42519
16,08140,40987
16,08552,37272
16,08963,34939
16,09375,34092
16,09788,29757
16,10200,27821
16,10612,27397
16,11025,26389
16,11437,23759
16,11848,23237
16,12262,23402
16,12673,19883
16,13085,19205
16,13498,20285
16,13910,17473
16,14322,19092
16,14735,18722
16,15147,17012
16,15558,19422
16,15972,21413
16,16383,21670
16,16795,21886
16,17208,22076
16,17620,21296
16,18032,21419
16,18443,20832
16,18857,19850
16,19268,19046
16,19680,18064
16,20093,16731
16,20505,14896
16,20917,14365
16,21330,13450
16,21742,12434
16,22153,11444
16,22567,11196
16,22978,11947
16,23390,11548
16,23803,11419
16,24215,11117
16,24627,9414
16,25040,10761
16,25452,9133
16,25863,8877
16,26277,8663
16,26688,7423
16,27100,8502
16,27513,7654
16,27925,8988
16,28337,11151
16,28748,12233
16,29162,16043
16,29573,25639
16,29985,40533
16,30398,66688
16,30810,113814
16,31222,179939
16,31635,273417
16,32047,392785
16,32458,527297
16,32872,685214
16,33283,842310
16,33695,981835
16,34108,1071229
16,34520,1125506
16,34932,1136694
16,35345,1095613
16,35757,1012724
16,36168,900188
16,36582,779956
16,36993,666551
16,37405,560099
16,37817,458288
16,38230,378462
16,38642,305825
16,39053,259542
16,39467,216448
16,39878,178024
16,40290,155650
16,40703,131914
16,41115,113807
16,41527,100475
16,41940,87045
16,42352,77653
16,42763,71000
16,43177,63895
16,43588,56938
16,44000,52214
16,44413,50434
16,44825,45038
16,45237,41447
16,45650,41177
16,46062,34807
16,46473,33805
16,46885,32036
16,47298,29093
16,47710,28337
16,48122,26370
16,48535,25024
16,48947,23758
16,49358,22940
16,49772,20219
16,50183,19611
16,50595,18388
16,51008,19540
16,51420,18819
16,51832,17080
16,52245,16728
16,52657,14690
16,53068,16224
16,53482,14102
16,53893,14730
16,54305,13892
16,54718,13714
16,55130,12956
16,55542,14356
16,55953,11956
16,56367,11827
16,56778,11471
16,57190,9965
16,57603,13046
16,58015,10129
16,58427,10493
16,58840,10131
16,59252,9391
16,59663,9764
16,60077,10123
16,60488,9956
16,60900,9006
16,61313,9134
16,61725,9110
16,62137,8700
16,62550,9393
16,62962,9228
16,63373,10100
16,63787,8659
16,64198,9137
16,64610,8847
16,65022,9189
16,65435,8191
16,65847,7602
16,66258,9754
16,66672,8641
16,67083,7464
16,67495,7788
16,67908,8877
16,68320,8460
16,68732,8218
16,69145,7877
16,69557,8233
16,69968,7725
16,70382,8076
16,70793,7090
16,71205,7619
16,71618,8066
16,72030,7076
16,72442,7804
16,72855,6429
16,73267,6902
16,73678,7213
16,74090,6947
16,74503,6447
16,74915,5751
16,75327,7140
16,75740,5912
16,76152,7142
16,76563,6751
16,76977,6772
16,77388,7541
16,77800,6560
16,78213,7860
16,78625,6227
16,79037,6632
16,79450,7269
16,79862,6809
16,80273,6663
16,80687,7645
16,81098,6565
16,81510,6155
16,81923,6624
16,82335,6190
16,82747,6413
16,83158,6619
16,83572,5633
16,83983,5681
16,84395,6748
16,84808,5459
16,85220,5963
16,85632,6349
16,86045,5536
16,86457,5805
16,86868,6444
16,87282,6994
16,87693,5956
16,88105,5914
16,88518,5634
16,88930,6604
16,89342,6898
16,89755,5286
16,90167,6346
16,90578,5856
16,90992,5324
16,91403,5307
16,91815,5616
16,92227,5631
16,92640,5772
16,93052,6387
16,93463,5414
16,93877,5526
16,94288,5918
16,94700,5693
16,95113,5633
16,95525,6075
16,95937,4565
16,96350,5910
16,96762,5245
16,97173,5670
16,97587,5819
16,97998,6880
16,98410,5974
16,98823,4984
16,99235,5916
16,99647,5842
17,00060,4620
17,00472,5289
17,00883,5600
17,01295,4773
17,01708,5896
17,02120,5418
17,02532,5533
17,02945,6048
17,03357,6243
17,03768,6596
17,04182,4239
17,04593,5412
17,05005,6214
17,05418,5101
17,05830,5594
17,06242,5025
17,06655,6171
17,07067,5205
17,07478,5292
17,07892,5920
17,08303,5395
17,08715,5386
17,09128,4673
17,09540,5521
17,09952,5538
17,10363,5656
17,10777,5860
17,11188,5032
17,11600,6141
17,12013,6247
17,12425,7146
17,12837,7997
17,13250,8499
17,13662,11484
17,14073,18073
17,14487,28760
17,14898,49072
17,15310,80772
17,15723,130500
17,16135,205621
17,16547,298808
17,16960,423636
17,17372,566383
17,17783,722782
17,18197,849912
17,18608,974286
17,19020,1049816
17,19432,1073477
17,19845,1051407
17,20257,994846
17,20668,906052
17,21082,806537
17,21493,695179
17,21905,595952
17,22318,487130
17,22730,405557
17,23142,331002
17,23555,280620
17,23967,238996
17,24378,198371
17,24792,165827
17,25203,143615
17,25615,123305
17,26028,109648
17,26440,96217
17,26852,85178
17,27265,72637
17,27677,67842
17,28088,60982
17,28500,57730
17,28913,49651
17,29325,47425
17,29737,45290
17,30150,40145
17,30562,36932
17,30973,33129
17,31387,30829
17,31798,30427
17,32210,28728
17,32623,27024
17,33035,25900
17,33447,24231
17,33860,23104
17,34272,20969
17,34683,19778
17,35097,20158
17,35508,17845
17,35920,19446
17,36333,16394
17,36745,15595
17,37157,16330
17,37568,14635
17,37982,14122
17,38393,13931
17,38805,13298
17,39218,11830
17,39630,12461
17,40042,11997
17,40455,11363
17,40867,10946
17,41278,11759
17,41692,11800
17,42103,10194
17,42515,10799
17,42928,9695
17,43340,9774
17,43752,8381
17,44165,9671
17,44577,10594
17,44988,9278
17,45402,8005
17,45813,9446
17,46225,8198
17,46637,9117
17,47050,10028
17,47462,9680
17,47873,14164
17,48287,20542
17,48698,34306
17,49110,62450
17,49523,111446
17,49935,198412
17,50347,336707
17,50760,526052
17,51172,810464
17,51583,1154256
17,51997,1568729
17,52408,2022162
17,52820,2496121
17,53233,2925301
17,53645,3291231
17,54057,3514022
17,54470,3595946
17,54882,3537265
17,55293,3328226
17,55705,3014888
17,56118,2621800
17,56530,2232512
17,56942,1848710
17,57355,1503002
17,57767,1224065
17,58178,990214
17,58592,814065
17,59003,666933
17,59415,561724
17,59828,467510
17,60240,403488
17,60652,348903
17,61065,303806
17,61477,268840
17,61888,237845
17,62302,212098
17,62713,195185
17,63125,173539
17,63538,157395
17,63950,142917
17,64362,130976
17,64773,119440
17,65187,111811
17,65598,101778
17,66010,93974
17,66423,87742
17,66835,82894
17,67247,76413
17,67660,73615
17,68072,70052
17,68483,63111
17,68897,58776
17,69308,54107
17,69720,53577
17,70133,49046
17,70545,48254
17,70957,44507
17,71370,42768
17,71782,41917
17,72193,40331
17,72607,36997
17,73018,34997
17,73430,32949
17,73842,31814
17,74255,29781
17,74667,30974
17,75078,28889
17,75492,26812
17,75903,28104
17,76315,24572
17,76728,24794
17,77140,23471
17,77552,22375
17,77965,21813
17,78377,22021
17,78788,22208
17,79202,20046
17,79613,20822
17,80025,19952
17,80438,18787
17,80850,15673
17,81262,17141
17,81675,16300
17,82087,15431
17,82498,15658
17,82910,15002
17,83323,14644
17,83735,14502
17,84147,13962
17,84560,13576
17,84972,13154
17,85383,12321
17,85797,12075
17,86208,11056
17,86620,12550
17,87033,12714
17,87445,11436
17,87857,11447
17,88270,11349
17,88682,11118
17,89093,11424
17,89507,11504
17,89918,10976
17,90330,10585
17,90743,10076
17,91155,10003
17,91567,9899
17,91980,9664
17,92392,9605
17,92803,9701
17,93215,10160
17,93628,9807
17,94040,8867
17,94452,9368
17,94865,9740
17,95277,10494
17,95688,10044
17,96102,9154
17,96513,8741
17,96925,9639
17,97338,8979
17,97750,8216
17,98162,9572
17,98575,9535
17,98987,9669
17,99398,9919
17,99812,8999
18,00223,9897
18,00635,8392
18,01048,8451
18,01460,8101
18,01872,7657
18,02283,8363
18,02697,8559
18,03108,8375
18,03520,6451
18,03933,8097
18,04345,8665
18,04757,7908
18,05170,7592
18,05582,8257
18,05993,7143
18,06407,7621
18,06818,7745
18,07230,8479
18,07643,8254
18,08055,8205
18,08467,9233
18,08880,8062
18,09292,9406
18,09703,9284
18,10117,9852
18,10528,9290
18,10940,11153
18,11352,11353
18,11765,12236
18,12177,13047
18,12588,13757
18,13002,13463
18,13413,15414
18,13825,16756
18,14238,14399
18,14650,17280
18,15062,18606
18,15475,20888
18,15887,24524
18,16298,34437
18,16712,47467
18,17123,75624
18,17535,121897
18,17948,187297
18,18360,280793
18,18772,397530
18,19185,540999
18,19597,678062
18,20008,830165
18,20420,970642
18,20833,1064087
18,21245,1097793
18,21657,1089431
18,22070,1039106
18,22482,937719
18,22893,844487
18,23307,745655
18,23718,635861
18,24130,525718
18,24543,436084
18,24955,367283
18,25367,306984
18,25780,252460
18,26192,211095
18,26603,179123
18,27017,154047
18,27428,133568
18,27840,116285
18,28253,103630
18,28665,93568
18,29077,82729
18,29488,74781
18,29902,70410
18,30313,62348
18,30725,56254
18,31138,52686
18,31550,47161
18,31962,46127
18,32375,42723
18,32787,40820
18,33198,37678
18,33612,37364
18,34023,33891
18,34435,32578
18,34848,31786
18,35260,31314
18,35672,31824
18,36085,29728
18,36497,29591
18,36908,27627
18,37322,27781
18,37733,27190
18,38145,26218
18,38557,26728
18,38970,24376
18,39382,22786
18,39793,22493
18,40207,20141
18,40618,20100
18,41030,19841
18,41443,16922
18,41855,15749
18,42267,15975
18,42680,15779
18,43092,15172
18,43503,14966
18,43917,14640
18,44328,12808
18,44740,12389
18,45153,12913
18,45565,11584
18,45977,11964
18,46390,11962
18,46802,11921
18,47213,10431
18,47625,10053
18,48038,11182
18,48450,11742
18,48862,9977
18,49275,10972
18,49687,10084
18,50098,9254
18,50512,8531
18,50923,8798
18,51335,11504
18,51748,9437
18,52160,9549
18,52572,9503
18,52985,9699
18,53397,10266
18,53808,8454
18,54222,8786
18,54633,9459
18,55045,9313
18,55458,9463
18,55870,8627
18,56282,10108
18,56693,9491
18,57107,10202
18,57518,8917
18,57930,8785
18,58343,8445
18,58755,9782
18,59167,8165
18,59580,8332
18,59992,8306
18,60403,8282
18,60817,8104
18,61228,8872
18,61640,8012
18,62053,8678
18,62465,11390
18,62877,14279
18,63290,21309
18,63702,34656
18,64113,59402
18,64527,101517
18,64938,168559
18,65350,263193
18,65762,377545
18,66175,534831
18,66587,698559
18,66998,867472
18,67412,1032102
18,67823,1146939
18,68235,1217121
18,68648,1246315
18,69060,1190232
18,69472,1121696
18,69885,1007518
18,70297,882450
18,70708,740635
18,71122,618948
18,71533,513292
18,71945,425497
18,72358,348832
18,72770,287818
18,73182,238654
18,73595,199085
18,74007,169530
18,74418,148789
18,74830,132529
18,75243,116796
18,75655,98966
18,76067,89140
18,76480,81099
18,76892,74940
18,77303,63345
18,77717,61970
18,78128,53897
18,78540,50929
18,78953,46186
18,79365,41599
18,79777,42435
18,80190,37950
18,80602,36681
18,81013,33037
18,81427,32683
18,81838,31207
18,82250,28970
18,82663,25610
18,83075,24755
18,83487,26449
18,83898,24046
18,84312,23185
18,84723,21057
18,85135,22457
18,85548,19544
18,85960,19208
18,86372,18669
18,86785,18819
18,87197,18395
18,87608,18349
18,88022,16486
18,88433,15534
18,88845,14784
18,89258,14226
18,89670,14295
18,90082,13689
18,90495,13072
18,90907,12415
18,91318,12129
18,91732,14124
18,92143,12353
18,92555,11477
18,92967,12297
18,93380,11519
18,93792,11043
18,94203,10704
18,94617,11648
18,95028,10229
18,95440,9405
18,95853,9172
18,96265,9390
18,96677,10793
18,97090,9447
18,97502,8859
18,97913,8429
18,98327,8229
18,98738,9521
18,99150,7779
18,99563,8566
18,99975,8482
19,00387,8151
19,00800,9245
19,01212,8366
19,01623,8592
19,02035,8015
19,02448,8229
19,02860,7905
19,03272,8532
19,03685,8141
19,04097,7188
19,04508,8551
19,04922,7865
19,05333,6695
19,05745,6343
19,06158,7563
19,06570,7830
19,06982,7318
19,07395,7561
19,07807,7868
19,08218,7498
19,08632,7884
19,09043,7804
19,09455,6923
19,09868,7872
19,10280,7460
19,10692,8153
19,11103,7649
19,11517,7985
19,11928,9056
19,12340,8211
19,12753,8532
19,13165,9257
19,13577,8254
19,13990,8243
19,14402,7712
19,14813,7928
19,15227,7477
19,15638,7885
19,16050,7917
19,16463,6839
19,16875,7595
19,17287,7933
19,17700,7228
19,18112,6268
19,18523,6160
19,18937,7468
19,19348,6018
19,19760,8027
19,20172,6104
19,20585,6472
19,20997,6190
19,21408,6883
19,21822,6624
19,22233,7172
19,22645,6420
19,23058,8205
19,23470,6324
19,23882,6022
19,24295,6715
19,24707,6691
19,25118,7530
19,25532,5780
19,25943,7088
19,26355,6921
19,26768,7196
19,27180,7592
19,27592,9321
19,28005,10471
19,28417,13446
19,28828,20341
19,29240,31075
19,29653,49840
19,30065,84498
19,30477,136702
19,30890,214959
19,31302,327977
19,31713,460315
19,32127,620392
19,32538,791719
19,32950,945191
19,33363,1077486
19,33775,1151240
19,34187,1188940
19,34600,1143940
19,35012,1080599
19,35423,996514
19,35837,889641
19,36248,743828
19,36660,628678
19,37073,518522
19,37485,431334
19,37897,360588
19,38308,304085
19,38722,252255
19,39133,213438
19,39545,181799
19,39958,152806
19,40370,135287
19,40782,119841
19,41195,104346
19,41607,94416
19,42018,84980
19,42432,73240
19,42843,68005
19,43255,61768
19,43668,58937
19,44080,54115
19,44492,49285
19,44905,47441
19,45317,44418
19,45728,43748
19,46142,39697
19,46553,40531
19,46965,38941
19,47377,39733
19,47790,40383
19,48202,38578
19,48613,39746
19,49027,39258
19,49438,38839
19,49850,36661
19,50263,37980
19,50675,34911
19,51087,32563
19,51500,31918
19,51912,30239
19,52323,27099
19,52737,26874
19,53148,22907
19,53560,23403
19,53973,21755
19,54385,19813
19,54797,18780
19,55210,17861
19,55622,16489
19,56033,16190
19,56447,16871
19,56858,14996
19,57270,14247
19,57682,14844
19,58095,11546
19,58507,14174
19,58918,13097
19,59332,13707
19,59743,12070
19,60155,11645
19,60568,10991
19,60980,10789
19,61392,10031
19,61805,10404
19,62217,11095
19,62628,10624
19,63042,8591
19,63453,10069
19,63865,9630
19,64278,9545
19,64690,9341
19,65102,9624
19,65515,9641
19,65927,9467
19,66338,9810
19,66750,8624
19,67163,8962
19,67575,8261
19,67987,8857
19,68400,9394
19,68812,9321
19,69223,8958
19,69637,10486
19,70048,8371
19,70460,9480
19,70873,8340
19,71285,9098
19,71697,8901
19,72110,8935
19,72522,12010
19,72933,15203
19,73347,21847
19,73758,35343
19,74170,63574
19,74583,111818
19,74995,191400
19,75407,314890
19,75818,483487
19,76232,719110
19,76643,1014372
19,77055,1366128
19,77468,1723840
19,77880,2082382
19,78292,2398870
19,78705,2613392
19,79117,2731746
19,79528,2715623
19,79942,2582399
19,80353,2355827
19,80765,2066389
19,81178,1774147
19,81590,1485286
19,82002,1218993
19,82415,995890
19,82827,826528
19,83238,678591
19,83652,557790
19,84063,469262
19,84475,394567
19,84887,341364
19,85300,296601
19,85712,259889
19,86123,226776
19,86537,201503
19,86948,180128
19,87360,161352
19,87773,148506
19,88185,132932
19,88597,122545
19,89010,111565
19,89422,104708
19,89833,95633
19,90247,88327
19,90658,85044
19,91070,75514
19,91483,72132
19,91895,67460
19,92307,61597
19,92720,60141
19,93132,53754
19,93543,51936
19,93955,50317
19,94368,47515
19,94780,45211
19,95192,40340
19,95605,39933
19,96017,37604
19,96428,37481
19,96842,36012
19,97253,32784
19,97665,30960
19,98078,29459
19,98490,29032
19,98902,28128
19,99315,28790
19,99727,26221
20,00138,23824
20,00552,26107
20,00963,23276
20,01375,22722
20,01788,22562
20,02200,21107
20,02612,21345
20,03023,20495
20,03437,19633
20,03848,20615
20,04260,18988
20,04673,17492
20,05085,17013
20,05497,17027
20,05910,17703
20,06322,15810
20,06733,14600
20,07147,16227
20,07558,16380
20,07970,15504
20,08383,15054
20,08795,16092
20,09207,15528
20,09620,20152
20,10032,30236
20,10443,43391
20,10857,71736
20,11268,112582
20,11680,174802
20,12092,271263
20,12505,379793
20,12917,541793
20,13328,699906
20,13742,874937
20,14153,1042932
20,14565,1160487
20,14978,1242711
20,15390,1271997
20,15802,1243875
20,16215,1153300
20,16627,1051906
20,17038,930152
20,17452,800322
20,17863,677110
20,18275,568735
20,18688,472457
20,19100,390782
20,19512,328757
20,19925,279012
20,20337,234795
20,20748,201805
20,21160,172399
20,21573,153131
20,21985,136203
20,22397,120626
20,22810,105196
20,23222,95669
20,23633,86917
20,24047,79642
20,24458,73416
20,24870,66627
20,25283,63332
20,25695,57774
20,26107,54548
20,26520,49850
20,26932,48580
20,27343,46610
20,27757,52751
20,28168,55871
20,28580,76423
20,28993,103923
20,29405,156604
20,29817,241786
20,30228,377767
20,30642,554707
20,31053,799204
20,31465,1070359
20,31878,1415629
20,32290,1746455
20,32702,2070930
20,33115,2325681
20,33527,2516174
20,33938,2598844
20,34352,2546350
20,34763,2376254
20,35175,2145766
20,35588,1895338
20,36000,1613571
20,36412,1342812
20,36825,1127359
20,37237,922847
20,37648,769395
20,38062,636113
20,38473,533502
20,38885,449921
20,39297,385236
20,39710,338846
20,40122,294097
20,40533,259543
20,40947,227956
20,41358,210007
20,41770,183489
20,42183,162963
20,42595,155270
20,43007,141021
20,43420,127981
20,43832,119284
20,44243,109144
20,44657,103327
20,45068,96447
20,45480,89970
20,45893,82762
20,46305,77614
20,46717,72166
20,47130,68797
20,47542,62068
20,47953,61335
20,48365,56715
20,48778,53355
20,49190,50490
20,49602,49518
20,50015,47116
20,50427,45638
20,50838,43466
20,51252,39742
20,51663,39539
20,52075,36116
20,52488,37339
20,52900,34509
20,53312,33973
20,53725,30756
20,54137,30803
20,54548,31384
20,54962,28363
20,55373,26676
20,55785,26849
20,56198,26822
20,56610,26149
20,57022,24936
20,57433,24946
20,57847,23042
20,58258,21116
20,58670,23610
20,59083,19126
20,59495,20384
20,59907,20646
20,60320,19553
20,60732,18993
20,61143,18479
20,61557,19443
20,61968,18380
20,62380,18268
20,62793,18230
20,63205,16282
20,63617,17337
20,64030,15995
20,64442,14598
20,64853,15970
20,65267,14949
20,65678,14542
20,66090,15330
20,66502,14418
20,66915,15030
20,67327,13601
20,67738,13447
20,68152,14690
20,68563,12839
20,68975,14476
20,69388,14290
20,69800,13771
20,70212,13504
20,70625,15145
20,71037,16097
20,71448,21372
20,71862,29989
20,72273,43934
20,72685,68690
20,73098,111588
20,73510,173582
20,73922,263748
20,74335,382128
20,74747,524743
20,75158,687117
20,75570,836846
20,75983,990170
20,76395,1090979
20,76807,1144530
20,77220,1135918
20,77632,1096944
20,78043,1028642
20,78457,930768
20,78868,824890
20,79280,731545
20,79693,669601
20,80105,639719
20,80517,663354
20,80930,743739
20,81342,891216
20,81753,1112909
20,82167,1377700
20,82578,1692330
20,82990,2052492
20,83403,2361834
20,83815,2607271
20,84227,2782020
20,84638,2850995
20,85052,2775526
20,85463,2573681
20,85875,2310855
20,86288,2016817
20,86700,1700291
20,87112,1407115
20,87525,1174384
20,87937,963436
20,88348,797497
20,88762,664820
20,89173,564679
20,89585,485514
20,89998,417368
20,90410,367587
20,90822,322525
20,91235,282100
20,91647,255123
20,92058,233202
20,92472,206148
20,92883,187449
20,93295,169589
20,93707,155067
20,94120,149846
20,94532,134225
20,94943,123765
20,95357,115614
20,95768,110721
20,96180,103375
20,96593,95773
20,97005,92114
20,97417,85469
20,97830,81272
20,98242,76305
20,98653,72830
20,99067,69319
20,99478,65289
20,99890,61591
21,00303,58447
21,00715,56946
21,01127,53568
21,01540,50387
21,01952,49672
21,02363,48540
21,02775,46374
21,03188,43772
21,03600,43405
21,04012,42684
21,04425,41139
21,04837,41864
21,05248,37469
21,05662,37062
21,06073,36975
21,06485,35203
21,06898,33475
21,07310,32790
21,07722,32542
21,08135,31347
21,08547,29393
21,08958,27908
21,09372,27058
21,09783,25910
21,10195,27385
21,10608,25309
21,11020,24837
21,11432,24760
21,11843,23393
21,12257,23289
21,12668,24037
21,13080,25972
21,13493,30932
21,13905,38295
21,14317,54724
21,14730,80761
21,15142,123269
21,15553,187289
21,15967,279329
21,16378,392801
21,16790,532711
21,17203,678734
21,17615,824908
21,18027,948439
21,18440,1048143
21,18852,1106197
21,19263,1101279
21,19677,1052548
21,20088,983416
21,20500,886306
21,20913,775344
21,21325,667753
21,21737,569084
21,22148,477684
21,22562,395121
21,22973,329210
21,23385,282904
21,23798,241980
21,24210,208373
21,24622,176478
21,25035,154397
21,25447,137793
21,25858,121443
21,26272,108658
21,26683,100785
21,27095,92832
21,27508,81105
21,27920,76663
21,28332,72537
21,28745,62962
21,29157,61634
21,29568,55317
21,29982,53201
21,30393,50724
21,30805,47131
21,31217,44294
21,31630,43389
21,32042,39104
21,32453,39312
21,32867,35505
21,33278,36247
21,33690,34430
21,34103,34787
21,34515,33490
21,34927,31490
21,35340,31901
21,35752,29548
21,36163,29420
21,36577,29420
21,36988,27216
21,37400,29234
21,37813,26453
21,38225,27443
21,38637,26710
21,39050,22623
21,39462,24141
21,39873,24463
21,40285,22566
21,40698,22074
21,41110,21663
21,41522,20288
21,41935,20175
21,42347,19453
21,42758,19306
21,43172,18491
21,43583,18582
21,43995,18498
21,44408,18558
21,44820,17774
21,45232,16123
21,45645,15541
21,46057,17632
21,46468,14822
21,46882,15824
21,47293,14691
21,47705,15053
21,48118,14933
21,48530,15666
21,48942,14168
21,49353,14221
21,49767,15032
21,50178,13819
21,50590,14296
21,51003,13919
21,51415,14111
21,51827,13423
21,52240,14121
21,52652,13080
21,53063,12220
21,53477,12289
21,53888,11643
21,54300,14228
21,54713,13498
21,55125,12954
21,55537,12044
21,55950,13563
21,56362,12733
21,56773,12623
21,57187,11623
21,57598,11544
21,58010,12531
21,58422,11595
21,58835,13691
21,59247,12593
21,59658,12208
21,60072,12817
21,60483,10685
21,60895,12382
21,61308,12714
21,61720,11275
21,62132,12119
21,62545,13064
21,62957,11018
21,63368,11422
21,63782,12393
21,64193,11151
21,64605,11496
21,65018,12198
21,65430,11087
21,65842,9912
21,66255,10223
21,66667,10905
21,67078,11257
21,67490,11734
21,67903,9961
21,68315,10081
21,68727,10657
21,69140,10890
21,69552,10480
21,69963,10356
21,70377,9824
21,70788,11845
21,71200,10340
21,71613,10515
21,72025,10628
21,72437,12119
21,72850,13506
21,73262,17357
21,73673,22325
21,74087,35327
21,74498,55120
21,74910,86242
21,75323,138239
21,75735,211210
21,76147,309397
21,76558,428488
21,76972,552061
21,77383,673920
21,77795,788309
21,78208,889317
21,78620,946175
21,79032,954855
21,79445,948106
21,79857,890304
21,80268,820814
21,80682,752261
21,81093,674295
21,81505,632750
21,81918,621887
21,82330,663507
21,82742,779483
21,83155,943610
21,83567,1175389
21,83978,1471131
21,84392,1841089
21,84803,2232467
21,85215,2602468
21,85627,2912782
21,86040,3116308
21,86452,3179735
21,86863,3101292
21,87277,2896890
21,87688,2598588
21,88100,2253483
21,88513,1916330
21,88925,1601440
21,89337,1343407
21,89750,1112963
21,90162,923264
21,90573,772849
21,90987,660935
21,91398,568730
21,91810,502559
21,92223,444148
21,92635,388792
21,93047,345915
21,93460,310474
21,93872,279972
21,94283,261557
21,94695,233459
21,95108,211126
21,95520,193709
21,95932,178581
21,96345,167643
21,96757,151134
21,97168,140889
21,97582,133608
21,97993,123969
21,98405,116425
21,98818,110022
21,99230,104881
21,99642,97969
22,00055,91043
22,00467,86752
22,00878,84199
22,01292,79168
22,01703,74571
22,02115,72147
22,02528,66079
22,02940,65213
22,03352,59641
22,03763,59583
22,04177,56702
22,04588,54332
22,05000,52676
22,05413,50024
22,05825,47411
22,06237,46792
22,06650,45428
22,07062,44926
22,07473,39998
22,07887,40615
22,08298,40600
22,08710,39851
22,09123,37433
22,09535,34852
22,09947,35615
22,10360,34743
22,10772,35150
22,11183,37197
22,11597,40248
22,12008,50745
22,12420,63151
22,12832,87358
22,13245,122369
22,13657,184887
22,14068,265916
22,14482,372978
22,14893,502138
22,15305,625986
22,15718,742051
22,16130,850500
22,16542,923429
22,16955,961408
22,17367,965905
22,17778,930073
22,18192,861887
22,18603,777649
22,19015,685831
22,19428,594312
22,19840,497069
22,20252,426563
22,20665,357857
22,21077,305523
22,21488,259594
22,21900,219271
22,22313,189645
22,22725,169081
22,23137,143418
22,23550,129672
22,23962,117823
22,24373,106841
22,24787,94395
22,25198,90137
22,25610,81064
22,26023,73445
22,26435,69362
22,26847,64965
22,27260,61168
22,27672,59616
22,28083,51434
22,28497,49448
22,28908,49532
22,29320,43959
22,29733,43009
22,30145,41274
22,30557,40397
22,30968,40138
22,31382,42181
22,31793,48712
22,32205,58321
22,32618,74536
22,33030,105926
22,33442,160032
22,33855,236788
22,34267,345912
22,34678,488618
22,35092,664939
22,35503,846728
22,35915,1038578
22,36328,1195445
22,36740,1324057
22,37152,1371667
22,37565,1366367
22,37977,1328410
22,38388,1226395
22,38802,1102983
22,39213,967936
22,39625,834552
22,40037,706830
22,40450,600116
22,40862,502444
22,41273,433853
22,41687,363686
22,42098,310008
22,42510,273361
22,42923,241757
22,43335,213085
22,43747,190081
22,44160,167923
22,44572,154860
22,44983,142189
22,45397,126050
22,45808,115054
22,46220,105406
22,46633,103376
22,47045,95603
22,47457,84847
22,47870,80773
22,48282,74959
22,48693,70849
22,49105,67231
22,49518,63938
22,49930,59693
22,50342,58558
22,50755,53477
22,51167,52084
22,51578,48367
22,51992,47143
22,52403,45904
22,52815,43222
22,53228,40335
22,53640,41279
22,54052,40221
22,54465,36612
22,54877,36065
22,55288,37080
22,55702,33746
22,56113,32906
22,56525,32193
22,56938,31830
22,57350,30639
22,57762,27589
22,58173,28102
22,58587,27849
22,58998,27263
22,59410,27853
22,59823,24551
22,60235,25114
22,60647,25528
22,61060,22704
22,61472,23959
22,61883,23687
22,62297,23865
22,62708,22604
22,63120,22361
22,63533,21807
22,63945,22680
22,64357,20643
22,64770,21578
22,65182,20787
22,65593,21452
22,66007,19107
22,66418,20052
22,66830,21367
22,67242,19244
22,67655,19169
22,68067,19373
22,68478,19308
22,68892,17551
22,69303,18352
22,69715,18712
22,70128,18018
22,70540,16744
22,70952,17708
22,71365,18191
22,71777,16254
22,72188,18479
22,72602,15924
22,73013,17649
22,73425,15730
22,73838,15999
22,74250,17001
22,74662,16895
22,75075,15901
22,75487,16904
22,75898,15673
22,76310,16739
22,76723,18415
22,77135,19053
22,77547,23579
22,77960,30959
22,78372,47019
22,78783,74423
22,79197,119521
22,79608,190125
22,80020,305319
22,80433,446675
22,80845,626377
22,81257,844492
22,81670,1045246
22,82082,1247402
22,82493,1412499
22,82907,1525894
22,83318,1548635
22,83730,1505318
22,84143,1415222
22,84555,1270764
22,84967,1114839
22,85380,972953
22,85792,831134
22,86203,693354
22,86615,585844
22,87028,495711
22,87440,425513
22,87852,357200
22,88265,316959
22,88677,280384
22,89088,238704
22,89502,217571
22,89913,197208
22,90325,177172
22,90738,157340
22,91150,145872
22,91562,134578
22,91975,123366
22,92387,115081
22,92798,105386
22,93212,97330
22,93623,92200
22,94035,87818
22,94448,84020
22,94860,77738
22,95272,73825
22,95683,69797
22,96097,67605
22,96508,65220
22,96920,62980
22,97333,58836
22,97745,56470
22,98157,56748
22,98570,53307
22,98982,50919
22,99393,49582
22,99807,48097
23,00218,44264
23,00630,42107
23,01043,42410
23,01455,40487
23,01867,38404
23,02280,38596
23,02692,37076
23,03103,35849
23,03517,34713
23,03928,31678
23,04340,33535
23,04752,34578
23,05165,30877
23,05577,31000
23,05988,28976
23,06402,30508
23,06813,30178
23,07225,27832
23,07638,28713
23,08050,28058
23,08462,26677
23,08875,26649
23,09287,26487
23,09698,26248
23,10112,24590
23,10523,25383
23,10935,25676
23,11348,25264
23,11760,25218
23,12172,29086
23,12585,33000
23,12997,42244
23,13408,55929
23,13820,84782
23,14233,131498
23,14645,197929
23,15057,291419
23,15470,421592
23,15882,579722
23,16293,729751
23,16707,899169
23,17118,1041627
23,17530,1153745
23,17943,1215033
23,18355,1210991
23,18767,1149522
23,19180,1074965
23,19592,970723
23,20003,851769
23,20417,737310
23,20828,624278
23,21240,529710
23,21653,451456
23,22065,376964
23,22477,329005
23,22888,278731
23,23302,244013
23,23713,213749
23,24125,187333
23,24538,168506
23,24950,151356
23,25362,134828
23,25775,122718
23,26187,111653
23,26598,102819
23,27012,99307
23,27423,87112
23,27835,83993
23,28248,77553
23,28660,73059
23,29072,68421
23,29485,63119
23,29897,57735
23,30308,58473
23,30722,55981
23,31133,52096
23,31545,51962
23,31957,45994
23,32370,46702
23,32782,42516
23,33193,43632
23,33607,42652
23,34018,40306
23,34430,38472
23,34843,37091
23,35255,34737
23,35667,33889
23,36080,34448
23,36492,31993
23,36903,34207
23,37317,32445
23,37728,32684
23,38140,29618
23,38553,28367
23,38965,28474
23,39377,25890
23,39790,28365
23,40202,27394
23,40613,24896
23,41025,26163
23,41438,26295
23,41850,26281
23,42262,24627
23,42675,22673
23,43087,23849
23,43498,22429
23,43912,24139
23,44323,21300
23,44735,20848
23,45148,23426
23,45560,21897
23,45972,20458
23,46385,21875
23,46797,20146
23,47208,21095
23,47622,21130
23,48033,20225
23,48445,22512
23,48858,20640
23,49270,20660
23,49682,19291
23,50093,19089
23,50507,20021
23,50918,20666
23,51330,18382
23,51743,19691
23,52155,20970
23,52567,18277
23,52980,20361
23,53392,18922
23,53803,19490
23,54217,19228
23,54628,18286
23,55040,19253
23,55453,18805
23,55865,19347
23,56277,19110
23,56690,19867
23,57102,19027
23,57513,18819
23,57927,19332
23,58338,18758
23,58750,19759
23,59162,18367
23,59575,17549
23,59987,18364
23,60398,17008
23,60812,18640
23,61223,18250
23,61635,16981
23,62048,18376
23,62460,17157
23,62872,16820
23,63285,17903
23,63697,17421
23,64108,17550
23,64522,16139
23,64933,17131
23,65345,16618
23,65758,17356
23,66170,16392
23,66582,16175
23,66995,17058
23,67407,18040
23,67818,18572
23,68230,19940
23,68643,21932
23,69055,28093
23,69467,35893
23,69880,54204
23,70292,79564
23,70703,121952
23,71117,185910
23,71528,283835
23,71940,401123
23,72353,552096
23,72765,732448
23,73177,935478
23,73590,1125481
23,74002,1295365
23,74413,1504675
23,74827,1705384
23,75238,1937496
23,75650,2163889
23,76063,2424408
23,76475,2701864
23,76887,2974733
23,77298,3245242
23,77712,3505622
23,78123,3602314
23,78535,3601165
23,78948,3405439
23,79360,3137076
23,79772,2790621
23,80185,2407437
23,80597,2056094
23,81008,1720602
23,81422,1430699
23,81833,1223013
23,82245,1027176
23,82658,875841
23,83070,760199
23,83482,668753
23,83895,587182
23,84307,529270
23,84718,474938
23,85132,433766
23,85543,387614
23,85955,356608
23,86367,325683
23,86780,295720
23,87192,276950
23,87603,254542
23,88017,243126
23,88428,225647
23,88840,212909
23,89253,199154
23,89665,190283
23,90077,174300
23,90490,164238
23,90902,154743
23,91313,148773
23,91727,140255
23,92138,133964
23,92550,124353
23,92963,119436
23,93375,117418
23,93787,109650
23,94200,108776
23,94612,104035
23,95023,99556
23,95435,93625
23,95848,90249
23,96260,87706
23,96672,86880
23,97085,80011
23,97497,79661
23,97908,75029
23,98322,73762
23,98733,69319
23,99145,67880
23,99558,67115
23,99970,63929
24,00382,63514
24,00795,62613
24,01207,60784
24,01618,58887
24,02032,57533
24,02443,55493
24,02855,56969
24,03268,56042
24,03680,55563
24,04092,58894
24,04503,60149
24,04917,71942
24,05328,90653
24,05740,121722
24,06153,168661
24,06565,243091
24,06977,341281
24,07390,460513
24,07802,597442
24,08213,741933
24,08627,898568
24,09038,1014107
24,09450,1104309
24,09863,1144359
24,10275,1124693
24,10687,1086163
24,11100,1004483
24,11512,937595
24,11923,854643
24,12337,802018
24,12748,780264
24,13160,777389
24,13572,831573
24,13985,903242
24,14397,968328
24,14808,1048911
24,15222,1118668
24,15633,1162326
24,16045,1179478
24,16458,1145580
24,16870,1087242
24,17282,1012016
24,17695,912832
24,18107,808769
24,18518,708522
24,18932,613378
24,19343,527238
24,19755,455884
24,20168,398655
24,20580,359282
24,20992,324096
24,21405,304615
24,21817,299578
24,22228,316367
24,22640,356343
24,23053,427630
24,23465,530495
24,23877,679186
24,24290,846103
24,24702,1043791
24,25113,1228085
24,25527,1389270
24,25938,1512548
24,26350,1561219
24,26763,1540848
24,27175,1460802
24,27587,1361368
24,28000,1226569
24,28412,1082396
24,28823,932764
24,29237,818315
24,29648,695197
24,30060,609527
24,30473,523753
24,30885,461624
24,31297,401662
24,31708,361241
24,32122,327008
24,32533,292362
24,32945,266923
24,33358,242583
24,33770,219188
24,34182,212433
24,34595,194255
24,35007,183145
24,35418,166973
24,35832,156066
24,36243,150576
24,36655,140679
24,37068,133696
24,37480,128404
24,37892,117952
24,38305,114539
24,38717,107581
24,39128,104858
24,39542,100409
24,39953,96369
24,40365,87355
24,40777,87645
24,41190,81448
24,41602,80065
24,42013,76306
24,42427,73333
24,42838,69233
24,43250,69449
24,43663,66693
24,44075,63984
24,44487,62255
24,44900,61856
24,45312,59474
24,45723,57941
24,46137,57977
24,46548,53429
24,46960,54798
24,47373,54659
24,47785,53685
24,48197,53858
24,48610,52251
24,49022,49852
24,49433,48346
24,49845,48671
24,50258,48058
24,50670,45644
24,51082,43233
24,51495,43759
24,51907,44245
24,52318,45206
24,52732,41979
24,53143,42143
24,53555,41914
24,53968,40192
24,54380,40901
24,54792,40985
24,55205,38552
24,55617,38779
24,56028,41011
24,56442,39974
24,56853,40503
24,57265,40232
24,57678,40582
24,58090,40727
24,58502,39185
24,58915,38704
24,59327,39035
24,59738,37439
24,60150,37709
24,60563,40459
24,60975,39714
24,61387,38401
24,61800,40370
24,62212,46914
24,62623,55635
24,63037,71286
24,63448,101551
24,63860,150603
24,64273,223990
24,64685,326652
24,65097,473402
24,65510,646209
24,65922,861221
24,66333,1081121
24,66747,1295228
24,67158,1461444
24,67570,1564094
24,67983,1608318
24,68395,1560215
24,68807,1460593
24,69218,1328064
24,69632,1184158
24,70043,1025657
24,70455,890784
24,70868,757634
24,71280,652584
24,71692,572737
24,72105,491241
24,72517,433259
24,72928,386259
24,73342,337600
24,73753,309940
24,74165,279957
24,74578,254312
24,74990,235396
24,75402,217178
24,75815,201902
24,76227,186661
24,76638,176135
24,77052,164464
24,77463,155693
24,77875,146323
24,78287,140240
24,78700,134465
24,79112,124924
24,79523,122492
24,79937,115023
24,80348,107579
24,80760,110816
24,81173,106506
24,81585,101839
24,81997,97671
24,82410,91972
24,82822,91255
24,83233,85818
24,83647,81130
24,84058,81346
24,84470,78965
24,84883,76653
24,85295,73589
24,85707,73458
24,86120,69912
24,86532,66289
24,86943,62700
24,87355,64075
24,87768,63420
24,88180,62178
24,88592,59698
24,89005,56886
24,89417,54824
24,89828,54485
24,90242,57492
24,90653,52784
24,91065,51064
24,91478,51458
24,91890,50803
24,92302,51396
24,92715,49119
24,93127,49052
24,93538,46523
24,93952,45921
24,94363,44467
24,94775,45431
24,95188,46333
24,95600,43580
24,96012,43660
24,96423,45740
24,96837,48290
24,97248,55217
24,97660,69832
24,98073,95334
24,98485,132552
24,98897,197328
24,99310,284897
24,99722,401237
25,00133,541333
25,00547,721531
25,00958,877277
25,01370,1050374
25,01783,1183096
25,02195,1269051
25,02607,1289711
25,03020,1265302
25,03432,1212746
25,03843,1108874
25,04257,996146
25,04668,895887
25,05080,801214
25,05492,714834
25,05905,665398
25,06317,644045
25,06728,653630
25,07142,695415
25,07553,765761
25,07965,849139
25,08378,926754
25,08790,1008556
25,09202,1067654
25,09615,1093470
25,10027,1092384
25,10438,1042656
25,10852,974952
25,11263,883978
25,11675,811946
25,12088,711699
25,12500,620887
25,12912,539320
25,13325,467175
25,13737,413468
25,14148,357026
25,14560,317640
25,14973,280065
25,15385,249265
25,15797,231627
25,16210,212999
25,16622,194000
25,17033,180493
25,17447,161935
25,17858,152701
25,18270,144175
25,18683,134006
25,19095,124261
25,19507,119231
25,19920,112611
25,20332,107211
25,20743,100637
25,21157,98847
25,21568,91783
25,21980,89384
25,22393,85978
25,22805,83737
25,23217,79843
25,23628,79102
25,24042,74533
25,24453,74760
25,24865,71508
25,25278,69466
25,25690,65214
25,26102,62259
25,26515,59213
25,26927,59540
25,27338,60065
25,27752,58729
25,28163,57462
25,28575,57438
25,28988,53170
25,29400,56412
25,29812,52882
25,30225,51379
25,30637,49607
25,31048,50401
25,31462,46598
25,31873,50179
25,32285,45371
25,32697,47803
25,33110,46334
25,33522,46143
25,33933,44996
25,34347,42560
25,34758,44390
25,35170,42540
25,35583,44242
25,35995,42706
25,36407,41213
25,36820,39986
25,37232,42358
25,37643,39767
25,38057,40500
25,38468,39845
25,38880,41485
25,39293,37856
25,39705,40347
25,40117,39662
25,40530,36529
25,40942,37625
25,41353,35615
25,41765,37588
25,42178,35581
25,42590,34673
25,43002,36558
25,43415,35732
25,43827,35951
25,44238,35501
25,44652,37064
25,45063,35486
25,45475,33760
25,45888,33514
25,46300,35688
25,46712,35554
25,47125,34498
25,47537,33046
25,47948,33250
25,48362,34413
25,48773,35111
25,49185,35238
25,49598,38627
25,50010,44126
25,50422,54098
25,50833,69750
25,51247,100432
25,51658,143183
25,52070,212296
25,52483,308890
25,52895,446217
25,53307,641984
25,53720,884231
25,54132,1196783
25,54543,1562827
25,54957,1960593
25,55368,2361365
25,55780,2731159
25,56193,2982500
25,56605,3197762
25,57017,3201176
25,57430,3085093
25,57842,2826292
25,58253,2514621
25,58667,2163083
25,59078,1859741
25,59490,1570548
25,59902,1342339
25,60315,1140841
25,60727,988877
25,61138,850996
25,61552,759759
25,61963,677476
25,62375,602237
25,62788,547538
25,63200,488635
25,63612,454713
25,64025,413101
25,64437,386323
25,64848,364158
25,65262,329453
25,65673,309433
25,66085,288372
25,66498,269322
25,66910,256334
25,67322,243784
25,67735,226362
25,68147,220403
25,68558,207409
25,68970,199463
25,69383,187714
25,69795,177753
25,70207,174317
25,70620,165148
25,71032,159718
25,71443,157908
25,71857,145955
25,72268,140674
25,72680,137378
25,73093,133036
25,73505,129440
25,73917,123561
25,74330,121568
25,74742,117056
25,75153,115642
25,75567,109036
25,75978,106664
25,76390,107459
25,76803,103450
25,77215,98676
25,77627,94552
25,78038,93024
25,78452,90392
25,78863,90067
25,79275,85726
25,79688,86687
25,80100,82474
25,80512,83705
25,80925,79890
25,81337,78227
25,81748,78463
25,82162,76587
25,82573,76684
25,82985,75731
25,83398,72293
25,83810,71731
25,84222,71484
25,84635,71977
25,85047,72294
25,85458,68162
25,85872,71283
25,86283,68021
25,86695,65281
25,87107,65842
25,87520,64999
25,87932,63099
25,88343,64360
25,88757,61178
25,89168,62597
25,89580,61606
25,89993,61672
25,90405,58544
25,90817,54556
25,91230,54996
25,91642,58001
25,92053,56174
25,92467,55889
25,92878,53788
25,93290,56740
25,93703,54354
25,94115,52646
25,94527,53432
25,94940,54897
25,95352,51697
25,95763,53172
25,96175,55520
25,96588,61363
25,97000,67894
25,97412,82011
25,97825,110209
25,98237,147536
25,98648,200048
25,99062,289872
25,99473,404064
25,99885,548377
26,00298,735428
26,00710,936535
26,01122,1119794
26,01535,1296807
26,01947,1423910
26,02358,1484544
26,02772,1488794
26,03183,1422961
26,03595,1307198
26,04008,1185162
26,04420,1055033
26,04832,923952
26,05243,811760
26,05657,700353
26,06068,620866
26,06480,550911
26,06893,484084
26,07305,433657
26,07717,387496
26,08130,352150
26,08542,325013
26,08953,297720
26,09367,273333
26,09778,255821
26,10190,237658
26,10603,220439
26,11015,207615
26,11427,198637
26,11840,187447
26,12252,176735
26,12663,171639
26,13077,164952
26,13488,153885
26,13900,144243
26,14312,140531
26,14725,137503
26,15137,131391
26,15548,127868
26,15962,121528
26,16373,115216
26,16785,116045
26,17198,110371
26,17610,105720
26,18022,101516
26,18435,99616
26,18847,100028
26,19258,95143
26,19672,92840
26,20083,92355
26,20495,88479
26,20908,88927
26,21320,84548
26,21732,81311
26,22145,80060
26,22557,80374
26,22968,75547
26,23382,74085
26,23793,75403
26,24205,75300
26,24617,72038
26,25030,71130
26,25442,69070
26,25853,67412
26,26267,64707
26,26678,64580
26,27090,65683
26,27503,64421
26,27915,60212
26,28327,63140
26,28740,62216
26,29152,62126
26,29563,60944
26,29977,59107
26,30388,59219
26,30800,59782
26,31213,60619
26,31625,56233
26,32037,59738
26,32450,57451
26,32862,57490
26,33273,54404
26,33685,58749
26,34098,61595
26,34510,64452
26,34922,66881
26,35335,71073
26,35747,80111
26,36158,83320
26,36572,91985
26,36983,95162
26,37395,109291
26,37808,112505
26,38220,115844
26,38632,117298
26,39045,115066
26,39457,112256
26,39868,106526
26,40282,104528
26,40693,96098
26,41105,90352
26,41518,83139
26,41930,79192
26,42342,75156
26,42753,68804
26,43167,67548
26,43578,62893
26,43990,60186
26,44403,57165
26,44815,56143
26,45227,54221
26,45640,51006
26,46052,52505
26,46463,51561
26,46877,51413
26,47288,47281
26,47700,50487
26,48113,47092
26,48525,48648
26,48937,49611
26,49350,48695
26,49762,48677
26,50173,45433
26,50587,45908
26,50998,48383
26,51410,45554
26,51822,43013
26,52235,45564
26,52647,46029
26,53058,44300
26,53472,43120
26,53883,44323
26,54295,44442
26,54708,44419
26,55120,43036
26,55532,43540
26,55945,42874
26,56357,41884
26,56768,43128
26,57182,41800
26,57593,41851
26,58005,43340
26,58418,41939
26,58830,41863
26,59242,42461
26,59655,44280
26,60067,43200
26,60478,43411
26,60890,41324
26,61303,43749
26,61715,42106
26,62127,41650
26,62540,43192
26,62952,41685
26,63363,42014
26,63777,39685
26,64188,42416
26,64600,43572
26,65013,41062
26,65425,40317
26,65837,42771
26,66250,38886
26,66662,40945
26,67073,40210
26,67487,38734
26,67898,38904
26,68310,43519
26,68723,40695
26,69135,38879
26,69547,41573
26,69958,38812
26,70372,41714
26,70783,41211
26,71195,40477
26,71608,42374
26,72020,43019
26,72432,39588
26,72845,41330
26,73257,39938
26,73668,40241
26,74082,41206
26,74493,42385
26,74905,41619
26,75318,38888
26,75730,40662
26,76142,40461
26,76555,41653
26,76967,40810
26,77378,41666
26,77792,39898
26,78203,43855
26,78615,40661
26,79027,40907
26,79440,40323
26,79852,39312
26,80263,40757
26,80677,41124
26,81088,41007
26,81500,41345
26,81913,40803
26,82325,43761
26,82737,41556
26,83150,40647
26,83562,43936
26,83973,43718
26,84387,41712
26,84798,42497
26,85210,44230
26,85623,43025
26,86035,42138
26,86447,42410
26,86860,40237
26,87272,40967
26,87683,41898
26,88095,40722
26,88508,43183
26,88920,39942
26,89332,41130
26,89745,40071
26,90157,38367
26,90568,38727
26,90982,39351
26,91393,41492
26,91805,42015
26,92218,42494
26,92630,40860
26,93042,39807
26,93455,40653
26,93867,39922
26,94278,39158
26,94692,38944
26,95103,44293
26,95515,40461
26,95928,38280
26,96340,42374
26,96752,38702
26,97163,38223
26,97577,39543
26,97988,39527
26,98400,40939
26,98813,38963
26,99225,40632
26,99637,38236
27,00050,37583
27,00462,39462
27,00873,39145
27,01287,39949
27,01698,40188
27,02110,39308
27,02523,38777
27,02935,41122
27,03347,40252
27,03760,40711
27,04172,40080
27,04583,39289
27,04997,40314
27,05408,39122
27,05820,39367
27,06232,38338
27,06645,40339
27,07057,40400
27,07468,38209
27,07882,42710
27,08293,37715
27,08705,39898
27,09118,37763
27,09530,38063
27,09942,38844
27,10355,41112
27,10767,37649
27,11178,40172
27,11592,39370
27,12003,39296
27,12415,37813
27,12828,38314
27,13240,39249
27,13652,39234
27,14065,41432
27,14477,39348
27,14888,41206
27,15300,41021
27,15713,39949
27,16125,41278
27,16537,41993
27,16950,42791
27,17362,41880
27,17773,40533
27,18187,37774
27,18598,40954
27,19010,41356
27,19423,39165
27,19835,40995
27,20247,40515
27,20660,41863
27,21072,41288
27,21483,39538
27,21897,40468
27,22308,42270
27,22720,43778
27,23133,42700
27,23545,45837
27,23957,50315
27,24368,59124
27,24782,72904
27,25193,89464
27,25605,121512
27,26018,161278
27,26430,222272
27,26842,294141
27,27255,375842
27,27667,470317
27,28078,558388
27,28492,651353
27,28903,703180
27,29315,756965
27,29728,775750
27,30140,761114
27,30552,734318
27,30965,687716
27,31377,629703
27,31788,569026
27,32202,515316
27,32613,453511
27,33025,399166
27,33437,356231
27,33850,316273
27,34262,280926
27,34673,254912
27,35087,225882
27,35498,213318
27,35910,189863
27,36323,178575
27,36735,166759
27,37147,154502
27,37560,142284
27,37972,136921
27,38383,125821
27,38797,120751
27,39208,116339
27,39620,110817
27,40033,102337
27,40445,100546
27,40857,94243
27,41270,93150
27,41682,90245
27,42093,85757
27,42505,84629
27,42918,78500
27,43330,80098
27,43742,78145
27,44155,75744
27,44567,73212
27,44978,72774
27,45392,70746
27,45803,67662
27,46215,69163
27,46628,65524
27,47040,63077
27,47452,63618
27,47865,64292
27,48277,62787
27,48688,63010
27,49102,62524
27,49513,60389
27,49925,58723
27,50338,58316
27,50750,56151
27,51162,58832
27,51573,55390
27,51987,55522
27,52398,55136
27,52810,56746
27,53223,55313
27,53635,51983
27,54047,53542
27,54460,52681
27,54872,50011
27,55283,54987
27,55697,51036
27,56108,51738
27,56520,51975
27,56933,51088
27,57345,49416
27,57757,51970
27,58170,49567
27,58582,50157
27,58993,47355
27,59407,52749
27,59818,48928
27,60230,47960
27,60642,51356
27,61055,47960
27,61467,49275
27,61878,49537
27,62292,49999
27,62703,48938
27,63115,50255
27,63528,47135
27,63940,49883
27,64352,47378
27,64765,48199
27,65177,48735
27,65588,48540
27,66002,47161
27,66413,49850
27,66825,48216
27,67238,47160
27,67650,47507
27,68062,46664
27,68475,48082
27,68887,47288
27,69298,48482
27,69710,49794
27,70123,49554
27,70535,48064
27,70947,45137
27,71360,43838
27,71772,47079
27,72183,49104
27,72597,46928
27,73008,47122
27,73420,46281
27,73833,46285
27,74245,44880
27,74657,45830
27,75070,42972
27,75482,48179
27,75893,45221
27,76307,45070
27,76718,45409
27,77130,44591
27,77543,44052
27,77955,46272
27,78367,44227
27,78780,46085
27,79192,45699
27,79603,46089
27,80015,45799
27,80428,43349
27,80840,44884
27,81252,46157
27,81665,45074
27,82077,45102
27,82488,43196
27,82902,46060
27,83313,41740
27,83725,45118
27,84138,42539
27,84550,42542
27,84962,44290
27,85375,41201
27,85787,44067
27,86198,43202
27,86612,43829
27,87023,43781
27,87435,45853
27,87848,42171
27,88260,44097
27,88672,43735
27,89083,42642
