D:\MassHunter\GCMS\1\data\Amal\Constant flow\120C\120C_1ml-min_5C-min_3.D Mon Sep 16 20:20:02 2024
Start of data points
5,29095,196649
5,29507,191720
5,29918,188657
5,30332,186685
5,30743,184751
5,31155,178840
5,31568,179519
5,31980,172020
5,32392,169457
5,32805,169012
5,33217,167066
5,33628,165375
5,34040,162631
5,34453,159542
5,34865,160920
5,35277,160053
5,35690,156850
5,36102,153758
5,36513,151379
5,36927,149017
5,37338,151392
5,37750,145727
5,38163,143880
5,38575,143181
5,38987,144404
5,39400,140828
5,39812,139687
5,40223,137877
5,40637,138184
5,41048,135232
5,41460,131846
5,41873,133010
5,42285,130052
5,42697,131665
5,43108,130080
5,43522,129416
5,43933,127407
5,44345,127023
5,44758,126933
5,45170,125956
5,45582,125878
5,45995,123024
5,46407,122818
5,46818,122204
5,47232,121289
5,47643,121333
5,48055,121721
5,48468,119903
5,48880,124184
5,49292,124267
5,49705,121427
5,50117,123607
5,50528,121839
5,50942,121793
5,51353,123404
5,51765,123304
5,52177,123443
5,52590,121909
5,53002,123127
5,53413,119286
5,53827,122502
5,54238,124431
5,54650,124144
5,55063,120719
5,55475,126083
5,55887,124466
5,56300,122480
5,56712,127603
5,57123,121093
5,57537,124420
5,57948,124157
5,58360,122501
5,58773,122170
5,59185,122963
5,59597,122542
5,60010,117542
5,60422,113990
5,60833,120939
5,61245,115906
5,61658,118301
5,62070,113769
5,62482,114651
5,62895,115307
5,63307,115534
5,63718,111426
5,64132,116793
5,64543,113438
5,64955,112026
5,65368,109578
5,65780,107786
5,66192,111660
5,66605,120678
5,67017,134694
5,67428,167023
5,67842,221517
5,68253,302746
5,68665,411759
5,69078,541222
5,69490,667975
5,69902,779842
5,70313,865818
5,70727,926168
5,71138,974217
5,71550,970630
5,71963,978226
5,72375,950835
5,72787,931800
5,73200,893931
5,73612,873830
5,74023,841787
5,74437,813663
5,74848,780380
5,75260,756076
5,75673,722747
5,76085,704064
5,76497,678097
5,76910,657652
5,77322,629755
5,77733,604464
5,78147,588602
5,78558,572675
5,78970,540237
5,79382,526298
5,79795,505416
5,80207,485944
5,80618,468411
5,81032,450644
5,81443,431431
5,81855,414037
5,82268,397893
5,82680,383025
5,83092,363761
5,83505,344587
5,83917,325969
5,84328,306126
5,84742,288147
5,85153,281352
5,85565,262924
5,85978,250611
5,86390,235505
5,86802,219947
5,87215,209266
5,87627,201138
5,88038,190573
5,88450,180466
5,88863,168569
5,89275,163415
5,89687,155278
5,90100,153092
5,90512,144341
5,90923,141715
5,91337,131466
5,91748,124734
5,92160,126129
5,92573,120165
5,92985,114156
5,93397,113146
5,93810,107930
5,94222,106231
5,94633,105418
5,95047,100983
5,95458,96123
5,95870,98392
5,96283,92451
5,96695,91010
5,97107,89557
5,97518,89536
5,97932,89799
5,98343,86690
5,98755,86553
5,99168,86270
5,99580,84378
5,99992,83054
6,00405,81839
6,00817,83629
6,01228,80417
6,01642,77767
6,02053,81813
6,02465,77198
6,02878,76776
6,03290,77393
6,03702,79280
6,04115,75940
6,04527,75799
6,04938,74538
6,05352,73760
6,05763,74042
6,06175,71880
6,06587,75695
6,07000,72311
6,07412,72690
6,07823,74087
6,08237,71910
6,08648,73367
6,09060,71904
6,09473,69260
6,09885,70225
6,10297,70367
6,10710,69418
6,11122,69018
6,11533,71411
6,11947,71991
6,12358,67920
6,12770,68002
6,13183,69281
6,13595,68891
6,14007,67612
6,14420,66126
6,14832,66334
6,15243,65250
6,15655,67827
6,16068,67020
6,16480,66688
6,16892,68008
6,17305,67548
6,17717,67843
6,18128,65498
6,18542,67590
6,18953,67230
6,19365,67465
6,19778,66752
6,20190,66394
6,20602,65247
6,21015,66769
6,21427,63818
6,21838,65826
6,22252,63781
6,22663,64545
6,23075,63243
6,23488,63955
6,23900,63223
6,24312,63335
6,24723,59595
6,25137,62702
6,25548,61298
6,25960,62151
6,26373,59865
6,26785,62900
6,27197,59848
6,27610,60748
6,28022,60209
6,28433,60068
6,28847,59657
6,29258,61551
6,29670,59659
6,30083,59438
6,30495,62959
6,30907,59059
6,31320,57223
6,31732,59496
6,32143,58132
6,32557,59875
6,32968,58921
6,33380,58003
6,33792,56830
6,34205,58195
6,34617,57593
6,35028,58550
6,35442,58999
6,35853,58539
6,36265,58198
6,36678,56846
6,37090,56627
6,37502,56278
6,37915,56933
6,38327,54396
6,38738,55540
6,39152,54689
6,39563,54767
6,39975,53491
6,40388,52643
6,40800,55190
6,41212,53120
6,41625,53487
6,42037,52614
6,42448,51010
6,42860,50486
6,43273,50123
6,43685,52907
6,44097,50851
6,44510,50302
6,44922,49163
6,45333,48721
6,45747,50197
6,46158,50233
6,46570,50279
6,46983,50088
6,47395,46733
6,47807,48726
6,48220,48822
6,48632,45824
6,49043,50375
6,49457,47858
6,49868,49623
6,50280,46854
6,50693,50108
6,51105,47671
6,51517,49092
6,51928,48718
6,52342,47552
6,52753,47621
6,53165,47773
6,53578,49199
6,53990,50813
6,54402,50255
6,54815,49772
6,55227,49390
6,55638,51385
6,56052,51594
6,56463,49421
6,56875,52792
6,57288,49219
6,57700,49759
6,58112,49868
6,58525,47538
6,58937,48100
6,59348,48105
6,59762,49256
6,60173,47648
6,60585,47051
6,60997,47363
6,61410,49303
6,61822,45568
6,62233,47246
6,62647,45735
6,63058,45652
6,63470,45112
6,63883,45021
6,64295,44784
6,64707,43246
6,65120,43859
6,65532,44605
6,65943,46220
6,66357,44778
6,66768,43449
6,67180,45286
6,67593,46745
6,68005,42693
6,68417,45241
6,68830,44060
6,69242,44763
6,69653,44985
6,70065,43211
6,70478,44475
6,70890,44184
6,71302,42937
6,71715,42035
6,72127,43278
6,72538,43460
6,72952,43353
6,73363,44615
6,73775,41253
6,74188,42782
6,74600,42943
6,75012,41419
6,75425,42641
6,75837,42564
6,76248,40826
6,76662,40885
6,77073,42687
6,77485,42378
6,77898,40644
6,78310,40681
6,78722,42521
6,79133,40462
6,79547,39914
6,79958,40757
6,80370,40572
6,80783,41978
6,81195,41342
6,81607,40369
6,82020,38340
6,82432,40898
6,82843,40688
6,83257,39796
6,83668,40326
6,84080,39687
6,84493,39443
6,84905,39533
6,85317,40560
6,85730,37228
6,86142,39710
6,86553,39153
6,86967,40034
6,87378,39242
6,87790,39350
6,88203,39221
6,88615,39661
6,89027,39481
6,89438,39800
6,89852,38479
6,90263,39573
6,90675,38429
6,91088,38384
6,91500,41362
6,91912,39965
6,92325,41178
6,92737,40749
6,93148,38402
6,93562,39373
6,93973,38750
6,94385,40311
6,94798,37977
6,95210,39953
6,95622,41299
6,96035,38121
6,96447,40033
6,96858,38667
6,97272,39004
6,97683,39503
6,98095,39745
6,98507,41402
6,98920,42345
6,99332,47170
6,99743,53101
7,00157,69079
7,00568,97440
7,00980,140289
7,01393,208600
7,01805,301886
7,02217,419964
7,02630,559721
7,03042,704202
7,03453,852024
7,03867,977018
7,04278,1086493
7,04690,1158437
7,05103,1219771
7,05515,1239627
7,05927,1244122
7,06340,1228495
7,06752,1203222
7,07163,1171806
7,07575,1131111
7,07988,1081240
7,08400,1045072
7,08812,999474
7,09225,959676
7,09637,914002
7,10048,864544
7,10462,826774
7,10873,784340
7,11285,746359
7,11698,697909
7,12110,661028
7,12522,632568
7,12935,593025
7,13347,547382
7,13758,513770
7,14172,473120
7,14583,439827
7,14995,402199
7,15408,375510
7,15820,346296
7,16232,316922
7,16643,291350
7,17057,265679
7,17468,241904
7,17880,226954
7,18293,206197
7,18705,190595
7,19117,178470
7,19530,161274
7,19942,147103
7,20353,135695
7,20767,128165
7,21178,121292
7,21590,110279
7,22003,103296
7,22415,96982
7,22827,91027
7,23240,88747
7,23652,80960
7,24063,77902
7,24477,73171
7,24888,70994
7,25300,68326
7,25712,64953
7,26125,63341
7,26537,61310
7,26948,59804
7,27362,57891
7,27773,58345
7,28185,55308
7,28598,53238
7,29010,52000
7,29422,51797
7,29835,50080
7,30247,51157
7,30658,49294
7,31072,48795
7,31483,46578
7,31895,46209
7,32308,47387
7,32720,46277
7,33132,43003
7,33545,44569
7,33957,43264
7,34368,42156
7,34780,42084
7,35193,41069
7,35605,40413
7,36017,39913
7,36430,41243
7,36842,41530
7,37253,41014
7,37667,39396
7,38078,40063
7,38490,38006
7,38903,37986
7,39315,38664
7,39727,35181
7,40140,36818
7,40552,38672
7,40963,35988
7,41377,35860
7,41788,35596
7,42200,37996
7,42613,37126
7,43025,36340
7,43437,36391
7,43848,37647
7,44262,36843
7,44673,37582
7,45085,37494
7,45498,35848
7,45910,36683
7,46322,35473
7,46735,34954
7,47147,36339
7,47558,35459
7,47972,37428
7,48383,36052
7,48795,35662
7,49208,34691
7,49620,36283
7,50032,34046
7,50445,35620
7,50857,36025
7,51268,35248
7,51682,34373
7,52093,33224
7,52505,34450
7,52917,33483
7,53330,33044
7,53742,34658
7,54153,35271
7,54567,34277
7,54978,32624
7,55390,35714
7,55803,33164
7,56215,35267
7,56627,33799
7,57040,34378
7,57452,33797
7,57863,32098
7,58277,31676
7,58688,32679
7,59100,32154
7,59513,31245
7,59925,32300
7,60337,32125
7,60750,32857
7,61162,32040
7,61573,31127
7,61985,30723
7,62398,31506
7,62810,30058
7,63222,32263
7,63635,28259
7,64047,30949
7,64458,31112
7,64872,28819
7,65283,29809
7,65695,30676
7,66108,28714
7,66520,29307
7,66932,29311
7,67345,28999
7,67757,28501
7,68168,30309
7,68582,30406
7,68993,29559
7,69405,30290
7,69818,31351
7,70230,30512
7,70642,30028
7,71053,31657
7,71467,30021
7,71878,30686
7,72290,29810
7,72703,29526
7,73115,30607
7,73527,29138
7,73940,27972
7,74352,28547
7,74763,30046
7,75177,28693
7,75588,30150
7,76000,28122
7,76413,28552
7,76825,28554
7,77237,28513
7,77650,28818
7,78062,29777
7,78473,29344
7,78887,28046
7,79298,26245
7,79710,28273
7,80122,27938
7,80535,27312
7,80947,27065
7,81358,28822
7,81772,26143
7,82183,27498
7,82595,27870
7,83008,27998
7,83420,27628
7,83832,27778
7,84245,28232
7,84657,26849
7,85068,28321
7,85482,27970
7,85893,27014
7,86305,25610
7,86718,27411
7,87130,28790
7,87542,26826
7,87955,28681
7,88367,27489
7,88778,28189
7,89190,28090
7,89603,29522
7,90015,31584
7,90427,35211
7,90840,45943
7,91252,58748
7,91663,82462
7,92077,116873
7,92488,160187
7,92900,218443
7,93313,294672
7,93725,365154
7,94137,447154
7,94550,523357
7,94962,595725
7,95373,644033
7,95787,684296
7,96198,717522
7,96610,723954
7,97023,721718
7,97435,712933
7,97847,697374
7,98258,677182
7,98672,649384
7,99083,618095
7,99495,581856
7,99908,552240
8,00320,532872
8,00732,499878
8,01145,469503
8,01557,442077
8,01968,413043
8,02382,377508
8,02793,348977
8,03205,323500
8,03618,301263
8,04030,276606
8,04442,253511
8,04855,223908
8,05267,205294
8,05678,187448
8,06092,173687
8,06503,157329
8,06915,138538
8,07327,129986
8,07740,119119
8,08152,109220
8,08563,99013
8,08977,95654
8,09388,86438
8,09800,80183
8,10213,73270
8,10625,70812
8,11037,63702
8,11450,63115
8,11862,58670
8,12273,56897
8,12687,50993
8,13098,51484
8,13510,49986
8,13923,47653
8,14335,45230
8,14747,45151
8,15160,42286
8,15572,41280
8,15983,38762
8,16395,40829
8,16808,38165
8,17220,38529
8,17632,36563
8,18045,36211
8,18457,37404
8,18868,34010
8,19282,36056
8,19693,35439
8,20105,34457
8,20518,33708
8,20930,35970
8,21342,34765
8,21755,34342
8,22167,34196
8,22578,35445
8,22992,33285
8,23403,34064
8,23815,32958
8,24228,33548
8,24640,34058
8,25052,33104
8,25463,32045
8,25877,33338
8,26288,31025
8,26700,31603
8,27113,31369
8,27525,32117
8,27937,31218
8,28350,31165
8,28762,30148
8,29173,28673
8,29587,29194
8,29998,30084
8,30410,31283
8,30823,29933
8,31235,29939
8,31647,31705
8,32060,30065
8,32472,28370
8,32883,29517
8,33297,30831
8,33708,31472
8,34120,29936
8,34532,30691
8,34945,31265
8,35357,30371
8,35768,28416
8,36182,29833
8,36593,29165
8,37005,29066
8,37418,27856
8,37830,27238
8,38242,26834
8,38655,26998
8,39067,26918
8,39478,26485
8,39892,26371
8,40303,27247
8,40715,25648
8,41128,25218
8,41540,25164
8,41952,25777
8,42365,24486
8,42777,23116
8,43188,24451
8,43600,24955
8,44013,23923
8,44425,23893
8,44837,23375
8,45250,24298
8,45662,23219
8,46073,25034
8,46487,23487
8,46898,24253
8,47310,23631
8,47723,23525
8,48135,24157
8,48547,25040
8,48960,23804
8,49372,22588
8,49783,23644
8,50197,22408
8,50608,22853
8,51020,23951
8,51433,23726
8,51845,23763
8,52257,23390
8,52670,22561
8,53082,22734
8,53493,22210
8,53905,21850
8,54318,22085
8,54730,21369
8,55142,22078
8,55555,21834
8,55967,20333
8,56378,22501
8,56792,22076
8,57203,21779
8,57615,22135
8,58028,22156
8,58440,21701
8,58852,22756
8,59265,21240
8,59677,20873
8,60088,20774
8,60502,22397
8,60913,21281
8,61325,23376
8,61738,21424
8,62150,20334
8,62562,20450
8,62973,20529
8,63387,20893
8,63798,20722
8,64210,21388
8,64623,21171
8,65035,21379
8,65447,19729
8,65860,22186
8,66272,20839
8,66683,22084
8,67097,21671
8,67508,22231
8,67920,21113
8,68333,21947
8,68745,21315
8,69157,21500
8,69570,21648
8,69982,21367
8,70393,22352
8,70807,21122
8,71218,19902
8,71630,19397
8,72042,20437
8,72455,21215
8,72867,19804
8,73278,19786
8,73692,21235
8,74103,20372
8,74515,20679
8,74928,20532
8,75340,19442
8,75752,20876
8,76165,21161
8,76577,20746
8,76988,20761
8,77402,21165
8,77813,19932
8,78225,21861
8,78638,21206
8,79050,21364
8,79462,20859
8,79875,21545
8,80287,22106
8,80698,21627
8,81110,20786
8,81523,22037
8,81935,21017
8,82347,21815
8,82760,20895
8,83172,20277
8,83583,19465
8,83997,20675
8,84408,20883
8,84820,19777
8,85233,19914
8,85645,19811
8,86057,20067
8,86470,21299
8,86882,19639
8,87293,19699
8,87707,19957
8,88118,20677
8,88530,19834
8,88943,19550
8,89355,21018
8,89767,20212
8,90178,20541
8,90592,19871
8,91003,18013
8,91415,20333
8,91828,20152
8,92240,20956
8,92652,19659
8,93065,20971
8,93477,21710
8,93888,20956
8,94302,23861
8,94713,27054
8,95125,33838
8,95538,47156
8,95950,66520
8,96362,107080
8,96775,157370
8,97187,238768
8,97598,341340
8,98012,477136
8,98423,630369
8,98835,805130
8,99247,1005373
8,99660,1177672
9,00072,1340771
9,00483,1469534
9,00897,1585263
9,01308,1637074
9,01720,1678842
9,02133,1675625
9,02545,1654840
9,02957,1606730
9,03370,1536315
9,03782,1468246
9,04193,1370335
9,04607,1279836
9,05018,1193060
9,05430,1106593
9,05843,1014705
9,06255,920954
9,06667,837238
9,07080,761139
9,07492,673990
9,07903,609310
9,08315,539892
9,08728,486050
9,09140,424666
9,09552,383540
9,09965,340523
9,10377,304635
9,10788,267019
9,11202,244378
9,11613,217981
9,12025,194305
9,12438,178215
9,12850,160883
9,13262,145948
9,13675,131662
9,14087,121660
9,14498,113021
9,14912,103788
9,15323,96046
9,15735,88583
9,16148,83486
9,16560,80291
9,16972,73309
9,17383,70458
9,17797,65248
9,18208,64485
9,18620,60030
9,19033,57381
9,19445,55073
9,19857,54257
9,20270,52401
9,20682,48266
9,21093,46986
9,21507,47856
9,21918,45351
9,22330,45843
9,22743,43674
9,23155,42869
9,23567,40979
9,23980,40244
9,24392,40961
9,24803,37606
9,25217,36004
9,25628,35442
9,26040,34721
9,26452,35220
9,26865,34534
9,27277,32732
9,27688,31784
9,28102,31399
9,28513,30902
9,28925,31873
9,29338,29214
9,29750,29832
9,30162,28127
9,30575,28029
9,30987,27110
9,31398,28919
9,31812,28328
9,32223,27905
9,32635,26677
9,33048,27339
9,33460,26290
9,33872,27703
9,34285,25305
9,34697,23838
9,35108,27066
9,35520,24111
9,35933,25075
9,36345,25930
9,36757,23760
9,37170,24220
9,37582,22722
9,37993,24185
9,38407,22503
9,38818,23679
9,39230,23799
9,39643,22544
9,40055,23366
9,40467,23694
9,40880,22275
9,41292,22574
9,41703,21954
9,42117,22537
9,42528,22286
9,42940,20593
9,43353,21365
9,43765,21203
9,44177,21287
9,44588,22268
9,45002,20959
9,45413,21021
9,45825,21044
9,46238,20145
9,46650,20891
9,47062,20770
9,47475,20125
9,47887,21587
9,48298,20254
9,48712,19100
9,49123,20203
9,49535,19846
9,49948,20105
9,50360,20575
9,50772,20647
9,51185,19075
9,51597,18900
9,52008,19207
9,52422,19211
9,52833,19410
9,53245,18389
9,53657,18885
9,54070,18666
9,54482,19641
9,54893,20045
9,55307,19504
9,55718,18655
9,56130,18218
9,56543,19276
9,56955,18489
9,57367,18614
9,57780,18868
9,58192,18172
9,58603,19323
9,59017,18363
9,59428,17939
9,59840,19415
9,60253,19754
9,60665,19668
9,61077,19598
9,61490,20025
9,61902,17864
9,62313,19328
9,62725,19743
9,63138,19692
9,63550,18808
9,63962,19101
9,64375,18024
9,64787,20261
9,65198,18593
9,65612,18712
9,66023,19235
9,66435,18661
9,66848,17399
9,67260,19142
9,67672,18876
9,68085,19013
9,68497,19014
9,68908,19655
9,69322,18299
9,69733,18840
9,70145,19213
9,70558,17290
9,70970,19611
9,71382,18254
9,71793,19606
9,72207,18287
9,72618,19391
9,73030,18393
9,73443,18182
9,73855,18455
9,74267,18939
9,74680,20787
9,75092,21539
9,75503,21934
9,75917,21145
9,76328,23988
9,76740,24238
9,77153,23775
9,77565,24721
9,77977,24534
9,78390,25406
9,78802,25833
9,79213,25320
9,79627,24165
9,80038,23922
9,80450,25044
9,80862,23503
9,81275,23555
9,81687,23416
9,82098,21449
9,82512,23468
9,82923,23364
9,83335,21840
9,83748,20913
9,84160,21424
9,84572,19336
9,84985,20477
9,85397,18686
9,85808,19576
9,86222,18697
9,86633,19007
9,87045,18266
9,87458,19221
9,87870,18437
9,88282,17774
9,88695,17328
9,89107,17346
9,89518,16872
9,89930,16870
9,90343,17895
9,90755,16159
9,91167,16849
9,91580,16535
9,91992,15006
9,92403,16995
9,92817,16495
9,93228,16908
9,93640,14750
9,94053,16569
9,94465,16570
9,94877,15744
9,95290,15745
9,95702,15803
9,96113,15509
9,96527,16325
9,96938,15642
9,97350,14976
9,97763,14938
9,98175,15479
9,98587,15923
9,98998,15663
9,99412,14846
9,99823,16308
10,00235,16007
10,00648,15218
10,01060,14839
10,01472,15617
10,01885,13616
10,02297,15718
10,02708,15687
10,03122,14500
10,03533,14571
10,03945,15132
10,04358,15168
10,04770,14219
10,05182,15974
10,05595,16116
10,06007,13791
10,06418,14645
10,06832,15588
10,07243,16097
10,07655,15452
10,08067,14694
10,08480,15126
10,08892,14868
10,09303,14436
10,09717,16426
10,10128,15500
10,10540,17944
10,10953,17550
10,11365,24304
10,11777,29947
10,12190,43795
10,12602,64515
10,13013,94482
10,13427,141480
10,13838,196397
10,14250,267205
10,14663,356812
10,15075,457960
10,15487,557038
10,15900,666346
10,16312,760840
10,16723,835369
10,17137,909635
10,17548,945885
10,17960,965205
10,18372,970630
10,18785,945291
10,19197,907091
10,19608,856566
10,20022,805872
10,20433,731306
10,20845,667619
10,21258,602836
10,21670,540580
10,22082,488277
10,22495,429645
10,22907,385591
10,23318,332950
10,23732,298001
10,24143,263901
10,24555,231803
10,24968,204347
10,25380,174873
10,25792,156521
10,26205,143208
10,26617,125925
10,27028,114790
10,27440,102871
10,27853,93729
10,28265,83686
10,28677,79505
10,29090,71643
10,29502,65854
10,29913,62082
10,30327,56487
10,30738,54970
10,31150,51520
10,31563,48885
10,31975,46743
10,32387,43353
10,32800,40936
10,33212,39927
10,33623,41229
10,34037,37890
10,34448,35754
10,34860,34326
10,35273,33477
10,35685,33216
10,36097,31305
10,36508,31045
10,36922,29877
10,37333,28420
10,37745,29424
10,38158,27050
10,38570,27062
10,38982,25763
10,39395,24804
10,39807,24603
10,40218,24735
10,40632,22571
10,41043,23732
10,41455,23486
10,41868,23103
10,42280,22450
10,42692,23584
10,43105,23282
10,43517,22185
10,43928,21853
10,44342,20691
10,44753,20487
10,45165,20481
10,45577,20727
10,45990,20374
10,46402,20110
10,46813,20108
10,47227,18598
10,47638,19234
10,48050,18407
10,48463,17923
10,48875,18683
10,49287,18268
10,49700,19404
10,50112,18745
10,50523,17078
10,50937,16982
10,51348,17209
10,51760,17988
10,52173,17428
10,52585,16613
10,52997,18294
10,53410,17307
10,53822,15924
10,54233,16304
10,54645,16492
10,55058,15585
10,55470,15705
10,55882,17922
10,56295,15902
10,56707,14723
10,57118,16294
10,57532,15442
10,57943,16193
10,58355,16053
10,58768,15376
10,59180,15974
10,59592,16989
10,60005,17584
10,60417,16192
10,60828,17176
10,61242,15757
10,61653,16247
10,62065,15971
10,62478,15945
10,62890,16348
10,63302,15406
10,63713,14247
10,64127,14322
10,64538,15871
10,64950,16246
10,65363,15692
10,65775,13999
10,66187,14080
10,66600,15486
10,67012,13788
10,67423,13905
10,67837,14398
10,68248,13599
10,68660,14232
10,69073,14615
10,69485,14203
10,69897,14808
10,70310,14875
10,70722,14565
10,71133,13027
10,71547,13993
10,71958,14108
10,72370,14783
10,72782,14313
10,73195,13745
10,73607,14503
10,74018,12895
10,74432,14635
10,74843,15476
10,75255,16396
10,75668,14387
10,76080,14773
10,76492,17320
10,76905,17482
10,77317,17420
10,77728,18151
10,78142,18547
10,78553,17257
10,78965,18068
10,79378,19483
10,79790,19074
10,80202,18786
10,80615,17959
10,81027,17023
10,81438,16952
10,81850,16243
10,82263,15307
10,82675,16358
10,83087,15432
10,83500,14955
10,83912,16278
10,84323,14858
10,84737,14576
10,85148,14007
10,85560,14730
10,85973,14324
10,86385,13513
10,86797,13934
10,87210,13138
10,87622,13570
10,88033,13120
10,88447,14241
10,88858,12745
10,89270,13207
10,89683,13518
10,90095,12976
10,90507,13607
10,90918,13253
10,91332,12763
10,91743,12663
10,92155,13440
10,92568,13743
10,92980,14184
10,93392,15921
10,93805,15115
10,94217,15860
10,94628,15365
10,95042,16705
10,95453,18266
10,95865,18184
10,96278,17236
10,96690,17864
10,97102,17632
10,97515,17759
10,97927,16545
10,98338,17642
10,98752,17122
10,99163,16469
10,99575,14253
10,99987,16554
11,00400,16628
11,00812,14602
11,01223,15138
11,01637,14711
11,02048,14519
11,02460,13926
11,02873,14156
11,03285,13836
11,03697,13175
11,04110,14119
11,04522,13746
11,04933,12808
11,05347,13859
11,05758,13567
11,06170,14150
11,06583,12636
11,06995,12987
11,07407,12439
11,07820,12454
11,08232,12820
11,08643,12975
11,09055,13598
11,09468,12281
11,09880,11130
11,10292,10932
11,10705,13279
11,11117,12561
11,11528,12831
11,11942,13609
11,12353,13070
11,12765,12729
11,13178,14125
11,13590,12939
11,14002,13811
11,14415,13225
11,14827,13154
11,15238,13652
11,15652,12941
11,16063,12289
11,16475,12915
11,16888,13720
11,17300,13604
11,17712,12476
11,18123,13358
11,18537,12263
11,18948,12103
11,19360,11152
11,19773,12451
11,20185,12298
11,20597,13256
11,21010,12699
11,21422,11488
11,21833,11611
11,22247,12382
11,22658,11677
11,23070,12809
11,23483,12589
11,23895,11949
11,24307,12071
11,24720,11499
11,25132,12857
11,25543,12896
11,25957,12670
11,26368,12611
11,26780,12345
11,27192,12706
11,27605,12592
11,28017,13113
11,28428,12941
11,28842,12282
11,29253,12095
11,29665,11939
11,30078,12252
11,30490,12094
11,30902,11778
11,31315,11537
11,31727,12318
11,32138,13173
11,32552,12413
11,32963,11860
11,33375,12417
11,33788,14546
11,34200,15599
11,34612,18186
11,35025,24848
11,35437,38214
11,35848,58052
11,36260,92442
11,36673,146521
11,37085,223969
11,37497,332207
11,37910,476264
11,38322,653859
11,38733,867622
11,39147,1104271
11,39558,1344032
11,39970,1583433
11,40383,1794153
11,40795,1976769
11,41207,2091995
11,41620,2157087
11,42032,2198984
11,42443,2160884
11,42857,2082040
11,43268,1937775
11,43680,1771956
11,44093,1602094
11,44505,1430764
11,44917,1273488
11,45328,1111890
11,45742,973756
11,46153,837642
11,46565,723451
11,46978,629908
11,47390,540327
11,47802,464900
11,48215,409531
11,48627,357659
11,49038,313289
11,49452,274657
11,49863,243602
11,50275,222172
11,50688,197703
11,51100,178601
11,51512,164660
11,51925,147900
11,52337,135240
11,52748,123746
11,53162,114319
11,53573,109883
11,53985,96935
11,54397,92196
11,54810,87455
11,55222,81064
11,55633,77223
11,56047,72915
11,56458,72009
11,56870,65003
11,57283,63010
11,57695,58403
11,58107,60006
11,58520,54402
11,58932,52147
11,59343,52585
11,59757,50318
11,60168,49320
11,60580,47621
11,60993,46071
11,61405,44542
11,61817,46828
11,62230,42417
11,62642,42440
11,63053,42650
11,63465,39911
11,63878,40856
11,64290,39919
11,64702,38010
11,65115,36084
11,65527,36906
11,65938,34020
11,66352,33961
11,66763,33284
11,67175,31076
11,67588,32419
11,68000,30492
11,68412,27214
11,68825,27585
11,69237,26694
11,69648,25239
11,70062,26628
11,70473,24400
11,70885,24958
11,71298,24576
11,71710,23353
11,72122,23560
11,72533,22465
11,72947,22384
11,73358,22651
11,73770,20421
11,74183,21751
11,74595,22039
11,75007,20358
11,75420,20055
11,75832,18489
11,76243,18178
11,76657,19558
11,77068,18713
11,77480,18872
11,77893,18932
11,78305,17395
11,78717,19292
11,79130,16459
11,79542,18402
11,79953,17333
11,80367,16974
11,80778,16986
11,81190,17111
11,81602,16989
11,82015,16906
11,82427,15495
11,82838,17020
11,83252,15742
11,83663,15796
11,84075,15759
11,84488,15954
11,84900,16545
11,85312,14145
11,85725,16259
11,86137,15668
11,86548,15925
11,86962,14884
11,87373,15699
11,87785,16049
11,88198,13540
11,88610,14815
11,89022,15192
11,89435,15813
11,89847,16611
11,90258,14862
11,90672,15229
11,91083,14374
11,91495,14163
11,91907,15020
11,92320,13641
11,92732,15079
11,93143,14129
11,93557,13915
11,93968,13389
11,94380,13678
11,94793,14297
11,95205,13275
11,95617,13743
11,96030,13323
11,96442,13074
11,96853,12705
11,97267,12385
11,97678,13047
11,98090,13138
11,98503,13722
11,98915,13853
11,99327,13520
11,99740,13664
12,00152,11811
12,00563,13685
12,00975,13129
12,01388,11979
12,01800,12754
12,02212,13728
12,02625,13236
12,03037,14690
12,03448,14014
12,03862,15061
12,04273,16267
12,04685,16090
12,05098,15892
12,05510,16403
12,05922,14075
12,06335,14755
12,06747,13784
12,07158,13940
12,07572,14406
12,07983,14564
12,08395,14061
12,08808,15187
12,09220,13371
12,09632,12525
12,10043,12146
12,10457,12629
12,10868,12661
12,11280,11787
12,11693,13109
12,12105,11891
12,12517,12513
12,12930,11623
12,13342,12134
12,13753,11212
12,14167,12361
12,14578,12126
12,14990,11715
12,15403,11541
12,15815,12172
12,16227,11895
12,16640,11734
12,17052,10658
12,17463,10438
12,17877,11954
12,18288,10461
12,18700,10058
12,19112,10731
12,19525,10641
12,19937,11341
12,20348,10777
12,20762,10937
12,21173,12525
12,21585,10789
12,21998,10836
12,22410,12057
12,22822,11109
12,23235,10894
12,23647,12179
12,24058,11953
12,24472,13123
12,24883,15265
12,25295,18079
12,25708,22304
12,26120,30911
12,26532,47777
12,26945,69385
12,27357,103671
12,27768,149322
12,28180,212869
12,28593,291412
12,29005,387252
12,29417,493451
12,29830,604996
12,30242,727119
12,30653,818871
12,31067,904078
12,31478,984028
12,31890,1011938
12,32303,1033244
12,32715,1013029
12,33127,960698
12,33540,904447
12,33952,834684
12,34363,759775
12,34777,685987
12,35188,613536
12,35600,539959
12,36013,467618
12,36425,407498
12,36837,351733
12,37248,306189
12,37662,265450
12,38073,231950
12,38485,203601
12,38898,177251
12,39310,157145
12,39722,143169
12,40135,128937
12,40547,115914
12,40958,105663
12,41372,96351
12,41783,90902
12,42195,84328
12,42608,76029
12,43020,74457
12,43432,69566
12,43845,67466
12,44257,65118
12,44668,59537
12,45082,60321
12,45493,58486
12,45905,52925
12,46317,51440
12,46730,50348
12,47142,48078
12,47553,44747
12,47967,42173
12,48378,41255
12,48790,37000
12,49203,36775
12,49615,35688
12,50027,34646
12,50440,32178
12,50852,30330
12,51263,28623
12,51677,27245
12,52088,25560
12,52500,24984
12,52913,24289
12,53325,24362
12,53737,23718
12,54150,22990
12,54562,22218
12,54973,22312
12,55385,20391
12,55798,21109
12,56210,20244
12,56622,18613
12,57035,19621
12,57447,18545
12,57858,17666
12,58272,19191
12,58683,18721
12,59095,17996
12,59508,18235
12,59920,19183
12,60332,17167
12,60745,16586
12,61157,16947
12,61568,17707
12,61982,17485
12,62393,17720
12,62805,20987
12,63218,27901
12,63630,38012
12,64042,55379
12,64453,82242
12,64867,122550
12,65278,177927
12,65690,254809
12,66103,344432
12,66515,460384
12,66927,586352
12,67340,710456
12,67752,848912
12,68163,969139
12,68577,1061009
12,68988,1131235
12,69400,1160505
12,69813,1153098
12,70225,1120122
12,70637,1071155
12,71050,1000991
12,71462,902185
12,71873,815220
12,72287,723082
12,72698,617361
12,73110,527992
12,73522,460063
12,73935,398369
12,74347,344821
12,74758,301648
12,75172,257720
12,75583,221144
12,75995,197593
12,76408,172071
12,76820,151672
12,77232,137914
12,77645,123347
12,78057,112366
12,78468,99463
12,78882,90802
12,79293,83339
12,79705,77618
12,80118,73570
12,80530,68659
12,80942,64443
12,81355,56173
12,81767,53206
12,82178,51489
12,82590,50177
12,83003,46200
12,83415,44207
12,83827,41229
12,84240,40935
12,84652,39019
12,85063,36693
12,85477,33463
12,85888,33886
12,86300,32894
12,86713,30831
12,87125,29674
12,87537,30944
12,87950,28461
12,88362,27111
12,88773,27428
12,89187,24716
12,89598,25422
12,90010,24115
12,90423,23458
12,90835,22872
12,91247,23583
12,91658,21834
12,92072,22467
12,92483,20356
12,92895,20479
12,93308,19597
12,93720,20723
12,94132,19461
12,94545,19426
12,94957,18709
12,95368,18322
12,95782,18158
12,96193,17208
12,96605,16612
12,97018,17013
12,97430,16447
12,97842,16085
12,98255,16056
12,98667,17669
12,99078,15545
12,99492,16636
12,99903,16073
13,00315,14833
13,00727,14437
13,01140,14653
13,01552,16218
13,01963,15386
13,02377,15409
13,02788,13931
13,03200,14324
13,03613,15073
13,04025,14102
13,04437,14183
13,04850,14131
13,05262,14351
13,05673,13425
13,06087,13527
13,06498,14558
13,06910,14081
13,07323,12818
13,07735,13433
13,08147,13563
13,08560,12709
13,08972,12008
13,09383,13360
13,09795,13034
13,10208,11614
13,10620,13287
13,11032,11604
13,11445,12253
13,11857,11811
13,12268,12093
13,12682,12890
13,13093,13363
13,13505,11057
13,13918,10894
13,14330,12428
13,14742,12528
13,15155,12270
13,15567,12539
13,15978,12865
13,16392,11554
13,16803,11122
13,17215,12450
13,17628,11635
13,18040,12562
13,18452,12762
13,18863,13105
13,19277,13542
13,19688,12588
13,20100,13552
13,20513,11969
13,20925,12240
13,21337,11971
13,21750,12330
13,22162,12583
13,22573,13259
13,22987,11443
13,23398,11369
13,23810,10450
13,24223,10254
13,24635,11363
13,25047,11038
13,25460,11059
13,25872,11713
13,26283,11336
13,26697,10617
13,27108,10308
13,27520,11586
13,27932,10548
13,28345,12121
13,28757,12421
13,29168,10277
13,29582,11406
13,29993,10067
13,30405,10933
13,30818,10356
13,31230,10309
13,31642,10557
13,32055,10256
13,32467,11402
13,32878,12044
13,33292,10763
13,33703,10802
13,34115,12101
13,34528,9985
13,34940,11271
13,35352,11557
13,35765,9922
13,36177,9228
13,36588,10470
13,37000,10636
13,37413,11757
13,37825,11149
13,38237,11552
13,38650,10819
13,39062,10781
13,39473,10727
13,39887,10649
13,40298,11651
13,40710,10144
13,41123,10968
13,41535,10658
13,41947,10546
13,42360,10465
13,42772,10206
13,43183,10974
13,43597,10269
13,44008,10953
13,44420,10038
13,44833,10486
13,45245,8863
13,45657,9858
13,46070,9872
13,46482,10352
13,46893,9513
13,47305,9626
13,47718,9933
13,48130,10140
13,48542,9890
13,48955,9883
13,49367,8924
13,49778,10235
13,50192,10129
13,50603,10812
13,51015,11119
13,51428,9283
13,51840,10167
13,52252,9750
13,52665,9931
13,53077,10433
13,53488,10820
13,53902,10769
13,54313,11438
13,54725,13777
13,55138,16322
13,55550,19973
13,55962,27888
13,56373,40224
13,56787,61389
13,57198,96858
13,57610,141530
13,58023,202535
13,58435,283241
13,58847,380302
13,59260,506305
13,59672,618108
13,60083,752946
13,60497,866493
13,60908,970844
13,61320,1045602
13,61733,1089692
13,62145,1099888
13,62557,1082207
13,62970,1034489
13,63382,964982
13,63793,885194
13,64207,794556
13,64618,707021
13,65030,620444
13,65442,540011
13,65855,463237
13,66267,403836
13,66678,347793
13,67092,305142
13,67503,262659
13,67915,229964
13,68328,201186
13,68740,173578
13,69152,150509
13,69565,138321
13,69977,126411
13,70388,113810
13,70802,101332
13,71213,92182
13,71625,86287
13,72038,79745
13,72450,70632
13,72862,67419
13,73275,62763
13,73687,59899
13,74098,55223
13,74510,50314
13,74923,48441
13,75335,46881
13,75747,42522
13,76160,40926
13,76572,40105
13,76983,37600
13,77397,35910
13,77808,34133
13,78220,33290
13,78633,32881
13,79045,29447
13,79457,29305
13,79870,26518
13,80282,27273
13,80693,25816
13,81107,24777
13,81518,24067
13,81930,25082
13,82343,25316
13,82755,22095
13,83167,22563
13,83578,21129
13,83992,20365
13,84403,21353
13,84815,19696
13,85228,18948
13,85640,20159
13,86052,19764
13,86465,17851
13,86877,19298
13,87288,18808
13,87702,16348
13,88113,16694
13,88525,15922
13,88938,14681
13,89350,16194
13,89762,15565
13,90175,14703
13,90587,17268
13,90998,17557
13,91412,20798
13,91823,26238
13,92235,39943
13,92647,57926
13,93060,94480
13,93472,148740
13,93883,238288
13,94297,359548
13,94708,530096
13,95120,746190
13,95533,1021656
13,95945,1348680
13,96357,1736854
13,96770,2130082
13,97182,2546853
13,97593,2942646
13,98007,3295526
13,98418,3568266
13,98830,3728570
13,99243,3759071
13,99655,3684197
14,00067,3521059
14,00480,3235818
14,00892,2915530
14,01303,2582390
14,01715,2229437
14,02128,1921915
14,02540,1640451
14,02952,1393140
14,03365,1184532
14,03777,1006019
14,04188,860182
14,04602,741259
14,05013,643258
14,05425,568787
14,05838,498831
14,06250,437321
14,06662,392323
14,07075,352201
14,07487,311160
14,07898,287242
14,08312,266027
14,08723,237356
14,09135,218958
14,09548,201724
14,09960,185503
14,10372,174526
14,10783,159123
14,11197,151812
14,11608,139835
14,12020,132973
14,12433,125525
14,12845,114442
14,13257,108614
14,13670,102506
14,14082,99737
14,14493,92589
14,14907,90026
14,15318,81415
14,15730,82226
14,16143,73924
14,16555,71050
14,16967,69036
14,17380,66252
14,17792,65757
14,18203,62902
14,18617,56788
14,19028,55556
14,19440,53963
14,19852,51956
14,20265,49213
14,20677,47011
14,21088,48056
14,21502,45752
14,21913,41118
14,22325,42836
14,22738,41554
14,23150,38929
14,23562,37785
14,23975,36089
14,24387,36977
14,24798,33622
14,25212,34022
14,25623,33594
14,26035,31381
14,26448,31206
14,26860,30891
14,27272,28552
14,27685,30121
14,28097,30068
14,28508,28261
14,28920,27312
14,29333,27769
14,29745,26646
14,30157,26378
14,30570,25793
14,30982,24361
14,31393,23911
14,31807,23894
14,32218,23249
14,32630,24492
14,33043,22467
14,33455,19653
14,33867,21728
14,34280,22697
14,34692,19793
14,35103,21066
14,35517,19592
14,35928,19735
14,36340,19923
14,36753,19627
14,37165,18775
14,37577,18875
14,37988,17761
14,38402,17557
14,38813,18136
14,39225,17148
14,39638,18018
14,40050,17233
14,40462,16743
14,40875,17894
14,41287,15878
14,41698,16713
14,42112,15732
14,42523,15987
14,42935,14306
14,43348,15229
14,43760,15369
14,44172,14782
14,44585,15847
14,44997,13711
14,45408,12035
14,45822,14820
14,46233,14657
14,46645,15284
14,47057,15512
14,47470,16140
14,47882,15384
14,48293,15713
14,48707,16271
14,49118,16838
14,49530,15929
14,49943,16172
14,50355,15342
14,50767,15005
14,51180,15351
14,51592,14003
14,52003,13845
14,52417,14172
14,52828,12398
14,53240,13813
14,53653,13070
14,54065,12742
14,54477,14251
14,54890,13250
14,55302,14328
14,55713,14010
14,56125,12790
14,56538,12691
14,56950,12563
14,57362,12512
14,57775,12786
14,58187,14510
14,58598,12952
14,59012,12208
14,59423,12442
14,59835,13754
14,60248,13114
14,60660,14257
14,61072,13959
14,61485,15217
14,61897,13689
14,62308,13098
14,62722,14996
14,63133,13678
14,63545,14921
14,63958,13688
14,64370,13795
14,64782,13773
14,65193,14857
14,65607,12469
14,66018,14501
14,66430,13733
14,66843,15510
14,67255,16475
14,67667,23018
14,68080,27680
14,68492,37135
14,68903,54822
14,69317,75986
14,69728,114509
14,70140,166556
14,70553,235174
14,70965,322582
14,71377,432686
14,71790,556662
14,72202,692566
14,72613,815802
14,73027,940216
14,73438,1038413
14,73850,1112012
14,74262,1150939
14,74675,1146766
14,75087,1110426
14,75498,1041510
14,75912,971655
14,76323,876640
14,76735,779925
14,77148,685799
14,77560,601257
14,77972,512980
14,78385,443918
14,78797,388122
14,79208,329630
14,79622,294236
14,80033,252613
14,80445,223200
14,80858,194649
14,81270,170731
14,81682,155124
14,82095,137740
14,82507,123742
14,82918,112744
14,83330,103329
14,83743,95991
14,84155,88491
14,84567,81133
14,84980,79380
14,85392,71981
14,85803,66614
14,86217,61705
14,86628,59959
14,87040,55623
14,87453,53696
14,87865,51420
14,88277,49307
14,88690,49629
14,89102,48469
14,89513,48029
14,89927,47554
14,90338,46357
14,90750,46297
14,91163,43235
14,91575,42003
14,91987,41639
14,92398,39548
14,92812,37406
14,93223,34664
14,93635,34772
14,94048,31992
14,94460,30659
14,94872,30034
14,95285,27446
14,95697,28886
14,96108,25517
14,96522,24848
14,96933,22504
14,97345,22672
14,97758,23237
14,98170,21338
14,98582,21572
14,98995,21772
14,99407,20438
14,99818,18321
15,00232,20108
15,00643,18986
15,01055,18766
15,01467,19148
15,01880,18433
15,02292,17950
15,02703,16731
15,03117,16984
15,03528,17928
15,03940,16710
15,04353,15210
15,04765,15341
15,05177,17521
15,05590,16110
15,06002,15877
15,06413,14722
15,06827,16210
15,07238,16043
15,07650,14144
15,08063,13672
15,08475,13920
15,08887,14526
15,09300,15106
15,09712,14635
15,10123,14077
15,10537,13154
15,10948,14644
15,11360,13022
15,11772,15022
15,12185,12369
15,12597,11669
15,13008,13041
15,13422,13791
15,13833,12549
15,14245,12084
15,14658,13709
15,15070,11811
15,15482,12841
15,15895,12140
15,16307,11025
15,16718,11923
15,17132,13579
15,17543,12372
15,17955,13182
15,18368,12005
15,18780,13481
15,19192,13560
15,19605,13710
15,20017,15866
15,20428,21830
15,20840,29316
15,21253,44374
15,21665,70353
15,22077,108854
15,22490,161361
15,22902,233456
15,23313,327211
15,23727,451211
15,24138,588155
15,24550,738310
15,24963,892058
15,25375,1023650
15,25787,1146357
15,26200,1228865
15,26612,1284326
15,27023,1277024
15,27437,1242854
15,27848,1182272
15,28260,1092164
15,28673,990735
15,29085,878851
15,29497,761771
15,29908,655856
15,30322,562807
15,30733,484545
15,31145,418470
15,31558,354676
15,31970,309916
15,32382,270384
15,32795,234348
15,33207,202608
15,33618,184034
15,34032,161526
15,34443,145806
15,34855,132483
15,35268,119904
15,35680,109015
15,36092,101099
15,36505,91015
15,36917,82767
15,37328,77009
15,37742,69523
15,38153,66287
15,38565,62672
15,38977,60225
15,39390,54852
15,39802,53613
15,40213,49357
15,40627,46620
15,41038,44174
15,41450,42402
15,41863,41863
15,42275,40898
15,42687,37016
15,43100,36727
15,43512,34205
15,43923,32461
15,44337,32908
15,44748,33398
15,45160,31196
15,45573,32052
15,45985,30505
15,46397,28371
15,46810,27370
15,47222,25969
15,47633,26630
15,48045,26032
15,48458,23411
15,48870,24512
15,49282,22746
15,49695,24416
15,50107,22548
15,50518,21052
15,50932,19935
15,51343,19691
15,51755,19659
15,52168,20354
15,52580,18826
15,52992,18803
15,53405,18519
15,53817,18439
15,54228,17302
15,54642,17569
15,55053,17739
15,55465,16689
15,55878,15286
15,56290,16422
15,56702,15924
15,57113,16073
15,57527,15702
15,57938,15030
15,58350,14314
15,58763,15038
15,59175,14387
15,59587,14123
15,60000,13238
15,60412,14245
15,60823,14359
15,61237,13586
15,61648,14055
15,62060,12944
15,62473,11977
15,62885,14479
15,63297,12960
15,63710,12546
15,64122,13286
15,64533,13646
15,64947,13514
15,65358,12879
15,65770,12211
15,66182,12616
15,66595,11968
15,67007,11798
15,67418,12797
15,67832,12017
15,68243,10334
15,68655,10927
15,69068,11015
15,69480,10958
15,69892,10610
15,70305,11204
15,70717,11417
15,71128,12351
15,71542,11720
15,71953,10885
15,72365,12538
15,72778,11182
15,73190,11330
15,73602,11933
15,74015,11358
15,74427,11255
15,74838,10775
15,75250,11684
15,75663,11812
15,76075,10810
15,76487,11925
15,76900,11592
15,77312,10937
15,77723,10970
15,78137,11774
15,78548,11329
15,78960,11701
15,79373,12097
15,79785,10993
15,80197,12001
15,80610,10880
15,81022,11072
15,81433,10501
15,81847,10156
15,82258,11318
15,82670,9639
15,83083,9949
15,83495,10593
15,83907,10314
15,84318,10643
15,84732,11024
15,85143,9971
15,85555,10430
15,85968,9429
15,86380,10865
15,86792,9132
15,87205,10505
15,87617,10359
15,88028,10562
15,88442,8061
15,88853,10307
15,89265,10243
15,89678,9589
15,90090,9892
15,90502,10573
15,90915,9837
15,91327,10411
15,91738,9200
15,92152,10766
15,92563,9663
15,92975,10476
15,93387,9420
15,93800,11605
15,94212,11466
15,94623,11710
15,95037,16012
15,95448,18688
15,95860,24007
15,96273,37812
15,96685,55577
15,97097,82424
15,97510,131190
15,97922,186453
15,98333,273897
15,98747,376446
15,99158,505598
15,99570,634734
15,99983,781496
16,00395,906222
16,00807,1046715
16,01220,1133960
16,01632,1190765
16,02043,1197519
16,02455,1193883
16,02868,1151096
16,03280,1073593
16,03692,995929
16,04105,890215
16,04517,779243
16,04928,687964
16,05342,593913
16,05753,514222
16,06165,440195
16,06578,381130
16,06990,331610
16,07402,288751
16,07815,247427
16,08227,221701
16,08638,194881
16,09052,173870
16,09463,152010
16,09875,140732
16,10288,126753
16,10700,111832
16,11112,105365
16,11523,97845
16,11937,88788
16,12348,79614
16,12760,78237
16,13173,69633
16,13585,64844
16,13997,61716
16,14410,58670
16,14822,56620
16,15233,55592
16,15647,53590
16,16058,52710
16,16470,53748
16,16883,53999
16,17295,55945
16,17707,54897
16,18120,53821
16,18532,53674
16,18943,55346
16,19357,52228
16,19768,53247
16,20180,52852
16,20592,50503
16,21005,48246
16,21417,46982
16,21828,43514
16,22242,40903
16,22653,41216
16,23065,37408
16,23478,35480
16,23890,32226
16,24302,32883
16,24715,30185
16,25127,29381
16,25538,27242
16,25952,26913
16,26363,24865
16,26775,24521
16,27188,23112
16,27600,22922
16,28012,21901
16,28425,21073
16,28837,20905
16,29248,18412
16,29660,19563
16,30073,18951
16,30485,18620
16,30897,18568
16,31310,17358
16,31722,17545
16,32133,16122
16,32547,16443
16,32958,17230
16,33370,15751
16,33783,16461
16,34195,16105
16,34607,15818
16,35020,14432
16,35432,15434
16,35843,14226
16,36257,14288
16,36668,14535
16,37080,14109
16,37493,14742
16,37905,13645
16,38317,13338
16,38728,14534
16,39142,15767
16,39553,13584
16,39965,13446
16,40378,13514
16,40790,12697
16,41202,13166
16,41615,13176
16,42027,11434
16,42438,13467
16,42852,12888
16,43263,12448
16,43675,12391
16,44088,13073
16,44500,11169
16,44912,14379
16,45325,12743
16,45737,17387
16,46148,20569
16,46562,28026
16,46973,39819
16,47385,60851
16,47797,95921
16,48210,152384
16,48622,236122
16,49033,349152
16,49447,507155
16,49858,693764
16,50270,931814
16,50683,1201622
16,51095,1485430
16,51507,1797666
16,51920,2097962
16,52332,2384163
16,52743,2588663
16,53157,2752232
16,53568,2800247
16,53980,2760550
16,54393,2660573
16,54805,2471170
16,55217,2227980
16,55630,1966423
16,56042,1722820
16,56453,1490694
16,56865,1281500
16,57278,1077292
16,57690,924924
16,58102,789739
16,58515,666609
16,58927,582121
16,59338,513234
16,59752,445137
16,60163,394537
16,60575,347196
16,60988,316071
16,61400,283392
16,61812,255020
16,62225,230376
16,62637,213512
16,63048,194714
16,63462,175950
16,63873,166569
16,64285,153452
16,64698,143479
16,65110,136266
16,65522,126555
16,65933,115070
16,66347,108103
16,66758,105207
16,67170,98456
16,67583,90100
16,67995,86878
16,68407,82654
16,68820,77318
16,69232,74720
16,69643,71290
16,70057,65948
16,70468,62680
16,70880,60770
16,71293,57656
16,71705,53830
16,72117,53754
16,72530,51223
16,72942,48292
16,73353,48772
16,73767,45673
16,74178,45114
16,74590,41780
16,75003,41814
16,75415,41040
16,75827,39121
16,76238,37765
16,76652,35638
16,77063,35172
16,77475,33342
16,77888,33689
16,78300,34122
16,78712,32414
16,79125,31009
16,79537,30520
16,79948,28388
16,80362,28980
16,80773,27620
16,81185,27567
16,81598,26270
16,82010,26136
16,82422,24994
16,82835,24483
16,83247,22502
16,83658,22940
16,84072,22484
16,84483,22120
16,84895,22067
16,85307,21605
16,85720,21073
16,86132,22230
16,86543,20488
16,86957,18802
16,87368,20210
16,87780,20780
16,88193,21404
16,88605,24027
16,89017,28218
16,89430,35415
16,89842,48186
16,90253,70257
16,90667,104831
16,91078,152750
16,91490,227809
16,91903,310797
16,92315,424039
16,92727,551008
16,93140,695967
16,93552,852330
16,93963,996921
16,94375,1137746
16,94788,1219968
16,95200,1283471
16,95612,1308573
16,96025,1271731
16,96437,1242904
16,96848,1154428
16,97262,1043466
16,97673,937150
16,98085,826128
16,98498,715129
16,98910,624927
16,99322,547373
16,99735,467793
17,00147,406891
17,00558,344883
17,00972,305624
17,01383,271256
17,01795,241352
17,02208,213880
17,02620,189582
17,03032,166897
17,03443,153381
17,03857,138382
17,04268,126176
17,04680,115986
17,05093,109979
17,05505,101146
17,05917,94380
17,06330,85215
17,06742,82728
17,07153,76307
17,07567,72002
17,07978,67644
17,08390,65781
17,08803,64434
17,09215,62175
17,09627,62304
17,10040,65169
17,10452,77517
17,10863,93831
17,11277,123630
17,11688,171614
17,12100,241185
17,12512,346677
17,12925,483771
17,13337,658260
17,13748,889481
17,14162,1138639
17,14573,1429705
17,14985,1751376
17,15398,2034119
17,15810,2302060
17,16222,2507758
17,16635,2638701
17,17047,2678783
17,17458,2650153
17,17872,2512735
17,18283,2352900
17,18695,2127029
17,19108,1873855
17,19520,1655239
17,19932,1436098
17,20345,1225481
17,20757,1065946
17,21168,907597
17,21580,786680
17,21993,678460
17,22405,596303
17,22817,519740
17,23230,460441
17,23642,399652
17,24053,361569
17,24467,327208
17,24878,293603
17,25290,266193
17,25703,246217
17,26115,225386
17,26527,210247
17,26940,195483
17,27352,181091
17,27763,165375
17,28177,155834
17,28588,143271
17,29000,138427
17,29413,126844
17,29825,119280
17,30237,112631
17,30648,107137
17,31062,99093
17,31473,96657
17,31885,91650
17,32298,85003
17,32710,82255
17,33122,81777
17,33535,73154
17,33947,69919
17,34358,69049
17,34772,67254
17,35183,63856
17,35595,60115
17,36008,59438
17,36420,56595
17,36832,54929
17,37245,54915
17,37657,48820
17,38068,49519
17,38482,49022
17,38893,46219
17,39305,45195
17,39717,41462
17,40130,41486
17,40542,39966
17,40953,40889
17,41367,40566
17,41778,37706
17,42190,35247
17,42603,35797
17,43015,34415
17,43427,32761
17,43840,33644
17,44252,33547
17,44663,32156
17,45077,31798
17,45488,29945
17,45900,29546
17,46313,28408
17,46725,28509
17,47137,28341
17,47550,28363
17,47962,25947
17,48373,25835
17,48785,27484
17,49198,24788
17,49610,26347
17,50022,25017
17,50435,24199
17,50847,23928
17,51258,24785
17,51672,22449
17,52083,23501
17,52495,20705
17,52908,20994
17,53320,21200
17,53732,19952
17,54145,21366
17,54557,18693
17,54968,20749
17,55382,19541
17,55793,18949
17,56205,18552
17,56618,18262
17,57030,18312
17,57442,20591
17,57853,19723
17,58267,18956
17,58678,21300
17,59090,18654
17,59503,20260
17,59915,22385
17,60327,22728
17,60740,25164
17,61152,28102
17,61563,37104
17,61977,50279
17,62388,70700
17,62800,103752
17,63213,152505
17,63625,215508
17,64037,304836
17,64450,410696
17,64862,535597
17,65273,667439
17,65687,796918
17,66098,920330
17,66510,1025813
17,66922,1126434
17,67335,1161393
17,67747,1184792
17,68158,1143737
17,68572,1088285
17,68983,1006295
17,69395,925592
17,69808,841500
17,70220,767037
17,70632,709331
17,71045,683619
17,71457,692073
17,71868,737476
17,72282,829539
17,72693,971099
17,73105,1159404
17,73518,1374403
17,73930,1636304
17,74342,1906182
17,74755,2200933
17,75167,2468993
17,75578,2711594
17,75990,2858729
17,76403,2923037
17,76815,2897326
17,77227,2753001
17,77640,2558349
17,78052,2329605
17,78463,2066714
17,78877,1802957
17,79288,1563567
17,79700,1329665
17,80113,1142648
17,80525,975170
17,80937,849035
17,81350,727818
17,81762,638784
17,82173,566712
17,82587,499907
17,82998,440356
17,83410,401999
17,83823,359094
17,84235,327675
17,84647,299670
17,85058,270548
17,85472,248182
17,85883,229303
17,86295,214393
17,86708,199494
17,87120,186863
17,87532,172689
17,87945,163780
17,88357,154204
17,88768,143129
17,89182,133844
17,89593,130174
17,90005,119020
17,90418,115317
17,90830,108609
17,91242,105037
17,91655,100367
17,92067,97799
17,92478,89313
17,92892,89817
17,93303,84319
17,93715,80117
17,94127,79911
17,94540,74614
17,94952,74977
17,95363,70061
17,95777,65847
17,96188,64498
17,96600,65529
17,97013,61657
17,97425,60464
17,97837,56871
17,98250,55247
17,98662,55009
17,99073,51794
17,99487,51406
17,99898,49697
18,00310,50479
18,00723,47442
18,01135,46965
18,01547,43995
18,01960,42866
18,02372,43281
18,02783,39785
18,03195,40206
18,03608,39970
18,04020,37642
18,04432,39222
18,04845,36335
18,05257,36776
18,05668,35922
18,06082,34392
18,06493,34953
18,06905,33330
18,07318,32283
18,07730,30635
18,08142,33385
18,08555,31934
18,08967,34113
18,09378,36285
18,09792,41453
18,10203,53389
18,10615,69218
18,11028,94602
18,11440,132068
18,11852,184752
18,12263,259061
18,12677,357997
18,13088,465847
18,13500,580566
18,13913,709288
18,14325,832480
18,14737,946444
18,15150,1032814
18,15562,1087557
18,15973,1111676
18,16387,1108998
18,16798,1065945
18,17210,1020095
18,17623,932702
18,18035,840624
18,18447,750663
18,18860,654340
18,19272,589234
18,19683,507565
18,20097,440882
18,20508,386422
18,20920,336127
18,21333,290822
18,21745,256593
18,22157,226874
18,22568,200394
18,22982,181713
18,23393,164308
18,23805,150681
18,24218,136051
18,24630,124075
18,25042,114464
18,25455,104255
18,25867,98846
18,26278,90046
18,26692,85541
18,27103,80808
18,27515,76290
18,27928,70768
18,28340,69928
18,28752,66107
18,29165,62182
18,29577,57744
18,29988,55335
18,30402,52924
18,30813,51640
18,31225,47759
18,31637,45897
18,32050,46715
18,32462,46248
18,32873,42903
18,33287,41810
18,33698,40608
18,34110,39368
18,34523,39169
18,34935,35947
18,35347,35514
18,35760,35201
18,36172,36301
18,36583,34153
18,36997,31961
18,37408,34012
18,37820,32596
18,38233,30101
18,38645,29593
18,39057,31341
18,39470,29911
18,39882,29711
18,40293,27243
18,40705,26399
18,41118,27200
18,41530,25179
18,41942,26457
18,42355,23869
18,42767,25700
18,43178,25650
18,43592,23458
18,44003,22560
18,44415,23084
18,44828,22532
18,45240,24323
18,45652,20966
18,46065,22600
18,46477,20264
18,46888,22179
18,47302,20888
18,47713,20126
18,48125,18640
18,48538,19925
18,48950,18531
18,49362,19444
18,49773,17638
18,50187,18872
18,50598,18292
18,51010,17376
18,51423,18516
18,51835,18411
18,52247,17700
18,52660,17142
18,53072,17900
18,53483,16325
18,53897,17015
18,54308,16507
18,54720,16455
18,55133,15669
18,55545,16277
18,55957,16448
18,56370,15860
18,56782,15399
18,57193,15739
18,57607,15672
18,58018,15676
18,58430,16158
18,58842,16481
18,59255,15961
18,59667,15876
18,60078,15269
18,60492,14321
18,60903,15560
18,61315,13807
18,61728,15022
18,62140,13717
18,62552,13649
18,62965,14698
18,63377,15331
18,63788,15566
18,64202,14922
18,64613,14828
18,65025,14197
18,65438,13670
18,65850,15932
18,66262,15165
18,66675,14237
18,67087,13013
18,67498,15019
18,67910,11956
18,68323,13569
18,68735,14004
18,69147,13779
18,69560,13311
18,69972,12829
18,70383,13763
18,70797,12002
18,71208,13584
18,71620,13390
18,72033,13185
18,72445,13110
18,72857,13813
18,73270,13588
18,73682,14484
18,74093,13355
18,74507,12995
18,74918,13318
18,75330,12127
18,75743,12898
18,76155,13406
18,76567,12522
18,76978,12929
18,77392,13071
18,77803,13589
18,78215,13870
18,78628,14172
18,79040,16560
18,79452,20585
18,79865,28327
18,80277,39716
18,80688,58507
18,81102,87438
18,81513,127916
18,81925,182661
18,82338,252636
18,82750,342831
18,83162,441614
18,83575,547944
18,83987,657536
18,84398,762054
18,84812,846479
18,85223,903217
18,85635,944816
18,86047,954969
18,86460,938775
18,86872,901176
18,87283,830017
18,87697,771978
18,88108,699053
18,88520,628281
18,88933,557157
18,89345,504859
18,89757,463320
18,90170,447953
18,90582,456476
18,90993,491614
18,91407,569471
18,91818,680120
18,92230,835779
18,92643,1041947
18,93055,1291531
18,93467,1561346
18,93880,1870914
18,94292,2218458
18,94703,2530036
18,95115,2797180
18,95528,3022944
18,95940,3159688
18,96352,3186868
18,96765,3110932
18,97177,2949364
18,97588,2724471
18,98002,2443960
18,98413,2159234
18,98825,1857872
18,99238,1604241
18,99650,1377565
19,00062,1178079
19,00475,1024494
19,00887,884679
19,01298,766910
19,01712,675684
19,02123,599036
19,02535,533727
19,02948,475137
19,03360,422859
19,03772,385880
19,04183,350727
19,04597,325030
19,05008,296401
19,05420,274181
19,05833,252865
19,06245,234568
19,06657,218206
19,07070,203451
19,07482,189129
19,07893,180301
19,08307,169551
19,08718,158563
19,09130,150445
19,09543,140528
19,09955,132195
19,10367,128201
19,10780,119212
19,11192,118263
19,11603,111351
19,12017,102588
19,12428,100227
19,12840,92654
19,13252,91278
19,13665,88146
19,14077,86611
19,14488,80625
19,14902,77956
19,15313,75161
19,15725,71903
19,16138,68293
19,16550,69675
19,16962,66495
19,17375,61237
19,17787,60022
19,18198,57450
19,18612,58109
19,19023,56247
19,19435,54499
19,19848,54056
19,20260,51964
19,20672,49862
19,21085,48779
19,21497,50721
19,21908,47765
19,22320,45732
19,22733,43287
19,23145,44450
19,23557,44947
19,23970,47349
19,24382,48795
19,24793,55433
19,25207,64789
19,25618,83159
19,26030,108663
19,26443,146916
19,26855,206662
19,27267,276207
19,27680,351256
19,28092,459483
19,28503,571907
19,28917,674569
19,29328,777402
19,29740,864388
19,30153,933215
19,30565,969005
19,30977,983676
19,31388,960239
19,31802,908908
19,32213,848701
19,32625,774027
19,33038,701656
19,33450,621448
19,33862,551665
19,34275,480181
19,34687,417446
19,35098,369982
19,35512,322582
19,35923,286005
19,36335,252877
19,36748,225114
19,37160,202408
19,37572,178052
19,37985,165338
19,38397,147181
19,38808,135241
19,39222,124052
19,39633,113443
19,40045,107977
19,40457,100365
19,40870,93327
19,41282,88326
19,41693,79595
19,42107,77693
19,42518,74064
19,42930,66919
19,43343,66403
19,43755,61642
19,44167,60634
19,44580,57244
19,44992,56085
19,45403,53779
19,45817,50677
19,46228,48835
19,46640,46556
19,47053,45623
19,47465,46800
19,47877,44705
19,48290,42438
19,48702,44682
19,49113,50223
19,49525,54425
19,49938,67080
19,50350,84824
19,50762,113304
19,51175,156683
19,51587,219222
19,51998,306146
19,52412,402976
19,52823,533069
19,53235,674565
19,53648,822170
19,54060,988284
19,54472,1143951
19,54885,1268027
19,55297,1353590
19,55708,1388705
19,56122,1411181
19,56533,1370645
19,56945,1292538
19,57358,1194600
19,57770,1077324
19,58182,960065
19,58593,846918
19,59007,740351
19,59418,652923
19,59830,557621
19,60243,489783
19,60655,428634
19,61067,384099
19,61480,332295
19,61892,298395
19,62303,264961
19,62717,237217
19,63128,217819
19,63540,201322
19,63953,183663
19,64365,168863
19,64777,158591
19,65190,144784
19,65602,136175
19,66013,124119
19,66427,116865
19,66838,111535
19,67250,104279
19,67662,101836
19,68075,94614
19,68487,90481
19,68898,82857
19,69312,78299
19,69723,75533
19,70135,70692
19,70548,68402
19,70960,64720
19,71372,60185
19,71785,61071
19,72197,58997
19,72608,56104
19,73022,54792
19,73433,51612
19,73845,50498
19,74258,47709
19,74670,47415
19,75082,44668
19,75495,44256
19,75907,43604
19,76318,40005
19,76730,40125
19,77143,39857
19,77555,38206
19,77967,36345
19,78380,37189
19,78792,35350
19,79203,33857
19,79617,33879
19,80028,31729
19,80440,30654
19,80853,29812
19,81265,30250
19,81677,28983
19,82090,27509
19,82502,30214
19,82913,29048
19,83327,27329
19,83738,28944
19,84150,27641
19,84563,28333
19,84975,28516
19,85387,26985
19,85800,27226
19,86212,26090
19,86623,24403
19,87035,24882
19,87448,25267
19,87860,25753
19,88272,24252
19,88685,23571
19,89097,23209
19,89508,22932
19,89922,22334
19,90333,22186
19,90745,21303
19,91158,23224
19,91570,22343
19,91982,21618
19,92395,21188
19,92807,21306
19,93218,21167
19,93632,19597
19,94043,20797
19,94455,20232
19,94868,20748
19,95280,19887
19,95692,18638
19,96103,20515
19,96517,19603
19,96928,19500
19,97340,17635
19,97753,19712
19,98165,18395
19,98577,18430
19,98990,17381
19,99402,18356
19,99813,19670
20,00227,18532
20,00638,18417
20,01050,18703
20,01463,17418
20,01875,17874
20,02287,17223
20,02700,19270
20,03112,19336
20,03523,19699
20,03937,20636
20,04348,24722
20,04760,31252
20,05172,40800
20,05585,58703
20,05997,89570
20,06408,128489
20,06822,190338
20,07233,275731
20,07645,385582
20,08058,524351
20,08470,689961
20,08882,860529
20,09295,1045595
20,09707,1220080
20,10118,1390197
20,10532,1508361
20,10943,1558585
20,11355,1579819
20,11768,1553269
20,12180,1458908
20,12592,1330893
20,13005,1198603
20,13417,1072416
20,13828,943836
20,14240,816860
20,14653,703492
20,15065,614178
20,15477,538986
20,15890,470732
20,16302,412236
20,16713,361835
20,17127,322235
20,17538,293076
20,17950,262627
20,18363,242213
20,18775,216153
20,19187,197550
20,19600,183848
20,20012,171892
20,20423,157207
20,20837,148996
20,21248,136179
20,21660,126443
20,22073,122033
20,22485,110436
20,22897,106272
20,23308,101101
20,23722,94097
20,24133,92144
20,24545,88902
20,24958,87695
20,25370,81856
20,25782,78918
20,26195,75879
20,26607,73218
20,27018,71798
20,27432,67558
20,27843,64954
20,28255,62717
20,28668,62494
20,29080,58729
20,29492,56627
20,29905,55871
20,30317,53022
20,30728,51559
20,31142,47786
20,31553,49616
20,31965,46654
20,32377,42463
20,32790,43284
20,33202,42645
20,33613,42648
20,34027,41851
20,34438,39499
20,34850,38637
20,35263,36569
20,35675,36890
20,36087,35255
20,36500,33214
20,36912,33872
20,37323,35613
20,37737,32231
20,38148,32620
20,38560,32461
20,38973,30894
20,39385,31692
20,39797,30473
20,40210,31457
20,40622,29921
20,41033,28537
20,41445,29169
20,41858,26855
20,42270,28806
20,42682,28735
20,43095,27241
20,43507,28269
20,43918,30643
20,44332,33932
20,44743,40843
20,45155,50280
20,45568,62765
20,45980,88214
20,46392,126867
20,46805,177272
20,47217,252636
20,47628,345837
20,48042,453839
20,48453,581511
20,48865,726604
20,49278,875232
20,49690,1007038
20,50102,1108120
20,50513,1181806
20,50927,1210921
20,51338,1211134
20,51750,1167457
20,52163,1094753
20,52575,1007235
20,52987,910444
20,53400,810533
20,53812,722404
20,54223,634391
20,54637,555831
20,55048,485408
20,55460,424575
20,55873,371752
20,56285,327055
20,56697,293413
20,57110,264791
20,57522,237546
20,57933,209796
20,58347,195877
20,58758,173859
20,59170,161326
20,59582,145703
20,59995,137284
20,60407,125601
20,60818,115735
20,61232,109988
20,61643,101792
20,62055,96490
20,62468,90580
20,62880,85491
20,63292,81144
20,63705,75083
20,64117,73133
20,64528,71286
20,64942,68213
20,65353,64645
20,65765,62829
20,66178,60970
20,66590,58520
20,67002,55790
20,67415,52265
20,67827,53418
20,68238,47856
20,68650,48308
20,69063,45396
20,69475,46148
20,69887,43519
20,70300,43377
20,70712,42358
20,71123,42240
20,71537,39361
20,71948,38596
20,72360,38101
20,72773,36437
20,73185,35945
20,73597,35640
20,74010,34246
20,74422,33569
20,74833,32346
20,75247,32707
20,75658,31965
20,76070,31425
20,76483,31243
20,76895,32081
20,77307,30331
20,77718,29280
20,78132,29394
20,78543,29942
20,78955,29468
20,79368,27703
20,79780,27386
20,80192,28735
20,80605,28022
20,81017,25003
20,81428,27689
20,81842,24159
20,82253,25841
20,82665,25532
20,83078,25762
20,83490,25215
20,83902,22850
20,84315,23539
20,84727,23308
20,85138,22527
20,85552,24116
20,85963,23336
20,86375,23333
20,86787,24089
20,87200,24502
20,87612,23395
20,88023,22257
20,88437,22057
20,88848,20958
20,89260,23258
20,89673,21886
20,90085,21202
20,90497,21389
20,90910,21563
20,91322,21870
20,91733,22276
20,92147,23667
20,92558,22198
20,92970,21024
20,93383,22387
20,93795,20968
20,94207,22015
20,94620,21416
20,95032,21248
20,95443,20717
20,95855,20433
20,96268,21256
20,96680,20164
20,97092,20724
20,97505,22635
20,97917,19325
20,98328,20542
20,98742,20574
20,99153,21137
20,99565,20968
20,99978,19341
21,00390,19601
21,00802,21848
21,01215,20254
21,01627,21151
21,02038,21826
21,02452,19671
21,02863,20826
21,03275,20180
21,03688,19048
21,04100,19697
21,04512,20677
21,04923,20731
21,05337,19227
21,05748,20590
21,06160,20683
21,06573,21244
21,06985,20586
21,07397,18932
21,07810,20124
21,08222,20429
21,08633,18846
21,09047,20782
21,09458,21467
21,09870,21641
21,10283,23103
21,10695,26443
21,11107,30664
21,11520,41440
21,11932,58394
21,12343,79925
21,12757,117794
21,13168,166261
21,13580,236124
21,13992,325884
21,14405,435228
21,14817,544175
21,15228,667926
21,15642,786053
21,16053,881644
21,16465,977852
21,16878,1041726
21,17290,1078967
21,17702,1094020
21,18115,1085894
21,18527,1073510
21,18938,1073363
21,19352,1070793
21,19763,1115574
21,20175,1180794
21,20588,1290081
21,21000,1444461
21,21412,1632013
21,21825,1883994
21,22237,2139532
21,22648,2447351
21,23060,2744901
21,23473,3014167
21,23885,3242574
21,24297,3377480
21,24710,3428925
21,25122,3363725
21,25533,3186658
21,25947,2948047
21,26358,2658461
21,26770,2356565
21,27183,2059900
21,27595,1777442
21,28007,1525950
21,28420,1334649
21,28832,1159131
21,29243,1008158
21,29657,890668
21,30068,788657
21,30480,709520
21,30893,630419
21,31305,568835
21,31717,519763
21,32128,474363
21,32542,431985
21,32953,400813
21,33365,371014
21,33778,343198
21,34190,318118
21,34602,302649
21,35015,278381
21,35427,262310
21,35838,246650
21,36252,226996
21,36663,220503
21,37075,206498
21,37488,198933
21,37900,188974
21,38312,177961
21,38725,169030
21,39137,160273
21,39548,152828
21,39962,147844
21,40373,141470
21,40785,137653
21,41197,131268
21,41610,126143
21,42022,119382
21,42433,117331
21,42847,112514
21,43258,107451
21,43670,107225
21,44083,102005
21,44495,98949
21,44907,96632
21,45320,93238
21,45732,86694
21,46143,88209
21,46557,86880
21,46968,82486
21,47380,77440
21,47793,78703
21,48205,77177
21,48617,74904
21,49030,73023
21,49442,69183
21,49853,72538
21,50267,67432
21,50678,65990
21,51090,64736
21,51502,66045
21,51915,66483
21,52327,63749
21,52738,66468
21,53152,71095
21,53563,77674
21,53975,90088
21,54388,106578
21,54800,132780
21,55212,173038
21,55625,226881
21,56037,302562
21,56448,398429
21,56862,498211
21,57273,620185
21,57685,748319
21,58098,865394
21,58510,972970
21,58922,1038896
21,59335,1099806
21,59747,1124313
21,60158,1121193
21,60570,1079928
21,60983,1042537
21,61395,996641
21,61807,959878
21,62220,942847
21,62632,930870
21,63043,934325
21,63457,970749
21,63868,1006304
21,64280,1067410
21,64693,1106351
21,65105,1152254
21,65517,1182650
21,65930,1193963
21,66342,1187124
21,66753,1129121
21,67167,1087406
21,67578,1017978
21,67990,937255
21,68403,850695
21,68815,773829
21,69227,691930
21,69638,608658
21,70052,537294
21,70463,481815
21,70875,434152
21,71288,378284
21,71700,342294
21,72112,305858
21,72525,282634
21,72937,258559
21,73348,236176
21,73762,222831
21,74173,212552
21,74585,204077
21,74998,212587
21,75410,220824
21,75822,236705
21,76235,274111
21,76647,329981
21,77058,405571
21,77472,510028
21,77883,635002
21,78295,775876
21,78707,921779
21,79120,1103569
21,79532,1242349
21,79943,1368431
21,80357,1470165
21,80768,1513818
21,81180,1539993
21,81593,1520319
21,82005,1447913
21,82417,1336368
21,82830,1221129
21,83242,1105936
21,83653,976510
21,84067,870188
21,84478,764083
21,84890,679178
21,85303,598978
21,85715,527187
21,86127,475788
21,86540,426577
21,86952,384707
21,87363,350578
21,87775,320901
21,88188,297488
21,88600,272037
21,89012,251554
21,89425,235980
21,89837,220607
21,90248,205867
21,90662,189019
21,91073,181392
21,91485,171786
21,91898,164632
21,92310,152393
21,92722,144545
21,93135,138582
21,93547,131161
21,93958,129969
21,94372,121218
21,94783,118813
21,95195,111474
21,95608,107698
21,96020,101939
21,96432,100797
21,96843,93323
21,97257,93775
21,97668,86813
21,98080,84433
21,98493,85698
21,98905,79591
21,99317,78509
21,99730,77285
22,00142,72547
22,00553,72161
22,00967,70754
22,01378,70041
22,01790,68283
22,02203,63256
22,02615,67258
22,03027,62720
22,03440,64355
22,03852,62331
22,04263,57773
22,04677,58948
22,05088,59230
22,05500,55949
22,05912,53989
22,06325,55054
22,06737,51264
22,07148,51173
22,07562,51364
22,07973,48458
22,08385,51481
22,08798,51822
22,09210,50400
22,09622,49248
22,10035,46101
22,10447,49583
22,10858,49150
22,11272,47388
22,11683,46518
22,12095,44422
22,12508,46760
22,12920,46275
22,13332,43492
22,13745,42772
22,14157,45929
22,14568,45373
22,14980,42479
22,15393,41411
22,15805,38871
22,16217,39580
22,16630,39514
22,17042,35885
22,17453,37534
22,17867,38488
22,18278,35928
22,18690,35343
22,19103,34755
22,19515,33933
22,19927,35577
22,20340,34034
22,20752,32764
22,21163,33077
22,21577,31969
22,21988,34256
22,22400,32856
22,22813,31519
22,23225,32144
22,23637,34685
22,24048,38113
22,24462,38901
22,24873,45209
22,25285,54399
22,25698,68026
22,26110,90464
22,26522,123071
22,26935,167737
22,27347,232725
22,27758,319014
22,28172,436698
22,28583,579072
22,28995,751926
22,29408,923992
22,29820,1111319
22,30232,1298893
22,30645,1449525
22,31057,1572391
22,31468,1606691
22,31882,1604931
22,32293,1552173
22,32705,1467820
22,33117,1357475
22,33530,1216585
22,33942,1083764
22,34353,954141
22,34767,840657
22,35178,744453
22,35590,661619
22,36003,575724
22,36415,515475
22,36827,464089
22,37240,417928
22,37652,376627
22,38063,344292
22,38477,315018
22,38888,292828
22,39300,265935
22,39713,247736
22,40125,227660
22,40537,217399
22,40950,200685
22,41362,188985
22,41773,180585
22,42185,166184
22,42598,155959
22,43010,150682
22,43422,141655
22,43835,134707
22,44247,125737
22,44658,124381
22,45072,118598
22,45483,116234
22,45895,111170
22,46308,105209
22,46720,100804
22,47132,98965
22,47545,96567
22,47957,92609
22,48368,88862
22,48782,86468
22,49193,85650
22,49605,85147
22,50018,79069
22,50430,79061
22,50842,72856
22,51253,71967
22,51667,69581
22,52078,66237
22,52490,65661
22,52903,65699
22,53315,63792
22,53727,63516
22,54140,59944
22,54552,58121
22,54963,57013
22,55377,59457
22,55788,53832
22,56200,57633
22,56613,51550
22,57025,52345
22,57437,53780
22,57850,51404
22,58262,50235
22,58673,48836
22,59087,48378
22,59498,50209
22,59910,47381
22,60322,46049
22,60735,48193
22,61147,44551
22,61558,45433
22,61972,45996
22,62383,42874
22,62795,42220
22,63208,43146
22,63620,45040
22,64032,47036
22,64445,49165
22,64857,55143
22,65268,63128
22,65682,81884
22,66093,108569
22,66505,141945
22,66918,195169
22,67330,267637
22,67742,371812
22,68155,478747
22,68567,614542
22,68978,779369
22,69390,917276
22,69803,1039811
22,70215,1160582
22,70627,1247179
22,71040,1297841
22,71452,1313941
22,71863,1313346
22,72277,1251544
22,72688,1206918
22,73100,1160237
22,73513,1124326
22,73925,1089317
22,74337,1089418
22,74750,1106368
22,75162,1131415
22,75573,1161342
22,75987,1178793
22,76398,1201815
22,76810,1202817
22,77223,1181621
22,77635,1152727
22,78047,1096921
22,78458,1026120
22,78872,950941
22,79283,870409
22,79695,777890
22,80108,693749
22,80520,631519
22,80932,569948
22,81345,502744
22,81757,452015
22,82168,404159
22,82582,373877
22,82993,337454
22,83405,304107
22,83818,281074
22,84230,257588
22,84642,244272
22,85055,219695
22,85467,206022
22,85878,190988
22,86292,183314
22,86703,168371
22,87115,164844
22,87527,150899
22,87940,144544
22,88352,133757
22,88763,129292
22,89177,121659
22,89588,114390
22,90000,114736
22,90413,107485
22,90825,106115
22,91237,101198
22,91650,97773
22,92062,91858
22,92473,90202
22,92887,86051
22,93298,82458
22,93710,81388
22,94123,80429
22,94535,76149
22,94947,73947
22,95360,70925
22,95772,71340
22,96183,68389
22,96597,69192
22,97008,63896
22,97420,65698
22,97832,64820
22,98245,61782
22,98657,62186
22,99068,61256
22,99482,57000
22,99893,58407
23,00305,54524
23,00718,56163
23,01130,54274
23,01542,53154
23,01955,54042
23,02367,50136
23,02778,51266
23,03192,49758
23,03603,50461
23,04015,46348
23,04428,47199
23,04840,47983
23,05252,45314
23,05665,45140
23,06077,46881
23,06488,43081
23,06900,45248
23,07313,44922
23,07725,41140
23,08137,41693
23,08550,42921
23,08962,42859
23,09373,44327
23,09787,41590
23,10198,42310
23,10610,42050
23,11023,41592
23,11435,39970
23,11847,38961
23,12260,40151
23,12672,40078
23,13083,36848
23,13497,37748
23,13908,38714
23,14320,34476
23,14733,37559
23,15145,35890
23,15557,37975
23,15968,34661
23,16382,36516
23,16793,36243
23,17205,36293
23,17618,35874
23,18030,35297
23,18442,33563
23,18855,34238
23,19267,33079
23,19678,35542
23,20092,33076
23,20503,31219
23,20915,33267
23,21328,33254
23,21740,33481
23,22152,33275
23,22565,32125
23,22977,32309
23,23388,32710
23,23802,35276
23,24213,34130
23,24625,31436
23,25037,32283
23,25450,34082
23,25862,33951
23,26273,32853
23,26687,32896
23,27098,31547
23,27510,35897
23,27923,32088
23,28335,35190
23,28747,35172
23,29160,36598
23,29572,41221
23,29983,42497
23,30397,47866
23,30808,60684
23,31220,75588
23,31633,104551
23,32045,137934
23,32457,196459
23,32870,269938
23,33282,370781
23,33693,502084
23,34105,672626
23,34518,873324
23,34930,1106341
23,35342,1382432
23,35755,1667753
23,36167,1963048
23,36578,2275602
23,36992,2566679
23,37403,2836592
23,37815,3045950
23,38228,3153013
23,38640,3146228
23,39052,3035663
23,39465,2836484
23,39877,2605316
23,40288,2316696
23,40702,2058683
23,41113,1782444
23,41525,1550579
23,41938,1357699
23,42350,1191664
23,42762,1040533
23,43173,924339
23,43587,829351
23,43998,745464
23,44410,669189
23,44823,609057
23,45235,562994
23,45647,517705
23,46060,465169
23,46472,433114
23,46883,405351
23,47297,376506
23,47708,353837
23,48120,328730
23,48533,309091
23,48945,291247
23,49357,276856
23,49770,261214
23,50182,252637
23,50593,236749
23,51007,222923
23,51418,214229
23,51830,205965
23,52242,196145
23,52655,187094
23,53067,181889
23,53478,176965
23,53892,168086
23,54303,162829
23,54715,158294
23,55128,150549
23,55540,145573
23,55952,139217
23,56365,136842
23,56777,132515
23,57188,128807
23,57602,125685
23,58013,119848
23,58425,118893
23,58838,115197
23,59250,114923
23,59662,109561
23,60075,106720
23,60487,107243
23,60898,102614
23,61310,99266
23,61723,98468
23,62135,95560
23,62547,94796
23,62960,89996
23,63372,88357
23,63783,85154
23,64197,86252
23,64608,83878
23,65020,82688
23,65433,80338
23,65845,77626
23,66257,77364
23,66670,77162
23,67082,73473
23,67493,72468
23,67907,69941
23,68318,69689
23,68730,69504
23,69143,64753
23,69555,69267
23,69967,66384
23,70378,67696
23,70792,64102
23,71203,62868
23,71615,61921
23,72028,63885
23,72440,62863
23,72852,59717
23,73265,58146
23,73677,59157
23,74088,59244
23,74502,59320
23,74913,58250
23,75325,56203
23,75738,57746
23,76150,54344
23,76562,55443
23,76975,55292
23,77387,53830
23,77798,54177
23,78212,52311
23,78623,52329
23,79035,51908
23,79447,51070
23,79860,50828
23,80272,51142
23,80683,50124
23,81097,49109
23,81508,47196
23,81920,47943
23,82333,46625
23,82745,47803
23,83157,45959
23,83570,49415
23,83982,49707
23,84393,51952
23,84807,58013
23,85218,62938
23,85630,73045
23,86043,91688
23,86455,119009
23,86867,157588
23,87280,211174
23,87692,286024
23,88103,378079
23,88515,496942
23,88928,642928
23,89340,795610
23,89752,948079
23,90165,1108160
23,90577,1264401
23,90988,1390229
23,91402,1453495
23,91813,1477849
23,92225,1455981
23,92638,1407130
23,93050,1328039
23,93462,1207322
23,93875,1095484
23,94287,984729
23,94698,877895
23,95112,778450
23,95523,689774
23,95935,613191
23,96348,550430
23,96760,499586
23,97172,456520
23,97583,413822
23,97997,376691
23,98408,339771
23,98820,323085
23,99233,297113
23,99645,274264
24,00057,257920
24,00470,239309
24,00882,224140
24,01293,212757
24,01707,201845
24,02118,191321
24,02530,180593
24,02943,176675
24,03355,165106
24,03767,158391
24,04180,152136
24,04592,141856
24,05003,138413
24,05417,131762
24,05828,129894
24,06240,123213
24,06652,118304
24,07065,117781
24,07477,109209
24,07888,111634
24,08302,104793
24,08713,101291
24,09125,98032
24,09538,95308
24,09950,93827
24,10362,91890
24,10775,88153
24,11187,85377
24,11598,85649
24,12012,81888
24,12423,79986
24,12835,78676
24,13248,77001
24,13660,76707
24,14072,76341
24,14485,75197
24,14897,73754
24,15308,70818
24,15720,68949
24,16133,67122
24,16545,64841
24,16957,67150
24,17370,62042
24,17782,64202
24,18193,60566
24,18607,66172
24,19018,62865
24,19430,67619
24,19843,67813
24,20255,71969
24,20667,76379
24,21080,78052
24,21492,84233
24,21903,91288
24,22317,100286
24,22728,101258
24,23140,107778
24,23553,111771
24,23965,117100
24,24377,121233
24,24788,119364
24,25202,114196
24,25613,113459
24,26025,108761
24,26438,106411
24,26850,101184
24,27262,98505
24,27675,89234
24,28087,84726
24,28498,82565
24,28912,76100
24,29323,72809
24,29735,71542
24,30148,67720
24,30560,64836
24,30972,60700
24,31385,61006
24,31797,59559
24,32208,57190
24,32622,56012
24,33033,56607
24,33445,54629
24,33857,53137
24,34270,49973
24,34682,53320
24,35093,51173
24,35507,53933
24,35918,50417
24,36330,47886
24,36743,47982
24,37155,49760
24,37567,45410
24,37980,47183
24,38392,44745
24,38803,45212
24,39217,44027
24,39628,42294
24,40040,43358
24,40453,42081
24,40865,41993
24,41277,43413
24,41690,40615
24,42102,43173
24,42513,41261
24,42925,42431
24,43338,39676
24,43750,40700
24,44162,42574
24,44575,41308
24,44987,39514
24,45398,39052
24,45812,41913
24,46223,39303
24,46635,40638
24,47048,40568
24,47460,40800
24,47872,40085
24,48285,40133
24,48697,40098
24,49108,38238
24,49522,38879
24,49933,40940
24,50345,37517
24,50758,38404
24,51170,36901
24,51582,36093
24,51995,39596
24,52407,36752
24,52818,38326
24,53230,38605
24,53643,37230
24,54055,39183
24,54467,39240
24,54880,39770
24,55292,40497
24,55703,39095
24,56117,39624
24,56528,36217
24,56940,38613
24,57353,36859
24,57765,38673
24,58177,37698
24,58590,37541
24,59002,36710
24,59413,36762
24,59827,37340
24,60238,35339
24,60650,35632
24,61063,37417
24,61475,38485
24,61887,35803
24,62298,37349
24,62712,35551
24,63123,32993
24,63535,35010
24,63948,36330
24,64360,36641
24,64772,34795
24,65185,37061
24,65597,34410
24,66008,36089
24,66422,36685
24,66833,35635
24,67245,34013
24,67658,36061
24,68070,34442
24,68482,33902
24,68895,32475
24,69307,35234
24,69718,35298
24,70132,35308
24,70543,35469
24,70955,34280
24,71367,33794
24,71780,34304
24,72192,34756
24,72603,34929
24,73017,32884
24,73428,34013
24,73840,36122
24,74253,33875
24,74665,35782
24,75077,33815
24,75490,35394
24,75902,34900
24,76313,36715
24,76727,35632
24,77138,35535
24,77550,34423
24,77963,36520
24,78375,35769
24,78787,34284
24,79200,34854
24,79612,34102
24,80023,36351
24,80435,36405
24,80848,35244
24,81260,36333
24,81672,36475
24,82085,35317
24,82497,34202
24,82908,35396
24,83322,34998
24,83733,35989
24,84145,35889
24,84558,37063
24,84970,37586
24,85382,34728
24,85795,35865
24,86207,37362
24,86618,35001
24,87032,32488
24,87443,33729
24,87855,39475
24,88268,35267
24,88680,34042
24,89092,35782
24,89503,33763
24,89917,33439
24,90328,33911
24,90740,34400
24,91153,33981
24,91565,34938
24,91977,35381
24,92390,33630
24,92802,32488
24,93213,35461
24,93627,34699
24,94038,35207
24,94450,33626
24,94863,32551
24,95275,34757
24,95687,35263
24,96100,35213
24,96512,34420
24,96923,34153
24,97337,35170
24,97748,35891
24,98160,34070
24,98572,32813
24,98985,32126
24,99397,33506
24,99808,34360
25,00222,34831
25,00633,35698
25,01045,34775
25,01458,31970
25,01870,33459
25,02282,32509
25,02695,33038
25,03107,33817
25,03518,33984
25,03932,34539
25,04343,34235
25,04755,34941
25,05168,34300
25,05580,33989
25,05992,34027
25,06405,34156
25,06817,35367
25,07228,33773
25,07640,33140
25,08053,34326
25,08465,33410
25,08877,35136
25,09290,36069
25,09702,32325
25,10113,33341
25,10527,34108
25,10938,34986
25,11350,35945
25,11763,31630
25,12175,33457
25,12587,35236
25,13000,34089
25,13412,33076
25,13823,34160
25,14237,35841
25,14648,34769
25,15060,36161
25,15473,33540
25,15885,35812
25,16297,33743
25,16708,34003
25,17122,34039
25,17533,32504
25,17945,35287
25,18358,35810
25,18770,33932
25,19182,32497
25,19595,34771
25,20007,33555
25,20418,35232
25,20832,33217
25,21243,33630
25,21655,33271
25,22068,31919
25,22480,34824
25,22892,35748
25,23305,33285
25,23717,35779
25,24128,34655
25,24542,34469
25,24953,35209
25,25365,34841
25,25777,36404
25,26190,35238
25,26602,34133
25,27013,32385
25,27427,35455
25,27838,35539
25,28250,35184
25,28663,35017
25,29075,36485
25,29487,35590
25,29900,34007
25,30312,37812
25,30723,39949
25,31137,38769
25,31548,46010
25,31960,53033
25,32373,64250
25,32785,79665
25,33197,104289
25,33610,135851
25,34022,181927
25,34433,241587
25,34845,310300
25,35258,384445
25,35670,463558
25,36082,557477
25,36495,635088
25,36907,699249
25,37318,735570
25,37732,762252
25,38143,767426
25,38555,756343
25,38968,729119
25,39380,682099
25,39792,629960
25,40205,573681
25,40617,522105
25,41028,464975
25,41442,420463
25,41853,379397
25,42265,336700
25,42678,301231
25,43090,274999
25,43502,250416
25,43913,225309
25,44327,212845
25,44738,193338
25,45150,177283
25,45563,164660
25,45975,156111
25,46387,146842
25,46800,135633
25,47212,129444
25,47623,122145
25,48037,113921
25,48448,110830
25,48860,104454
25,49273,101613
25,49685,98032
25,50097,96806
25,50510,91736
25,50922,86551
25,51333,83000
25,51747,83580
25,52158,81110
25,52570,76507
25,52982,75489
25,53395,75167
25,53807,71147
25,54218,68147
25,54632,68769
25,55043,68829
25,55455,65078
25,55868,64719
25,56280,63839
25,56692,62112
25,57105,62445
25,57517,59892
25,57928,61343
25,58342,57260
25,58753,56917
25,59165,57680
25,59578,56306
25,59990,56834
25,60402,55285
25,60815,56295
25,61227,53281
25,61638,54664
25,62050,54040
25,62463,52554
25,62875,51161
25,63287,51150
25,63700,50297
25,64112,50256
25,64523,48930
25,64937,51998
25,65348,46191
25,65760,52062
25,66173,50252
25,66585,50133
25,66997,48499
25,67410,47356
25,67822,48944
25,68233,46382
25,68647,48445
25,69058,43904
25,69470,47932
25,69883,48540
25,70295,47134
25,70707,47011
25,71118,48368
25,71532,45166
25,71943,47363
25,72355,45526
25,72768,45017
25,73180,46102
25,73592,44392
25,74005,44055
25,74417,43874
25,74828,44288
25,75242,44884
25,75653,44536
25,76065,43511
25,76478,43327
25,76890,44026
25,77302,44669
25,77715,42051
25,78127,43388
25,78538,43248
25,78952,44002
25,79363,41677
25,79775,42069
25,80187,43078
25,80600,43930
25,81012,45361
25,81423,42080
25,81837,44335
25,82248,45000
25,82660,42126
25,83073,42614
25,83485,43360
25,83897,42888
25,84310,44551
25,84722,41655
25,85133,43810
25,85547,43505
25,85958,44257
25,86370,44024
25,86783,44094
25,87195,44097
25,87607,42896
25,88020,43847
25,88432,44314
25,88843,44284
25,89255,42374
25,89668,43877
25,90080,46685
25,90492,43328
25,90905,43125
25,91317,43797
25,91728,43713
25,92142,42419
25,92553,45529
25,92965,42946
25,93378,44862
25,93790,41990
25,94202,42531
25,94615,43518
25,95027,43111
25,95438,40695
25,95852,44139
25,96263,40027
25,96675,39446
25,97088,41205
25,97500,41538
25,97912,41504
25,98323,41366
25,98737,40696
25,99148,44694
25,99560,41369
25,99973,43203
26,00385,40843
26,00797,40047
26,01210,39992
26,01622,42029
26,02033,39955
26,02447,39631
26,02858,40406
26,03270,39344
26,03683,42639
26,04095,40123
26,04507,40321
26,04920,41973
26,05332,42899
26,05743,40950
26,06157,44233
26,06568,41003
26,06980,42638
26,07392,41405
26,07805,43612
26,08217,42510
26,08628,42696
26,09042,40796
26,09453,42914
26,09865,39753
26,10278,42935
26,10690,45194
26,11102,43563
26,11515,42444
26,11927,41139
26,12338,42777
26,12752,44349
26,13163,44234
26,13575,44303
26,13988,42157
26,14400,42927
26,14812,43689
26,15225,43965
26,15637,44019
26,16048,42226
26,16462,43479
26,16873,42318
26,17285,44247
26,17697,42629
26,18110,43662
26,18522,44307
26,18933,42965
26,19347,45702
26,19758,43782
26,20170,42777
26,20583,43279
26,20995,43068
26,21407,42917
26,21820,42886
26,22232,46389
26,22643,45281
26,23057,43506
26,23468,43330
26,23880,42421
26,24293,43579
26,24705,44767
26,25117,45829
26,25530,41571
26,25942,42498
26,26353,45457
26,26765,44212
26,27178,44616
26,27590,44806
26,28002,44732
26,28415,45883
26,28827,43868
26,29238,46434
26,29652,47324
26,30063,46780
26,30475,43814
26,30888,43659
26,31300,44388
26,31712,46420
26,32125,43232
26,32537,46304
26,32948,45163
26,33362,44856
26,33773,42886
26,34185,47332
26,34598,46064
26,35010,45697
26,35422,46231
26,35833,47612
26,36247,47132
26,36658,46282
26,37070,43929
26,37483,45950
26,37895,46119
26,38307,46891
26,38720,46811
26,39132,46182
26,39543,46942
26,39957,45741
26,40368,48773
26,40780,49616
26,41193,44990
26,41605,45425
26,42017,45358
26,42430,45299
