D:\MassHunter\GCMS\1\data\Amal\Constant flow\150C_1ml-min_8C-min_1.D Fri Jul 26 15:02:58 2024
Start of data points
5,04137,139885
5,04582,163224
5,05025,205128
5,05470,270141
5,05913,340492
5,06358,398805
5,06802,435547
5,07247,456425
5,07690,451987
5,08135,446853
5,08578,429643
5,09023,418111
5,09467,406196
5,09912,394448
5,10357,380491
5,10800,367505
5,11245,359839
5,11688,343831
5,12133,334968
5,12577,325175
5,13022,311965
5,13465,300066
5,13910,291591
5,14353,280308
5,14798,269173
5,15242,260977
5,15687,250654
5,16130,239895
5,16575,231987
5,17018,219749
5,17463,214649
5,17907,207973
5,18352,194684
5,18795,188082
5,19240,180552
5,19683,169676
5,20128,165453
5,20572,160317
5,21017,151557
5,21460,147569
5,21905,139276
5,22350,139238
5,22793,131633
5,23238,124073
5,23682,116085
5,24127,112125
5,24570,102841
5,25015,99766
5,25458,94280
5,25903,88329
5,26347,86377
5,26792,81383
5,27235,79009
5,27680,75344
5,28123,72043
5,28568,68851
5,29012,66325
5,29457,63720
5,29900,59387
5,30345,60969
5,30788,59152
5,31233,57652
5,31677,56822
5,32122,53079
5,32565,52587
5,33010,52416
5,33453,52224
5,33898,52648
5,34343,60948
5,34787,78021
5,35232,101406
5,35675,140838
5,36120,187955
5,36563,224386
5,37008,250295
5,37452,266803
5,37897,272336
5,38340,265726
5,38785,262003
5,39228,255317
5,39673,246576
5,40117,245249
5,40562,232142
5,41005,227565
5,41450,225104
5,41893,217361
5,42338,211644
5,42782,203202
5,43227,198007
5,43670,190653
5,44115,181361
5,44558,174110
5,45003,168122
5,45447,160316
5,45892,155855
5,46337,148720
5,46780,140181
5,47225,136106
5,47668,131687
5,48113,126792
5,48557,120756
5,49002,117155
5,49445,110274
5,49890,106012
5,50333,102022
5,50778,96132
5,51222,95708
5,51667,87172
5,52110,83017
5,52555,78868
5,52998,76362
5,53443,70885
5,53887,63510
5,54332,64977
5,54775,60986
5,55220,57983
5,55663,54171
5,56108,53581
5,56552,52394
5,56997,49455
5,57440,48373
5,57885,47810
5,58328,45759
5,58773,43339
5,59218,42270
5,59662,43258
5,60107,39843
5,60550,41291
5,60995,39268
5,61438,38252
5,61883,38920
5,62327,38568
5,62772,36890
5,63215,38123
5,63660,35549
5,64103,37367
5,64548,34226
5,64992,34285
5,65437,35192
5,65880,34597
5,66325,34704
5,66768,34745
5,67213,36272
5,67657,34652
5,68102,33765
5,68545,34356
5,68990,34476
5,69433,34345
5,69878,34561
5,70322,37636
5,70767,43588
5,71212,60686
5,71655,96511
5,72100,158831
5,72543,242205
5,72988,346063
5,73432,444351
5,73877,513787
5,74320,551751
5,74765,571378
5,75208,569616
5,75653,567300
5,76097,550504
5,76542,541152
5,76985,527746
5,77430,514307
5,77873,496196
5,78318,485282
5,78762,457864
5,79207,437045
5,79650,421738
5,80095,405540
5,80538,384853
5,80983,368481
5,81427,346646
5,81872,337393
5,82315,310901
5,82760,291570
5,83205,278549
5,83648,257517
5,84093,242519
5,84537,228638
5,84982,212400
5,85425,202079
5,85870,187307
5,86313,173910
5,86758,164627
5,87202,148660
5,87647,135144
5,88090,124707
5,88535,112295
5,88978,106363
5,89423,95848
5,89867,84431
5,90312,81748
5,90755,69987
5,91200,66469
5,91643,62634
5,92088,59305
5,92532,54167
5,92977,50903
5,93420,48869
5,93865,46092
5,94308,42268
5,94753,40455
5,95198,38840
5,95642,37341
5,96087,36279
5,96530,34070
5,96975,35607
5,97418,31908
5,97863,32026
5,98307,32045
5,98752,31239
5,99195,31130
5,99640,30956
6,00083,28247
6,00528,30384
6,00972,30748
6,01417,28893
6,01860,29471
6,02305,28048
6,02748,29048
6,03193,27964
6,03637,28126
6,04082,28466
6,04525,27471
6,04970,28514
6,05413,28383
6,05858,27932
6,06302,27239
6,06747,26367
6,07192,28262
6,07635,27747
6,08080,25841
6,08523,27625
6,08968,27031
6,09412,25843
6,09857,25241
6,10300,26075
6,10745,25514
6,11188,24325
6,11633,25355
6,12077,25155
6,12522,25351
6,12965,25189
6,13410,25726
6,13853,25398
6,14298,27581
6,14742,35148
6,15187,46709
6,15630,70878
6,16075,108741
6,16518,162321
6,16963,216825
6,17407,263435
6,17852,305781
6,18295,326467
6,18740,332100
6,19185,337970
6,19628,334396
6,20073,323864
6,20517,314143
6,20962,310708
6,21405,297521
6,21850,288121
6,22293,276450
6,22738,270004
6,23182,256024
6,23627,241206
6,24070,231975
6,24515,217984
6,24958,202095
6,25403,191213
6,25847,178784
6,26292,163077
6,26735,152156
6,27180,142810
6,27623,133425
6,28068,121447
6,28512,113311
6,28957,105280
6,29400,96615
6,29845,84437
6,30288,76885
6,30733,70718
6,31177,63327
6,31622,58818
6,32067,53779
6,32510,48067
6,32955,44628
6,33398,40513
6,33843,37765
6,34287,35775
6,34732,33898
6,35175,32852
6,35620,30885
6,36063,28610
6,36508,27285
6,36952,26475
6,37397,26389
6,37840,25192
6,38285,25280
6,38728,24891
6,39173,23971
6,39617,23856
6,40062,23743
6,40505,23992
6,40950,23038
6,41393,22933
6,41838,23657
6,42282,24724
6,42727,23224
6,43170,22168
6,43615,23338
6,44060,24487
6,44503,23691
6,44948,22507
6,45392,23666
6,45837,22930
6,46280,21305
6,46725,21657
6,47168,21746
6,47613,20826
6,48057,22430
6,48502,21067
6,48945,21634
6,49390,19825
6,49833,20337
6,50278,19634
6,50722,20615
6,51167,19987
6,51610,20214
6,52055,19427
6,52498,19842
6,52943,18646
6,53387,18822
6,53832,20630
6,54275,20743
6,54720,18580
6,55163,20719
6,55608,20183
6,56053,18673
6,56497,20800
6,56942,17914
6,57385,19049
6,57830,18873
6,58273,19142
6,58718,19544
6,59162,18514
6,59607,18885
6,60050,18470
6,60495,18539
6,60938,17793
6,61383,19329
6,61827,19321
6,62272,19500
6,62715,17718
6,63160,18455
6,63603,17995
6,64048,19581
6,64492,23594
6,64937,32720
6,65380,53438
6,65825,94322
6,66268,168703
6,66713,270024
6,67157,386487
6,67602,516122
6,68047,623021
6,68490,704248
6,68935,744198
6,69378,775539
6,69823,772552
6,70267,766003
6,70712,741230
6,71155,727809
6,71600,697049
6,72043,668895
6,72488,634692
6,72932,607842
6,73377,573184
6,73820,537155
6,74265,494422
6,74708,461054
6,75153,422965
6,75597,388513
6,76042,356045
6,76485,317202
6,76930,286009
6,77373,251532
6,77818,228564
6,78262,197538
6,78707,169896
6,79150,148442
6,79595,129818
6,80040,107138
6,80483,91490
6,80928,78786
6,81372,70262
6,81817,61262
6,82260,54972
6,82705,48551
6,83148,41325
6,83593,38789
6,84037,34033
6,84482,33304
6,84925,30309
6,85370,27459
6,85813,26062
6,86258,25634
6,86702,23383
6,87147,22491
6,87590,23310
6,88035,21922
6,88478,21294
6,88923,21270
6,89367,18404
6,89812,19043
6,90255,18111
6,90700,18432
6,91143,19055
6,91588,19301
6,92033,17346
6,92477,18428
6,92922,19220
6,93365,19537
6,93810,20192
6,94253,20177
6,94698,21515
6,95142,21050
6,95587,20883
6,96030,22126
6,96475,23247
6,96918,20801
6,97363,21882
6,97807,21159
6,98252,20473
6,98695,20268
6,99140,19707
6,99583,19775
7,00028,19204
7,00472,19744
7,00917,18248
7,01360,20646
7,01805,18822
7,02248,19163
7,02693,18138
7,03137,17244
7,03582,16471
7,04025,17897
7,04470,18027
7,04915,16673
7,05358,17138
7,05803,16550
7,06247,16098
7,06692,16700
7,07135,17436
7,07580,16887
7,08023,17286
7,08468,21507
7,08912,27150
7,09357,44167
7,09800,72379
7,10245,112044
7,10688,163205
7,11133,221980
7,11577,285096
7,12022,327052
7,12465,367247
7,12910,387638
7,13353,396686
7,13798,400500
7,14242,387396
7,14687,377884
7,15130,361784
7,15575,347556
7,16018,326462
7,16463,313504
7,16908,288511
7,17352,264644
7,17797,246829
7,18240,224745
7,18685,203553
7,19128,179442
7,19573,166447
7,20017,147201
7,20462,132342
7,20905,117058
7,21350,109001
7,21793,108956
7,22238,126457
7,22682,160528
7,23127,211890
7,23570,263618
7,24015,327703
7,24458,389296
7,24903,420335
7,25347,450623
7,25792,455378
7,26235,463876
7,26680,448558
7,27123,438472
7,27568,418515
7,28012,394522
7,28457,377693
7,28902,349901
7,29345,324868
7,29790,297186
7,30233,274384
7,30678,245796
7,31122,225345
7,31567,194514
7,32010,171923
7,32455,152089
7,32898,127648
7,33343,105880
7,33787,90651
7,34232,78332
7,34675,69481
7,35120,57870
7,35563,51008
7,36008,44489
7,36452,36339
7,36897,34888
7,37340,29746
7,37785,27532
7,38228,24250
7,38673,23265
7,39117,21322
7,39562,20220
7,40005,19325
7,40450,18571
7,40895,17876
7,41338,18142
7,41783,18531
7,42227,18146
7,42672,17816
7,43115,15983
7,43560,15718
7,44003,15822
7,44448,15370
7,44892,16607
7,45337,15579
7,45780,15493
7,46225,15221
7,46668,14374
7,47113,15243
7,47557,14843
7,48002,15482
7,48445,15415
7,48890,15268
7,49333,16152
7,49778,15287
7,50222,13939
7,50667,14704
7,51110,14844
7,51555,14859
7,51998,14474
7,52443,13453
7,52888,12923
7,53332,14800
7,53777,14543
7,54220,15191
7,54665,14742
7,55108,13593
7,55553,13163
7,55997,13324
7,56442,13637
7,56885,13307
7,57330,13476
7,57773,13978
7,58218,14284
7,58662,13716
7,59107,13425
7,59550,14766
7,59995,13844
7,60438,13899
7,60883,13320
7,61327,13688
7,61772,12750
7,62215,14105
7,62660,14407
7,63103,13738
7,63548,14870
7,63992,12767
7,64437,13573
7,64882,14344
7,65325,13907
7,65770,13336
7,66213,12985
7,66658,13147
7,67102,13137
7,67547,13908
7,67990,13463
7,68435,15848
7,68878,21032
7,69323,30666
7,69767,52808
7,70212,85888
7,70655,132191
7,71100,198338
7,71543,264272
7,71988,332625
7,72432,384081
7,72877,429662
7,73320,453214
7,73765,471125
7,74208,458413
7,74653,448572
7,75097,432675
7,75542,416771
7,75985,385738
7,76430,360400
7,76873,323658
7,77318,291859
7,77763,259975
7,78207,231418
7,78652,199303
7,79095,173425
7,79540,150815
7,79983,127850
7,80428,105557
7,80872,87539
7,81317,76189
7,81760,72078
7,82205,79033
7,82648,108006
7,83093,166357
7,83537,266652
7,83982,427842
7,84425,627177
7,84870,855890
7,85313,1080336
7,85758,1277693
7,86202,1434986
7,86647,1549291
7,87090,1582369
7,87535,1580166
7,87978,1524840
7,88423,1454025
7,88867,1374193
7,89312,1262615
7,89757,1155416
7,90200,1046001
7,90645,933023
7,91088,811145
7,91533,691298
7,91977,578579
7,92422,474684
7,92865,382841
7,93310,313727
7,93753,253472
7,94198,202571
7,94642,164005
7,95087,133224
7,95530,108966
7,95975,90328
7,96418,77863
7,96863,64852
7,97307,56657
7,97752,47809
7,98195,42141
7,98640,40359
7,99083,36117
7,99528,30386
7,99972,30624
8,00417,29584
8,00860,27104
8,01305,24906
8,01750,23757
8,02193,23701
8,02638,22185
8,03082,20864
8,03527,22122
8,03970,20236
8,04415,18988
8,04858,18369
8,05303,18616
8,05747,17260
8,06192,17417
8,06635,17711
8,07080,18051
8,07523,18616
8,07968,16976
8,08412,16693
8,08857,16775
8,09300,16519
8,09745,15472
8,10188,16028
8,10633,15855
8,11077,14680
8,11522,14779
8,11965,15805
8,12410,15074
8,12853,14589
8,13298,16873
8,13743,14339
8,14187,14987
8,14632,14798
8,15075,15144
8,15520,15315
8,15963,15039
8,16408,15583
8,16852,15044
8,17297,14965
8,17740,14307
8,18185,13355
8,18628,13905
8,19073,14304
8,19517,14415
8,19962,14640
8,20405,14313
8,20850,13027
8,21293,14091
8,21738,14903
8,22182,14069
8,22627,12687
8,23070,13987
8,23515,15613
8,23958,17082
8,24403,23768
8,24847,34864
8,25292,57405
8,25737,95459
8,26180,151038
8,26625,220019
8,27068,296587
8,27513,376927
8,27957,437711
8,28402,496017
8,28845,524156
8,29290,528951
8,29733,517178
8,30178,499283
8,30622,476709
8,31067,442430
8,31510,403149
8,31955,357373
8,32398,313498
8,32843,262338
8,33287,229679
8,33732,187483
8,34175,158312
8,34620,124015
8,35063,104992
8,35508,87515
8,35952,70562
8,36397,59118
8,36840,51619
8,37285,42674
8,37730,37995
8,38173,31990
8,38618,32001
8,39062,26962
8,39507,24901
8,39950,24717
8,40395,21510
8,40838,19898
8,41283,19170
8,41727,18014
8,42172,17246
8,42615,17050
8,43060,16279
8,43503,15413
8,43948,14275
8,44392,14982
8,44837,14113
8,45280,15332
8,45725,16037
8,46168,17859
8,46613,21892
8,47057,32200
8,47502,55837
8,47945,95558
8,48390,149989
8,48833,230640
8,49278,317244
8,49722,407992
8,50167,487264
8,50612,552250
8,51055,588218
8,51500,599818
8,51943,595163
8,52388,578419
8,52832,540195
8,53277,485559
8,53720,436490
8,54165,372917
8,54608,319231
8,55053,267737
8,55497,224077
8,55942,180593
8,56385,148564
8,56830,118607
8,57273,97340
8,57718,79561
8,58162,63956
8,58607,52107
8,59050,44962
8,59495,40905
8,59938,36388
8,60383,31075
8,60827,29009
8,61272,26814
8,61715,23888
8,62160,22708
8,62605,21271
8,63048,20627
8,63493,20115
8,63937,18123
8,64382,17190
8,64825,16114
8,65270,16676
8,65713,14991
8,66158,15133
8,66602,17732
8,67047,14416
8,67490,14661
8,67935,14507
8,68378,15081
8,68823,14188
8,69267,13128
8,69712,13105
8,70155,13701
8,70600,14472
8,71043,12157
8,71488,12671
8,71932,12090
8,72377,11334
8,72820,12461
8,73265,12182
8,73708,11680
8,74153,11634
8,74598,12599
8,75042,13411
8,75487,11631
8,75930,11784
8,76375,11845
8,76818,11767
8,77263,13598
8,77707,12257
8,78152,12019
8,78595,12783
8,79040,12335
8,79483,11771
8,79928,11814
8,80372,12106
8,80817,12600
8,81260,12744
8,81705,13312
8,82148,12356
8,82593,12877
8,83037,13751
8,83482,12422
8,83925,12487
8,84370,12132
8,84813,11683
8,85258,12341
8,85702,11659
8,86147,12458
8,86592,11253
8,87035,12388
8,87480,11563
8,87923,11302
8,88368,12010
8,88812,11376
8,89257,12113
8,89700,14167
8,90145,17060
8,90588,24756
8,91033,40259
8,91477,71174
8,91922,115939
8,92365,185014
8,92810,267687
8,93253,363064
8,93698,457683
8,94142,533890
8,94587,601578
8,95030,623736
8,95475,628876
8,95918,601440
8,96363,563451
8,96807,509282
8,97252,449753
8,97695,389211
8,98140,323232
8,98585,264141
8,99028,212895
8,99473,170047
8,99917,134818
9,00362,107531
9,00805,85907
9,01250,66554
9,01693,57533
9,02138,47151
9,02582,40595
9,03027,35771
9,03470,30443
9,03915,29292
9,04358,25425
9,04803,24484
9,05247,22455
9,05692,22349
9,06135,19545
9,06580,19392
9,07023,18713
9,07468,17215
9,07912,16970
9,08357,16696
9,08800,17176
9,09245,16315
9,09688,14190
9,10133,14074
9,10577,13760
9,11022,14391
9,11467,14940
9,11910,13433
9,12355,16694
9,12798,17656
9,13243,28141
9,13687,50016
9,14132,95768
9,14575,168839
9,15020,287194
9,15463,439593
9,15908,629384
9,16352,841351
9,16797,1040178
9,17240,1221095
9,17685,1357599
9,18128,1418158
9,18573,1433404
9,19017,1360188
9,19462,1245810
9,19905,1084671
9,20350,912295
9,20793,751653
9,21238,591204
9,21682,462155
9,22127,357261
9,22570,273290
9,23015,214123
9,23460,163470
9,23903,125144
9,24348,102451
9,24792,84371
9,25237,68531
9,25680,61789
9,26125,52655
9,26568,45006
9,27013,42189
9,27457,36738
9,27902,35126
9,28345,30969
9,28790,30611
9,29233,27694
9,29678,26345
9,30122,26384
9,30567,23318
9,31010,24970
9,31455,25319
9,31898,24162
9,32343,26080
9,32787,26411
9,33232,27099
9,33675,26214
9,34120,25028
9,34563,23085
9,35008,24513
9,35453,22781
9,35897,22944
9,36342,22484
9,36785,21994
9,37230,22790
9,37673,21396
9,38118,24237
9,38562,25214
9,39007,32765
9,39450,46388
9,39895,76459
9,40338,127826
9,40783,199266
9,41227,294071
9,41672,401132
9,42115,518219
9,42560,606273
9,43003,674706
9,43448,707099
9,43892,700464
9,44337,660473
9,44780,595508
9,45225,521904
9,45668,438853
9,46113,363915
9,46557,286130
9,47002,227426
9,47447,175692
9,47890,136620
9,48335,110229
9,48778,85274
9,49223,68948
9,49667,59990
9,50112,49602
9,50555,41681
9,51000,36965
9,51443,35056
9,51888,38169
9,52332,48773
9,52777,71034
9,53220,116341
9,53665,192841
9,54108,314428
9,54553,485877
9,54997,688908
9,55442,908110
9,55885,1102148
9,56330,1276261
9,56773,1389664
9,57218,1421476
9,57662,1371553
9,58107,1277203
9,58550,1104269
9,58995,927663
9,59440,754446
9,59883,609214
9,60328,466922
9,60772,360198
9,61217,275421
9,61660,215694
9,62105,165783
9,62548,135923
9,62993,107104
9,63437,89428
9,63882,75293
9,64325,65362
9,64770,59754
9,65213,53000
9,65658,46285
9,66102,40896
9,66547,37101
9,66990,33356
9,67435,30687
9,67878,30781
9,68323,27768
9,68767,27382
9,69212,25762
9,69655,26695
9,70100,23520
9,70543,22085
9,70988,21315
9,71433,20577
9,71877,20073
9,72322,19407
9,72765,17674
9,73210,18371
9,73653,18300
9,74098,19058
9,74542,17351
9,74987,17063
9,75430,16285
9,75875,15480
9,76318,16120
9,76763,15508
9,77207,15594
9,77652,15418
9,78095,13902
9,78540,15147
9,78983,17130
9,79428,22426
9,79872,32481
9,80317,51563
9,80760,89269
9,81205,150122
9,81648,234852
9,82093,336648
9,82537,447118
9,82982,551540
9,83425,625832
9,83870,666679
9,84315,690700
9,84758,642326
9,85203,582715
9,85647,498248
9,86092,416855
9,86535,336348
9,86980,266464
9,87423,204634
9,87868,156665
9,88312,120417
9,88757,96339
9,89200,75848
9,89645,63531
9,90088,52788
9,90533,44892
9,90977,36217
9,91422,32967
9,91865,30063
9,92310,28587
9,92753,26986
9,93198,24542
9,93642,22695
9,94087,21469
9,94530,22075
9,94975,18992
9,95418,18889
9,95863,17096
9,96308,17303
9,96752,17014
9,97197,15720
9,97640,18194
9,98085,17538
9,98528,16925
9,98973,16136
9,99417,16920
9,99862,15624
10,00305,17083
10,00750,15417
10,01193,14735
10,01638,15118
10,02082,16728
10,02527,16149
10,02970,14368
10,03415,15512
10,03858,14410
10,04303,15185
10,04747,14176
10,05192,14625
10,05635,13697
10,06080,15056
10,06523,15976
10,06968,14312
10,07412,14946
10,07857,14006
10,08302,14153
10,08745,14303
10,09190,13835
10,09633,15632
10,10078,16880
10,10522,21711
10,10967,33436
10,11410,53639
10,11855,92047
10,12298,152567
10,12743,234148
10,13187,337423
10,13632,445361
10,14075,547350
10,14520,626131
10,14963,668948
10,15408,663903
10,15852,627596
10,16297,562018
10,16740,480015
10,17185,388941
10,17628,307469
10,18073,237007
10,18517,189069
10,18962,141892
10,19405,111525
10,19850,88851
10,20295,70795
10,20738,59572
10,21183,50424
10,21627,43880
10,22072,39201
10,22515,35200
10,22960,32067
10,23403,29892
10,23848,26676
10,24292,26313
10,24737,25521
10,25180,25397
10,25625,23153
10,26068,20987
10,26513,21983
10,26957,21824
10,27402,19874
10,27845,18211
10,28290,18063
10,28733,17339
10,29178,17413
10,29622,17701
10,30067,17665
10,30510,17065
10,30955,15119
10,31398,16107
10,31843,15857
10,32288,15077
10,32732,15519
10,33177,13771
10,33620,13029
10,34065,12890
10,34508,15557
10,34953,14733
10,35397,13275
10,35842,14362
10,36285,13182
10,36730,14792
10,37173,11631
10,37618,13381
10,38062,11612
10,38507,12656
10,38950,12487
10,39395,12996
10,39838,12441
10,40283,13178
10,40727,14168
10,41172,12466
10,41615,12805
10,42060,12148
10,42503,12651
10,42948,13979
10,43392,13176
10,43837,13752
10,44282,12815
10,44725,13884
10,45170,12267
10,45613,12830
10,46058,12321
10,46502,14066
10,46947,11072
10,47390,12383
10,47835,13439
10,48278,15235
10,48723,21861
10,49167,38266
10,49612,69554
10,50055,128394
10,50500,231416
10,50943,380623
10,51388,587608
10,51832,836995
10,52277,1125100
10,52720,1404818
10,53165,1650654
10,53608,1812528
10,54053,1849984
10,54497,1776604
10,54942,1638745
10,55385,1482614
10,55830,1324524
10,56273,1182742
10,56718,1065851
10,57163,950009
10,57607,841496
10,58052,736801
10,58495,621750
10,58940,514003
10,59383,415085
10,59828,329085
10,60272,259312
10,60717,206374
10,61160,165025
10,61605,130979
10,62048,109593
10,62493,93903
10,62937,79909
10,63382,70389
10,63825,61566
10,64270,54316
10,64713,50569
10,65158,48274
10,65602,43973
10,66047,38226
10,66490,36198
10,66935,35866
10,67378,33724
10,67823,31634
10,68267,31533
10,68712,27890
10,69157,26163
10,69600,24760
10,70045,26122
10,70488,25554
10,70933,23575
10,71377,22322
10,71822,22615
10,72265,23915
10,72710,22578
10,73153,21034
10,73598,20352
10,74042,19689
10,74487,20587
10,74930,20317
10,75375,20892
10,75818,18875
10,76263,19808
10,76707,19917
10,77152,19409
10,77595,19675
10,78040,23669
10,78483,29750
10,78928,41996
10,79372,66640
10,79817,109160
10,80260,172146
10,80705,257005
10,81150,360648
10,81593,460361
10,82038,553743
10,82482,604950
10,82927,613332
10,83370,603679
10,83815,548845
10,84258,474577
10,84703,385564
10,85147,310356
10,85592,243436
10,86035,188366
10,86480,142382
10,86923,114082
10,87368,94387
10,87812,89766
10,88257,93174
10,88700,125030
10,89145,178904
10,89588,261451
10,90033,368344
10,90477,500301
10,90922,620511
10,91365,734252
10,91810,791831
10,92253,805761
10,92698,760857
10,93143,675742
10,93587,566337
10,94032,453897
10,94475,352816
10,94920,271795
10,95363,210272
10,95808,160490
10,96252,126570
10,96697,103707
10,97140,85820
10,97585,71581
10,98028,61345
10,98473,54272
10,98917,49690
10,99362,43237
10,99805,41577
11,00250,38536
11,00693,36609
11,01138,31963
11,01582,30573
11,02027,28878
11,02470,26566
11,02915,28645
11,03358,27802
11,03803,24879
11,04247,22910
11,04692,23929
11,05137,22238
11,05580,21087
11,06025,20544
11,06468,20846
11,06913,20980
11,07357,21114
11,07802,18657
11,08245,19804
11,08690,19065
11,09133,18869
11,09578,17337
11,10022,17862
11,10467,18342
11,10910,17906
11,11355,18334
11,11798,17719
11,12243,17324
11,12687,16161
11,13132,16643
11,13575,17479
11,14020,16744
11,14463,17264
11,14908,16284
11,15352,16015
11,15797,18542
11,16240,22327
11,16685,29211
11,17130,51286
11,17573,88886
11,18018,151782
11,18462,241186
11,18907,369554
11,19350,524087
11,19795,683613
11,20238,815479
11,20683,895553
11,21127,900227
11,21572,831129
11,22015,710831
11,22460,576796
11,22903,445088
11,23348,340474
11,23792,255890
11,24237,197046
11,24680,151554
11,25125,119769
11,25568,99186
11,26013,81576
11,26457,68480
11,26902,61554
11,27345,53801
11,27790,50502
11,28233,45673
11,28678,42573
11,29122,39634
11,29567,34367
11,30012,35073
11,30455,30984
11,30900,28704
11,31343,28130
11,31788,26111
11,32232,26827
11,32677,25476
11,33120,26048
11,33565,26015
11,34008,25147
11,34453,23691
11,34897,23593
11,35342,23436
11,35785,23742
11,36230,24088
11,36673,21746
11,37118,21990
11,37562,20883
11,38007,19074
11,38450,19164
11,38895,18357
11,39338,19265
11,39783,20124
11,40227,18945
11,40672,20265
11,41115,18600
11,41560,19032
11,42005,19263
11,42448,18219
11,42893,18942
11,43337,17476
11,43782,15510
11,44225,17206
11,44670,19441
11,45113,20701
11,45558,24118
11,46002,33227
11,46447,51118
11,46890,86917
11,47335,140477
11,47778,231015
11,48223,345192
11,48667,472037
11,49112,585130
11,49555,669690
11,50000,714607
11,50443,707322
11,50888,655962
11,51332,564681
11,51777,469590
11,52220,370423
11,52665,285995
11,53108,221036
11,53553,167451
11,53998,126106
11,54442,101511
11,54887,81018
11,55330,69456
11,55775,59635
11,56218,51511
11,56663,47001
11,57107,42987
11,57552,37684
11,57995,35508
11,58440,32829
11,58883,30876
11,59328,28882
11,59772,29083
11,60217,27751
11,60660,25239
11,61105,25130
11,61548,24465
11,61993,23967
11,62437,23525
11,62882,23185
11,63325,21823
11,63770,22427
11,64213,21807
11,64658,23900
11,65102,21568
11,65547,21047
11,65992,20689
11,66435,19179
11,66880,20380
11,67323,19429
11,67768,18553
11,68212,19035
11,68657,18287
11,69100,18712
11,69545,19715
11,69988,19511
11,70433,18005
11,70877,16570
11,71322,18195
11,71765,18130
11,72210,17951
11,72653,17264
11,73098,17641
11,73542,17473
11,73987,17721
11,74430,17822
11,74875,17759
11,75318,18713
11,75763,16761
11,76207,16456
11,76652,17482
11,77095,16682
11,77540,18902
11,77985,18036
11,78428,18441
11,78873,17164
11,79317,18017
11,79762,16567
11,80205,17166
11,80650,18023
11,81093,16614
11,81538,17002
11,81982,20304
11,82427,22534
11,82870,28848
11,83315,45382
11,83758,78814
11,84203,138691
11,84647,233954
11,85092,384817
11,85535,572095
11,85980,822487
11,86423,1106959
11,86868,1417582
11,87312,1688774
11,87757,1851173
11,88200,1902555
11,88645,1826791
11,89088,1639242
11,89533,1420648
11,89978,1235982
11,90422,1114671
11,90867,1034689
11,91310,986715
11,91755,924893
11,92198,855835
11,92643,754232
11,93087,628721
11,93532,520712
11,93975,412313
11,94420,320426
11,94863,255536
11,95308,203650
11,95752,170195
11,96197,144012
11,96640,121347
11,97085,106496
11,97528,92585
11,97973,81615
11,98417,73021
11,98862,69554
11,99305,66512
11,99750,60498
12,00193,56135
12,00638,54843
12,01082,48374
12,01527,47512
12,01970,43880
12,02415,43928
12,02860,40862
12,03303,40775
12,03748,39732
12,04192,38001
12,04637,36658
12,05080,32817
12,05525,33200
12,05968,32770
12,06413,33374
12,06857,31955
12,07302,31865
12,07745,32348
12,08190,30146
12,08633,29908
12,09078,29871
12,09522,29343
12,09967,29209
12,10410,30327
12,10855,33065
12,11298,32687
12,11743,35396
12,12187,39607
12,12632,51097
12,13075,73280
12,13520,110555
12,13963,176613
12,14408,270958
12,14853,379471
12,15297,500286
12,15742,600813
12,16185,669404
12,16630,684768
12,17073,648516
12,17518,571959
12,17962,490437
12,18407,401203
12,18850,323632
12,19295,270452
12,19738,253034
12,20183,272451
12,20627,332443
12,21072,428333
12,21515,561742
12,21960,701009
12,22403,847213
12,22848,983267
12,23292,1103531
12,23737,1187420
12,24180,1222808
12,24625,1216053
12,25068,1142479
12,25513,1033727
12,25957,881790
12,26402,719277
12,26847,573050
12,27290,443743
12,27735,343139
12,28178,268943
12,28623,215131
12,29067,180450
12,29512,150900
12,29955,127854
12,30400,108710
12,30843,101786
12,31288,90638
12,31732,83817
12,32177,76517
12,32620,70239
12,33065,65189
12,33508,60497
12,33953,56671
12,34397,51720
12,34842,49996
12,35285,48439
12,35730,46352
12,36173,47377
12,36618,46811
12,37062,44865
12,37507,43760
12,37950,44168
12,38395,39438
12,38840,37381
12,39283,36514
12,39728,34838
12,40172,34951
12,40617,33927
12,41060,34476
12,41505,31500
12,41948,32738
12,42393,31842
12,42837,29875
12,43282,29450
12,43725,28250
12,44170,29910
12,44613,26140
12,45058,28009
12,45502,29032
12,45947,26327
12,46390,26797
12,46835,26485
12,47278,28663
12,47723,33277
12,48167,40624
12,48612,55375
12,49055,93357
12,49500,145944
12,49943,239006
12,50388,355492
12,50833,502267
12,51277,669072
12,51722,812535
12,52165,913537
12,52610,942387
12,53053,881325
12,53498,765029
12,53942,628474
12,54387,491007
12,54830,376515
12,55275,289195
12,55718,227052
12,56163,182062
12,56607,149627
12,57052,127837
12,57495,109088
12,57940,94377
12,58383,84776
12,58828,79067
12,59272,70303
12,59717,66214
12,60160,59471
12,60605,57310
12,61048,55212
12,61493,50627
12,61937,48339
12,62382,46485
12,62827,43421
12,63270,41771
12,63715,40601
12,64158,40030
12,64603,42526
12,65047,42439
12,65492,38921
12,65935,36774
12,66380,37729
12,66823,35389
12,67268,34255
12,67712,35183
12,68157,33114
12,68600,32100
12,69045,30526
12,69488,31636
12,69933,28932
12,70377,30295
12,70822,30723
12,71265,28861
12,71710,29623
12,72153,28754
12,72598,27662
12,73042,29328
12,73487,30317
12,73930,28447
12,74375,28007
12,74818,28246
12,75263,27049
12,75708,26761
12,76152,29008
12,76597,30218
12,77040,34394
12,77485,47896
12,77928,68919
12,78373,112750
12,78817,178957
12,79262,281635
12,79705,394492
12,80150,528929
12,80593,640178
12,81038,718736
12,81482,747599
12,81927,716946
12,82370,635361
12,82815,535161
12,83258,431980
12,83703,339188
12,84147,265350
12,84592,206487
12,85035,169165
12,85480,135100
12,85923,112057
12,86368,94936
12,86812,88954
12,87257,78499
12,87702,79411
12,88145,87193
12,88590,106269
12,89033,142326
12,89478,198531
12,89922,271174
12,90367,355348
12,90810,440784
12,91255,516750
12,91698,565421
12,92143,566930
12,92587,549559
12,93032,484227
12,93475,414014
12,93920,346532
12,94363,282355
12,94808,219868
12,95252,174976
12,95697,140536
12,96140,116956
12,96585,98490
12,97028,87273
12,97473,73553
12,97917,64079
12,98362,60170
12,98805,57225
12,99250,52018
12,99695,48699
13,00138,44483
13,00583,44552
13,01027,41866
13,01472,41839
13,01915,41077
13,02360,37825
13,02803,36764
13,03248,34956
13,03692,34684
13,04137,35645
13,04580,32204
13,05025,35046
13,05468,31857
13,05913,32361
13,06357,30890
13,06802,28660
13,07245,29927
13,07690,30121
13,08133,30187
13,08578,28918
13,09022,29546
13,09467,27258
13,09910,26914
13,10355,28778
13,10798,27469
13,11243,28264
13,11688,26443
13,12132,27953
13,12577,27020
13,13020,28575
13,13465,36056
13,13908,42936
13,14353,63507
13,14797,90956
13,15242,142074
13,15685,223057
13,16130,328643
13,16573,470933
13,17018,667250
13,17462,872464
13,17907,1094143
13,18350,1332639
13,18795,1534417
13,19238,1670571
13,19683,1688598
13,20127,1579707
13,20572,1366939
13,21015,1100235
13,21460,868180
13,21903,666389
13,22348,512555
13,22792,407338
13,23237,323075
13,23682,268746
13,24125,229560
13,24570,198813
13,25013,166754
13,25458,149108
13,25902,135915
13,26347,122699
13,26790,110052
13,27235,105009
13,27678,95294
13,28123,88228
13,28567,84273
13,29012,79781
13,29455,74926
13,29900,73071
13,30343,68899
13,30788,67408
13,31232,63337
13,31677,59500
13,32120,57788
13,32565,56376
13,33008,54500
13,33453,51340
13,33897,49822
13,34342,48780
13,34785,48458
13,35230,47675
13,35675,44639
13,36118,46757
13,36563,43706
13,37007,43462
13,37452,40517
13,37895,40719
13,38340,38224
13,38783,37475
13,39228,38760
13,39672,36951
13,40117,36685
13,40560,36949
13,41005,38678
13,41448,36778
13,41893,35896
13,42337,35424
13,42782,34796
13,43225,33430
13,43670,34906
13,44113,35141
13,44558,32726
13,45002,35524
13,45447,32191
13,45890,32774
13,46335,32085
13,46778,32160
13,47223,33727
13,47667,32802
13,48112,30629
13,48557,31826
13,49000,33013
13,49445,31018
13,49888,30714
13,50333,32543
13,50777,30044
13,51222,31147
13,51665,32544
13,52110,35239
13,52553,42902
13,52998,54494
13,53442,77188
13,53887,119771
13,54330,172647
13,54775,256292
13,55218,358281
13,55663,469468
13,56107,593187
13,56552,692751
13,56995,754728
13,57440,777600
13,57883,737766
13,58328,688178
13,58772,588188
13,59217,487176
13,59660,398416
13,60105,327795
13,60550,266855
13,60993,219983
13,61438,183578
13,61882,158088
13,62327,134269
13,62770,117863
13,63215,103713
13,63658,95399
13,64103,87254
13,64547,80528
13,64992,74864
13,65435,68359
13,65880,64500
13,66323,60542
13,66768,59903
13,67212,56791
13,67657,52761
13,68100,52746
13,68545,48347
13,68988,46951
13,69433,47903
13,69877,45159
13,70322,44278
13,70765,41102
13,71210,40902
13,71653,40873
13,72098,37902
13,72543,39202
13,72987,37662
13,73432,36095
13,73875,37929
13,74320,35224
13,74763,34565
13,75208,33508
13,75652,35952
13,76097,35402
13,76540,31642
13,76985,33535
13,77428,32294
13,77873,31373
13,78317,32173
13,78762,32759
13,79205,29876
13,79650,31600
13,80093,30289
13,80538,30060
13,80982,29585
13,81427,31528
13,81870,28122
13,82315,31046
13,82758,30061
13,83203,28601
13,83647,29053
13,84092,32153
13,84537,30844
13,84980,29404
13,85425,29883
13,85868,31305
13,86313,32662
13,86757,33867
13,87202,32797
13,87645,32992
13,88090,31736
13,88533,32282
13,88978,31476
13,89422,30764
13,89867,30605
13,90310,31956
13,90755,30938
13,91198,29021
13,91643,29039
13,92087,28376
13,92532,30852
13,92975,28961
13,93420,28806
13,93863,28324
13,94308,26938
13,94752,28202
13,95197,25919
13,95640,27236
13,96085,25201
13,96530,26278
13,96973,26209
13,97418,26834
13,97862,25955
13,98307,27271
13,98750,26307
13,99195,27319
13,99638,26016
14,00083,26308
14,00527,25543
14,00972,26244
14,01415,24863
14,01860,26834
14,02303,23671
14,02748,26465
14,03192,26986
14,03637,26349
14,04080,28055
14,04525,27456
14,04968,27054
14,05413,27262
14,05857,27091
14,06302,25845
14,06745,26196
14,07190,25037
14,07633,27257
14,08078,26237
14,08523,25784
14,08967,26011
14,09412,25057
14,09855,26314
14,10300,24131
14,10743,25073
14,11188,25744
14,11632,24379
14,12077,25902
14,12520,25910
14,12965,26916
14,13408,25113
14,13853,26522
14,14297,24387
14,14742,25614
14,15185,24563
14,15630,26991
14,16073,25642
14,16518,27378
14,16962,24921
14,17407,26078
14,17850,25429
14,18295,25306
14,18738,24063
14,19183,26781
14,19627,26094
14,20072,25913
14,20515,23791
14,20960,27410
14,21405,24228
14,21848,25204
14,22293,24130
14,22737,24412
14,23182,24047
14,23625,26439
14,24070,24726
14,24513,25762
14,24958,24964
14,25402,27043
14,25847,25087
14,26290,24454
14,26735,25163
14,27178,24853
14,27623,27055
14,28067,25371
14,28512,26879
14,28955,27226
14,29400,25745
14,29843,25663
14,30288,24208
14,30732,24374
14,31177,26103
14,31620,24904
14,32065,26706
14,32508,25837
14,32953,24649
14,33398,25180
14,33842,24287
14,34287,24472
14,34730,23532
14,35175,24261
14,35618,24151
14,36063,25424
14,36507,24459
14,36952,23976
14,37395,25729
14,37840,23925
14,38283,25160
14,38728,27072
14,39172,24628
14,39617,26183
14,40060,25278
14,40505,25536
14,40948,25610
14,41393,23906
14,41837,25046
14,42282,24995
14,42725,24632
14,43170,24581
14,43613,25296
14,44058,24877
14,44502,24172
14,44947,25387
14,45392,24645
14,45835,24693
14,46280,25446
14,46723,25336
14,47168,25519
14,47612,23953
14,48057,25584
14,48500,24748
14,48945,25610
14,49388,25259
14,49833,25680
14,50277,26018
14,50722,26729
14,51165,24625
14,51610,23110
14,52053,23140
14,52498,25041
14,52942,23221
14,53387,23441
14,53830,23064
14,54275,23856
14,54718,25761
14,55163,23576
14,55607,24974
14,56052,23570
14,56495,25402
14,56940,25535
14,57385,23231
14,57828,23553
14,58273,25163
14,58717,25764
14,59162,26913
14,59605,24303
14,60050,24266
14,60493,25142
14,60938,23595
14,61382,23926
14,61827,24244
14,62270,24746
14,62715,26347
14,63158,24921
14,63603,25045
14,64047,23343
14,64492,24097
14,64935,25522
14,65380,26103
14,65823,25594
14,66268,28394
14,66712,33453
14,67157,40016
14,67600,53374
14,68045,73284
14,68488,101831
14,68933,144326
14,69378,191857
14,69822,246778
14,70267,302408
14,70710,357546
14,71155,391653
14,71598,411090
14,72043,410556
14,72487,397023
14,72932,368837
14,73375,327910
14,73820,284260
14,74263,244107
14,74708,210978
14,75152,176611
14,75597,150190
14,76040,128971
14,76485,109531
14,76928,96651
14,77373,84512
14,77817,78261
14,78262,71586
14,78705,63834
14,79150,57906
14,79593,54690
14,80038,53437
14,80482,47855
14,80927,47165
14,81372,44392
14,81815,43492
14,82260,43453
14,82703,39621
14,83148,39538
14,83592,38874
14,84037,37453
14,84480,37884
14,84925,37733
14,85368,35558
14,85813,36353
14,86257,33514
14,86702,35927
14,87145,32848
14,87590,33529
14,88033,33075
14,88478,31632
14,88922,32225
14,89367,31837
14,89810,32145
14,90255,31481
14,90698,30671
14,91143,31394
14,91587,31053
14,92032,30172
14,92475,29235
14,92920,28930
14,93363,29075
14,93808,27879
14,94253,28050
14,94697,29036
14,95142,27782
14,95585,27887
14,96030,29152
14,96473,27910
14,96918,29653
14,97362,29074
14,97807,29092
14,98250,28608
14,98695,26208
14,99138,29877
14,99583,28788
15,00027,28017
15,00472,26915
15,00915,26881
15,01360,26772
15,01803,29431
15,02248,28344
15,02692,26283
15,03137,26689
15,03580,25685
15,04025,27841
15,04468,27759
15,04913,27572
15,05357,27039
15,05802,27042
15,06247,26028
15,06690,27412
15,07135,27651
15,07578,27425
15,08023,26210
15,08467,25696
15,08912,26345
15,09355,24693
15,09800,28668
15,10243,26484
15,10688,26339
15,11132,26666
15,11577,26713
15,12020,25212
15,12465,26797
15,12908,25665
15,13353,24930
15,13797,25304
15,14242,25157
15,14685,26716
15,15130,25467
15,15573,26829
15,16018,27308
15,16462,26618
15,16907,26483
15,17350,28363
15,17795,26458
15,18240,25622
15,18683,26777
