D:\MassHunter\GCMS\1\data\Amal\Constant flow\110C\110C_1ml-min_6C-min_2.D Wed Sep 04 16:01:17 2024
Start of data points
5,34108	223982
5,34522	217955
5,34933	210922
5,35345	210277
5,35758	199934
5,36170	196435
5,36582	193250
5,36995	185230
5,37407	182413
5,37818	173330
5,38232	172771
5,38643	166436
5,39055	166684
5,39468	163506
5,39880	155828
5,40292	157900
5,40705	151315
5,41117	148676
5,41528	147154
5,41940	143591
5,42353	140273
5,42765	138438
5,43177	138408
5,43590	133563
5,44002	133175
5,44413	133586
5,44827	131598
5,45238	130329
5,45650	123142
5,46063	125644
5,46475	123949
5,46887	120704
5,47300	123129
5,47712	119217
5,48123	117458
5,48537	116220
5,48948	117029
5,49360	116844
5,49773	115533
5,50185	111966
5,50597	110696
5,51010	110590
5,51422	111208
5,51833	108337
5,52245	104532
5,52658	106899
5,53070	106981
5,53482	104416
5,53895	104429
5,54307	102596
5,54718	107859
5,55132	102414
5,55543	100695
5,55955	101599
5,56368	101479
5,56780	100010
5,57192	102104
5,57605	99026
5,58017	98761
5,58428	98823
5,58842	96697
5,59253	98830
5,59665	94313
5,60078	94131
5,60490	97027
5,60902	94499
5,61313	93234
5,61727	95292
5,62138	91153
5,62550	93725
5,62963	90870
5,63375	92834
5,63787	90981
5,64200	90962
5,64612	91568
5,65023	89103
5,65437	92359
5,65848	89097
5,66260	89530
5,66673	87896
5,67085	89974
5,67497	84776
5,67910	89881
5,68322	89876
5,68733	85284
5,69147	87666
5,69558	87480
5,69970	87353
5,70382	85167
5,70795	84014
5,71207	84981
5,71618	81495
5,72032	84694
5,72443	82314
5,72855	83050
5,73268	81041
5,73680	83818
5,74092	81939
5,74505	85062
5,74917	80724
5,75328	85334
5,75742	79788
5,76153	82056
5,76565	78242
5,76978	77226
5,77390	80744
5,77802	80355
5,78215	80706
5,78627	81328
5,79038	77892
5,79450	80389
5,79863	80979
5,80275	81475
5,80687	85676
5,81100	83806
5,81512	83786
5,81923	86438
5,82337	83881
5,82748	84288
5,83160	82108
5,83573	81454
5,83985	80517
5,84397	85991
5,84810	84826
5,85222	85450
5,85633	85836
5,86047	83251
5,86458	86060
5,86870	85138
5,87283	90790
5,87695	87648
5,88107	91430
5,88518	87637
5,88932	90728
5,89343	87001
5,89755	87810
5,90168	87832
5,90580	87871
5,90992	88795
5,91405	89118
5,91817	86638
5,92228	86690
5,92642	85872
5,93053	85343
5,93465	84299
5,93878	85495
5,94290	83803
5,94702	85077
5,95115	83266
5,95527	82903
5,95938	82529
5,96352	80452
5,96763	80143
5,97175	78370
5,97587	76554
5,98000	77710
5,98412	75888
5,98823	74694
5,99237	73799
5,99648	71448
6,00060	75468
6,00473	74452
6,00885	73297
6,01297	73869
6,01710	71194
6,02122	74230
6,02533	69329
6,02947	69853
6,03358	68688
6,03770	69108
6,04183	69741
6,04595	70419
6,05007	68792
6,05420	69883
6,05832	76356
6,06243	95400
6,06655	120252
6,07068	168912
6,07480	245488
6,07892	339211
6,08305	469709
6,08717	597617
6,09128	730222
6,09542	831924
6,09953	909346
6,10365	970703
6,10778	980250
6,11190	976771
6,11602	963388
6,12015	932276
6,12427	903328
6,12838	869194
6,13252	821139
6,13663	777229
6,14075	748350
6,14488	718471
6,14900	687455
6,15312	650221
6,15723	623734
6,16137	594722
6,16548	563410
6,16960	540284
6,17373	505255
6,17785	487621
6,18197	460331
6,18610	438506
6,19022	423114
6,19433	391725
6,19847	369428
6,20258	359118
6,20670	336757
6,21083	313772
6,21495	292898
6,21907	278910
6,22320	255391
6,22732	240833
6,23143	223601
6,23557	207988
6,23968	194164
6,24380	178671
6,24792	169624
6,25205	158857
6,25617	151832
6,26028	143949
6,26442	131573
6,26853	122427
6,27265	116888
6,27678	111820
6,28090	106797
6,28502	99577
6,28915	97689
6,29327	89962
6,29738	87619
6,30152	84462
6,30563	80525
6,30975	76430
6,31388	73572
6,31800	73648
6,32212	73170
6,32625	72795
6,33037	67818
6,33448	64772
6,33860	64676
6,34273	63593
6,34685	62828
6,35097	60386
6,35510	57934
6,35922	60274
6,36333	56740
6,36747	57996
6,37158	59239
6,37570	57517
6,37983	56484
6,38395	55821
6,38807	54068
6,39220	51841
6,39632	54908
6,40043	52945
6,40457	53215
6,40868	51876
6,41280	52578
6,41693	51644
6,42105	51231
6,42517	51310
6,42928	50121
6,43342	46223
6,43753	49278
6,44165	50627
6,44578	49554
6,44990	48667
6,45402	49388
6,45815	49925
6,46227	47055
6,46638	48727
6,47052	50245
6,47463	46869
6,47875	47749
6,48288	45812
6,48700	45790
6,49112	47674
6,49525	46347
6,49937	44727
6,50348	46168
6,50762	45262
6,51173	47261
6,51585	44796
6,51997	46348
6,52410	45498
6,52822	45541
6,53233	43574
6,53647	45628
6,54058	46263
6,54470	45687
6,54883	45992
6,55295	45183
6,55707	44958
6,56120	43405
6,56532	44483
6,56943	42521
6,57357	43084
6,57768	44133
6,58180	44155
6,58593	41858
6,59005	41680
6,59417	44051
6,59830	42313
6,60242	42633
6,60653	42215
6,61065	42141
6,61478	41685
6,61890	43866
6,62302	42631
6,62715	41530
6,63127	43381
6,63538	41839
6,63952	43358
6,64363	43447
6,64775	42771
6,65188	42348
6,65600	40208
6,66012	41550
6,66425	42052
6,66837	41613
6,67248	41873
6,67662	42297
6,68073	40718
6,68485	40225
6,68898	40665
6,69310	39671
6,69722	39881
6,70133	40564
6,70547	39594
6,70958	37647
6,71370	38086
6,71783	40983
6,72195	39072
6,72607	40870
6,73020	37627
6,73432	39803
6,73843	38508
6,74257	40071
6,74668	39579
6,75080	38647
6,75493	39948
6,75905	38488
6,76317	38848
6,76730	40811
6,77142	37275
6,77553	37886
6,77967	37388
6,78378	38416
6,78790	37865
6,79202	40083
6,79615	38967
6,80027	37953
6,80438	39112
6,80852	38938
6,81263	39964
6,81675	38011
6,82088	39735
6,82500	38597
6,82912	40522
6,83325	40020
6,83737	39675
6,84148	37081
6,84562	39667
6,84973	38756
6,85385	39280
6,85798	39694
6,86210	40093
6,86622	39201
6,87035	39272
6,87447	38520
6,87858	38806
6,88270	38208
6,88683	37027
6,89095	37583
6,89507	36320
6,89920	37381
6,90332	36246
6,90743	35130
6,91157	35228
6,91568	36901
6,91980	36033
6,92393	36406
6,92805	37345
6,93217	36510
6,93630	36292
6,94042	33800
6,94453	34462
6,94867	35926
6,95278	33967
6,95690	36377
6,96103	35688
6,96515	34505
6,96927	36734
6,97338	35577
6,97752	35350
6,98163	35369
6,98575	34677
6,98988	35238
6,99400	33206
6,99812	34560
7,00225	35549
7,00637	34956
7,01048	36069
7,01462	33958
7,01873	36059
7,02285	36843
7,02698	35289
7,03110	38042
7,03522	36535
7,03935	38254
7,04347	35838
7,04758	37101
7,05172	35209
7,05583	35325
7,05995	35074
7,06407	35715
7,06820	34532
7,07232	34547
7,07643	34336
7,08057	36089
7,08468	33678
7,08880	34354
7,09293	31884
7,09705	34891
7,10117	33746
7,10530	33825
7,10942	34792
7,11353	31805
7,11767	34143
7,12178	32915
7,12590	33161
7,13003	32039
7,13415	33240
7,13827	32878
7,14240	32944
7,14652	31954
7,15063	31499
7,15477	30989
7,15888	30255
7,16300	31767
7,16712	31306
7,17125	29669
7,17537	31007
7,17948	32781
7,18362	31028
7,18773	30949
7,19185	30428
7,19598	31343
7,20010	33366
7,20422	30382
7,20835	29789
7,21247	31690
7,21658	31429
7,22072	31159
7,22483	30499
7,22895	31300
7,23308	30540
7,23720	30826
7,24132	30893
7,24545	31029
7,24957	30809
7,25368	29903
7,25780	31411
7,26193	29626
7,26605	29860
7,27017	28758
7,27430	29416
7,27842	29058
7,28253	29448
7,28667	30444
7,29078	30895
7,29490	30298
7,29903	28630
7,30315	30541
7,30727	29041
7,31140	29853
7,31552	29455
7,31963	28803
7,32377	29745
7,32788	29590
7,33200	28422
7,33613	30517
7,34025	29099
7,34437	30029
7,34848	27863
7,35262	29022
7,35673	28663
7,36085	29599
7,36498	29442
7,36910	28841
7,37322	27654
7,37735	28799
7,38147	28658
7,38558	27752
7,38972	29985
7,39383	30783
7,39795	26916
7,40208	27940
7,40620	27330
7,41032	27925
7,41445	27720
7,41857	29072
7,42268	29289
7,42682	28953
7,43093	27177
7,43505	29654
7,43917	26040
7,44330	28347
7,44742	28181
7,45153	27769
7,45567	27678
7,45978	28417
7,46390	26828
7,46803	27815
7,47215	27003
7,47627	28579
7,48040	27285
7,48452	27449
7,48863	27586
7,49277	27930
7,49688	27734
7,50100	29203
7,50513	28750
7,50925	26777
7,51337	27151
7,51750	27734
7,52162	27562
7,52573	25971
7,52985	26186
7,53398	26747
7,53810	27584
7,54222	27447
7,54635	27409
7,55047	25943
7,55458	27332
7,55872	26604
7,56283	26996
7,56695	27322
7,57108	28200
7,57520	26947
7,57932	25973
7,58345	27543
7,58757	26213
7,59168	27884
7,59582	32080
7,59993	38394
7,60405	49181
7,60818	74696
7,61230	113506
7,61642	176978
7,62053	267393
7,62467	393078
7,62878	543953
7,63290	712463
7,63703	881067
7,64115	1041532
7,64527	1167796
7,64940	1269226
7,65352	1312582
7,65763	1347471
7,66177	1337813
7,66588	1316029
7,67000	1274494
7,67413	1225549
7,67825	1165344
7,68237	1084549
7,68650	1020480
7,69062	956597
7,69473	886626
7,69887	818705
7,70298	763591
7,70710	702176
7,71122	647897
7,71535	595244
7,71947	542148
7,72358	485926
7,72772	440925
7,73183	403019
7,73595	361614
7,74008	322060
7,74420	286599
7,74832	256276
7,75245	231025
7,75657	201756
7,76068	182360
7,76482	164013
7,76893	147049
7,77305	131868
7,77718	121892
7,78130	109323
7,78542	101300
7,78955	92200
7,79367	84727
7,79778	77244
7,80190	75339
7,80603	69121
7,81015	63450
7,81427	60830
7,81840	58143
7,82252	56334
7,82663	52701
7,83077	50641
7,83488	49012
7,83900	46815
7,84313	44949
7,84725	42407
7,85137	42420
7,85550	41646
7,85962	38793
7,86373	40091
7,86787	37940
7,87198	37499
7,87610	35225
7,88023	34674
7,88435	34446
7,88847	34016
7,89258	34492
7,89672	34482
7,90083	33414
7,90495	33036
7,90908	33261
7,91320	30679
7,91732	29333
7,92145	31080
7,92557	30907
7,92968	29729
7,93382	31050
7,93793	30868
7,94205	29100
7,94618	29136
7,95030	28987
7,95442	30194
7,95855	30385
7,96267	27666
7,96678	26813
7,97092	25783
7,97503	27230
7,97915	26316
7,98327	27134
7,98740	26898
7,99152	26245
7,99563	26177
7,99977	26694
8,00388	25890
8,00800	25534
8,01213	24946
8,01625	25747
8,02037	24868
8,02450	24760
8,02862	24256
8,03273	24116
8,03687	25518
8,04098	25322
8,04510	26896
8,04923	25428
8,05335	25025
8,05747	27058
8,06160	25818
8,06572	24518
8,06983	25456
8,07395	26120
8,07808	25442
8,08220	25757
8,08632	26075
8,09045	25470
8,09457	24864
8,09868	25862
8,10282	23262
8,10693	25147
8,11105	24570
8,11518	25364
8,11930	23540
8,12342	23977
8,12755	23501
8,13167	24533
8,13578	25558
8,13992	23989
8,14403	24002
8,14815	23601
8,15228	23159
8,15640	22589
8,16052	24007
8,16463	22933
8,16877	22949
8,17288	25057
8,17700	23873
8,18113	23886
8,18525	21798
8,18937	22467
8,19350	24088
8,19762	22478
8,20173	21803
8,20587	22210
8,20998	21323
8,21410	22601
8,21823	22342
8,22235	21461
8,22647	22564
8,23060	23129
8,23472	22112
8,23883	21312
8,24297	21082
8,24708	20239
8,25120	22090
8,25532	20679
8,25945	21535
8,26357	22961
8,26768	21982
8,27182	21234
8,27593	22265
8,28005	23432
8,28418	21868
8,28830	22085
8,29242	21613
8,29655	23093
8,30067	23606
8,30478	23052
8,30892	23060
8,31303	20976
8,31715	22516
8,32128	20888
8,32540	22304
8,32952	21627
8,33365	22580
8,33777	21216
8,34188	21558
8,34600	20885
8,35013	20219
8,35425	19402
8,35837	20581
8,36250	20350
8,36662	21486
8,37073	21260
8,37487	20657
8,37898	20085
8,38310	21806
8,38723	19874
8,39135	20832
8,39547	20681
8,39960	19993
8,40372	20601
8,40783	20311
8,41197	20373
8,41608	20114
8,42020	19527
8,42433	20021
8,42845	20352
8,43257	19896
8,43668	19688
8,44082	20436
8,44493	19376
8,44905	21091
8,45318	19931
8,45730	20049
8,46142	20500
8,46555	20054
8,46967	19506
8,47378	18085
8,47792	19367
8,48203	21645
8,48615	19856
8,49028	21225
8,49440	20382
8,49852	19648
8,50265	19916
8,50677	20131
8,51088	18905
8,51502	19533
8,51913	20122
8,52325	20535
8,52737	18960
8,53150	18866
8,53562	18385
8,53973	20654
8,54387	18584
8,54798	18614
8,55210	19997
8,55623	17954
8,56035	18317
8,56447	18606
8,56860	19656
8,57272	19709
8,57683	24713
8,58097	28982
8,58508	42214
8,58920	60667
8,59333	89791
8,59745	138095
8,60157	192427
8,60570	271001
8,60982	358731
8,61393	455840
8,61805	560325
8,62218	647409
8,62630	719146
8,63042	768357
8,63455	795089
8,63867	804939
8,64278	791265
8,64692	763234
8,65103	735324
8,65515	686084
8,65928	633337
8,66340	588449
8,66752	545590
8,67165	495610
8,67577	442598
8,67988	400085
8,68402	361551
8,68813	317264
8,69225	279070
8,69638	247348
8,70050	220012
8,70462	194164
8,70873	166842
8,71287	147735
8,71698	129929
8,72110	116921
8,72523	100901
8,72935	90518
8,73347	81442
8,73760	71668
8,74172	68151
8,74583	59890
8,74997	58933
8,75408	52070
8,75820	50300
8,76233	46286
8,76645	43954
8,77057	42061
8,77470	39645
8,77882	37325
8,78293	36380
8,78707	35903
8,79118	33747
8,79530	32035
8,79943	30937
8,80355	30856
8,80767	30062
8,81178	29017
8,81592	29798
8,82003	27727
8,82415	27214
8,82828	28951
8,83240	27619
8,83652	27660
8,84065	27455
8,84477	27222
8,84888	26172
8,85302	24989
8,85713	25526
8,86125	25937
8,86538	23438
8,86950	23693
8,87362	23611
8,87775	24073
8,88187	22197
8,88598	22846
8,89012	22880
8,89423	22867
8,89835	22798
8,90247	21557
8,90660	19748
8,91072	20674
8,91483	20604
8,91897	20150
8,92308	20048
8,92720	19789
8,93133	21033
8,93545	19926
8,93957	18527
8,94370	19838
8,94782	20054
8,95193	18748
8,95607	19657
8,96018	19080
8,96430	18372
8,96843	17730
8,97255	18827
8,97667	18069
8,98080	18323
8,98492	17138
8,98903	18010
8,99315	19048
8,99728	19405
9,00140	20048
9,00552	18938
9,00965	19723
9,01377	21935
9,01788	20492
9,02202	21474
9,02613	20619
9,03025	21120
9,03438	21178
9,03850	21536
9,04262	20316
9,04675	20943
9,05087	20857
9,05498	21009
9,05912	18384
9,06323	18365
9,06735	17643
9,07148	18335
9,07560	17792
9,07972	17795
9,08383	18200
9,08797	17725
9,09208	16889
9,09620	17047
9,10033	16283
9,10445	15908
9,10857	16687
9,11270	16605
9,11682	15350
9,12093	16585
9,12507	17184
9,12918	16345
9,13330	16842
9,13743	15802
9,14155	15815
9,14567	15670
9,14980	16362
9,15392	15437
9,15803	16001
9,16217	16073
9,16628	16665
9,17040	14966
9,17452	16107
9,17865	14536
9,18277	15306
9,18688	14918
9,19102	15370
9,19513	16246
9,19925	14091
9,20338	16353
9,20750	14742
9,21162	15018
9,21575	16201
9,21987	16044
9,22398	14927
9,22812	14774
9,23223	15513
9,23635	15478
9,24048	15349
9,24460	15665
9,24872	14219
9,25285	13788
9,25697	16922
9,26108	15128
9,26520	14706
9,26933	14824
9,27345	14706
9,27757	15468
9,28170	14694
9,28582	14489
9,28993	15246
9,29407	15597
9,29818	14961
9,30230	14908
9,30643	15310
9,31055	14214
9,31467	15451
9,31880	16834
9,32292	14969
9,32703	15720
9,33117	14962
9,33528	14927
9,33940	17005
9,34353	16335
9,34765	15670
9,35177	16103
9,35588	14418
9,36002	14790
9,36413	15884
9,36825	15503
9,37238	13550
9,37650	15079
9,38062	14812
9,38475	14157
9,38887	14588
9,39298	14266
9,39712	14258
9,40123	13116
9,40535	14253
9,40948	13706
9,41360	14183
9,41772	13173
9,42185	14467
9,42597	14773
9,43008	13387
9,43422	14418
9,43833	14336
9,44245	13731
9,44657	13661
9,45070	14648
9,45482	15221
9,45893	14898
9,46307	14323
9,46718	14872
9,47130	13897
9,47543	14412
9,47955	13965
9,48367	15074
9,48780	14237
9,49192	14748
9,49603	14967
9,50017	15341
9,50428	15134
9,50840	14191
9,51253	13352
9,51665	13686
9,52077	14292
9,52490	14276
9,52902	13513
9,53313	14136
9,53725	13630
9,54138	12505
9,54550	13350
9,54962	14128
9,55375	13447
9,55787	13629
9,56198	13157
9,56612	13841
9,57023	13733
9,57435	14629
9,57848	12957
9,58260	13533
9,58672	14026
9,59085	13388
9,59497	13666
9,59908	13770
9,60322	14203
9,60733	13622
9,61145	13921
9,61558	14577
9,61970	13212
9,62382	14600
9,62793	14020
9,63207	13956
9,63618	14842
9,64030	15116
9,64443	17691
9,64855	21787
9,65267	31513
9,65680	49376
9,66092	81940
9,66503	134561
9,66917	219549
9,67328	337687
9,67740	498108
9,68153	695374
9,68565	915481
9,68977	1156344
9,69390	1373015
9,69802	1578665
9,70213	1734299
9,70627	1852752
9,71038	1902746
9,71450	1900378
9,71862	1840131
9,72275	1727916
9,72687	1609189
9,73098	1464960
9,73512	1304517
9,73923	1167881
9,74335	1019235
9,74748	886441
9,75160	756518
9,75572	651636
9,75985	563322
9,76397	473673
9,76808	398588
9,77222	340756
9,77633	288939
9,78045	255624
9,78458	217569
9,78870	187149
9,79282	167891
9,79695	146923
9,80107	130637
9,80518	115915
9,80930	107267
9,81343	96141
9,81755	85893
9,82167	82072
9,82580	73849
9,82992	71593
9,83403	65702
9,83817	61815
9,84228	55819
9,84640	55879
9,85053	49615
9,85465	48661
9,85877	46811
9,86290	44515
9,86702	40543
9,87113	41253
9,87527	39202
9,87938	36887
9,88350	34870
9,88763	34156
9,89175	35450
9,89587	33401
9,89998	31508
9,90412	30584
9,90823	30428
9,91235	27665
9,91648	26211
9,92060	26071
9,92472	26148
9,92885	25215
9,93297	24264
9,93708	24985
9,94122	24181
9,94533	22376
9,94945	24319
9,95358	23257
9,95770	21812
9,96182	22923
9,96595	20714
9,97007	21733
9,97418	21480
9,97832	20918
9,98243	20318
9,98655	20960
9,99067	18854
9,99480	18986
9,99892	18957
10,00303	18144
10,00717	18603
10,01128	19268
10,01540	18037
10,01953	18651
10,02365	16766
10,02777	17991
10,03190	17196
10,03602	16727
10,04013	16437
10,04427	17065
10,04838	16713
10,05250	16335
10,05663	16423
10,06075	16506
10,06487	16340
10,06900	15914
10,07312	15069
10,07723	15539
10,08135	15375
10,08548	14920
10,08960	14671
10,09372	15394
10,09785	14719
10,10197	15178
10,10608	14979
10,11022	14846
10,11433	14872
10,11845	15426
10,12258	14809
10,12670	14146
10,13082	13589
10,13495	14185
10,13907	14209
10,14318	13492
10,14732	14662
10,15143	14071
10,15555	15569
10,15968	13643
10,16380	14055
10,16792	12961
10,17203	13658
10,17617	14163
10,18028	14108
10,18440	15199
10,18853	12696
10,19265	13358
10,19677	12294
10,20090	12561
10,20502	12629
10,20913	13431
10,21327	13259
10,21738	13298
10,22150	14030
10,22563	12766
10,22975	13135
10,23387	13499
10,23800	13795
10,24212	13635
10,24623	11823
10,25037	12988
10,25448	12679
10,25860	14006
10,26272	12321
10,26685	13092
10,27097	13000
10,27508	13446
10,27922	13898
10,28333	13371
10,28745	13005
10,29158	13179
10,29570	12834
10,29982	13355
10,30395	12982
10,30807	12883
10,31218	12840
10,31632	13079
10,32043	14339
10,32455	13647
10,32868	11695
10,33280	12658
10,33692	13581
10,34105	12770
10,34517	12959
10,34928	12888
10,35342	12608
10,35753	12585
10,36165	12729
10,36577	13689
10,36990	13382
10,37402	14204
10,37813	14027
10,38227	14796
10,38638	17110
10,39050	16085
10,39463	16992
10,39875	17041
10,40287	17253
10,40700	18707
10,41112	17931
10,41523	17413
10,41937	16955
10,42348	15193
10,42760	16931
10,43173	15495
10,43585	15841
10,43997	15109
10,44410	15016
10,44822	15242
10,45233	14989
10,45645	14056
10,46058	13232
10,46470	13009
10,46882	12092
10,47295	12908
10,47707	12528
10,48118	12273
10,48532	12104
10,48943	13318
10,49355	13035
10,49768	11537
10,50180	11701
10,50592	11237
10,51005	12114
10,51417	11828
10,51828	11309
10,52242	11042
10,52653	10754
10,53065	11734
10,53478	12034
10,53890	11237
10,54302	10464
10,54713	11103
10,55127	10457
10,55538	10918
10,55950	11349
10,56363	10473
10,56775	11011
10,57187	11161
10,57600	10688
10,58012	11667
10,58423	9813
10,58837	11291
10,59248	10456
10,59660	10341
10,60073	9788
10,60485	10007
10,60897	10720
10,61310	11765
10,61722	11271
10,62133	11879
10,62547	11612
10,62958	10951
10,63370	10286
10,63782	10806
10,64195	11748
10,64607	10844
10,65018	10304
10,65432	10094
10,65843	11055
10,66255	11781
10,66668	10850
10,67080	10857
10,67492	10865
10,67905	11125
10,68317	10161
10,68728	11477
10,69142	10107
10,69553	11153
10,69965	10615
10,70378	9559
10,70790	10627
10,71202	10398
10,71615	11664
10,72027	10442
10,72438	10126
10,72850	10235
10,73263	10148
10,73675	9449
10,74087	9990
10,74500	11120
10,74912	10112
10,75323	9206
10,75737	10494
10,76148	9815
10,76560	10572
10,76973	9611
10,77385	11212
10,77797	13710
10,78210	16369
10,78622	24101
10,79033	35532
10,79447	58142
10,79858	93067
10,80270	143388
10,80683	221096
10,81095	328940
10,81507	439828
10,81918	582784
10,82332	726136
10,82743	864802
10,83155	968123
10,83568	1055347
10,83980	1085839
10,84392	1088965
10,84805	1039420
10,85217	986763
10,85628	897047
10,86042	803063
10,86453	714737
10,86865	604525
10,87278	518348
10,87690	437178
10,88102	368461
10,88515	306929
10,88927	257784
10,89338	215804
10,89752	181794
10,90163	156354
10,90575	130675
10,90987	116281
10,91400	98961
10,91812	89417
10,92223	78343
10,92637	70976
10,93048	62938
10,93460	59331
10,93873	55178
10,94285	49009
10,94697	47388
10,95110	42562
10,95522	39411
10,95933	37955
10,96347	34391
10,96758	33500
10,97170	31400
10,97583	30587
10,97995	27573
10,98407	27518
10,98820	26109
10,99232	23903
10,99643	22353
11,00055	23132
11,00468	22408
11,00880	20084
11,01292	21866
11,01705	20644
11,02117	19319
11,02528	18963
11,02942	18486
11,03353	18891
11,03765	19254
11,04178	16901
11,04590	17156
11,05002	17998
11,05415	16885
11,05827	15849
11,06238	16369
11,06652	16123
11,07063	13807
11,07475	17208
11,07888	15070
11,08300	13894
11,08712	13762
11,09123	14619
11,09537	13665
11,09948	14786
11,10360	14336
11,10773	13632
11,11185	15381
11,11597	13808
11,12010	13071
11,12422	13876
11,12833	12734
11,13247	12936
11,13658	12390
11,14070	12771
11,14483	13107
11,14895	12904
11,15307	10812
11,15720	12583
11,16132	10975
11,16543	12059
11,16957	11500
11,17368	11934
11,17780	12733
11,18192	11986
11,18605	11725
11,19017	11576
11,19428	10665
11,19842	12392
11,20253	11373
11,20665	11676
11,21078	11125
11,21490	11204
11,21902	11557
11,22315	11591
11,22727	11177
11,23138	10318
11,23552	10981
11,23963	11084
11,24375	10490
11,24788	10971
11,25200	10517
11,25612	9724
11,26025	10100
11,26437	9422
11,26848	8961
11,27260	10775
11,27673	9848
11,28085	9828
11,28497	9948
11,28910	10061
11,29322	10420
11,29733	9957
11,30147	10884
11,30558	9340
11,30970	9630
11,31383	9263
11,31795	10141
11,32207	10147
11,32620	10258
11,33032	10127
11,33443	9879
11,33857	8968
11,34268	9803
11,34680	8814
11,35093	9366
11,35505	10177
11,35917	9940
11,36328	9908
11,36742	9566
11,37153	10041
11,37565	9609
11,37978	9878
11,38390	10259
11,38802	9233
11,39215	12027
11,39627	11914
11,40038	12468
11,40452	12450
11,40863	13981
11,41275	14716
11,41688	13361
11,42100	14625
11,42512	13717
11,42925	11139
11,43337	13663
11,43748	12427
11,44162	12207
11,44573	12055
11,44985	11027
11,45397	10192
11,45810	10240
11,46222	9675
11,46633	10596
11,47047	11046
11,47458	10416
11,47870	9714
11,48283	9711
11,48695	9541
11,49107	9845
11,49520	9175
11,49932	8772
11,50343	9326
11,50757	9747
11,51168	10303
11,51580	9076
11,51993	10489
11,52405	12123
11,52817	10675
11,53230	12963
11,53642	12465
11,54053	13492
11,54465	14385
11,54878	13772
11,55290	14608
11,55702	13893
11,56115	14467
11,56527	13403
11,56938	14823
11,57352	12498
11,57763	13883
11,58175	12021
11,58588	11675
11,59000	12718
11,59412	10732
11,59825	11437
11,60237	10848
11,60648	10801
11,61062	10460
11,61473	9802
11,61885	9624
11,62298	9211
11,62710	8589
11,63122	8916
11,63533	9313
11,63947	10192
11,64358	9759
11,64770	9292
11,65183	9251
11,65595	9286
11,66007	8308
11,66420	9480
11,66832	9026
11,67243	9232
11,67657	8291
11,68068	9084
11,68480	9762
11,68893	7745
11,69305	9174
11,69717	8636
11,70130	9225
11,70542	8770
11,70953	8989
11,71367	8422
11,71778	9832
11,72190	8480
11,72602	9254
11,73015	9080
11,73427	9419
11,73838	8765
11,74252	9712
11,74663	9666
11,75075	10119
11,75488	8856
11,75900	9462
11,76312	9046
11,76725	9318
11,77137	8160
11,77548	8693
11,77962	9027
11,78373	8897
11,78785	7450
11,79198	8052
11,79610	7673
11,80022	8003
11,80435	8447
11,80847	8968
11,81258	8080
11,81670	7694
11,82083	8029
11,82495	7995
11,82907	8482
11,83320	7850
11,83732	9094
11,84143	8611
11,84557	7664
11,84968	7983
11,85380	7540
11,85793	7958
11,86205	8275
11,86617	9383
11,87030	7537
11,87442	7352
11,87853	7164
11,88267	7073
11,88678	7609
11,89090	8912
11,89503	8165
11,89915	7559
11,90327	7430
11,90738	9006
11,91152	7270
11,91563	8245
11,91975	8885
11,92388	8622
11,92800	9950
11,93212	10818
11,93625	16398
11,94037	24733
11,94448	42259
11,94862	73912
11,95273	124076
11,95685	208785
11,96098	335437
11,96510	504996
11,96922	733451
11,97335	1017579
11,97747	1322207
11,98158	1654742
11,98572	1968661
11,98983	2219931
11,99395	2404799
11,99808	2478850
12,00220	2463936
12,00632	2337930
12,01043	2131772
12,01457	1897927
12,01868	1654852
12,02280	1383821
12,02693	1159090
12,03105	956967
12,03517	794814
12,03930	651356
12,04342	537150
12,04753	444634
12,05167	372778
12,05578	317366
12,05990	267564
12,06403	229197
12,06815	201846
12,07227	173845
12,07640	157249
12,08052	136777
12,08463	123399
12,08877	112608
12,09288	104320
12,09700	91974
12,10112	85703
12,10525	77792
12,10937	74817
12,11348	69862
12,11762	64648
12,12173	58135
12,12585	55975
12,12998	52981
12,13410	52582
12,13822	48460
12,14235	44939
12,14647	45255
12,15058	41311
12,15472	44103
12,15883	40791
12,16295	38297
12,16708	36651
12,17120	36616
12,17532	35298
12,17945	34947
12,18357	34097
12,18768	33237
12,19180	31707
12,19593	28592
12,20005	28019
12,20417	26836
12,20830	26339
12,21242	24156
12,21653	23606
12,22067	23131
12,22478	21125
12,22890	21744
12,23303	20153
12,23715	21089
12,24127	19260
12,24540	18600
12,24952	17495
12,25363	17098
12,25777	17837
12,26188	16491
12,26600	15210
12,27013	15525
12,27425	16078
12,27837	16452
12,28248	14634
12,28662	13691
12,29073	13675
12,29485	14775
12,29898	13134
12,30310	12957
12,30722	13114
12,31135	13805
12,31547	13454
12,31958	12865
12,32372	13805
12,32783	13180
12,33195	11677
12,33608	11971
12,34020	12438
12,34432	13068
12,34845	12428
12,35257	11455
12,35668	12809
12,36082	11309
12,36493	12023
12,36905	11152
12,37317	12030
12,37730	11258
12,38142	11121
12,38553	10439
12,38967	10936
12,39378	10645
12,39790	11623
12,40203	10980
12,40615	11179
12,41027	11605
12,41440	11302
12,41852	10887
12,42263	10732
12,42677	10900
12,43088	10780
12,43500	10578
12,43913	10494
12,44325	10091
12,44737	9268
12,45150	9931
12,45562	8827
12,45973	9376
12,46385	9372
12,46798	8723
12,47210	10287
12,47622	9713
12,48035	9215
12,48447	9394
12,48858	9259
12,49272	9352
12,49683	9295
12,50095	8972
12,50508	8689
12,50920	8470
12,51332	9231
12,51745	8866
12,52157	9454
12,52568	8662
12,52982	9451
12,53393	8017
12,53805	8736
12,54218	10096
12,54630	10169
12,55042	9467
12,55453	10310
12,55867	10521
12,56278	12190
12,56690	12065
12,57103	12062
12,57515	11860
12,57927	10820
12,58340	11519
12,58752	10798
12,59163	10219
12,59577	11968
12,59988	10659
12,60400	10209
12,60813	9681
12,61225	9910
12,61637	9735
12,62050	8996
12,62462	9025
12,62873	9325
12,63287	8772
12,63698	7484
12,64110	8672
12,64522	8259
12,64935	7907
12,65347	8590
12,65758	8485
12,66172	7660
12,66583	8663
12,66995	7396
12,67408	8878
12,67820	7531
12,68232	8094
12,68645	7618
12,69057	8023
12,69468	7956
12,69882	7728
12,70293	8016
12,70705	8708
12,71118	7600
12,71530	7329
12,71942	8416
12,72355	7993
12,72767	8686
12,73178	8366
12,73590	7563
12,74003	7872
12,74415	8117
12,74827	7720
12,75240	9273
12,75652	12239
12,76063	16686
12,76477	27677
12,76888	45876
12,77300	75613
12,77713	120426
12,78125	190832
12,78537	285406
12,78950	398620
12,79362	542515
12,79773	700096
12,80187	852072
12,80598	996241
12,81010	1091569
12,81423	1134812
12,81835	1139431
12,82247	1096023
12,82658	1027494
12,83072	942870
12,83483	825921
12,83895	706891
12,84308	588605
12,84720	497713
12,85132	415548
12,85545	344702
12,85957	289282
12,86368	241314
12,86782	199930
12,87193	171022
12,87605	146773
12,88018	127263
12,88430	111784
12,88842	96962
12,89255	88782
12,89667	80591
12,90078	71266
12,90492	63851
12,90903	59013
12,91315	54264
12,91727	52771
12,92140	46776
12,92552	46511
12,92963	43538
12,93377	41728
12,93788	42140
12,94200	41666
12,94613	39501
12,95025	40417
12,95437	38342
12,95850	39454
12,96262	34647
12,96673	34487
12,97087	32350
12,97498	29547
12,97910	26781
12,98323	26051
12,98735	24948
12,99147	24381
12,99560	20819
12,99972	19057
13,00383	19318
13,00795	17547
13,01208	17600
13,01620	17021
13,02032	17760
13,02445	15432
13,02857	15866
13,03268	15493
13,03682	15112
13,04093	13988
13,04505	13409
13,04918	12713
13,05330	12788
13,05742	12957
13,06155	13597
13,06567	12150
13,06978	11840
13,07392	10840
13,07803	11795
13,08215	11481
13,08628	12671
13,09040	13334
13,09452	16210
13,09863	21108
13,10277	32100
13,10688	52043
13,11100	86707
13,11513	138472
13,11925	224732
13,12337	322942
13,12750	469292
13,13162	627302
13,13573	800756
13,13987	984333
13,14398	1134989
13,14810	1252112
13,15223	1292853
13,15635	1300712
13,16047	1237955
13,16460	1148083
13,16872	1018411
13,17283	892803
13,17697	742349
13,18108	622014
13,18520	514119
13,18932	419020
13,19345	341763
13,19757	283838
13,20168	237171
13,20582	197703
13,20993	169607
13,21405	141375
13,21818	125636
13,22230	109407
13,22642	99627
13,23055	85564
13,23467	77946
13,23878	70273
13,24292	63212
13,24703	59757
13,25115	54161
13,25528	50624
13,25940	44985
13,26352	39389
13,26765	39680
13,27177	38231
13,27588	36854
13,28000	33543
13,28413	31441
13,28825	29948
13,29237	28085
13,29650	27177
13,30062	27405
13,30473	23772
13,30887	22570
13,31298	22149
13,31710	20365
13,32123	20638
13,32535	18458
13,32947	19947
13,33360	19074
13,33772	17771
13,34183	17833
13,34597	16659
13,35008	15699
13,35420	16094
13,35833	16252
13,36245	15463
13,36657	14586
13,37068	14007
13,37482	13194
13,37893	13820
13,38305	12586
13,38718	13361
13,39130	13164
13,39542	13510
13,39955	13399
13,40367	11384
13,40778	10460
13,41192	11858
13,41603	10566
13,42015	12183
13,42428	11173
13,42840	10779
13,43252	10604
13,43665	10319
13,44077	10282
13,44488	9564
13,44902	10588
13,45313	10548
13,45725	8623
13,46137	9679
13,46550	10128
13,46962	9894
13,47373	8499
13,47787	8739
13,48198	9957
13,48610	9623
13,49023	9637
13,49435	10270
13,49847	10288
13,50260	9207
13,50672	7822
13,51083	7587
13,51497	8968
13,51908	9337
13,52320	9042
13,52733	7714
13,53145	9069
13,53557	8414
13,53970	9428
13,54382	8050
13,54793	8491
13,55205	8014
13,55618	8321
13,56030	7695
13,56442	7725
13,56855	8060
13,57267	8976
13,57678	8126
13,58092	8885
13,58503	8506
13,58915	7827
13,59328	7382
13,59740	8603
13,60152	7713
13,60565	8868
13,60977	7639
13,61388	9532
13,61802	7635
13,62213	7650
13,62625	7798
13,63038	7491
13,63450	8431
13,63862	7988
13,64275	7804
13,64687	7208
13,65098	7755
13,65510	8236
13,65923	8015
13,66335	6979
13,66747	8417
13,67160	8032
13,67572	8717
13,67983	8404
13,68397	6841
13,68808	7558
13,69220	7457
13,69633	7311
13,70045	7556
13,70457	8277
13,70870	7895
13,71282	8318
13,71693	6713
13,72107	7362
13,72518	6933
13,72930	7147
13,73343	6998
13,73755	6750
13,74167	7681
13,74578	7390
13,74992	7669
13,75403	7884
13,75815	7033
13,76228	7901
13,76640	6968
13,77052	7567
13,77465	7611
13,77877	6761
13,78288	6888
13,78702	8078
13,79113	7495
13,79525	7535
13,79938	6359
13,80350	7062
13,80762	7541
13,81175	7624
13,81587	7519
13,81998	7673
13,82412	7411
13,82823	6963
13,83235	6711
13,83647	6311
13,84060	7040
13,84472	6340
13,84883	7052
13,85297	7597
13,85708	7908
13,86120	6006
13,86533	6915
13,86945	6479
13,87357	7100
13,87770	6684
13,88182	7163
13,88593	7123
13,89007	7131
13,89418	6282
13,89830	7863
13,90243	7878
13,90655	7786
13,91067	8886
13,91480	12463
13,91892	19780
13,92303	31693
13,92715	55360
13,93128	92504
13,93540	147062
13,93952	230202
13,94365	342292
13,94777	481455
13,95188	642169
13,95602	824091
13,96013	990496
13,96425	1108242
13,96838	1198108
13,97250	1228504
13,97662	1204412
13,98075	1168870
13,98487	1071340
13,98898	935386
13,99312	810035
13,99723	678891
14,00135	570616
14,00548	476393
14,00960	385924
14,01372	322025
14,01783	267964
14,02197	221708
14,02608	191738
14,03020	159543
14,03433	137654
14,03845	121217
14,04257	105842
14,04670	90456
14,05082	81990
14,05493	73828
14,05907	67035
14,06318	62939
14,06730	53904
14,07143	51004
14,07555	48464
14,07967	42131
14,08380	42963
14,08792	37521
14,09203	36069
14,09617	31503
14,10028	31166
14,10440	30314
14,10852	28198
14,11265	26821
14,11677	24694
14,12088	24669
14,12502	23063
14,12913	22503
14,13325	21082
14,13738	19954
14,14150	20255
14,14562	20587
14,14975	18886
14,15387	18595
14,15798	18045
14,16212	16017
14,16623	15471
14,17035	13984
14,17448	14352
14,17860	14778
14,18272	13524
14,18685	12776
14,19097	12869
14,19508	11640
14,19920	12903
14,20333	12138
14,20745	11685
14,21157	12434
14,21570	12734
14,21982	11910
14,22393	11904
14,22807	14988
14,23218	18505
14,23630	26694
14,24043	43383
14,24455	75410
14,24867	134314
14,25280	230389
14,25692	388944
14,26103	615844
14,26517	916411
14,26928	1314893
14,27340	1776918
14,27753	2289579
14,28165	2837170
14,28577	3356318
14,28988	3761468
14,29402	4085838
14,29813	4176407
14,30225	4112475
14,30638	3893774
14,31050	3497145
14,31462	3042565
14,31875	2562291
14,32287	2121899
14,32698	1699098
14,33112	1380985
14,33523	1111000
14,33935	906189
14,34348	747984
14,34760	623992
14,35172	526150
14,35585	449551
14,35997	386646
14,36408	334133
14,36822	295220
14,37233	260440
14,37645	236466
14,38057	206962
14,38470	191126
14,38882	171573
14,39293	159915
14,39707	142741
14,40118	130303
14,40530	121563
14,40943	111541
14,41355	101066
14,41767	98404
14,42180	90780
14,42592	82836
14,43003	78867
14,43417	73059
14,43828	69508
14,44240	66187
14,44653	63328
14,45065	61645
14,45477	54636
14,45890	53896
14,46302	49320
14,46713	46641
14,47125	46683
14,47538	45838
14,47950	42931
14,48362	40517
14,48775	39107
14,49187	36913
14,49598	35246
14,50012	32026
14,50423	32990
14,50835	32211
14,51248	31465
14,51660	29484
14,52072	26740
14,52485	25884
14,52897	25732
14,53308	25632
14,53722	24091
14,54133	23408
14,54545	22076
14,54958	22841
14,55370	22942
14,55782	22395
14,56193	20283
14,56607	20727
14,57018	19103
14,57430	17743
14,57843	18465
14,58255	19521
14,58667	16931
14,59080	16672
14,59492	16257
14,59903	15784
14,60317	16055
14,60728	15007
14,61140	14552
14,61553	14341
14,61965	14644
14,62377	15188
14,62790	13839
14,63202	14155
14,63613	12835
14,64027	13862
14,64438	12169
14,64850	13456
14,65262	12200
14,65675	12464
14,66087	12773
14,66498	12147
14,66912	12682
14,67323	11429
14,67735	11507
14,68148	11218
14,68560	11938
14,68972	11107
14,69385	11078
14,69797	11283
14,70208	11136
14,70622	11534
14,71033	11959
14,71445	11730
14,71858	12038
14,72270	10895
14,72682	11609
14,73095	10921
14,73507	11553
14,73918	12084
14,74330	11370
14,74743	10723
14,75155	10234
14,75567	11070
14,75980	10286
14,76392	11197
14,76803	10071
14,77217	8985
14,77628	10055
14,78040	9227
14,78453	9570
14,78865	9696
14,79277	9632
14,79690	9641
14,80102	8418
14,80513	9872
14,80927	10416
14,81338	10085
14,81750	9894
14,82163	9656
14,82575	10416
14,82987	10328
14,83398	10760
14,83812	11603
14,84223	11649
14,84635	10833
14,85048	10519
14,85460	11227
14,85872	10976
14,86285	11294
14,86697	10142
14,87108	9786
14,87522	10366
14,87933	9742
14,88345	10365
14,88758	10598
14,89170	10963
14,89582	12847
14,89995	19607
14,90407	27156
14,90818	49916
14,91232	83307
14,91643	137835
14,92055	213455
14,92467	332000
14,92880	464576
14,93292	626703
14,93703	789564
14,94117	965899
14,94528	1109484
14,94940	1217804
14,95353	1271913
14,95765	1278366
14,96177	1225397
14,96590	1127833
14,97002	1009520
14,97413	875806
14,97827	748509
14,98238	622270
14,98650	513963
14,99063	421357
14,99475	350154
14,99887	294259
15,00300	242269
15,00712	208249
15,01123	172342
15,01535	152034
15,01948	130519
15,02360	112787
15,02772	100366
15,03185	88713
15,03597	80377
15,04008	73413
15,04422	69372
15,04833	62747
15,05245	57635
15,05658	53139
15,06070	47945
15,06482	46561
15,06895	44613
15,07307	44001
15,07718	39835
15,08132	41570
15,08543	38563
15,08955	38256
15,09368	39817
15,09780	39734
15,10192	36735
15,10603	35217
15,11017	35710
15,11428	32129
15,11840	31312
15,12253	30008
15,12665	26648
15,13077	24278
15,13490	25467
15,13902	24363
15,14313	21483
15,14727	20626
15,15138	19854
15,15550	18765
15,15963	17710
15,16375	17761
15,16787	16281
15,17200	15225
15,17612	15131
15,18023	15210
15,18437	14769
15,18848	13813
15,19260	14090
15,19672	12533
15,20085	13317
15,20497	13496
15,20908	11620
15,21322	12913
15,21733	11827
15,22145	11818
15,22558	12243
15,22970	9953
15,23382	11383
15,23795	11376
15,24207	11877
15,24618	11158
15,25032	11222
15,25443	10134
15,25855	11090
15,26268	10944
15,26680	10674
15,27092	8749
15,27505	10040
15,27917	9219
15,28328	11258
15,28740	10166
15,29153	9485
15,29565	9861
15,29977	9970
15,30390	9435
15,30802	9366
15,31213	8908
15,31627	9557
15,32038	8568
15,32450	7657
15,32863	8740
15,33275	8816
15,33687	9485
15,34100	10718
15,34512	13169
15,34923	17504
15,35337	26907
15,35748	42779
15,36160	72456
15,36573	127585
15,36985	203929
15,37397	317394
15,37810	468799
15,38222	651024
15,38633	853504
15,39045	1054418
15,39458	1246604
15,39870	1384223
15,40282	1449122
15,40695	1446123
15,41107	1374589
15,41518	1270347
15,41932	1125663
15,42343	975995
15,42755	815984
15,43168	679727
15,43580	558723
15,43992	463167
15,44405	373516
15,44817	312168
15,45228	260298
15,45642	215121
15,46053	183580
15,46465	158836
15,46878	139137
15,47290	122299
15,47702	109443
15,48113	96539
15,48527	83055
15,48938	79355
15,49350	71912
15,49763	63327
15,50175	60456
15,50587	54959
15,51000	52317
15,51412	47802
15,51823	46534
15,52237	41807
15,52648	39091
15,53060	36061
15,53473	33770
15,53885	31624
15,54297	30136
15,54710	29558
15,55122	27590
15,55533	27531
15,55947	26392
15,56358	23778
15,56770	25528
15,57182	23844
15,57595	23297
15,58007	23710
15,58418	20333
15,58832	19676
15,59243	20183
15,59655	18385
15,60068	16087
15,60480	17019
15,60892	16812
15,61305	17493
15,61717	16076
15,62128	15857
15,62542	15512
15,62953	15573
15,63365	13259
15,63778	16151
15,64190	13157
15,64602	13068
15,65015	13336
15,65427	14067
15,65838	12286
15,66250	12841
15,66663	12743
15,67075	13865
15,67487	12777
15,67900	11411
15,68312	12759
15,68723	11276
15,69137	11655
15,69548	9956
15,69960	9656
15,70373	11203
15,70785	10376
15,71197	10662
15,71610	9740
15,72022	10458
15,72433	9528
15,72847	8781
15,73258	9418
15,73670	9217
15,74083	9581
15,74495	8709
15,74907	10582
15,75318	8844
15,75732	9630
15,76143	9072
15,76555	9248
15,76968	9804
15,77380	10207
15,77792	9605
15,78205	8242
15,78617	9032
15,79028	8420
15,79442	8496
15,79853	8358
15,80265	9081
15,80678	7429
15,81090	9702
15,81502	8002
15,81915	8981
15,82327	8365
15,82738	8825
15,83152	7444
15,83563	7773
15,83975	7862
15,84387	8887
15,84800	8050
15,85212	7114
15,85623	7583
15,86037	8092
15,86448	8788
15,86860	9126
15,87273	9877
15,87685	8544
15,88097	8993
15,88510	8345
15,88922	9279
15,89333	8206
15,89747	7596
15,90158	9148
15,90570	9085
15,90983	7412
15,91395	7355
15,91807	8005
15,92220	7216
15,92632	6595
15,93043	8345
15,93455	7685
15,93868	7279
15,94280	7529
15,94692	7041
15,95105	7801
15,95517	8274
15,95928	6891
15,96342	8030
15,96753	6137
15,97165	8148
15,97578	7550
15,97990	8042
15,98402	7772
15,98815	8738
15,99227	10622
15,99638	13811
16,00052	21447
16,00463	34751
16,00875	57962
16,01288	98640
16,01700	157595
16,02112	249591
16,02523	371265
16,02937	534481
16,03348	709187
16,03760	907084
16,04173	1086815
16,04585	1239255
16,04997	1333988
16,05410	1371195
16,05822	1353318
16,06233	1282310
16,06647	1158149
16,07058	1024660
16,07470	886069
16,07883	741287
16,08295	633393
16,08707	518022
16,09120	429170
16,09532	356243
16,09943	288882
16,10357	241755
16,10768	208852
16,11180	172787
16,11592	153253
16,12005	131735
16,12417	120308
16,12828	104960
16,13242	91958
16,13653	85502
16,14065	77001
16,14478	67851
16,14890	63902
16,15302	58290
16,15715	55498
16,16127	51223
16,16538	47646
16,16952	44220
16,17363	38994
16,17775	38934
16,18188	36657
16,18600	33435
16,19012	34026
16,19425	32071
16,19837	31056
16,20248	29115
16,20660	29244
16,21073	27425
16,21485	27963
16,21897	29362
16,22310	28264
16,22722	28658
16,23133	30975
16,23547	30973
16,23958	31777
16,24370	32635
16,24783	33698
16,25195	32826
16,25607	32593
16,26020	30052
16,26432	29913
16,26843	29024
16,27257	27092
16,27668	25726
16,28080	23652
16,28493	22033
16,28905	19781
16,29317	18689
16,29728	18781
16,30142	17405
16,30553	17243
16,30965	14471
16,31378	15678
16,31790	14564
16,32202	14284
16,32615	13930
16,33027	13760
16,33438	11993
16,33852	12304
16,34263	12946
16,34675	12239
16,35088	11871
16,35500	10830
16,35912	12854
16,36325	13344
16,36737	11824
16,37148	10623
16,37562	10560
16,37973	11531
16,38385	11009
16,38797	11007
16,39210	10443
16,39622	9878
16,40033	10644
16,40447	9899
16,40858	10530
16,41270	9597
16,41683	10157
16,42095	11341
16,42507	15571
16,42920	22556
16,43332	35972
16,43743	61963
16,44157	109509
16,44568	187559
16,44980	309178
16,45393	489872
16,45805	743666
16,46217	1054622
16,46630	1405155
16,47042	1818329
16,47453	2220682
16,47865	2604711
16,48278	2900229
16,48690	3091329
16,49102	3126662
16,49515	3028281
16,49927	2818788
16,50338	2514073
16,50752	2164685
16,51163	1830877
16,51575	1511011
16,51988	1235611
16,52400	1008681
16,52812	822302
16,53225	680390
16,53637	564645
16,54048	478283
16,54462	407321
16,54873	353289
16,55285	304518
16,55698	265884
16,56110	238453
16,56522	204854
16,56933	184931
16,57347	172094
16,57758	152851
16,58170	138790
16,58583	128261
16,58995	121004
16,59407	111201
16,59820	103439
16,60232	94366
16,60643	87843
16,61057	80625
16,61468	77713
16,61880	72228
16,62293	67848
16,62705	64324
16,63117	60885
16,63530	55971
16,63942	53149
16,64353	50497
16,64767	47646
16,65178	46852
16,65590	42599
16,66002	41516
16,66415	40583
16,66827	37483
16,67238	36585
16,67652	36142
16,68063	31632
16,68475	32463
16,68888	31097
16,69300	31030
16,69712	28610
16,70125	29041
16,70537	26432
16,70948	25969
16,71362	26401
16,71773	25338
16,72185	23926
16,72598	23320
16,73010	22775
16,73422	21278
16,73835	21807
16,74247	21081
16,74658	20485
16,75070	18592
16,75483	18780
16,75895	18837
16,76307	17387
16,76720	18164
16,77132	16854
16,77543	17113
16,77957	17320
16,78368	18453
16,78780	20090
16,79193	23949
16,79605	32539
16,80017	47056
16,80430	76493
16,80842	121565
16,81253	194403
16,81667	295252
16,82078	429907
16,82490	593198
16,82903	786924
16,83315	981078
16,83727	1166435
16,84138	1314567
16,84552	1421568
16,84963	1458889
16,85375	1446570
16,85788	1365602
16,86200	1237376
16,86612	1077918
16,87025	934466
16,87437	799340
16,87848	669360
16,88262	548982
16,88673	454946
16,89085	380107
16,89498	318162
16,89910	268227
16,90322	228044
16,90735	195447
16,91147	171804
16,91558	149670
16,91972	133829
16,92383	123250
16,92795	106564
16,93207	98969
16,93620	88624
16,94032	82843
16,94443	76056
16,94857	71505
16,95268	63906
16,95680	61683
16,96093	55171
16,96505	55031
16,96917	54625
16,97330	56015
16,97742	67190
16,98153	82874
16,98567	119654
16,98978	188330
16,99390	292516
16,99803	439831
17,00215	647581
17,00627	922863
17,01040	1273771
17,01452	1638565
17,01863	2047970
17,02277	2419426
17,02688	2714063
17,03100	2914795
17,03512	2971047
17,03925	2908736
17,04337	2706524
17,04748	2451375
17,05162	2157638
17,05573	1828701
17,05985	1522763
17,06398	1266697
17,06810	1040992
17,07222	860396
17,07635	715944
17,08047	603995
17,08458	511436
17,08872	430042
17,09283	374442
17,09695	323291
17,10108	287228
17,10520	253338
17,10932	226965
17,11345	201542
17,11757	185805
17,12168	166726
17,12580	153527
17,12993	140413
17,13405	128874
17,13817	122136
17,14230	107667
17,14642	101638
17,15053	96403
17,15467	93979
17,15878	84486
17,16290	80587
17,16703	75711
17,17115	71538
17,17527	69236
17,17940	63685
17,18352	60857
17,18763	57720
17,19177	53499
17,19588	51719
17,20000	50117
17,20413	46067
17,20825	45346
17,21237	43957
17,21648	41647
17,22062	39518
17,22473	40385
17,22885	36116
17,23298	35410
17,23710	35803
17,24122	34332
17,24535	31217
17,24947	33181
17,25358	30672
17,25772	28137
17,26183	28585
17,26595	27660
17,27008	26883
17,27420	27726
17,27832	24955
17,28245	23843
17,28657	25122
17,29068	24345
17,29482	22753
17,29893	22401
17,30305	20367
17,30717	21121
17,31130	21226
17,31542	19472
17,31953	19732
17,32367	18559
17,32778	18803
17,33190	18519
17,33603	18955
17,34015	16856
17,34427	18086
17,34840	18673
17,35252	16739
17,35663	16548
17,36077	16179
17,36488	15497
17,36900	15476
17,37313	14924
17,37725	15353
17,38137	14089
17,38550	15330
17,38962	14471
17,39373	15211
17,39785	16804
17,40198	21272
17,40610	25833
17,41022	39373
17,41435	59359
17,41847	98602
17,42258	157333
17,42672	248225
17,43083	372406
17,43495	524606
17,43908	696984
17,44320	883296
17,44732	1073826
17,45145	1217623
17,45557	1309141
17,45968	1344468
17,46382	1322059
17,46793	1243956
17,47205	1139760
17,47618	1038673
17,48030	931715
17,48442	858011
17,48853	826461
17,49267	867914
17,49678	973523
17,50090	1169880
17,50503	1435789
17,50915	1767158
17,51327	2125856
17,51740	2532153
17,52152	2878004
17,52563	3104593
17,52977	3219173
17,53388	3221141
17,53800	3056168
17,54213	2769639
17,54625	2447180
17,55037	2064113
17,55450	1739225
17,55862	1417568
17,56273	1163073
17,56687	971310
17,57098	804050
17,57510	671537
17,57922	572447
17,58335	492335
17,58747	423428
17,59158	370241
17,59572	327597
17,59983	297992
17,60395	263676
17,60808	235896
17,61220	215604
17,61632	195321
17,62045	177854
17,62457	165889
17,62868	155858
17,63282	140538
17,63693	129660
17,64105	121888
17,64518	115202
17,64930	114406
17,65342	102219
17,65755	95135
17,66167	91896
17,66578	86422
17,66990	82014
17,67403	81724
17,67815	76412
17,68227	72598
17,68640	68165
17,69052	65955
17,69463	63759
17,69877	60782
17,70288	57036
17,70700	53462
17,71113	54448
17,71525	48612
17,71937	49873
17,72350	46055
17,72762	44818
17,73173	42883
17,73587	42516
17,73998	41956
17,74410	39366
17,74823	39196
17,75235	37660
17,75647	36983
17,76058	35219
17,76472	34744
17,76883	33227
17,77295	33069
17,77708	32048
17,78120	32399
17,78532	29551
17,78945	29144
17,79357	29816
17,79768	28309
17,80182	27907
17,80593	26072
17,81005	26384
17,81418	30820
17,81830	28353
17,82242	33502
17,82655	42624
17,83067	56338
17,83478	85109
17,83892	132329
17,84303	202720
17,84715	308404
17,85127	435595
17,85540	600879
17,85952	767285
17,86363	934721
17,86777	1086361
17,87188	1202496
17,87600	1270507
17,88013	1284819
17,88425	1255406
17,88837	1165521
17,89250	1031684
17,89662	914476
17,90073	787679
17,90487	659426
17,90898	551532
17,91310	462807
17,91723	385735
17,92135	320969
17,92547	269410
17,92960	237464
17,93372	202277
17,93783	173992
17,94195	154041
17,94608	135687
17,95020	124186
17,95432	114388
17,95845	99758
17,96257	93199
17,96668	86533
17,97082	76151
17,97493	71742
17,97905	66795
17,98318	60968
17,98730	59212
17,99142	54108
17,99555	49401
17,99967	49852
18,00378	46966
18,00792	43787
18,01203	43395
18,01615	41020
18,02028	39365
18,02440	37584
18,02852	37123
18,03263	35404
18,03677	34117
18,04088	34931
18,04500	31294
18,04913	32445
18,05325	30943
18,05737	28399
18,06150	30855
18,06562	31347
18,06973	27333
18,07387	26864
18,07798	25212
18,08210	25448
18,08623	25220
18,09035	24161
18,09447	22370
18,09860	23128
18,10272	24020
18,10683	20777
18,11097	20320
18,11508	18847
18,11920	20130
18,12332	18341
18,12745	18062
18,13157	17561
18,13568	17978
18,13982	18553
18,14393	17027
18,14805	17161
18,15218	17816
18,15630	17364
18,16042	17736
18,16455	15560
18,16867	16354
18,17278	16325
18,17692	15253
18,18103	15423
18,18515	14598
18,18928	14591
18,19340	14955
18,19752	13328
18,20165	14672
18,20577	13935
18,20988	15265
18,21400	12862
18,21813	14458
18,22225	13322
18,22637	12565
18,23050	12469
18,23462	13389
18,23873	14069
18,24287	14525
18,24698	14449
18,25110	12791
18,25523	12597
18,25935	12250
18,26347	13124
18,26760	12870
18,27172	13628
18,27583	13790
18,27997	12465
18,28408	12267
18,28820	12778
18,29233	12474
18,29645	13089
18,30057	13700
18,30468	11854
18,30882	10543
18,31293	13320
18,31705	13002
18,32118	11786
18,32530	12009
18,32942	12129
18,33355	11308
18,33767	11240
18,34178	11293
18,34592	11393
18,35003	11219
18,35415	11778
18,35828	11410
18,36240	11897
18,36652	10716
18,37065	11177
18,37477	10941
18,37888	10218
18,38302	10993
18,38713	11186
18,39125	9535
18,39537	10198
18,39950	9582
18,40362	11510
18,40773	11528
18,41187	13799
18,41598	17628
18,42010	22210
18,42423	36384
18,42835	56769
18,43247	90535
18,43660	143891
18,44072	222857
18,44483	328821
18,44897	453141
18,45308	612707
18,45720	765549
18,46133	905431
18,46545	1025603
18,46957	1105129
18,47370	1135614
18,47782	1129863
18,48193	1092374
18,48605	1028269
18,49018	957962
18,49430	910543
18,49842	908642
18,50255	961933
18,50667	1091424
18,51078	1315380
18,51492	1600286
18,51903	1972187
18,52315	2359410
18,52728	2753817
18,53140	3135818
18,53552	3402762
18,53965	3532055
18,54377	3491574
18,54788	3322318
18,55202	3034166
18,55613	2674957
18,56025	2263907
18,56438	1895125
18,56850	1557687
18,57262	1290600
18,57675	1075216
18,58087	907265
18,58498	759501
18,58910	640373
18,59323	563711
18,59735	489291
18,60147	442560
18,60560	389375
18,60972	355383
18,61383	318746
18,61797	287835
18,62208	272878
18,62620	249701
18,63033	226122
18,63445	209035
18,63857	192036
18,64270	180282
18,64682	168872
18,65093	151738
18,65507	143468
18,65918	135087
18,66330	125469
18,66743	118506
18,67155	109210
18,67567	106037
18,67978	98738
18,68392	93112
18,68803	88854
18,69215	83886
18,69628	80527
18,70040	77545
18,70452	74390
18,70865	70680
18,71277	65829
18,71688	63884
18,72102	62636
18,72513	60412
18,72925	57936
18,73338	54996
18,73750	53466
18,74162	51422
18,74575	49565
18,74987	47764
18,75398	43337
18,75812	44148
18,76223	44221
18,76635	40692
18,77047	39770
18,77460	39688
18,77872	37292
18,78283	37385
18,78697	36949
18,79108	38141
18,79520	39850
18,79933	48222
18,80345	61692
18,80757	83210
18,81170	118957
18,81582	178651
18,81993	261892
18,82407	365783
18,82818	506339
18,83230	644617
18,83643	809346
18,84055	940828
18,84467	1053587
18,84880	1126265
18,85292	1136002
18,85703	1097455
18,86115	1029052
18,86528	929644
18,86940	828562
18,87352	706603
18,87765	614077
18,88177	519265
18,88588	432583
18,89002	366456
18,89413	307740
18,89825	259936
18,90238	222770
18,90650	196959
18,91062	171925
18,91475	150857
18,91887	136140
18,92298	120192
18,92712	109546
18,93123	100419
18,93535	91953
18,93948	85226
18,94360	76912
18,94772	73327
18,95183	64746
18,95597	64007
18,96008	58050
18,96420	58483
18,96833	55307
18,97245	52373
18,97657	49946
18,98070	47647
18,98482	48275
18,98893	47003
18,99307	51269
18,99718	61963
19,00130	76480
19,00543	107648
19,00955	156247
19,01367	236167
19,01780	348495
19,02192	494102
19,02603	676738
19,03017	868602
19,03428	1086710
19,03840	1288265
19,04252	1446470
19,04665	1521029
19,05077	1540946
19,05488	1507167
19,05902	1408096
19,06313	1283753
19,06725	1134198
19,07138	982437
19,07550	848746
19,07962	713027
19,08375	596806
19,08787	497979
19,09198	425757
19,09612	364490
19,10023	314626
19,10435	275022
19,10848	241735
19,11260	214334
19,11672	194932
19,12085	175787
19,12497	156714
19,12908	143183
19,13320	129312
19,13733	122611
19,14145	112424
19,14557	104715
19,14970	96676
19,15382	90601
19,15793	85914
19,16207	79483
19,16618	75781
19,17030	74430
19,17443	67735
19,17855	63792
19,18267	61656
19,18680	57753
19,19092	54659
19,19503	55230
19,19917	52637
19,20328	48056
19,20740	46996
19,21153	45222
19,21565	43202
19,21977	42551
19,22388	39802
19,22802	38184
19,23213	37540
19,23625	37234
19,24038	35345
19,24450	34145
19,24862	33116
19,25275	33456
19,25687	32314
19,26098	30072
19,26512	30917
19,26923	29045
19,27335	30757
19,27748	28764
19,28160	28093
19,28572	26079
19,28985	26450
19,29397	25841
19,29808	24888
19,30222	27670
19,30633	23274
19,31045	23962
19,31457	25190
19,31870	21654
19,32282	22752
19,32693	23067
19,33107	23126
19,33518	23124
19,33930	23038
19,34343	20792
19,34755	21427
19,35167	21420
19,35580	21365
19,35992	19604
19,36403	19038
19,36817	19620
19,37228	19438
19,37640	18665
19,38053	18928
19,38465	19997
19,38877	18684
19,39290	18381
19,39702	18434
19,40113	16045
19,40525	17643
19,40938	17772
19,41350	16878
19,41762	17122
19,42175	17590
19,42587	16722
19,42998	18412
19,43412	17232
19,43823	18221
19,44235	18676
19,44648	25793
19,45060	31422
19,45472	42838
19,45885	69572
19,46297	107540
19,46708	173704
19,47122	273304
19,47533	405742
19,47945	592120
19,48358	808124
19,48770	1053344
19,49182	1299353
19,49593	1503010
19,50007	1656894
19,50418	1703220
19,50830	1696392
19,51243	1595932
19,51655	1453697
19,52067	1285705
19,52480	1111856
19,52892	937839
19,53303	794275
19,53717	662872
19,54128	558003
19,54540	469926
19,54953	404129
19,55365	352143
19,55777	308527
19,56190	267597
19,56602	244395
19,57013	218405
19,57427	192379
19,57838	176083
19,58250	163449
19,58662	148092
19,59075	134682
19,59487	125343
19,59898	117723
19,60312	111358
19,60723	100362
19,61135	94227
19,61548	90534
19,61960	86645
19,62372	80761
19,62785	79916
19,63197	74798
19,63608	72497
19,64022	67927
19,64433	64835
19,64845	62795
19,65258	60301
19,65670	58150
19,66082	56277
19,66495	52656
19,66907	50368
19,67318	48184
19,67730	48708
19,68143	45342
19,68555	45176
19,68967	43409
19,69380	40237
19,69792	38747
19,70203	38128
19,70617	39033
19,71028	37051
19,71440	36090
19,71853	33386
19,72265	33910
19,72677	32432
19,73090	32414
19,73502	32173
19,73913	31677
19,74327	29016
19,74738	31155
19,75150	30582
19,75563	29769
19,75975	27774
19,76387	27357
19,76798	26228
19,77212	25649
19,77623	24716
19,78035	23940
19,78448	25629
19,78860	25441
19,79272	27683
19,79685	29208
19,80097	34846
19,80508	48741
19,80922	70074
19,81333	108561
19,81745	169855
19,82158	258485
19,82570	380162
19,82982	536040
19,83395	708076
19,83807	893147
19,84218	1073619
19,84632	1206036
19,85043	1317429
19,85455	1350719
19,85867	1328860
19,86280	1242271
19,86692	1136366
19,87103	1020288
19,87517	899429
19,87928	772591
19,88340	654460
19,88753	553376
19,89165	465734
19,89577	398158
19,89990	341518
19,90402	295933
19,90813	252043
19,91227	222443
19,91638	197036
19,92050	174622
19,92463	156929
19,92875	144474
19,93287	127663
19,93700	120153
19,94112	111788
19,94523	101947
19,94935	93935
19,95348	87325
19,95760	80837
19,96172	77752
19,96585	72014
19,96997	70006
19,97408	63793
19,97822	62848
19,98233	60281
19,98645	56427
19,99058	53948
19,99470	51286
19,99882	49210
20,00295	47202
20,00707	46427
20,01118	44181
20,01532	43586
20,01943	41303
20,02355	42287
20,02768	37684
20,03180	37576
20,03592	37231
20,04003	35574
20,04417	34050
20,04828	33485
20,05240	32546
20,05653	30287
20,06065	31787
20,06477	31525
20,06890	29749
20,07302	28242
20,07713	28258
20,08127	26566
20,08538	28029
20,08950	28148
20,09363	26267
20,09775	26496
20,10187	25870
20,10600	25944
20,11012	25016
20,11423	24666
20,11837	24660
20,12248	24354
20,12660	22814
20,13072	22228
20,13485	22792
20,13897	23729
20,14308	22292
20,14722	21100
20,15133	23020
20,15545	21996
20,15958	21237
20,16370	22041
20,16782	22044
20,17195	19529
20,17607	21384
20,18018	20466
20,18432	19589
20,18843	20955
20,19255	20729
20,19668	19719
20,20080	21226
20,20492	19593
20,20905	20149
20,21317	20686
20,21728	19326
20,22140	21594
20,22553	18215
20,22965	19743
20,23377	22035
20,23790	20021
20,24202	21246
20,24613	19618
20,25027	21046
20,25438	19964
20,25850	19027
20,26263	20745
20,26675	19269
20,27087	17852
20,27500	18201
20,27912	20189
20,28323	19065
20,28737	19320
20,29148	18497
20,29560	18181
20,29973	18000
20,30385	18116
20,30797	18561
20,31210	16826
20,31622	19012
20,32033	17404
20,32445	18374
20,32858	18735
20,33270	17953
20,33682	19595
20,34095	19019
20,34507	16858
20,34918	18541
20,35332	20260
20,35743	21253
20,36155	26242
20,36568	34315
20,36980	50946
20,37392	78193
20,37805	120083
20,38217	190706
20,38628	282940
20,39042	419436
20,39453	576447
20,39865	785215
20,40278	1008888
20,40690	1253050
20,41102	1499710
20,41513	1749126
20,41927	1995576
20,42338	2233048
20,42750	2477183
20,43163	2754761
20,43575	3033293
20,43987	3332400
20,44400	3627229
20,44812	3839035
20,45223	3949539
20,45637	3865122
20,46048	3664299
20,46460	3318151
20,46873	2916857
20,47285	2488242
20,47697	2097763
20,48110	1759947
20,48522	1482254
20,48933	1253885
20,49347	1061730
20,49758	911113
20,50170	784425
20,50582	689917
20,50995	612894
20,51407	547017
20,51818	490532
20,52232	440578
20,52643	407117
20,53055	368960
20,53468	341941
20,53880	309351
20,54292	293734
20,54705	267467
20,55117	250397
20,55528	235635
20,55942	222678
20,56353	206654
20,56765	195886
20,57178	183148
20,57590	175749
20,58002	167649
20,58415	154342
20,58827	148377
20,59238	142381
20,59650	137504
20,60063	133642
20,60475	127733
20,60887	119331
20,61300	115108
20,61712	108707
20,62123	108352
20,62537	100343
20,62948	98780
20,63360	94165
20,63773	88699
20,64185	86562
20,64597	85234
20,65010	84170
20,65422	79502
20,65833	78222
20,66247	75607
20,66658	74027
20,67070	69384
20,67483	67459
20,67895	66174
20,68307	63838
20,68718	63179
20,69132	60877
20,69543	60700
20,69955	59570
20,70368	57085
20,70780	59330
20,71192	61879
20,71605	66737
20,72017	78650
20,72428	99576
20,72842	136383
20,73253	191780
20,73665	269132
20,74078	376599
20,74490	511979
20,74902	680497
20,75315	843970
20,75727	994637
20,76138	1146149
20,76552	1224620
20,76963	1273138
20,77375	1269443
20,77787	1200759
20,78200	1118508
20,78612	1027678
20,79023	948784
20,79437	875366
20,79848	841431
20,80260	835096
20,80673	876475
20,81085	948683
20,81497	1030785
20,81910	1138212
20,82322	1225971
20,82733	1285823
20,83147	1315195
20,83558	1303239
20,83970	1237827
20,84383	1142709
20,84795	1048106
20,85207	925579
20,85620	807032
20,86032	700414
20,86443	603674
20,86855	521535
20,87268	450759
20,87680	397029
20,88092	365043
20,88505	346033
20,88917	336910
20,89328	366649
20,89742	422818
20,90153	501714
20,90565	630670
20,90978	792926
20,91390	995773
20,91802	1178455
20,92215	1390670
20,92627	1539360
20,93038	1626291
20,93452	1666308
20,93863	1642260
20,94275	1542200
20,94688	1418132
20,95100	1266856
20,95512	1110881
20,95923	961825
20,96337	824896
20,96748	711920
20,97160	621479
20,97573	539441
20,97985	462747
20,98397	420047
20,98810	370454
20,99222	336816
20,99633	301117
21,00047	274012
21,00458	256496
21,00870	230749
21,01283	219998
21,01695	205267
21,02107	192384
21,02520	176625
21,02932	168245
21,03343	161631
21,03757	150117
21,04168	142153
21,04580	134792
21,04992	126793
21,05405	124919
21,05817	115529
21,06228	111223
21,06642	107897
21,07053	97811
21,07465	97374
21,07878	91271
21,08290	89385
21,08702	82447
21,09115	82019
21,09527	81073
21,09938	75770
21,10352	74093
21,10763	71034
21,11175	68123
21,11588	69187
21,12000	67104
21,12412	64415
21,12825	63114
21,13237	62003
21,13648	59897
21,14060	60166
21,14473	58279
21,14885	59207
21,15297	53438
21,15710	56956
21,16122	53177
21,16533	54362
21,16947	51846
21,17358	54335
21,17770	51438
21,18183	45455
21,18595	47059
21,19007	45483
21,19420	45003
21,19832	43609
21,20243	41813
21,20657	40851
21,21068	42963
21,21480	42021
21,21893	40558
21,22305	41680
21,22717	40294
21,23128	40782
21,23542	39927
21,23953	40227
21,24365	42502
21,24778	42206
21,25190	44253
21,25602	41063
21,26015	40765
21,26427	41100
21,26838	42294
21,27252	43323
21,27663	41607
21,28075	43603
21,28488	45246
21,28900	48527
21,29312	55747
21,29725	72059
21,30137	99704
21,30548	139784
21,30962	206132
21,31373	310662
21,31785	440266
21,32197	615861
21,32610	831595
21,33022	1060108
21,33433	1266483
21,33847	1481196
21,34258	1609497
21,34670	1688129
21,35083	1662148
21,35495	1582684
21,35907	1434470
21,36320	1277225
21,36732	1122244
21,37143	961727
21,37557	826205
21,37968	713866
21,38380	616681
21,38793	536503
21,39205	470348
21,39617	410164
21,40030	372944
21,40442	330440
21,40853	299899
21,41265	273958
21,41678	253135
21,42090	234028
21,42502	217514
21,42915	203797
21,43327	189977
21,43738	176814
21,44152	168536
21,44563	157143
21,44975	147851
21,45388	142910
21,45800	134103
21,46212	129816
21,46625	124373
21,47037	121127
21,47448	112790
21,47862	116542
21,48273	111310
21,48685	104079
21,49098	102296
21,49510	96783
21,49922	93447
21,50333	89980
21,50747	85942
21,51158	87075
21,51570	80044
21,51983	80357
21,52395	78752
21,52807	73187
21,53220	74868
21,53632	71007
21,54043	69489
21,54457	69168
21,54868	63286
21,55280	60618
21,55693	60600
21,56105	60460
21,56517	57778
21,56930	59758
21,57342	55949
21,57753	57348
21,58167	55803
21,58578	52966
21,58990	51703
21,59402	49528
21,59815	51584
21,60227	50736
21,60638	47824
21,61052	49253
21,61463	46859
21,61875	47201
21,62288	45495
21,62700	45020
21,63112	44912
21,63525	49199
21,63937	58871
21,64348	70838
21,64762	90911
21,65173	123241
21,65585	176141
21,65998	255678
21,66410	368456
21,66822	514626
21,67235	685937
21,67647	874555
21,68058	1059393
21,68470	1219229
21,68883	1319740
21,69295	1381765
21,69707	1385635
21,70120	1340905
21,70532	1239113
21,70943	1108210
21,71357	985779
21,71768	869999
21,72180	778884
21,72593	710064
21,73005	664335
21,73417	665775
21,73830	703286
21,74242	764112
21,74653	859402
21,75067	960870
21,75478	1045263
21,75890	1140204
21,76303	1194518
21,76715	1216936
21,77127	1198066
21,77538	1138410
21,77952	1052101
21,78363	953540
21,78775	843055
21,79188	741741
21,79600	649200
21,80012	555342
21,80425	480591
21,80837	416719
21,81248	365454
21,81662	329601
21,82073	292338
21,82485	260144
21,82898	238881
21,83310	211656
21,83722	199410
21,84135	187485
21,84547	171280
21,84958	156608
21,85372	149306
21,85783	140589
21,86195	127728
21,86607	125177
21,87020	119638
21,87432	114886
21,87843	108905
21,88257	103154
21,88668	97704
21,89080	94748
21,89493	90524
21,89905	88479
21,90317	84955
21,90730	81601
21,91142	78376
21,91553	74102
21,91967	76039
21,92378	75150
21,92790	68458
21,93203	67517
21,93615	65510
21,94027	63885
21,94440	61389
21,94852	63756
21,95263	60487
21,95677	60323
21,96088	58446
21,96500	56461
21,96912	54646
21,97325	55787
21,97737	51997
21,98148	53417
21,98562	51678
21,98973	51306
21,99385	48269
21,99798	48990
22,00210	47414
22,00622	48413
22,01035	46165
22,01447	47823
22,01858	48864
22,02272	45407
22,02683	46105
22,03095	44920
22,03508	44943
22,03920	47092
22,04332	44173
22,04745	41382
22,05157	41182
22,05568	41781
22,05980	43254
22,06393	41192
22,06805	40297
22,07217	39494
22,07630	40537
22,08042	38375
22,08453	39496
22,08867	38450
22,09278	38318
22,09690	37308
22,10103	36990
22,10515	36230
22,10927	35525
22,11340	36677
22,11752	37256
22,12163	35479
22,12577	34336
22,12988	34151
22,13400	34960
22,13813	34579
22,14225	36706
22,14637	34803
22,15048	35552
22,15462	36273
22,15873	37538
22,16285	41442
22,16698	46096
22,17110	57217
22,17522	71667
22,17935	98866
22,18347	141417
22,18758	209380
22,19172	308140
22,19583	455176
22,19995	647152
22,20408	888818
22,20820	1189440
22,21232	1535380
22,21645	1942468
22,22057	2332361
22,22468	2714183
22,22882	3034510
22,23293	3231528
22,23705	3281303
22,24117	3174439
22,24530	2971967
22,24942	2655985
22,25353	2311007
22,25767	1972039
22,26178	1675129
22,26590	1430952
22,27003	1221143
22,27415	1049875
22,27827	921935
22,28240	820503
22,28652	719128
22,29063	642103
22,29477	580518
22,29888	527546
22,30300	477241
22,30713	438571
22,31125	406916
22,31537	375251
22,31950	351001
22,32362	329737
22,32773	308277
22,33185	286565
22,33598	270284
22,34010	256751
22,34422	246901
22,34835	231860
22,35247	221681
22,35658	210756
22,36072	198393
22,36483	190590
22,36895	180549
22,37308	177200
22,37720	172722
22,38132	161746
22,38545	157434
22,38957	154157
22,39368	145910
22,39782	143071
22,40193	136275
22,40605	127839
22,41018	128192
22,41430	125922
22,41842	120557
22,42253	114851
22,42667	114934
22,43078	111205
22,43490	110794
22,43903	106458
22,44315	100522
22,44727	99291
22,45140	100167
22,45552	93869
22,45963	92764
22,46377	93223
22,46788	91067
22,47200	90465
22,47613	85047
22,48025	84206
22,48437	82175
22,48850	84771
22,49262	83684
22,49673	74922
22,50087	77621
22,50498	77654
22,50910	77297
22,51322	74010
22,51735	74832
22,52147	74352
22,52558	73446
22,52972	71674
22,53383	71596
22,53795	72796
22,54208	70512
22,54620	67476
22,55032	70617
22,55445	65813
22,55857	63657
22,56268	63929
22,56682	65081
22,57093	64027
22,57505	58696
22,57918	61297
22,58330	62926
22,58742	57771
22,59155	60611
22,59567	55349
22,59978	54767
22,60390	58192
22,60803	57903
22,61215	55920
22,61627	54744
22,62040	54780
22,62452	53130
22,62863	58820
22,63277	63055
22,63688	72926
22,64100	87044
22,64513	112610
22,64925	150825
22,65337	211520
22,65750	300784
22,66162	417029
22,66573	573875
22,66987	758725
22,67398	958869
22,67810	1154936
22,68223	1349547
22,68635	1475794
22,69047	1541929
22,69458	1532797
22,69872	1462859
22,70283	1350909
22,70695	1228406
22,71108	1080663
22,71520	947242
22,71932	828471
22,72345	729441
22,72757	634776
22,73168	553076
22,73582	500183
22,73993	449593
22,74405	404582
22,74818	370455
22,75230	339269
22,75642	305239
22,76055	288619
22,76467	263926
22,76878	252850
22,77292	230105
22,77703	224375
22,78115	205610
22,78527	197400
22,78940	184443
22,79352	176179
22,79763	172716
22,80177	162257
22,80588	153159
22,81000	151902
22,81413	145510
22,81825	142449
22,82237	133281
22,82650	129330
22,83062	129028
22,83473	122416
22,83887	117093
22,84298	113078
22,84710	108317
22,85123	108236
22,85535	101907
22,85947	101418
22,86360	99733
22,86772	96208
22,87183	94592
22,87595	92295
22,88008	91572
22,88420	91583
22,88832	88281
22,89245	85154
22,89657	83264
22,90068	81372
22,90482	76490
22,90893	76629
22,91305	79921
22,91718	74669
22,92130	72578
22,92542	71783
22,92955	70009
22,93367	72064
22,93778	70964
22,94192	65164
22,94603	68239
22,95015	63922
22,95428	64377
22,95840	62630
22,96252	59547
22,96663	60931
22,97077	63587
22,97488	61954
22,97900	61001
22,98313	60251
22,98725	60593
22,99137	59597
22,99550	60809
22,99962	60438
23,00373	61764
23,00787	60316
23,01198	63680
23,01610	65692
23,02023	70367
23,02435	77310
23,02847	81025
23,03260	91409
23,03672	102045
23,04083	110317
23,04497	115627
23,04908	122817
23,05320	126480
23,05732	124683
23,06145	124565
23,06557	121948
23,06968	115629
23,07382	108607
23,07793	99530
23,08205	99365
23,08618	92391
23,09030	83613
23,09442	78603
23,09855	73606
23,10267	69363
23,10678	66057
23,11092	64181
23,11503	58574
23,11915	56868
23,12328	55365
23,12740	55183
23,13152	51837
23,13565	54032
23,13977	53562
23,14388	50431
23,14800	49790
23,15213	50131
23,15625	50373
23,16037	50056
23,16450	48512
23,16862	48469
23,17273	50339
23,17687	46094
23,18098	49998
23,18510	47168
23,18923	46079
23,19335	45150
23,19747	45223
23,20160	46624
23,20572	46548
23,20983	45586
23,21397	45936
23,21808	46825
23,22220	45107
23,22633	45129
23,23045	45384
23,23457	43731
23,23868	45941
23,24282	44335
23,24693	44195
23,25105	44713
23,25518	44024
23,25930	44916
23,26342	43137
23,26755	43936
23,27167	41620
23,27578	43496
23,27992	43352
23,28403	45178
23,28815	41899
23,29228	43867
23,29640	42542
23,30052	42409
23,30465	41839
23,30877	41479
23,31288	42414
23,31702	42493
23,32113	40685
23,32525	38461
23,32937	42785
23,33350	40438
23,33762	41571
23,34173	38471
23,34587	40882
23,34998	41537
23,35410	41821
23,35823	41873
23,36235	40500
23,36647	41708
23,37060	42002
23,37472	42033
23,37883	41522
23,38297	44448
23,38708	43208
23,39120	39410
23,39533	41727
23,39945	41873
23,40357	40565
23,40770	41563
23,41182	42606
23,41593	43496
23,42005	41299
23,42418	40761
23,42830	42113
23,43242	41866
23,43655	40547
23,44067	42681
23,44478	42808
23,44892	40093
23,45303	42251
23,45715	42270
23,46128	39339
23,46540	42958
23,46952	43399
23,47365	37826
23,47777	40533
23,48188	38460
23,48602	42964
23,49013	40712
23,49425	41601
23,49838	42355
23,50250	42799
23,50662	41247
23,51073	43196
23,51487	41434
23,51898	43402
23,52310	42301
23,52723	41608
23,53135	41479
23,53547	41423
23,53960	42387
23,54372	42627
23,54783	42202
23,55197	41424
23,55608	40818
23,56020	43214
23,56433	40227
23,56845	40721
23,57257	39975
23,57670	39505
23,58082	37641
23,58493	39889
23,58907	39615
23,59318	40842
23,59730	39893
23,60143	38828
23,60555	40912
23,60967	41502
23,61378	38106
23,61792	38915
23,62203	39929
23,62615	39827
23,63028	40154
23,63440	40292
23,63852	38727
23,64265	39501
23,64677	38872
23,65088	38393
23,65502	37642
23,65913	40585
23,66325	39325
23,66738	39339
23,67150	37743
23,67562	39086
23,67975	40375
23,68387	38636
23,68798	40959
23,69212	40585
23,69623	40701
23,70035	39246
23,70447	35581
23,70860	39937
23,71272	41618
23,71683	38044
23,72097	41079
23,72508	40018
23,72920	41079
23,73333	38687
23,73745	39665
23,74157	40307
23,74570	40177
23,74982	38462
23,75393	39853
23,75807	38814
23,76218	40467
23,76630	38784
23,77043	40571
23,77455	40986
23,77867	38181
23,78280	39519
23,78692	38396
23,79103	38789
23,79515	38615
23,79928	41028
23,80340	41045
23,80752	42564
23,81165	40075
23,81577	37482
23,81988	39278
23,82402	39703
23,82813	39033
23,83225	39899
23,83638	41226
23,84050	41364
23,84462	39353
23,84875	39486
23,85287	39635
23,85698	38958
23,86112	39339
23,86523	39445
23,86935	41136
23,87348	42222
23,87760	40867
23,88172	38611
23,88583	39064
23,88997	40812
23,89408	41164
23,89820	43947
23,90233	46627
23,90645	50423
23,91057	65005
23,91470	80332
23,91882	103552
23,92293	138266
23,92707	194303
23,93118	253769
23,93530	340396
23,93943	436396
23,94355	542584
23,94767	644676
23,95180	732072
23,95592	799871
23,96003	843173
23,96417	834523
23,96828	818418
23,97240	769769
23,97652	717937
23,98065	646848
23,98477	576944
23,98888	507985
23,99302	451001
23,99713	407159
24,00125	359749
24,00538	315464
24,00950	279548
24,01362	257785
24,01775	224135
24,02187	207618
24,02598	193069
24,03012	177929
24,03423	165884
24,03835	149636
24,04248	143652
24,04660	136300
24,05072	130837
24,05485	121565
24,05897	116309
24,06308	113929
24,06720	105628
24,07133	102093
24,07545	96567
24,07957	94055
24,08370	92256
24,08782	87638
24,09193	84205
24,09607	81770
24,10018	80762
24,10430	78133
24,10843	74986
24,11255	73373
24,11667	71964
24,12080	72595
24,12492	70986
24,12903	71010
24,13317	69700
24,13728	66862
24,14140	65019
24,14553	63152
24,14965	65184
24,15377	61425
24,15788	62541
24,16202	63434
24,16613	57387
24,17025	62380
24,17438	58940
24,17850	56682
24,18262	57075
24,18675	56173
24,19087	55475
24,19498	54386
24,19912	53189
24,20323	55267
24,20735	54693
24,21148	55738
24,21560	54436
24,21972	53541
24,22385	51563
24,22797	51597
24,23208	49253
24,23622	51265
24,24033	50216
24,24445	49732
24,24857	49913
24,25270	52603
24,25682	47403
24,26093	50034
24,26507	48437
24,26918	47790
24,27330	47307
24,27743	48415
24,28155	48316
24,28567	47617
24,28980	47844
24,29392	44171
24,29803	45812
24,30217	48755
24,30628	47033
24,31040	47080
24,31453	47370
24,31865	48562
24,32277	48123
24,32690	46440
24,33102	47606
24,33513	47240
24,33925	48790
24,34338	48646
24,34750	46544
24,35162	46547
24,35575	47042
24,35987	50220
24,36398	47338
24,36812	47006
24,37223	45224
24,37635	48926
24,38048	47851
24,38460	48037
24,38872	43807
24,39285	45790
24,39697	44635
24,40108	46745
24,40522	44731
24,40933	45541
24,41345	43762
24,41758	45793
24,42170	45104
24,42582	44083
24,42993	43880
24,43407	44942
24,43818	44528
24,44230	45123
24,44643	44662
24,45055	46645
24,45467	46060
24,45880	47057
24,46292	44201
24,46703	43853
24,47117	42446
24,47528	44018
24,47940	44381
24,48353	44297
24,48765	46468
24,49177	43555
24,49590	41969
24,50002	44087
24,50413	46728
24,50827	44198
24,51238	42828
24,51650	42495
24,52062	44329
24,52475	43586
24,52887	43785
24,53298	45598
24,53712	43095
24,54123	45022
24,54535	43630
24,54948	42766
24,55360	42160
24,55772	43424
24,56185	42775
24,56597	42461
24,57008	42051
24,57422	43807
24,57833	44487
24,58245	43262
24,58658	42872
24,59070	43288
24,59482	42494
24,59895	42204
24,60307	40565
24,60718	43470
24,61130	42469
24,61543	41477
24,61955	42413
24,62367	44918
24,62780	42284
24,63192	43131
24,63603	43153
24,64017	43201
24,64428	41319
24,64840	43293
24,65253	43971
24,65665	44554
24,66077	42472
24,66490	42990
24,66902	44983
24,67313	44883
24,67727	44436
24,68138	42695
24,68550	45577
24,68963	42608
24,69375	42820
24,69787	43793
24,70198	43856
24,70612	44701
24,71023	44383
24,71435	43476
24,71848	41904
24,72260	45105
24,72672	43917
24,73085	43774
24,73497	43377
24,73908	43782
24,74322	43339
24,74733	42649
24,75145	41739
24,75558	42776
24,75970	42313
24,76382	42790
24,76795	44069
24,77207	43399
24,77618	44325
24,78032	40696
24,78443	43350
24,78855	43672
24,79267	42172
24,79680	43231
24,80092	42852
24,80503	44116
24,80917	41532
24,81328	43660
24,81740	44799
24,82153	41970
24,82565	41100
24,82977	42554
24,83390	43222
24,83802	42913
24,84213	41674
24,84627	41260
24,85038	40425
24,85450	43097
24,85863	41136
24,86275	45273
24,86687	45102
24,87100	40886
24,87512	43536
24,87923	41208
24,88335	41493
24,88748	43794
24,89160	43202
24,89572	42136
24,89985	42954
24,90397	39883
24,90808	42812
24,91222	43254
24,91633	43542
24,92045	43198
24,92458	42921
24,92870	42030
24,93282	43680
24,93695	43603
24,94107	43921
24,94518	42471
24,94932	42555
24,95343	45485
24,95755	43780
24,96168	45196
24,96580	44301
24,96992	43095
24,97403	41499
24,97817	43065
24,98228	42568
24,98640	45636
24,99053	44217
24,99465	43109
24,99877	45314
25,00290	46528
25,00702	47399
25,01113	45300
25,01527	44003
25,01938	42840
25,02350	44402
25,02763	44012
25,03175	40126
25,03587	42439
25,04000	42766
25,04412	42964
25,04823	40547
25,05237	41989
25,05648	43552
25,06060	42291
25,06472	41635
25,06885	41004
25,07297	42120
25,07708	41619
25,08122	43537
25,08533	44217
25,08945	39074
25,09358	42904
25,09770	41574
25,10182	42588
25,10595	41798
25,11007	41552
25,11418	40497
25,11832	42679
25,12243	41228
25,12655	42623
25,13068	41482
25,13480	42835
25,13892	42724
25,14305	41301
25,14717	41447
25,15128	44563
25,15542	40100
25,15953	41996
25,16365	40291
25,16777	42033
25,17190	42975
25,17602	42493
25,18013	43011
25,18427	41589
25,18838	43009
25,19250	42920
25,19663	42496
25,20075	44382
25,20487	40307
25,20900	41944
25,21312	43153
25,21723	41641
25,22137	44600
25,22548	41133
25,22960	41835
25,23373	41172
25,23785	43369
25,24197	41390
25,24610	43507
25,25022	42277
25,25433	42265
25,25845	42219
25,26258	42068
25,26670	43759
25,27082	43678
25,27495	40207
25,27907	40629
25,28318	42576
25,28732	42797
25,29143	43652
25,29555	41461
25,29968	38053
25,30380	44511
25,30792	39696
25,31205	41609
25,31617	41970
25,32028	41736
25,32442	42875
25,32853	40963
25,33265	40747
25,33678	41457
25,34090	42214
25,34502	40250
25,34913	42342
25,35327	41638
25,35738	41745
25,36150	41020
25,36563	43438
25,36975	38242
25,37387	41357
25,37800	40210
25,38212	40831
25,38623	43949
25,39037	41914
25,39448	41023
25,39860	43170
25,40273	44556
25,40685	44700
25,41097	43381
25,41510	44683
25,41922	42647
25,42333	43643
25,42747	42567
25,43158	44634
25,43570	44024
25,43982	43167
25,44395	43809
25,44807	44520
25,45218	42262
25,45632	43493
25,46043	41356
25,46455	43202
25,46868	44531
25,47280	43913
25,47692	41934
25,48105	44295
25,48517	42563
25,48928	44052
25,49342	40086
25,49753	42906
25,50165	42657
25,50578	42817
25,50990	42687
25,51402	40632
25,51815	41089
25,52227	41056
25,52638	43817
25,53050	42420
25,53463	41075
25,53875	41529
25,54287	41216
25,54700	42319
25,55112	41409
25,55523	41423
25,55937	39715
25,56348	40892
25,56760	39683
25,57173	44127
25,57585	44302
25,57997	41683
25,58410	42533
25,58822	43629
25,59233	41760
25,59647	40801
25,60058	40860
25,60470	43841
25,60883	42295
25,61295	39963
25,61707	41701
25,62118	41393
25,62532	44077
25,62943	38287
25,63355	40900
25,63768	39908
25,64180	43873
25,64592	40581
25,65005	40930
25,65417	40985
25,65828	41766
25,66242	44387
25,66653	41641
25,67065	40631
25,67478	42087
25,67890	40414
25,68302	41583
25,68715	43066
25,69127	43929
25,69538	43675
25,69952	42310
25,70363	43751
25,70775	44489
25,71187	45744
25,71600	39160
25,72012	41571
25,72423	41442
25,72837	40457
25,73248	39612
25,73660	44336
25,74073	42955
25,74485	40870
25,74897	41929
25,75310	41068
25,75722	43236
25,76133	42986
25,76547	42249
25,76958	40012
25,77370	44332
25,77783	40814
25,78195	38361
25,78607	41515
25,79020	40144
25,79432	44149
25,79843	42817
25,80255	40762
25,80668	43795
25,81080	42359
25,81492	39970
25,81905	39815
25,82317	42719
25,82728	42421
25,83142	41832
25,83553	39784
25,83965	42913
25,84378	42618
25,84790	41456
25,85202	40980
25,85615	41866
25,86027	43084
25,86438	39911
25,86852	43106
