D:\MassHunter\GCMS\1\data\Amal\Constant flow\110C\110C_1ml-min_9C-min_1.D Tue Jul 30 16:15:33 2024
Start of data points
5,59085	24850
5,59497	24629
5,59910	23441
5,60322	21941
5,60733	23240
5,61147	22587
5,61558	22790
5,61970	23409
5,62383	22607
5,62795	23185
5,63207	21755
5,63620	21661
5,64032	22857
5,64443	21451
5,64857	22002
5,65268	21926
5,65680	21855
5,66093	21683
5,66505	20941
5,66917	21624
5,67330	21585
5,67742	22382
5,68153	21506
5,68565	20959
5,68978	20058
5,69390	21443
5,69802	21204
5,70215	20802
5,70627	22216
5,71038	26651
5,71452	33187
5,71863	42652
5,72275	55354
5,72688	74234
5,73100	89493
5,73512	104341
5,73925	116494
5,74337	120252
5,74748	122326
5,75162	118883
5,75573	116998
5,75985	113484
5,76398	105108
5,76810	102647
5,77222	95702
5,77633	93374
5,78047	88178
5,78458	82754
5,78870	80532
5,79283	74837
5,79695	72831
5,80107	67773
5,80520	63971
5,80932	61148
5,81343	59933
5,81757	59135
5,82168	54259
5,82580	52291
5,82993	50519
5,83405	48222
5,83817	46851
5,84230	43482
5,84642	41699
5,85053	39914
5,85467	38764
5,85878	36405
5,86290	34793
5,86702	32240
5,87115	30933
5,87527	29335
5,87938	28011
5,88352	27557
5,88763	26828
5,89175	25107
5,89588	24141
5,90000	24642
5,90412	23004
5,90825	23062
5,91237	21104
5,91648	22092
5,92062	20580
5,92473	19784
5,92885	20278
5,93298	20518
5,93710	19378
5,94122	17667
5,94535	18906
5,94947	18421
5,95358	17469
5,95770	19485
5,96183	16803
5,96595	17480
5,97007	17353
5,97420	16269
5,97832	17305
5,98243	17256
5,98657	15680
5,99068	16085
5,99480	17135
5,99893	17267
6,00305	16842
6,00717	15586
6,01130	15805
6,01542	17312
6,01953	16291
6,02367	15166
6,02778	15247
6,03190	14727
6,03603	16030
6,04015	15959
6,04427	14696
6,04838	16898
6,05252	15097
6,05663	15221
6,06075	15548
6,06488	14916
6,06900	15461
6,07312	15584
6,07725	15860
6,08137	15973
6,08548	15267
6,08962	15624
6,09373	16127
6,09785	15886
6,10198	15810
6,10610	16010
6,11022	15709
6,11435	14234
6,11847	14376
6,12258	15055
6,12672	15010
6,13083	15111
6,13495	14441
6,13907	14726
6,14320	14673
6,14732	14516
6,15143	15197
6,15557	16394
6,15968	14724
6,16380	15047
6,16793	14949
6,17205	14838
6,17617	15102
6,18030	16456
6,18442	14403
6,18853	14646
6,19267	13997
6,19678	14689
6,20090	15143
6,20503	14839
6,20915	15177
6,21327	13875
6,21740	14074
6,22152	14562
6,22563	14873
6,22975	13425
6,23388	12985
6,23800	13810
6,24212	14344
6,24625	14685
6,25037	13299
6,25448	13168
6,25862	13210
6,26273	14183
6,26685	15320
6,27098	13833
6,27510	13481
6,27922	13059
6,28335	13746
6,28747	12837
6,29158	14690
6,29572	14594
6,29983	13872
6,30395	13957
6,30808	13889
6,31220	14032
6,31632	13148
6,32045	13291
6,32457	12712
6,32868	13538
6,33280	14901
6,33693	14074
6,34105	12975
6,34517	13480
6,34930	12573
6,35342	12655
6,35753	13182
6,36167	12977
6,36578	12892
6,36990	13158
6,37403	12766
6,37815	12408
6,38227	13575
6,38640	12564
6,39052	12582
6,39463	12570
6,39877	11949
6,40288	11832
6,40700	12446
6,41113	11413
6,41525	11932
6,41937	10994
6,42348	11052
6,42762	11608
6,43173	11205
6,43585	11390
6,43998	11459
6,44410	11292
6,44822	10986
6,45235	9985
6,45647	11781
6,46058	11872
6,46472	12719
6,46883	13148
6,47295	12491
6,47708	12690
6,48120	13423
6,48532	13227
6,48945	13408
6,49357	13227
6,49768	12323
6,50182	13042
6,50593	13000
6,51005	12576
6,51417	12789
6,51830	11908
6,52242	11219
6,52653	10870
6,53067	11206
6,53478	11563
6,53890	11069
6,54303	10154
6,54715	10524
6,55127	11778
6,55540	10069
6,55952	11103
6,56363	11065
6,56777	11175
6,57188	9996
6,57600	10870
6,58013	10542
6,58425	10419
6,58837	10693
6,59250	10366
6,59662	10638
6,60073	10683
6,60485	10057
6,60898	9626
6,61310	9518
6,61722	10965
6,62135	9952
6,62547	10334
6,62958	10819
6,63372	10029
6,63783	9457
6,64195	11753
6,64608	10132
6,65020	10623
6,65432	9710
6,65845	10800
6,66257	10074
6,66668	8980
6,67082	10328
6,67493	10152
6,67905	9196
6,68318	10034
6,68730	9304
6,69142	9747
6,69553	9521
6,69967	10009
6,70378	9434
6,70790	9012
6,71203	9233
6,71615	10301
6,72027	8981
6,72440	9704
6,72852	10919
6,73263	9116
6,73677	9352
6,74088	9745
6,74500	9666
6,74913	9133
6,75325	9202
6,75737	8109
6,76150	9246
6,76562	8873
6,76973	9611
6,77387	8270
6,77798	8942
6,78210	9623
6,78622	10022
6,79035	9491
6,79447	10892
6,79858	10352
6,80272	10243
6,80683	10212
6,81095	10757
6,81508	10125
6,81920	9435
6,82332	9223
6,82745	10543
6,83157	10181
6,83568	9349
6,83982	11902
6,84393	15718
6,84805	23838
6,85218	41438
6,85630	74329
6,86042	122241
6,86455	192763
6,86867	277607
6,87278	368441
6,87690	453593
6,88103	517646
6,88515	569587
6,88927	588415
6,89340	579023
6,89752	563263
6,90163	541587
6,90577	501646
6,90988	460926
6,91400	427340
6,91813	389749
6,92225	360678
6,92637	327249
6,93050	300400
6,93462	273942
6,93873	248226
6,94287	223832
6,94698	198772
6,95110	178730
6,95523	157671
6,95935	140372
6,96347	121335
6,96758	105725
6,97172	88255
6,97583	79250
6,97995	68353
6,98408	58898
6,98820	53214
6,99232	45415
6,99645	41051
7,00057	36591
7,00468	32473
7,00882	27954
7,01293	24657
7,01705	21231
7,02118	21033
7,02530	18338
7,02942	17455
7,03355	15178
7,03767	14681
7,04178	15402
7,04592	15093
7,05003	13884
7,05415	12772
7,05827	12309
7,06240	12616
7,06652	12814
7,07063	11942
7,07477	10998
7,07888	11138
7,08300	10905
7,08713	10333
7,09125	8943
7,09537	10356
7,09950	9594
7,10362	10170
7,10773	11511
7,11187	10187
7,11598	9759
7,12010	9883
7,12423	9425
7,12835	9642
7,13247	10158
7,13660	9512
7,14072	9055
7,14483	9101
7,14895	8551
7,15308	8518
7,15720	8754
7,16132	9518
7,16545	8422
7,16957	8909
7,17368	8541
7,17782	9209
7,18193	8599
7,18605	8123
7,19018	8723
7,19430	8489
7,19842	8577
7,20255	8451
7,20667	8312
7,21078	8349
7,21492	8425
7,21903	7724
7,22315	7353
7,22728	8099
7,23140	8348
7,23552	7929
7,23963	8388
7,24377	8752
7,24788	8508
7,25200	8261
7,25613	8910
7,26025	7994
7,26437	7875
7,26850	7382
7,27262	8085
7,27673	8513
7,28087	8516
7,28498	7567
7,28910	9181
7,29323	7675
7,29735	6988
7,30147	7258
7,30560	7300
7,30972	7675
7,31383	7924
7,31797	7843
7,32208	6976
7,32620	7128
7,33032	7781
7,33445	7762
7,33857	6960
7,34268	8381
7,34682	7885
7,35093	6798
7,35505	7653
7,35918	8082
7,36330	7673
7,36742	6438
7,37155	7297
7,37567	6754
7,37978	7277
7,38392	7346
7,38803	7672
7,39215	6521
7,39628	7344
7,40040	7700
7,40452	6975
7,40865	8123
7,41277	7730
7,41688	7377
7,42100	7041
7,42513	7934
7,42925	6898
7,43337	7310
7,43750	6674
7,44162	7849
7,44573	7539
7,44987	7261
7,45398	7103
7,45810	6511
7,46223	7026
7,46635	7429
7,47047	6723
7,47460	5774
7,47872	7070
7,48283	8261
7,48697	6616
7,49108	6526
7,49520	6775
7,49933	7547
7,50345	7139
7,50757	6227
7,51168	6074
7,51582	6135
7,51993	6717
7,52405	6577
7,52818	6316
7,53230	7526
7,53642	7418
7,54055	11269
7,54467	15724
7,54878	29622
7,55292	49144
7,55703	81975
7,56115	132630
7,56528	188809
7,56940	250796
7,57352	313865
7,57765	361555
7,58177	397840
7,58588	408785
7,59002	405616
7,59413	392818
7,59825	367994
7,60237	338053
7,60650	305497
7,61062	275774
7,61473	245650
7,61887	217165
7,62298	189191
7,62710	163327
7,63123	141998
7,63535	121232
7,63947	105947
7,64360	88797
7,64772	73062
7,65183	60800
7,65597	51898
7,66008	46140
7,66420	36772
7,66833	33116
7,67245	27932
7,67657	24162
7,68070	21863
7,68482	18706
7,68893	16526
7,69305	14458
7,69718	14093
7,70130	13216
7,70542	12369
7,70955	11525
7,71367	10972
7,71778	10846
7,72192	10316
7,72603	9682
7,73015	8887
7,73428	8885
7,73840	9247
7,74252	8152
7,74665	8082
7,75077	7903
7,75488	7750
7,75902	7693
7,76313	8048
7,76725	7489
7,77138	7501
7,77550	6785
7,77962	7537
7,78373	7005
7,78787	6829
7,79198	8157
7,79610	7618
7,80023	7879
7,80435	8537
7,80847	8359
7,81260	9138
7,81672	8948
7,82083	8220
7,82497	8928
7,82908	8544
7,83320	9559
7,83733	8462
7,84145	9197
7,84557	9751
7,84970	10065
7,85382	10011
7,85793	9138
7,86207	9591
7,86618	9099
7,87030	8746
7,87442	8459
7,87855	7715
7,88267	7566
7,88678	7152
7,89092	6888
7,89503	6984
7,89915	6273
7,90328	7054
7,90740	6198
7,91152	6707
7,91565	6978
7,91977	6011
7,92388	6239
7,92802	6488
7,93213	6121
7,93625	5767
7,94038	6166
7,94450	6274
7,94862	5084
7,95275	5570
7,95687	6265
7,96098	5790
7,96512	5648
7,96923	5969
7,97335	6258
7,97747	6297
7,98160	6042
7,98572	5667
7,98983	5317
7,99397	5209
7,99808	5739
8,00220	5222
8,00633	5875
8,01045	5294
8,01457	4552
8,01870	5418
8,02282	5127
8,02693	5898
8,03107	4665
8,03518	5319
8,03930	5029
8,04343	5591
8,04755	5514
8,05167	5385
8,05580	5182
8,05992	5392
8,06403	5877
8,06815	5373
8,07228	5203
8,07640	5078
8,08052	5351
8,08465	4668
8,08877	5517
8,09288	5213
8,09702	5433
8,10113	5496
8,10525	5725
8,10938	4863
8,11350	6035
8,11762	5596
8,12175	5450
8,12587	6100
8,12998	6315
8,13412	5042
8,13823	5426
8,14235	5988
8,14648	4173
8,15060	5419
8,15472	5629
8,15883	5156
8,16297	5094
8,16708	5627
8,17120	5151
8,17533	5071
8,17945	4316
8,18357	5328
8,18770	4389
8,19182	5624
8,19593	5632
8,20007	4833
8,20418	5295
8,20830	4888
8,21243	5339
8,21655	6129
8,22067	5078
8,22480	5547
8,22892	5182
8,23303	5649
8,23717	5745
8,24128	5261
8,24540	4321
8,24952	5304
8,25365	4803
8,25777	5495
8,26188	6032
8,26602	5097
8,27013	4970
8,27425	4616
8,27838	5628
8,28250	6359
8,28662	9160
8,29075	17297
8,29487	34593
8,29898	65670
8,30312	119356
8,30723	208143
8,31135	331810
8,31548	483431
8,31960	646922
8,32372	812786
8,32785	939255
8,33197	1028574
8,33608	1063478
8,34020	1049896
8,34433	985133
8,34845	888486
8,35257	796811
8,35670	679117
8,36082	576349
8,36493	479380
8,36907	387538
8,37318	323673
8,37730	258440
8,38143	206543
8,38555	163362
8,38967	129651
8,39380	106306
8,39792	81699
8,40203	67720
8,40617	54963
8,41028	46217
8,41440	39088
8,41853	33749
8,42265	29507
8,42677	26365
8,43088	23476
8,43502	21221
8,43913	19022
8,44325	18541
8,44738	15837
8,45150	15656
8,45562	13964
8,45975	13456
8,46387	11847
8,46798	11779
8,47212	11100
8,47623	11309
8,48035	10173
8,48448	9445
8,48860	10047
8,49272	9497
8,49685	10086
8,50097	9966
8,50508	10418
8,50922	10470
8,51333	10861
8,51745	10099
8,52157	9701
8,52570	8726
8,52982	7986
8,53393	7400
8,53807	7257
8,54218	6133
8,54630	6522
8,55043	6686
8,55455	6140
8,55867	6390
8,56280	5831
8,56692	6396
8,57103	5419
8,57517	6167
8,57928	6572
8,58340	6167
8,58753	6059
8,59165	5709
8,59577	5132
8,59990	5657
8,60402	5072
8,60813	5069
8,61225	5083
8,61638	5553
8,62050	5330
8,62462	5942
8,62875	4978
8,63287	6277
8,63698	5066
8,64112	4913
8,64523	5027
8,64935	5495
8,65348	4683
8,65760	5762
8,66172	5125
8,66585	4503
8,66997	5610
8,67408	5356
8,67822	4411
8,68233	4982
8,68645	4968
8,69058	4588
8,69470	4138
8,69882	4662
8,70293	5449
8,70707	5291
8,71118	4526
8,71530	4613
8,71943	4354
8,72355	4397
8,72767	4835
8,73180	4634
8,73592	4896
8,74003	4158
8,74417	4629
8,74828	4583
8,75240	4363
8,75653	5146
8,76065	4823
8,76477	4433
8,76890	5046
8,77302	4404
8,77713	4682
8,78127	4395
8,78538	4686
8,78950	4477
8,79362	4496
8,79775	4621
8,80187	4250
8,80598	4446
8,81012	4425
8,81423	5115
8,81835	4505
8,82248	4317
8,82660	4414
8,83072	4488
8,83485	5245
8,83897	4489
8,84308	4804
8,84722	4786
8,85133	5112
8,85545	3930
8,85958	4237
8,86370	4560
8,86782	3781
8,87195	4412
8,87607	3686
8,88018	4350
8,88430	4361
8,88843	4685
8,89255	4377
8,89667	4529
8,90080	4356
8,90492	5047
8,90903	4798
8,91317	5717
8,91728	6205
8,92140	7405
8,92553	8833
8,92965	8685
8,93377	8783
8,93790	8861
8,94202	8800
8,94613	8385
8,95027	7977
8,95438	8516
8,95850	7409
8,96263	7256
8,96675	7021
8,97087	6747
8,97498	5718
8,97912	5777
8,98323	5619
8,98735	5656
8,99148	4983
8,99560	5214
8,99972	4560
9,00385	4019
9,00797	4217
9,01208	4664
9,01622	4152
9,02033	3789
9,02445	4638
9,02858	4255
9,03270	4176
9,03682	4132
9,04095	3722
9,04507	3741
9,04918	3455
9,05332	3620
9,05743	4310
9,06155	5161
9,06567	7336
9,06980	13072
9,07392	27011
9,07803	49583
9,08217	87684
9,08628	150864
9,09040	235667
9,09453	341612
9,09865	444220
9,10277	536053
9,10690	610983
9,11102	638221
9,11513	631164
9,11927	587980
9,12338	520267
9,12750	454118
9,13163	379024
9,13575	303247
9,13987	235474
9,14400	184599
9,14812	139592
9,15223	106553
9,15635	83877
9,16048	64258
9,16460	50543
9,16872	41008
9,17285	32773
9,17697	29024
9,18108	24949
9,18522	20759
9,18933	18300
9,19345	16835
9,19758	16183
9,20170	14045
9,20582	11790
9,20995	11008
9,21407	9869
9,21818	10412
9,22232	10109
9,22643	8601
9,23055	8271
9,23468	7700
9,23880	7758
9,24292	7374
9,24703	6051
9,25117	6164
9,25528	6541
9,25940	5982
9,26353	6662
9,26765	5227
9,27177	5633
9,27590	5239
9,28002	5032
9,28413	5249
9,28827	4402
9,29238	5073
9,29650	4291
9,30063	4931
9,30475	5151
9,30887	3995
9,31300	4566
9,31712	4688
9,32123	4309
9,32537	3774
9,32948	4256
9,33360	4699
9,33772	4151
9,34185	4208
9,34597	3944
9,35008	3813
9,35422	4080
9,35833	3614
9,36245	3746
9,36658	4039
9,37070	4049
9,37482	4489
9,37895	3866
9,38307	4137
9,38718	3346
9,39132	4998
9,39543	3434
9,39955	3766
9,40368	4203
9,40780	3093
9,41192	3542
9,41605	4170
9,42017	3271
9,42428	3238
9,42840	3896
9,43253	3250
9,43665	4168
9,44077	3451
9,44490	4110
9,44902	4328
9,45313	4211
9,45727	3529
9,46138	3266
9,46550	3734
9,46963	3354
9,47375	4187
9,47787	4554
9,48200	5060
9,48612	4494
9,49023	5624
9,49437	6591
9,49848	7451
9,50260	6423
9,50673	5846
9,51085	5936
9,51497	4849
9,51910	4977
9,52322	4815
9,52733	4501
9,53145	3975
9,53558	4214
9,53970	3412
9,54382	4008
9,54795	3484
9,55207	4117
9,55618	3185
9,56032	3698
9,56443	4238
9,56855	3309
9,57268	4164
9,57680	4043
9,58092	4166
9,58505	3816
9,58917	3921
9,59328	3734
9,59742	3391
9,60153	3686
9,60565	3748
9,60978	3077
9,61390	2801
9,61802	2852
9,62213	3617
9,62627	3123
9,63038	3294
9,63450	3323
9,63863	3760
9,64275	3075
9,64687	3222
9,65100	2608
9,65512	4040
9,65923	2832
9,66337	3755
9,66748	4373
9,67160	4108
9,67573	5517
9,67985	4971
9,68397	4932
9,68810	5421
9,69222	5665
9,69633	7261
9,70047	6084
9,70458	5831
9,70870	6197
9,71282	5926
9,71695	5619
9,72107	5330
9,72518	5698
9,72932	4878
9,73343	4213
9,73755	5077
9,74168	4303
9,74580	3902
9,74992	3829
9,75405	3516
9,75817	3589
9,76228	4119
9,76642	3857
9,77053	2204
9,77465	3277
9,77878	3672
9,78290	3607
9,78702	3258
9,79115	3539
9,79527	3000
9,79938	2934
9,80350	2904
9,80763	3290
9,81175	2941
9,81587	3439
9,82000	2921
9,82412	3423
9,82823	3149
9,83237	3189
9,83648	2926
9,84060	3634
9,84473	4585
9,84885	6623
9,85297	12181
9,85710	27029
9,86122	57541
9,86533	112355
9,86947	212027
9,87358	360867
9,87770	562029
9,88183	802967
9,88595	1061649
9,89007	1288516
9,89418	1460857
9,89832	1507387
9,90243	1442927
9,90655	1311071
9,91068	1118175
9,91480	901230
9,91892	700491
9,92305	523411
9,92717	388958
9,93128	285120
9,93542	208050
9,93953	161638
9,94365	121199
9,94778	95216
9,95190	76344
9,95602	63239
9,96015	50315
9,96427	44971
9,96838	39263
9,97252	34156
9,97663	32815
9,98075	30505
9,98487	27965
9,98900	26493
9,99312	25137
9,99723	23487
10,00137	20707
10,00548	19739
10,00960	18809
10,01373	15334
10,01785	14383
10,02197	12569
10,02610	12034
10,03022	10901
10,03433	11053
10,03847	9865
10,04258	8788
10,04670	8890
10,05083	8536
10,05495	8103
10,05907	7542
10,06320	7202
10,06732	7806
10,07143	6867
10,07555	6227
10,07968	6173
10,08380	6559
10,08792	6716
10,09205	5568
10,09617	5879
10,10028	5892
10,10442	5334
10,10853	5333
10,11265	5551
10,11678	5817
10,12090	7679
10,12502	8057
10,12915	8995
10,13327	8889
10,13738	9740
10,14152	8305
10,14563	7677
10,14975	7450
10,15388	7465
10,15800	8142
10,16212	7181
10,16623	7975
10,17037	8079
10,17448	6661
10,17860	6202
10,18273	6193
10,18685	5258
10,19097	4448
10,19510	4272
10,19922	4176
10,20333	4387
10,20747	3568
10,21158	3669
10,21570	4053
10,21983	4025
10,22395	3388
10,22807	3713
10,23220	3873
10,23632	2942
10,24043	2911
10,24457	3317
10,24868	3585
10,25280	3541
10,25692	3739
10,26105	4287
10,26517	3991
10,26928	4535
10,27342	5485
10,27753	5649
10,28165	6107
10,28578	6022
10,28990	6245
10,29402	5565
10,29815	4658
10,30227	4272
10,30638	3941
10,31052	3825
10,31463	4076
10,31875	3825
10,32288	3752
10,32700	3293
10,33112	3410
10,33525	2759
10,33937	3614
10,34348	2901
10,34760	2301
10,35173	3669
10,35585	3524
10,35997	2278
10,36410	2622
10,36822	2642
10,37233	2577
10,37647	2798
10,38058	3357
10,38470	3129
10,38883	2345
10,39295	2260
10,39707	2738
10,40120	3202
10,40532	3384
10,40943	3464
10,41357	3593
10,41768	4460
10,42180	7738
10,42593	16826
10,43005	34039
10,43417	65352
10,43828	117354
10,44242	196209
10,44653	306739
10,45065	420897
10,45478	539160
10,45890	634779
10,46302	702919
10,46715	712047
10,47127	679027
10,47538	601335
10,47952	500652
10,48363	396916
10,48775	305846
10,49188	228542
10,49600	168425
10,50012	125661
10,50425	92036
10,50837	71721
10,51248	56554
10,51662	45312
10,52073	38647
10,52485	31641
10,52897	26966
10,53310	22530
10,53722	18534
10,54133	17758
10,54547	15623
10,54958	13793
10,55370	12115
10,55783	10117
10,56195	10719
10,56607	10814
10,57020	7615
10,57432	7206
10,57843	9011
10,58257	7216
10,58668	6863
10,59080	7270
10,59493	6589
10,59905	6355
10,60317	5185
10,60730	6016
10,61142	5617
10,61553	5176
10,61965	5485
10,62378	4959
10,62790	6140
10,63202	9035
10,63615	16615
10,64027	32870
10,64438	64615
10,64852	122548
10,65263	207179
10,65675	325065
10,66088	459677
10,66500	598229
10,66912	715481
10,67325	789589
10,67737	812921
10,68148	767309
10,68562	660717
10,68973	550134
10,69385	426538
10,69798	320119
10,70210	238289
10,70622	167690
10,71033	123122
10,71447	94104
10,71858	67826
10,72270	53932
10,72683	42847
10,73095	35918
10,73507	31057
10,73920	25595
10,74332	22612
10,74743	18584
10,75157	16355
10,75568	14376
10,75980	14087
10,76393	11654
10,76805	11487
10,77217	10953
10,77630	10156
10,78042	9565
10,78453	7872
10,78867	7550
10,79278	7897
10,79690	7230
10,80102	7530
10,80515	6400
10,80927	6276
10,81338	5158
10,81752	5516
10,82163	5969
10,82575	4926
10,82988	4892
10,83400	4106
10,83812	5111
10,84225	4804
10,84637	3976
10,85048	3846
10,85462	4859
10,85873	4887
10,86285	4180
10,86698	4022
10,87110	3308
10,87522	3819
10,87935	3831
10,88347	3426
10,88758	2960
10,89170	2929
10,89583	3666
10,89995	3457
10,90407	3585
10,90820	3781
10,91232	3324
10,91643	3209
10,92057	3257
10,92468	2941
10,92880	3584
10,93293	3047
10,93705	2949
10,94117	3239
10,94530	2800
10,94942	2826
10,95353	3468
10,95767	3108
10,96178	2810
10,96590	3104
10,97003	2957
10,97415	3151
10,97827	3440
10,98238	2726
10,98652	2524
10,99063	3126
10,99475	3658
10,99888	3059
11,00300	3565
11,00712	2631
11,01125	2353
11,01537	2536
11,01948	4081
11,02362	3584
11,02773	3302
11,03185	3589
11,03598	3468
11,04010	2942
11,04422	3173
11,04835	3521
11,05247	3176
11,05658	3248
11,06072	3197
11,06483	3602
11,06895	2409
11,07308	2963
11,07720	2634
11,08132	2895
11,08543	2314
11,08957	3503
11,09368	3774
11,09780	3010
11,10193	2933
11,10605	2989
11,11017	3396
11,11430	3532
11,11842	2921
11,12253	3017
11,12667	3021
11,13078	3554
11,13490	3516
11,13903	2857
11,14315	3351
11,14727	2775
11,15140	2798
11,15552	3135
11,15963	2360
11,16377	2545
11,16788	2507
11,17200	2039
11,17612	3242
11,18025	2417
11,18437	2724
11,18848	3327
11,19262	3769
11,19673	5705
11,20085	12633
11,20498	25473
11,20910	55487
11,21322	103964
11,21735	177484
11,22147	286224
11,22558	417571
11,22972	555352
11,23383	679448
11,23795	767624
11,24208	786984
11,24620	758934
11,25032	678168
11,25445	562769
11,25857	439175
11,26268	335031
11,26680	245759
11,27093	178789
11,27505	130166
11,27917	98199
11,28330	73293
11,28742	56078
11,29153	46228
11,29567	35902
11,29978	31512
11,30390	26079
11,30803	22734
11,31215	20929
11,31627	17441
11,32040	14738
11,32452	13855
11,32863	11797
11,33277	11149
11,33688	10921
11,34100	9843
11,34513	10386
11,34925	9132
11,35337	7426
11,35748	6964
11,36162	6781
11,36573	6269
11,36985	7125
11,37398	6092
11,37810	6695
11,38222	6211
11,38635	5676
11,39047	8446
11,39458	12752
11,39872	25128
11,40283	50788
11,40695	108368
11,41108	207699
11,41520	368933
11,41932	614008
11,42345	927331
11,42757	1327476
11,43168	1748956
11,43582	2153265
11,43993	2491668
11,44405	2634795
11,44817	2586628
11,45230	2323161
11,45642	1899010
11,46053	1462589
11,46467	1059231
11,46878	749999
11,47290	522629
11,47703	368094
11,48115	268953
11,48527	201234
11,48940	159572
11,49352	126459
11,49763	105166
11,50177	86250
11,50588	73885
11,51000	63978
11,51413	55919
11,51825	48146
11,52237	44882
11,52650	38780
11,53062	35296
11,53473	30961
11,53885	27394
11,54298	26827
11,54710	24435
11,55122	22527
11,55535	21573
11,55947	19924
11,56358	19384
11,56772	18362
11,57183	15789
11,57595	15774
11,58008	15167
11,58420	14158
11,58832	13164
11,59245	12280
11,59657	11634
11,60068	10851
11,60482	11704
11,60893	10077
11,61305	9672
11,61718	9805
11,62130	10013
11,62542	8383
11,62953	9159
11,63367	7960
11,63778	8547
11,64190	8090
11,64603	7940
11,65015	6684
11,65427	7789
11,65840	6510
11,66252	5872
11,66663	6885
11,67077	6416
11,67488	5942
11,67900	7130
11,68313	7073
11,68725	7203
11,69137	9739
11,69550	8349
11,69962	10066
11,70373	11938
11,70787	9729
11,71198	7878
11,71610	7242
11,72022	6589
11,72435	5522
11,72847	6025
11,73258	6776
11,73672	6001
11,74083	5868
11,74495	7170
11,74908	5666
11,75320	6356
11,75732	6299
11,76145	5687
11,76557	5250
11,76968	4548
11,77382	4900
11,77793	4291
11,78205	4584
11,78618	4653
11,79030	4394
11,79442	4370
11,79855	4215
11,80267	5175
11,80678	5317
11,81090	4436
11,81503	5935
11,81915	5233
11,82327	5869
11,82740	5872
11,83152	5804
11,83563	4928
11,83977	5577
11,84388	4956
11,84800	6621
11,85213	6327
11,85625	9736
11,86037	19780
11,86450	42204
11,86862	75773
11,87273	144203
11,87687	239009
11,88098	366512
11,88510	511023
11,88923	657883
11,89335	766269
11,89747	831850
11,90158	813322
11,90572	744585
11,90983	641016
11,91395	506479
11,91808	391405
11,92220	286188
11,92632	209357
11,93045	150580
11,93457	112833
11,93868	87105
11,94282	65252
11,94693	51393
11,95105	41974
11,95518	35853
11,95930	32007
11,96342	26740
11,96755	24490
11,97167	22075
11,97578	21180
11,97992	18580
11,98403	19460
11,98815	19966
11,99227	17538
11,99640	17714
12,00052	16271
12,00463	14386
12,00877	13703
12,01288	14173
12,01700	13977
12,02113	14843
12,02525	13181
12,02937	16545
12,03350	15563
12,03762	14790
12,04173	14212
12,04587	12547
12,04998	12826
12,05410	12285
12,05823	10786
12,06235	8415
12,06647	7210
12,07060	7538
12,07472	6881
12,07883	6081
12,08295	5066
12,08708	5733
12,09120	5427
12,09532	4423
12,09945	4587
12,10357	3880
12,10768	3755
12,11182	4322
12,11593	3940
12,12005	4923
12,12418	3577
12,12830	4070
12,13242	4674
12,13655	7031
12,14067	12250
12,14478	24764
12,14892	53385
12,15303	103867
12,15715	183270
12,16128	303795
12,16540	453424
12,16952	618735
12,17363	784610
12,17777	894401
12,18188	933509
12,18600	888537
12,19013	792158
12,19425	647315
12,19837	498393
12,20250	366899
12,20662	262302
12,21073	188144
12,21487	135465
12,21898	98666
12,22310	75487
12,22723	60888
12,23135	48799
12,23547	40762
12,23960	33625
12,24372	28402
12,24783	25088
12,25197	21618
12,25608	20016
12,26020	19415
12,26432	16959
12,26845	15788
12,27257	14514
12,27668	13486
12,28082	13003
12,28493	11631
12,28905	10725
12,29318	11146
12,29730	7480
12,30142	9653
12,30555	8385
12,30967	7644
12,31378	6888
12,31792	6510
12,32203	7184
12,32615	5690
12,33028	5602
12,33440	5004
12,33852	6149
12,34265	6121
12,34677	6020
12,35088	5742
12,35500	5697
12,35913	5264
12,36325	6810
12,36737	6035
12,37150	7311
12,37562	6615
12,37973	6981
12,38387	6683
12,38798	6069
12,39210	6140
12,39623	4711
12,40035	4942
12,40447	4690
12,40860	4307
12,41272	5249
12,41683	4520
12,42097	4675
12,42508	3862
12,42920	4538
12,43333	4013
12,43745	4059
12,44157	4224
12,44568	3834
12,44982	3884
12,45393	3901
12,45805	3801
12,46218	3799
12,46630	4646
12,47042	4573
12,47455	3582
12,47867	3966
12,48278	4306
12,48692	4735
12,49103	4577
12,49515	4915
12,49928	4237
12,50340	4079
12,50752	5198
12,51165	4824
12,51577	3801
12,51988	3638
12,52402	5517
12,52813	3800
12,53225	4277
12,53637	3907
12,54050	3594
12,54462	3864
12,54873	4145
12,55287	2983
12,55698	3989
12,56110	3779
12,56523	3519
12,56935	3521
12,57347	3994
12,57760	3815
12,58172	4240
12,58583	6772
12,58997	12424
12,59408	24100
12,59820	49666
12,60233	96413
12,60645	174775
12,61057	291148
12,61470	435299
12,61882	600437
12,62293	747610
12,62707	859851
12,63118	908108
12,63530	872407
12,63942	779607
12,64355	652384
12,64767	508968
12,65178	389011
12,65592	275770
12,66003	201363
12,66415	144169
12,66828	108068
12,67240	86263
12,67652	64472
12,68065	52729
12,68477	45640
12,68888	36333
12,69302	32872
12,69713	28617
12,70125	22866
12,70538	23134
12,70950	19419
12,71362	18504
12,71775	15528
12,72187	15645
12,72598	14066
12,73010	13034
12,73423	11933
12,73835	10985
12,74247	10568
12,74660	9915
12,75072	10663
12,75483	8340
12,75897	8391
12,76308	8360
12,76720	8355
12,77133	7937
12,77545	6996
12,77957	7273
12,78370	6651
12,78782	6971
12,79193	5558
12,79607	7619
12,80018	5794
12,80430	5912
12,80843	5926
12,81255	5788
12,81667	6416
12,82078	5976
12,82492	5264
12,82903	4952
12,83315	4773
12,83728	4626
12,84140	4923
12,84552	5193
12,84965	5698
12,85377	6172
12,85788	11779
12,86202	22013
12,86613	45641
12,87025	92267
12,87438	176318
12,87850	301224
12,88262	487116
12,88675	741582
12,89087	1034640
12,89498	1366980
12,89912	1666751
12,90323	1918556
12,90735	2003919
12,91147	1944952
12,91560	1732854
12,91972	1407672
12,92383	1081561
12,92797	775746
12,93208	549277
12,93620	384785
12,94033	275527
12,94445	205145
12,94857	159219
12,95270	125121
12,95682	103518
12,96093	82571
12,96507	69714
12,96918	61200
12,97330	53722
12,97743	46981
12,98155	42067
12,98567	38791
12,98980	34921
12,99392	31680
12,99803	30017
13,00215	26141
13,00628	24737
13,01040	21317
13,01452	20635
13,01865	20142
13,02277	18974
13,02688	17040
13,03102	16256
13,03513	14615
13,03925	14935
13,04338	15912
13,04750	14388
13,05162	13157
13,05575	12034
13,05987	12981
13,06398	12105
13,06812	11901
13,07223	11860
13,07635	9333
13,08048	9791
13,08460	9214
13,08872	9266
13,09283	9348
13,09697	8828
13,10108	9467
13,10520	9913
13,10933	13229
13,11345	22539
13,11757	39880
13,12170	73872
13,12582	131825
13,12993	226710
13,13407	353238
13,13818	502635
13,14230	670236
13,14643	815583
13,15055	920461
13,15467	956853
13,15880	904052
13,16292	782016
13,16703	647066
13,17117	510948
13,17528	382387
13,17940	282071
13,18352	205484
13,18765	152158
13,19177	117532
13,19588	94336
13,20002	74876
13,20413	61481
13,20825	51141
13,21238	42892
13,21650	35947
13,22062	30527
13,22475	29522
13,22887	25844
13,23298	23251
13,23712	27151
13,24123	32734
13,24535	47125
13,24948	81135
13,25360	148330
13,25772	260523
13,26185	428755
13,26597	683898
13,27008	968215
13,27420	1305108
13,27833	1617099
13,28245	1826356
13,28657	1923333
13,29070	1834802
13,29482	1616776
13,29893	1303458
13,30307	1001685
13,30718	723995
13,31130	523149
13,31543	375582
13,31955	273181
13,32367	207176
13,32780	159585
13,33192	125727
13,33603	102237
13,34017	88924
13,34428	75705
13,34840	64991
13,35253	56426
13,35665	52659
13,36077	45231
13,36488	41380
13,36902	37263
13,37313	34888
13,37725	32517
13,38138	30102
13,38550	28333
13,38962	25820
13,39375	25220
13,39787	22388
13,40198	23317
13,40612	21789
13,41023	20111
13,41435	19186
13,41848	18653
13,42260	16054
13,42672	16190
13,43085	13919
13,43497	15302
13,43908	13842
13,44322	13214
13,44733	12945
13,45145	12634
13,45557	11289
13,45970	11589
13,46382	12023
13,46793	9458
13,47207	9395
13,47618	9616
13,48030	9251
13,48443	8221
13,48855	8304
13,49267	8159
13,49680	9406
13,50092	7489
13,50503	8943
13,50917	8294
13,51328	9649
13,51740	12900
13,52153	24162
13,52565	39362
13,52977	79985
13,53390	145466
13,53802	249793
13,54213	383196
13,54625	550905
13,55038	721268
13,55450	851740
13,55862	912202
13,56275	898309
13,56687	811755
13,57098	671981
13,57512	535401
13,57923	407289
13,58335	296453
13,58748	218033
13,59160	157697
13,59572	120985
13,59985	96006
13,60397	74152
13,60808	61078
13,61222	50312
13,61633	43547
13,62045	35812
13,62458	32607
13,62870	29760
13,63282	28681
13,63693	23945
13,64107	23618
13,64518	20649
13,64930	20121
13,65343	18150
13,65755	16788
13,66167	14817
13,66580	16008
13,66992	14602
13,67403	14385
13,67817	13539
13,68228	13064
13,68640	11538
13,69053	12933
13,69465	11904
13,69877	13029
13,70290	12312
13,70702	12734
13,71113	12532
13,71527	13440
13,71938	11996
13,72350	11710
13,72762	11846
13,73175	10709
13,73587	10396
13,73998	10788
13,74412	10027
13,74823	9733
13,75235	10862
13,75648	9363
13,76060	10157
13,76472	9280
13,76885	11081
13,77297	9114
13,77708	10116
13,78122	9047
13,78533	8376
13,78945	7799
13,79358	8554
13,79770	6388
13,80182	7002
13,80595	8577
13,81007	8838
13,81418	12264
13,81830	19708
13,82243	38419
13,82655	74317
13,83067	136048
13,83480	227294
13,83892	361997
13,84303	512317
13,84717	662982
13,85128	782465
13,85540	839354
13,85953	848061
13,86365	769492
13,86777	663913
13,87190	531732
13,87602	407476
13,88013	298822
13,88427	219292
13,88838	159592
13,89250	120842
13,89663	90971
13,90075	73631
13,90487	56636
13,90898	48051
13,91312	42941
13,91723	35226
13,92135	31256
13,92548	27516
13,92960	25773
13,93372	25430
13,93785	23138
13,94197	21854
13,94608	20309
13,95022	19683
13,95433	19384
13,95845	18714
13,96258	15991
13,96670	16115
13,97082	14597
13,97495	13270
13,97907	13179
13,98318	12462
13,98732	11482
13,99143	11802
13,99555	10597
13,99967	10588
14,00380	10204
14,00792	10092
14,01203	10188
14,01617	11287
14,02028	10441
14,02440	9003
14,02853	8063
14,03265	9461
14,03677	7726
14,04090	9448
14,04502	9354
14,04913	10016
14,05327	10259
14,05738	10145
14,06150	10719
14,06563	10138
14,06975	9981
14,07387	8519
14,07800	10304
14,08212	8575
14,08623	8765
14,09035	7617
14,09448	7900
14,09860	8225
14,10272	7054
14,10685	8120
14,11097	7383
14,11508	7269
14,11922	8113
14,12333	7252
14,12745	7253
14,13158	7112
14,13570	7436
14,13982	7503
14,14395	6776
14,14807	6574
14,15218	6799
14,15632	6822
14,16043	5961
14,16455	7219
14,16868	5893
14,17280	6630
14,17692	5979
14,18105	6158
14,18517	6034
14,18928	5556
14,19340	6677
14,19753	5888
14,20165	7382
14,20577	6953
14,20990	7408
14,21402	10291
14,21813	14422
14,22227	26471
14,22638	54652
14,23050	110582
14,23463	212565
14,23875	390813
14,24287	648740
14,24700	1014402
14,25112	1427822
14,25523	1879020
14,25937	2342585
14,26348	2687490
14,26760	2878299
14,27173	2844203
14,27585	2635434
14,27997	2235059
14,28408	1774726
14,28822	1310103
14,29233	946249
14,29645	672060
14,30058	484266
14,30470	352927
14,30882	272286
14,31295	219013
14,31707	174234
14,32118	145215
14,32532	125383
14,32943	106847
14,33355	96980
14,33768	85493
14,34180	76681
14,34592	68432
14,35005	62970
14,35417	57077
14,35828	51496
14,36242	47687
14,36653	44296
14,37065	39960
14,37477	38284
14,37890	36956
14,38302	34113
14,38713	33678
14,39127	31492
14,39538	30059
14,39950	26581
14,40363	26685
14,40775	25866
14,41187	23849
14,41600	22652
14,42012	22141
14,42423	22414
14,42837	21741
14,43248	21109
14,43660	20227
14,44073	18778
14,44485	21686
14,44897	20865
14,45310	23520
14,45722	24321
14,46133	26687
14,46545	31448
14,46958	32659
14,47370	38679
14,47782	47418
14,48195	67815
14,48607	107184
14,49018	171095
14,49432	265670
14,49843	390554
14,50255	527176
14,50668	653697
14,51080	741114
14,51492	770837
14,51905	733548
14,52317	653274
14,52728	532697
14,53142	421476
14,53553	320612
14,53965	236952
14,54378	176008
14,54790	131602
14,55202	101738
14,55613	80382
14,56027	62287
14,56438	56809
14,56850	49042
14,57263	41486
14,57675	42068
14,58087	43386
14,58500	54939
14,58912	82132
14,59323	133104
14,59737	215730
14,60148	330468
14,60560	497974
14,60973	682650
14,61385	840801
14,61797	982606
14,62210	1051154
14,62622	1008695
14,63033	893587
14,63447	756251
14,63858	587374
14,64270	442089
14,64682	327845
14,65095	246326
14,65507	182159
14,65918	141204
14,66332	110556
14,66743	92899
14,67155	78776
14,67568	67154
14,67980	60684
14,68392	50644
14,68805	45594
14,69217	42065
14,69628	38871
14,70042	36108
14,70453	32813
14,70865	31132
14,71278	27901
14,71690	27512
14,72102	26165
14,72515	25112
14,72927	25361
14,73338	22806
14,73750	21423
14,74163	21382
14,74575	19986
14,74987	20441
14,75400	19396
14,75812	19077
14,76223	19282
14,76637	17762
14,77048	16787
14,77460	16821
14,77873	16814
14,78285	17729
14,78697	17301
14,79110	16951
14,79522	15792
14,79933	15290
14,80347	14152
14,80758	15772
14,81170	14799
14,81583	14337
14,81995	14759
14,82407	13972
14,82818	14025
14,83232	13779
14,83643	13032
14,84055	12542
14,84468	12601
14,84880	11505
14,85292	12129
14,85705	12366
14,86117	15203
14,86528	20429
14,86942	32435
14,87353	56563
14,87765	101929
14,88178	181399
14,88590	300393
14,89002	460173
14,89415	660824
14,89827	867144
14,90238	1030971
14,90652	1138623
14,91063	1149456
14,91475	1051943
14,91887	886524
14,92300	695783
14,92712	517405
14,93123	378356
14,93537	278644
14,93948	205212
14,94360	160186
14,94773	125985
14,95185	104391
14,95597	85195
14,96010	74110
14,96422	64075
14,96833	57458
14,97247	51683
14,97658	44799
14,98070	41708
14,98483	37757
14,98895	37301
14,99307	33542
14,99720	32436
15,00132	30005
15,00543	28484
15,00955	28417
15,01368	29287
15,01780	25013
15,02192	26137
15,02605	25178
15,03017	25761
15,03428	24466
15,03842	21693
15,04253	21967
15,04665	21626
15,05078	19576
15,05490	20375
15,05902	17018
15,06315	18392
15,06727	18309
15,07138	18857
15,07552	16081
15,07963	17133
15,08375	17302
15,08788	16355
15,09200	16428
15,09612	16287
15,10023	14480
15,10437	15419
15,10848	15429
15,11260	13858
15,11673	14424
15,12085	14910
15,12497	21519
15,12910	27880
15,13322	48705
15,13733	82790
15,14147	146905
15,14558	242574
15,14970	383757
15,15383	533436
15,15795	691851
15,16207	835111
15,16620	910040
15,17032	914496
15,17443	847322
15,17857	719623
15,18268	570619
15,18680	440669
15,19092	324933
15,19505	245830
15,19917	183398
15,20328	141789
15,20742	108331
15,21153	90213
15,21565	72999
15,21978	63031
15,22390	56008
15,22802	48385
15,23215	43471
15,23627	38572
15,24038	36325
15,24452	33920
15,24863	30364
15,25275	30539
15,25688	30861
15,26100	26973
15,26512	26163
15,26925	24301
15,27337	23915
15,27748	21091
15,28160	22058
15,28573	20776
15,28985	20272
15,29397	20869
15,29810	18138
15,30222	20467
15,30633	17528
15,31047	16254
15,31458	17852
15,31870	15987
15,32283	16166
15,32695	15695
15,33107	16150
15,33520	17401
15,33932	18633
15,34343	17841
15,34757	17296
15,35168	17230
15,35580	16900
15,35993	16305
15,36405	17360
15,36817	15737
15,37228	14638
15,37642	15247
15,38053	16275
15,38465	16622
15,38878	14399
15,39290	16697
15,39702	13932
15,40115	15244
15,40527	14558
15,40938	15270
15,41352	15355
15,41763	14326
15,42175	13163
15,42588	12685
15,43000	15690
15,43412	16383
15,43825	14729
15,44237	13723
15,44648	13518
15,45062	13142
15,45473	15540
15,45885	14858
15,46297	13664
15,46710	13155
15,47122	15110
15,47533	14851
15,47947	14917
15,48358	17015
15,48770	21318
15,49183	33413
15,49595	54754
15,50007	94692
15,50420	167042
15,50832	282900
15,51243	440540
15,51657	658841
15,52068	958730
15,52480	1325397
15,52893	1739601
15,53305	2194540
15,53717	2602755
15,54130	2914902
15,54542	2984365
15,54953	2818025
15,55365	2476930
15,55778	2026522
15,56190	1593767
15,56602	1221061
15,57015	915826
15,57427	686914
15,57838	519168
15,58252	397185
15,58663	312065
15,59075	253640
15,59488	213263
15,59900	177282
15,60312	151230
15,60725	137396
15,61137	119504
15,61548	108567
15,61962	97591
15,62373	88854
15,62785	83395
15,63198	76877
15,63610	71600
15,64022	65504
15,64433	62622
15,64847	60078
15,65258	56713
15,65670	52885
15,66083	50913
15,66495	48563
15,66907	44310
15,67320	43323
15,67732	39676
15,68143	40781
15,68557	37418
15,68968	37897
15,69380	36418
15,69793	38089
15,70205	36172
15,70617	37469
15,71030	36324
15,71442	32094
15,71853	34784
15,72267	33885
15,72678	34278
15,73090	34374
15,73502	32150
15,73915	33009
15,74327	34211
15,74738	42657
15,75152	57444
15,75563	88503
15,75975	134484
15,76388	214923
15,76800	327807
15,77212	462024
15,77625	604357
15,78037	729750
15,78448	817998
15,78862	832822
15,79273	783758
15,79685	688826
15,80098	571116
15,80510	454240
15,80922	367774
15,81335	324221
15,81747	316619
15,82158	350067
15,82572	430748
15,82983	524891
15,83395	644356
15,83807	743577
15,84220	841192
15,84632	913596
15,85043	944446
15,85457	972170
15,85868	1017675
15,86280	1078422
15,86693	1157612
15,87105	1220983
15,87517	1237039
15,87930	1171953
15,88342	1051643
15,88753	885288
15,89167	718579
15,89578	559208
15,89990	436551
15,90403	341272
15,90815	268510
15,91227	218379
15,91640	179714
15,92052	150839
15,92463	131001
15,92875	115659
15,93288	107717
15,93700	98879
15,94112	88552
15,94525	84173
15,94937	79727
15,95348	74631
15,95762	68763
15,96173	64466
15,96585	60883
15,96998	53555
15,97410	50925
15,97822	51011
15,98235	48351
15,98647	45399
15,99058	41140
15,99472	40921
15,99883	37974
16,00295	38066
16,00708	35965
16,01120	36317
16,01532	32209
16,01943	32585
16,02357	32179
16,02768	31191
16,03180	29336
16,03593	30130
16,04005	27648
16,04417	28423
16,04830	26895
16,05242	26659
16,05653	25552
16,06067	23793
16,06478	26241
16,06890	24008
16,07303	26539
16,07715	25878
16,08127	22961
16,08540	23927
16,08952	22719
16,09363	25335
16,09777	30058
16,10188	39274
16,10600	59170
16,11012	87677
16,11425	141311
16,11837	228421
16,12248	342498
16,12662	487709
16,13073	661194
16,13485	845463
16,13898	994080
16,14310	1105218
16,14722	1131101
16,15135	1058465
16,15547	911775
16,15958	741348
16,16372	582839
16,16783	438932
16,17195	337226
16,17608	262296
16,18020	210749
16,18432	171136
16,18845	142243
16,19257	122869
16,19668	107757
16,20080	93786
16,20493	85529
16,20905	78697
16,21317	69399
16,21730	65024
16,22142	60585
16,22553	59069
16,22967	54238
16,23378	49333
16,23790	49514
16,24203	45013
16,24615	44227
16,25027	44113
16,25440	43295
16,25852	42148
16,26263	40458
16,26677	39593
16,27088	36541
16,27500	35806
16,27913	34725
16,28325	33737
16,28737	33075
16,29148	29860
16,29562	29341
16,29973	28998
16,30385	28510
16,30798	26471
16,31210	28190
16,31622	28188
16,32035	27594
16,32447	26333
16,32858	28044
16,33272	26114
16,33683	27158
16,34095	27467
16,34508	24674
16,34920	25400
16,35332	24255
16,35745	22663
16,36157	24214
16,36568	25083
16,36982	25992
16,37393	33225
16,37805	48200
16,38217	67987
16,38630	110281
16,39042	179849
16,39453	278357
16,39867	396082
16,40278	542952
16,40690	691826
16,41103	802996
16,41515	874338
16,41927	893307
16,42340	839437
16,42752	741390
16,43163	624971
16,43577	497936
16,43988	394997
16,44400	303991
16,44813	236445
16,45225	188578
16,45637	157714
16,46050	132379
16,46462	115287
16,46873	107020
16,47285	106418
16,47698	117784
16,48110	144614
16,48522	192924
16,48935	260202
16,49347	341133
16,49758	436914
16,50172	527147
16,50583	593677
16,50995	637814
16,51408	638645
16,51820	609998
16,52232	547777
16,52645	469523
16,53057	388022
16,53468	312931
16,53882	248431
16,54293	196940
16,54705	157202
16,55118	131524
16,55530	108920
16,55942	92613
16,56353	81704
16,56767	73808
16,57178	67240
16,57590	60119
16,58003	54984
16,58415	51169
16,58827	48783
16,59240	45882
16,59652	44843
16,60063	40661
16,60477	40608
16,60888	35526
16,61300	35518
16,61713	36825
16,62125	33493
16,62537	33746
16,62950	30765
16,63362	31145
16,63773	30526
16,64187	28950
16,64598	28012
16,65010	28079
16,65422	27807
16,65835	26261
16,66247	25269
16,66658	25505
16,67072	26802
16,67483	27058
16,67895	25685
16,68308	25024
16,68720	24402
16,69132	24412
16,69545	24475
16,69957	22272
16,70368	22724
16,70782	22023
16,71193	22246
16,71605	21907
16,72018	23209
16,72430	25970
16,72842	32105
16,73255	44286
16,73667	67756
16,74078	98948
16,74490	154353
16,74903	233046
16,75315	348285
16,75727	499244
16,76140	681527
16,76552	893371
16,76963	1136406
16,77377	1368886
16,77788	1601624
16,78200	1823595
16,78613	1976067
16,79025	1997829
16,79437	1884332
16,79850	1654145
16,80262	1357523
16,80673	1067725
16,81087	815730
16,81498	627984
16,81910	484996
16,82323	391300
16,82735	318790
16,83147	269396
16,83558	227579
16,83972	202385
16,84383	177214
16,84795	161683
16,85208	144739
16,85620	131661
16,86032	119538
16,86445	113110
16,86857	103733
16,87268	100465
16,87682	90780
16,88093	84644
16,88505	80502
16,88918	75694
16,89330	70950
16,89742	67343
16,90155	66191
16,90567	60612
16,90978	61384
16,91392	59618
16,91803	55318
16,92215	52499
16,92627	51531
16,93040	48120
16,93452	46217
16,93863	45898
16,94277	47892
16,94688	42806
16,95100	40188
16,95513	39937
16,95925	39644
16,96337	40691
16,96750	38249
16,97162	38515
16,97573	37471
16,97987	35973
16,98398	34535
16,98810	35768
16,99223	33103
16,99635	33232
17,00047	31616
17,00460	34179
17,00872	32816
17,01283	31262
17,01695	30102
17,02108	30682
17,02520	29950
17,02932	30224
17,03345	29443
17,03757	28759
17,04168	28253
17,04582	29103
17,04993	30329
17,05405	29574
17,05818	27195
17,06230	27765
17,06642	27070
17,07055	27126
17,07467	25694
17,07878	26361
17,08292	26705
17,08703	28256
17,09115	29374
17,09528	37744
17,09940	49287
17,10352	69958
17,10763	103601
17,11177	160136
17,11588	232493
17,12000	329542
17,12413	446551
17,12825	576131
17,13237	710706
17,13650	825362
17,14062	903771
17,14473	926577
17,14887	909437
17,15298	841689
17,15710	742568
17,16123	622057
17,16535	514451
17,16947	418366
17,17360	335814
17,17772	274027
17,18183	227837
17,18597	185216
17,19008	162009
17,19420	141721
17,19832	123624
17,20245	112415
17,20657	102228
17,21068	89448
17,21482	85889
17,21893	79425
17,22305	75971
17,22718	72609
17,23130	66721
17,23542	64094
17,23955	60034
17,24367	57170
17,24778	55323
17,25192	52959
17,25603	51435
17,26015	48274
17,26428	44560
17,26840	42810
17,27252	38833
17,27665	41767
17,28077	39302
17,28488	37724
17,28900	38697
17,29313	36237
17,29725	34732
17,30137	33192
17,30550	33290
17,30962	31980
17,31373	33866
17,31787	29811
17,32198	28135
17,32610	27401
17,33023	28493
17,33435	28308
17,33847	27890
17,34260	30036
17,34672	28679
17,35083	29299
17,35497	29359
17,35908	29865
17,36320	32059
17,36733	31193
17,37145	31207
17,37557	31207
17,37968	29139
17,38382	29429
17,38793	27728
17,39205	26416
17,39618	26934
17,40030	25841
17,40442	24487
17,40855	26980
17,41267	23167
17,41678	24985
17,42092	26291
17,42503	25763
17,42915	25591
17,43328	25314
17,43740	22731
17,44152	25110
17,44565	24979
17,44977	25053
17,45388	23442
17,45802	23134
17,46213	26233
17,46625	25905
17,47038	25027
17,47450	24692
17,47862	24490
17,48273	23826
17,48687	24754
17,49098	25121
17,49510	23611
17,49923	22900
17,50335	22444
17,50747	24257
17,51160	20438
17,51572	21248
17,51983	21379
17,52397	20186
17,52808	20067
17,53220	18992
17,53633	19184
17,54045	19696
17,54457	18963
17,54870	19693
17,55282	19118
17,55693	19930
17,56107	18726
17,56518	18268
17,56930	18816
17,57342	19600
17,57755	17406
17,58167	18739
17,58578	19524
17,58992	20212
17,59403	20528
17,59815	19422
17,60228	20138
17,60640	18933
17,61052	21169
17,61465	20890
17,61877	19630
17,62288	19963
17,62702	21513
17,63113	19213
17,63525	20462
17,63938	20157
17,64350	19697
17,64762	18164
17,65175	18863
17,65587	19520
17,65998	18544
17,66410	19343
17,66823	19719
17,67235	19268
17,67647	20453
17,68060	19910
17,68472	19705
17,68883	20402
17,69297	19974
17,69708	20219
17,70120	19716
17,70533	20417
17,70945	21710
17,71357	20159
17,71770	19279
17,72182	20381
17,72593	20392
17,73007	21312
17,73418	20507
17,73830	19095
17,74243	18056
17,74655	18780
17,75067	18379
17,75478	18817
17,75892	19801
17,76303	18529
17,76715	20317
17,77128	17511
17,77540	18585
17,77952	19947
17,78365	20284
17,78777	18176
17,79188	19329
17,79602	19215
17,80013	18691
17,80425	19010
17,80838	17858
17,81250	17296
17,81662	21041
17,82075	18601
17,82487	18082
17,82898	19456
17,83312	18344
17,83723	17766
17,84135	17409
17,84547	17507
17,84960	16865
17,85372	18772
17,85783	17929
17,86197	17624
17,86608	15900
17,87020	16377
17,87433	17036
17,87845	17970
17,88257	17675
17,88670	16495
17,89082	16628
17,89493	18049
17,89907	18446
17,90318	17488
17,90730	16862
17,91143	18507
17,91555	18179
17,91967	18741
17,92380	17453
17,92792	17339
17,93203	15947
17,93615	17026
17,94028	17800
17,94440	17986
17,94852	17278
17,95265	16167
17,95677	16733
17,96088	17393
17,96502	16654
17,96913	18012
17,97325	17886
17,97738	17016
17,98150	18291
17,98562	17893
17,98975	19096
17,99387	18344
17,99798	17382
18,00212	17797
18,00623	17039
18,01035	19715
18,01448	17421
18,01860	18046
18,02272	19087
18,02683	19053
18,03097	18847
18,03508	20380
18,03920	20315
18,04333	18616
18,04745	19373
18,05157	16884
18,05570	17657
18,05982	17906
18,06393	17737
18,06807	17980
18,07218	19048
18,07630	18077
18,08043	18755
18,08455	17012
18,08867	17362
18,09280	17703
18,09692	17314
18,10103	16208
18,10517	18258
18,10928	17797
18,11340	16343
18,11752	18900
18,12165	16304
18,12577	16690
18,12988	18813
18,13402	16286
18,13813	17281
18,14225	17643
18,14638	18644
18,15050	14807
18,15462	18289
18,15875	17305
18,16287	18679
18,16698	17117
18,17112	18021
18,17523	17139
18,17935	17972
18,18348	17215
18,18760	17803
18,19172	19436
18,19585	21232
18,19997	26837
18,20408	32933
18,20820	44663
18,21233	66419
18,21645	97882
18,22057	137818
18,22470	186132
18,22882	247573
18,23293	305011
18,23707	366055
18,24118	419915
18,24530	461542
18,24943	481679
18,25355	483309
18,25767	453489
18,26180	425321
18,26592	372731
18,27003	330774
18,27417	284514
18,27828	236834
18,28240	199586
18,28653	169090
18,29065	143811
18,29477	124561
18,29888	108809
18,30302	92681
18,30713	82664
18,31125	78265
18,31538	69428
18,31950	63344
18,32362	57010
18,32775	54323
18,33187	51256
18,33598	48125
18,34012	46073
18,34423	43824
18,34835	42136
18,35248	38692
18,35660	37623
18,36072	36843
18,36485	36445
18,36897	35113
18,37308	32050
18,37722	32264
18,38133	31895
18,38545	32335
18,38957	30434
18,39370	30389
18,39782	30149
18,40193	29371
18,40607	28860
18,41018	27270
18,41430	28931
18,41843	25383
18,42255	23932
18,42667	26569
18,43080	25016
18,43492	25384
18,43903	25150
18,44317	26060
18,44728	24517
18,45140	25486
18,45553	22212
18,45965	23939
18,46377	22306
18,46790	24499
18,47202	22322
18,47613	21331
18,48025	22746
18,48438	20129
18,48850	22198
18,49262	21098
18,49675	21077
18,50087	22415
18,50498	22859
18,50912	21518
18,51323	19513
18,51735	20653
18,52148	21151
18,52560	20337
18,52972	21953
18,53385	19073
18,53797	21366
18,54208	19972
18,54622	20621
18,55033	20557
18,55445	20444
18,55858	20481
18,56270	19795
18,56682	19082
18,57093	18632
18,57507	19627
18,57918	18753
18,58330	20659
18,58743	18296
18,59155	19468
18,59567	18222
18,59980	17892
18,60392	18405
18,60803	18220
18,61217	20785
18,61628	18825
18,62040	19616
18,62453	17740
18,62865	17443
18,63277	18933
18,63690	18953
18,64102	18197
18,64513	18930
18,64927	21007
18,65338	18008
18,65750	19242
18,66162	18898
18,66575	18916
18,66987	18925
18,67398	19636
18,67812	19000
18,68223	19398
18,68635	18091
18,69048	19494
18,69460	19079
18,69872	16495
18,70285	19812
18,70697	17744
18,71108	18460
18,71522	17861
18,71933	17732
18,72345	18435
18,72758	18721
18,73170	17270
18,73582	19225
18,73995	18999
18,74407	18239
18,74818	19459
18,75230	17352
18,75643	18148
18,76055	17013
18,76467	18094
18,76880	20072
18,77292	20388
18,77703	18072
18,78117	19120
18,78528	17511
18,78940	19493
18,79353	17684
18,79765	18591
18,80177	17103
18,80590	17699
18,81002	17621
18,81413	16623
18,81827	18669
18,82238	18771
18,82650	19558
18,83063	17605
18,83475	18241
18,83887	18011
18,84298	17446
18,84712	17862
18,85123	18106
18,85535	18800
18,85948	17808
18,86360	18208
18,86772	18791
18,87185	21217
18,87597	20416
18,88008	18075
18,88422	19651
18,88833	18571
18,89245	18937
18,89658	19333
18,90070	19130
18,90482	19862
18,90895	20464
18,91307	19396
18,91718	20307
18,92132	20670
18,92543	19319
18,92955	19651
18,93367	19170
18,93780	17229
18,94192	17707
18,94603	17933
18,95017	18332
18,95428	18370
18,95840	18227
18,96253	17896
18,96665	17869
18,97077	20432
18,97490	17798
18,97902	18663
18,98313	18997
18,98727	16976
18,99138	18083
18,99550	19119
18,99963	19550
19,00375	18415
19,00787	18276
19,01200	18774
19,01612	17670
19,02023	18490
19,02435	17886
19,02848	19346
19,03260	16160
19,03672	17466
19,04085	18429
19,04497	18801
19,04908	18677
19,05322	17777
19,05733	20142
19,06145	20961
19,06558	20446
19,06970	19675
19,07382	20904
19,07795	21138
19,08207	19829
19,08618	19674
19,09032	19430
19,09443	20697
19,09855	20062
19,10268	18148
19,10680	18524
19,11092	17802
19,11505	19638
19,11917	17171
19,12328	18422
19,12740	18164
19,13153	18321
19,13565	17176
19,13977	18151
19,14390	17074
19,14802	17719
19,15213	17891
19,15627	17241
19,16038	16652
19,16450	18313
19,16863	17680
19,17275	16731
19,17687	17513
19,18100	16725
19,18512	17348
19,18923	17166
19,19337	18077
19,19748	17332
19,20160	18399
19,20573	16481
19,20985	16061
19,21397	18025
19,21808	19086
19,22222	15920
19,22633	16744
19,23045	17737
19,23458	16582
19,23870	17695
19,24282	17823
19,24695	19062
19,25107	18592
19,25518	18317
19,25932	18643
19,26343	18949
19,26755	19666
19,27168	19200
19,27580	19618
19,27992	19677
19,28405	19047
19,28817	18502
19,29228	17881
19,29642	18974
19,30053	18686
19,30465	19368
19,30877	18911
19,31290	17553
19,31702	19327
19,32113	18371
19,32527	18643
19,32938	17752
19,33350	19443
19,33763	19185
19,34175	18846
19,34587	19406
19,35000	21641
19,35412	18520
19,35823	18230
19,36237	19894
19,36648	19923
19,37060	18818
19,37473	18190
19,37885	18767
19,38297	19258
19,38710	17585
19,39122	15889
19,39533	17403
19,39945	16966
19,40358	18228
19,40770	17713
19,41182	17228
19,41595	16959
19,42007	15716
19,42418	17249
19,42832	17295
19,43243	18521
19,43655	15796
19,44068	17246
19,44480	16750
19,44892	16726
19,45305	15927
19,45717	16753
19,46128	17091
19,46542	16734
19,46953	18247
19,47365	17806
19,47778	17659
19,48190	17573
19,48602	17785
19,49013	17383
19,49427	18581
19,49838	18017
19,50250	17925
19,50663	18757
19,51075	17278
19,51487	19545
19,51900	18374
19,52312	19075
19,52723	17165
19,53137	18175
19,53548	18540
19,53960	16849
19,54373	19263
19,54785	16855
19,55197	16128
19,55610	16392
19,56022	16400
19,56433	17345
19,56847	17544
19,57258	16402
19,57670	17581
