D:\MassHunter\GCMS\1\data\Amal\Constant flow\150C_1ml-min_4C-min_1.D Fri Jul 26 13:37:09 2024
Start of data points
5,09137	113022
5,09580	107857
5,10025	107421
5,10468	102535
5,10913	100249
5,11358	97018
5,11802	95887
5,12247	90919
5,12690	91934
5,13135	89634
5,13578	87274
5,14023	85549
5,14467	81642
5,14912	80153
5,15355	79714
5,15800	76979
5,16243	77025
5,16688	76507
5,17132	73835
5,17577	73606
5,18020	72061
5,18465	70148
5,18908	68329
5,19353	68547
5,19797	65765
5,20242	65646
5,20685	64250
5,21130	65097
5,21573	64261
5,22018	61212
5,22462	60818
5,22907	60701
5,23352	60787
5,23795	60348
5,24240	60302
5,24683	58919
5,25128	57692
5,25572	59072
5,26017	58006
5,26460	58535
5,26905	57150
5,27348	54830
5,27793	57933
5,28237	56386
5,28682	54862
5,29125	53996
5,29570	54380
5,30013	53123
5,30458	54362
5,30902	51867
5,31347	53612
5,31790	52352
5,32235	50149
5,32678	50595
5,33123	50708
5,33567	51421
5,34012	52593
5,34455	58863
5,34900	73186
5,35343	100413
5,35788	142163
5,36233	198786
5,36677	255630
5,37122	297823
5,37565	329775
5,38010	343939
5,38453	346923
5,38898	347304
5,39342	339294
5,39787	334458
5,40230	321028
5,40675	309319
5,41118	308673
5,41563	297289
5,42007	288311
5,42452	284163
5,42895	273181
5,43340	264083
5,43783	255539
5,44228	252292
5,44672	242995
5,45117	233767
5,45560	228889
5,46005	220639
5,46448	212541
5,46893	206172
5,47337	200596
5,47782	197621
5,48227	186296
5,48670	182523
5,49115	176056
5,49558	164711
5,50003	158731
5,50447	154741
5,50892	151507
5,51335	143209
5,51780	139314
5,52223	134928
5,52668	125673
5,53112	122733
5,53557	120949
5,54000	111550
5,54445	109198
5,54888	104161
5,55333	99847
5,55777	92840
5,56222	87542
5,56665	82801
5,57110	80460
5,57553	77623
5,57998	74490
5,58442	68002
5,58887	67219
5,59330	63841
5,59775	63315
5,60220	60889
5,60663	57716
5,61108	55804
5,61552	51849
5,61997	53331
5,62440	52232
5,62885	50168
5,63328	46985
5,63773	47655
5,64217	45740
5,64662	43186
5,65105	42693
5,65550	44155
5,65993	42072
5,66438	42701
5,66882	38664
5,67327	40264
5,67770	40082
5,68215	39275
5,68658	38709
5,69103	38121
5,69547	36764
5,69992	38725
5,70435	37081
5,70880	37733
5,71323	37648
5,71768	36205
5,72213	35001
5,72657	36817
5,73102	36221
5,73545	35627
5,73990	37058
5,74433	35975
5,74878	36183
5,75322	34781
5,75767	36505
5,76210	37014
5,76655	35439
5,77098	34438
5,77543	40434
5,77987	43982
5,78432	55495
5,78875	72138
5,79320	98209
5,79763	126641
5,80208	157975
5,80652	183060
5,81097	203999
5,81540	211248
5,81985	222397
5,82428	218817
5,82873	214556
5,83317	209845
5,83762	205400
5,84207	199860
5,84650	197006
5,85095	188987
5,85538	184707
5,85983	178290
5,86427	174617
5,86872	169059
5,87315	162862
5,87760	159972
5,88203	157129
5,88648	154023
5,89092	147442
5,89537	145790
5,89980	135356
5,90425	133617
5,90868	129396
5,91313	122825
5,91757	119249
5,92202	113561
5,92645	109593
5,93090	105998
5,93533	102117
5,93978	96669
5,94422	91086
5,94867	91258
5,95310	85743
5,95755	81665
5,96200	79623
5,96643	75320
5,97088	72556
5,97532	67476
5,97977	67571
5,98420	64188
5,98865	58060
5,99308	57567
5,99753	56472
6,00197	50930
6,00642	48037
6,01085	49893
6,01530	45984
6,01973	45848
6,02418	40240
6,02862	42467
6,03307	39792
6,03750	40487
6,04195	37789
6,04638	36577
6,05083	36060
6,05527	36245
6,05972	35434
6,06415	33717
6,06860	33330
6,07303	34054
6,07748	32971
6,08192	31902
6,08637	31486
6,09082	31289
6,09525	31495
6,09970	30777
6,10413	28455
6,10858	30194
6,11302	29845
6,11747	28577
6,12190	29563
6,12635	28779
6,13078	27991
6,13523	28311
6,13967	26964
6,14412	28317
6,14855	27234
6,15300	28438
6,15743	27118
6,16188	27437
6,16632	28431
6,17077	26033
6,17520	26770
6,17965	26790
6,18408	27294
6,18853	25852
6,19297	24812
6,19742	26861
6,20185	27222
6,20630	26295
6,21075	25621
6,21518	25731
6,21963	25630
6,22407	26841
6,22852	25595
6,23295	24518
6,23740	25581
6,24183	24035
6,24628	24453
6,25072	24500
6,25517	25967
6,25960	24555
6,26405	23506
6,26848	23890
6,27293	23204
6,27737	24279
6,28182	24831
6,28625	24594
6,29070	24583
6,29513	23501
6,29958	23561
6,30402	23823
6,30847	23715
6,31290	23949
6,31735	25777
6,32178	27406
6,32623	33707
6,33068	48224
6,33512	73683
6,33957	112397
6,34400	168252
6,34845	224668
6,35288	296208
6,35733	349684
6,36177	397441
6,36622	426858
6,37065	448244
6,37510	449013
6,37953	452513
6,38398	447626
6,38842	433107
6,39287	420534
6,39730	408969
6,40175	395051
6,40618	390088
6,41063	376931
6,41507	363071
6,41952	353696
6,42395	336366
6,42840	323710
6,43283	312734
6,43728	304596
6,44172	294406
6,44617	277183
6,45062	267498
6,45505	254355
6,45950	245549
6,46393	227639
6,46838	218578
6,47282	208917
6,47727	200585
6,48170	191681
6,48615	175063
6,49058	165565
6,49503	157856
6,49947	146685
6,50392	136112
6,50835	128379
6,51280	117585
6,51723	110218
6,52168	102334
6,52612	93439
6,53057	86404
6,53500	79925
6,53945	71469
6,54388	65719
6,54833	61121
6,55277	58102
6,55722	53997
6,56165	49489
6,56610	47394
6,57055	42780
6,57498	40155
6,57943	37322
6,58387	35161
6,58832	32975
6,59275	32011
6,59720	30047
6,60163	30084
6,60608	28731
6,61052	27740
6,61497	25767
6,61940	25977
6,62385	26247
6,62828	23628
6,63273	22668
6,63717	23346
6,64162	24236
6,64605	22627
6,65050	22466
6,65493	21852
6,65938	21390
6,66382	23265
6,66827	21425
6,67270	21463
6,67715	20201
6,68158	19506
6,68603	20456
6,69048	20521
6,69492	20764
6,69937	20116
6,70380	19674
6,70825	19255
6,71268	20445
6,71713	19306
6,72157	18801
6,72602	18973
6,73045	19544
6,73490	19007
6,73933	19303
6,74378	18277
6,74822	18861
6,75267	18917
6,75710	20016
6,76155	19333
6,76598	19089
6,77043	19257
6,77487	18454
6,77932	18627
6,78375	19600
6,78820	18570
6,79263	17929
6,79708	18045
6,80152	18823
6,80597	17063
6,81040	18339
6,81485	18112
6,81930	17732
6,82373	17909
6,82818	18936
6,83262	18063
6,83707	18690
6,84150	18053
6,84595	18237
6,85038	18233
6,85483	18706
6,85927	18171
6,86372	17164
6,86815	17139
6,87260	18361
6,87703	18010
6,88148	18163
6,88592	18302
6,89037	17868
6,89480	19863
6,89925	17839
6,90368	16770
6,90813	17695
6,91257	18743
6,91702	17076
6,92145	16816
6,92590	17312
6,93033	18034
6,93478	17353
6,93923	18587
6,94367	16370
6,94812	17641
6,95255	17780
6,95700	15995
6,96143	16294
6,96588	17983
6,97032	17198
6,97477	16576
6,97920	17745
6,98365	17228
6,98808	17279
6,99253	17727
6,99697	18801
7,00142	19708
7,00585	23283
7,01030	30059
7,01473	41804
7,01918	59354
7,02362	85462
7,02807	116637
7,03250	144549
7,03695	176807
7,04138	204318
7,04583	230432
7,05027	245680
7,05472	250133
7,05917	254770
7,06360	252032
7,06805	253325
7,07248	241073
7,07693	246123
7,08137	240389
7,08582	231931
7,09025	221374
7,09470	214221
7,09913	209380
7,10358	202294
7,10802	195026
7,11247	188059
7,11690	179287
7,12135	174086
7,12578	161793
7,13023	151875
7,13467	148780
7,13912	137935
7,14355	130465
7,14800	122382
7,15243	118768
7,15688	109673
7,16132	104666
7,16577	98140
7,17020	88026
7,17465	83501
7,17910	77166
7,18353	70837
7,18798	63944
7,19242	58346
7,19687	53394
7,20130	50205
7,20575	45840
7,21018	40886
7,21463	38583
7,21907	36563
7,22352	34113
7,22795	31625
7,23240	29488
7,23683	27823
7,24128	27044
7,24572	24969
7,25017	24167
7,25460	24873
7,25905	22111
7,26348	22400
7,26793	20359
7,27237	19585
7,27682	18359
7,28125	18903
7,28570	19728
7,29013	18913
7,29458	17143
7,29903	17764
7,30347	16604
7,30792	16859
7,31235	16838
7,31680	17021
7,32123	16545
7,32568	17054
7,33012	16749
7,33457	15762
7,33900	14871
7,34345	15322
7,34788	16911
7,35233	16394
7,35677	15855
7,36122	14367
7,36565	15765
7,37010	14992
7,37453	16652
7,37898	14598
7,38342	16167
7,38787	15453
7,39230	16375
7,39675	15739
7,40118	15706
7,40563	15050
7,41007	15663
7,41452	14758
7,41897	15864
7,42340	16370
7,42785	15132
7,43228	15935
7,43673	15874
7,44117	16450
7,44562	15200
7,45005	16797
7,45450	16259
7,45893	15853
7,46338	16155
7,46782	15527
7,47227	15016
7,47670	15919
7,48115	14770
7,48558	15809
7,49003	15291
7,49447	14683
7,49892	16038
7,50335	14967
7,50780	15622
7,51223	15375
7,51668	15857
7,52112	15024
7,52557	15602
7,53000	14354
7,53445	14439
7,53888	15569
7,54333	14431
7,54778	14786
7,55222	14334
7,55667	14705
7,56110	13240
7,56555	14270
7,56998	13939
7,57443	13796
7,57887	14705
7,58332	14186
7,58775	14735
7,59220	13126
7,59663	14390
7,60108	13997
7,60552	14452
7,60997	14589
7,61440	14445
7,61885	14304
7,62328	14245
7,62773	14149
7,63217	13702
7,63662	13795
7,64105	13533
7,64550	14225
7,64993	13402
7,65438	14182
7,65882	13622
7,66327	14374
7,66772	13301
7,67215	13383
7,67660	14190
7,68103	14063
7,68548	13234
7,68992	12924
7,69437	14036
7,69880	13180
7,70325	13138
7,70768	13504
7,71213	13032
7,71657	13017
7,72102	13629
7,72545	13477
7,72990	14292
7,73433	14203
7,73878	13556
7,74322	13349
7,74767	11912
7,75210	13720
7,75655	14375
7,76098	13725
7,76543	12735
7,76987	12958
7,77432	14372
7,77875	14392
7,78320	14188
7,78765	13871
7,79208	13747
7,79653	14381
7,80097	14320
7,80542	14442
7,80985	15544
7,81430	20274
7,81873	24411
7,82318	36337
7,82762	50306
7,83207	78543
7,83650	118245
7,84095	170431
7,84538	233259
7,84983	300718
7,85427	367759
7,85872	426735
7,86315	489970
7,86760	518935
7,87203	542003
7,87648	562123
7,88092	563910
7,88537	561628
7,88980	551346
7,89425	544641
7,89868	524807
7,90313	508376
7,90758	489459
7,91202	477133
7,91647	457981
7,92090	437265
7,92535	417144
7,92978	394780
7,93423	371389
7,93867	352021
7,94312	327311
7,94755	308895
7,95200	288436
7,95643	269555
7,96088	246667
7,96532	223555
7,96977	207712
7,97420	189369
7,97865	166843
7,98308	156613
7,98753	138047
7,99197	123070
7,99642	110404
8,00085	98281
8,00530	86206
8,00973	78796
8,01418	69408
8,01862	63162
8,02307	55121
8,02752	49717
8,03195	44149
8,03640	41755
8,04083	38929
8,04528	33196
8,04972	32112
8,05417	29132
8,05860	27926
8,06305	24013
8,06748	24330
8,07193	23198
8,07637	22072
8,08082	21024
8,08525	20354
8,08970	20840
8,09413	18379
8,09858	17930
8,10302	17459
8,10747	17512
8,11190	17530
8,11635	16664
8,12078	16644
8,12523	16785
8,12967	18467
8,13412	16063
8,13855	16579
8,14300	15983
8,14745	16318
8,15188	15722
8,15633	15854
8,16077	15356
8,16522	14987
8,16965	14740
8,17410	15644
8,17853	14506
8,18298	14933
8,18742	13734
8,19187	14359
8,19630	13843
8,20075	14753
8,20518	14353
8,20963	13725
8,21407	13587
8,21852	13850
8,22295	13306
8,22740	13573
8,23183	13104
8,23628	13771
8,24072	12991
8,24517	13256
8,24960	13213
8,25405	12922
8,25848	13465
8,26293	11659
8,26738	12229
8,27182	12097
8,27627	12328
8,28070	12080
8,28515	13487
8,28958	12156
8,29403	12252
8,29847	12756
8,30292	12778
8,30735	13407
8,31180	13422
8,31623	13175
8,32068	12711
8,32512	12609
8,32957	13460
8,33400	13781
8,33845	13340
8,34288	13470
8,34733	14221
8,35177	13105
8,35622	12743
8,36065	13970
8,36510	14205
8,36953	13606
8,37398	13940
8,37842	13968
8,38287	12543
8,38730	13126
8,39175	12723
8,39620	13067
8,40063	12921
8,40508	13029
8,40952	13579
8,41397	12493
8,41840	11964
8,42285	11992
8,42728	12362
8,43173	13268
8,43617	13384
8,44062	12045
8,44505	12854
8,44950	11666
8,45393	11367
8,45838	12482
8,46282	11159
8,46727	12079
8,47170	10697
8,47615	12186
8,48058	10939
8,48503	11576
8,48947	11454
8,49392	12417
8,49835	11165
8,50280	11213
8,50723	11132
8,51168	11549
8,51613	12458
8,52057	13557
8,52502	16440
8,52945	24201
8,53390	34684
8,53833	49065
8,54278	70601
8,54722	93278
8,55167	121154
8,55610	153590
8,56055	182620
8,56498	215366
8,56943	237441
8,57387	258566
8,57832	268553
8,58275	278898
8,58720	276583
8,59163	273615
8,59608	269084
8,60052	267480
8,60497	255061
8,60940	247001
8,61385	238463
8,61828	229745
8,62273	222092
8,62717	205898
8,63162	197553
8,63607	187810
8,64050	172977
8,64495	165188
8,64938	151365
8,65383	139216
8,65827	127487
8,66272	118577
8,66715	107214
8,67160	96028
8,67603	88906
8,68048	80474
8,68492	71960
8,68937	62614
8,69380	53997
8,69825	48170
8,70268	44904
8,70713	39137
8,71157	35317
8,71602	32417
8,72045	30449
8,72490	26199
8,72933	24223
8,73378	23530
8,73822	22634
8,74267	21539
8,74710	17541
8,75155	18164
8,75600	16704
8,76043	16592
8,76488	18462
8,76932	21679
8,77377	29455
8,77820	41464
8,78265	56128
8,78708	78008
8,79153	106338
8,79597	139147
8,80042	178638
8,80485	210754
8,80930	239991
8,81373	269221
8,81818	289869
8,82262	306258
8,82707	311656
8,83150	313486
8,83595	309034
8,84038	302858
8,84483	299455
8,84927	284568
8,85372	280374
8,85815	265562
8,86260	253910
8,86703	240118
8,87148	229444
8,87593	213008
8,88037	199335
8,88482	187058
8,88925	173577
8,89370	158045
8,89813	147040
8,90258	131010
8,90702	121384
8,91147	104298
8,91590	94526
8,92035	88218
8,92478	74713
8,92923	64904
8,93367	57270
8,93812	52002
8,94255	47451
8,94700	40705
8,95143	37493
8,95588	33411
8,96032	31349
8,96477	27285
8,96920	25984
8,97365	22864
8,97808	21556
8,98253	21420
8,98697	17679
8,99142	17358
8,99587	16289
9,00030	15432
9,00475	16007
9,00918	15324
9,01363	14096
9,01807	13482
9,02252	13902
9,02695	13115
9,03140	12115
9,03583	12420
9,04028	12033
9,04472	11523
9,04917	11620
9,05360	11067
9,05805	11408
9,06248	11631
9,06693	11586
9,07137	10982
9,07582	11658
9,08025	10239
9,08470	10801
9,08913	9881
9,09358	10452
9,09802	9717
9,10247	10981
9,10690	10797
9,11135	9993
9,11578	11076
9,12023	9688
9,12468	10536
9,12912	10578
9,13357	10235
9,13800	10707
9,14245	10783
9,14688	11046
9,15133	10572
9,15577	10110
9,16022	9541
9,16465	10879
9,16910	10019
9,17353	9644
9,17798	10662
9,18242	10014
9,18687	9936
9,19130	9444
9,19575	9727
9,20018	9311
9,20463	9285
9,20907	9503
9,21352	9263
9,21795	10278
9,22240	9533
9,22683	9170
9,23128	9615
9,23572	10089
9,24017	10172
9,24462	9973
9,24905	9068
9,25350	8775
9,25793	9815
9,26238	9546
9,26682	9736
9,27127	9974
9,27570	10237
9,28015	8654
9,28458	9727
9,28903	9620
9,29347	10179
9,29792	9373
9,30235	9415
9,30680	9039
9,31123	10267
9,31568	9697
9,32012	9873
9,32457	9120
9,32900	8641
9,33345	9586
9,33788	8398
9,34233	9464
9,34677	9439
9,35122	9332
9,35565	9233
9,36010	8441
9,36455	9396
9,36898	9932
9,37343	8682
9,37787	9603
9,38232	10039
9,38675	9146
9,39120	9611
9,39563	9224
9,40008	9398
9,40452	9005
9,40897	9108
9,41340	10077
9,41785	8983
9,42228	9272
9,42673	9148
9,43117	8562
9,43562	9622
9,44005	9092
9,44450	9287
9,44893	9716
9,45338	8385
9,45782	9645
9,46227	9111
9,46670	8409
9,47115	8766
9,47558	9152
9,48003	8846
9,48448	8961
9,48892	9502
9,49337	7800
9,49780	10026
9,50225	8799
9,50668	8735
9,51113	9747
9,51557	9095
9,52002	8378
9,52445	10199
9,52890	9539
9,53333	9702
9,53778	9367
9,54222	8896
9,54667	10041
9,55110	10401
9,55555	10210
9,55998	13455
9,56443	17480
9,56887	24006
9,57332	31850
9,57775	49789
9,58220	69760
9,58663	93007
9,59108	121359
9,59552	155383
9,59997	192408
9,60442	221814
9,60885	249861
9,61330	267434
9,61773	288550
9,62218	302623
9,62662	311530
9,63107	316253
9,63550	307795
9,63995	298226
9,64438	291553
9,64883	281842
9,65327	266993
9,65772	253439
9,66215	240757
9,66660	225544
9,67103	204247
9,67548	191024
9,67992	174360
9,68437	159151
9,68880	143914
9,69325	129421
9,69768	116954
9,70213	103909
9,70657	91432
9,71102	79366
9,71545	71729
9,71990	59488
9,72435	54433
9,72878	47997
9,73323	42535
9,73767	38324
9,74212	32170
9,74655	28325
9,75100	28020
9,75543	23239
9,75988	21679
9,76432	20240
9,76877	19153
9,77320	17575
9,77765	16613
9,78208	16169
9,78653	14553
9,79097	14172
9,79542	13783
9,79985	12840
9,80430	11083
9,80873	12286
9,81318	12802
9,81762	12859
9,82207	14778
9,82650	16488
9,83095	23754
9,83538	34903
9,83983	56278
9,84427	87753
9,84872	136489
9,85317	195735
9,85760	274600
9,86205	375382
9,86648	474991
9,87093	588714
9,87537	700382
9,87982	792345
9,88425	891007
9,88870	962532
9,89313	1010448
9,89758	1058325
9,90202	1067414
9,90647	1061713
9,91090	1026216
9,91535	1008352
9,91978	955629
9,92423	907765
9,92867	850116
9,93312	785716
9,93755	726081
9,94200	664838
9,94643	605490
9,95088	544892
9,95532	491918
9,95977	431983
9,96420	382235
9,96865	330867
9,97310	289872
9,97753	254874
9,98198	222803
9,98642	187690
9,99087	161559
9,99530	140954
9,99975	120740
10,00418	106385
10,00863	92548
10,01307	78946
10,01752	73076
10,02195	62248
10,02640	54829
10,03083	50832
10,03528	46355
10,03972	41209
10,04417	38661
10,04860	35524
10,05305	32513
10,05748	30567
10,06193	27801
10,06637	26902
10,07082	25135
10,07525	23347
10,07970	21994
10,08413	22485
10,08858	20510
10,09303	19473
10,09747	19642
10,10192	16977
10,10635	17456
10,11080	17366
10,11523	17111
10,11968	16001
10,12412	16456
10,12857	14460
10,13300	14753
10,13745	14319
10,14188	14284
10,14633	14089
10,15077	13463
10,15522	12976
10,15965	12041
10,16410	12587
10,16853	12744
10,17298	13008
10,17742	12000
10,18187	11290
10,18630	12623
10,19075	12143
10,19518	11412
10,19963	11854
10,20407	11222
10,20852	10249
10,21297	10728
10,21740	10112
10,22185	10711
10,22628	10055
10,23073	9828
10,23517	11263
10,23962	9754
10,24405	9611
10,24850	10273
10,25293	9596
10,25738	8686
10,26182	9441
10,26627	10325
10,27070	9419
10,27515	9626
10,27958	9658
10,28403	9774
10,28847	9666
10,29292	8593
10,29735	9247
10,30180	8648
10,30623	8170
10,31068	8685
10,31512	9479
10,31957	8364
10,32400	8482
10,32845	10288
10,33290	9150
10,33733	8960
10,34178	8969
10,34622	8101
10,35067	9399
10,35510	9195
10,35955	9395
10,36398	8795
10,36843	9091
10,37287	8973
10,37732	8910
10,38175	8990
10,38620	8063
10,39063	8635
10,39508	8804
10,39952	8858
10,40397	9040
10,40840	7998
10,41285	8278
10,41728	8760
10,42173	8483
10,42617	8061
10,43062	8625
10,43505	8419
10,43950	8017
10,44393	8529
10,44838	8659
10,45283	8764
10,45727	7998
10,46172	9070
10,46615	8197
10,47060	9024
10,47503	9201
10,47948	9152
10,48392	9052
10,48837	9963
10,49280	9351
10,49725	9558
10,50168	9927
10,50613	9933
10,51057	9853
10,51502	9736
10,51945	9110
10,52390	9316
10,52833	9168
10,53278	9548
10,53722	9462
10,54167	10452
10,54610	12932
10,55055	16618
10,55498	23041
10,55943	31292
10,56387	45951
10,56832	66314
10,57275	94670
10,57720	120236
10,58165	156029
10,58608	192809
10,59053	226004
10,59497	262088
10,59942	286880
10,60385	316296
10,60830	331168
10,61273	340916
10,61718	343213
10,62162	336058
10,62607	332907
10,63050	318516
10,63495	301307
10,63938	281157
10,64383	269631
10,64827	243735
10,65272	225495
10,65715	200678
10,66160	180514
10,66603	163858
10,67048	145711
10,67492	127296
10,67937	112711
10,68380	98924
10,68825	88560
10,69268	74927
10,69713	63960
10,70158	56356
10,70602	47492
10,71047	41887
10,71490	36698
10,71935	32546
10,72378	30980
10,72823	26733
10,73267	24793
10,73712	22065
10,74155	20119
10,74600	19434
10,75043	18442
10,75488	19139
10,75932	18243
10,76377	15353
10,76820	14440
10,77265	15857
10,77708	14996
10,78153	14714
10,78597	13757
10,79042	13170
10,79485	13998
10,79930	14255
10,80373	14358
10,80818	13201
10,81262	13595
10,81707	13125
10,82152	12314
10,82595	12533
10,83040	12520
10,83483	13594
10,83928	12834
10,84372	12627
10,84817	12679
10,85260	11347
10,85705	11003
10,86148	11123
10,86593	10620
10,87037	11838
10,87482	9012
10,87925	10306
10,88370	9794
10,88813	9355
10,89258	9695
10,89702	9873
10,90147	9669
10,90590	8781
10,91035	9100
10,91478	8213
10,91923	8796
10,92367	8788
10,92812	7983
10,93255	9115
10,93700	8135
10,94145	7558
10,94588	8265
10,95033	7375
10,95477	7903
10,95922	8203
10,96365	8168
10,96810	8132
10,97253	8191
10,97698	8532
10,98142	9280
10,98587	9887
10,99030	10055
10,99475	12673
10,99918	17243
11,00363	23810
11,00807	35713
11,01252	55194
11,01695	75508
11,02140	104899
11,02583	138650
11,03028	181532
11,03472	223901
11,03917	261934
11,04360	302617
11,04805	332932
11,05248	359214
11,05693	366932
11,06138	375532
11,06582	382026
11,07027	372575
11,07470	362151
11,07915	345254
11,08358	328836
11,08803	307165
11,09247	281432
11,09692	254949
11,10135	229558
11,10580	204190
11,11023	178567
11,11468	155134
11,11912	132668
11,12357	116430
11,12800	101633
11,13245	88129
11,13688	75414
11,14133	65044
11,14577	57146
11,15022	47702
11,15465	42508
11,15910	37531
11,16353	34527
11,16798	28456
11,17242	27166
11,17687	25415
11,18132	22461
11,18575	20809
11,19020	18973
11,19463	18083
11,19908	17555
11,20352	16073
11,20797	15078
11,21240	13685
11,21685	13858
11,22128	15091
11,22573	13229
11,23017	13465
11,23462	11770
11,23905	11046
11,24350	10815
11,24793	11127
11,25238	11097
11,25682	10542
11,26127	10299
11,26570	9485
11,27015	10563
11,27458	8073
11,27903	9479
11,28347	8707
11,28792	8974
11,29235	9497
11,29680	8829
11,30123	8676
11,30568	8431
11,31013	8796
11,31457	8533
11,31902	8347
11,32345	9102
11,32790	7774
11,33233	8573
11,33678	8189
11,34122	8588
11,34567	8053
11,35010	8584
11,35455	8098
11,35898	8602
11,36343	8009
11,36787	8034
11,37232	7350
11,37675	8210
11,38120	7882
11,38563	8666
11,39008	8167
11,39452	7631
11,39897	7620
11,40340	8060
11,40785	8295
11,41228	7447
11,41673	7662
11,42117	7959
11,42562	7887
11,43007	8086
11,43450	7467
11,43895	8756
11,44338	8026
11,44783	7048
11,45227	7596
11,45672	7320
11,46115	7704
11,46560	7791
11,47003	7537
11,47448	8028
11,47892	7032
11,48337	7526
11,48780	7820
11,49225	7005
11,49668	6716
11,50113	7251
11,50557	7749
11,51002	7231
11,51445	7950
11,51890	8542
11,52333	6983
11,52778	7293
11,53222	8238
11,53667	8191
11,54110	6954
11,54555	6677
11,55000	7674
11,55443	7375
11,55888	7545
11,56332	7270
11,56777	7453
11,57220	7902
11,57665	7457
11,58108	6834
11,58553	7279
11,58997	6765
11,59442	8074
11,59885	7007
11,60330	6899
11,60773	7087
11,61218	6463
11,61662	7023
11,62107	7363
11,62550	6837
11,62995	7225
11,63438	7326
11,63883	7359
11,64327	7040
11,64772	6412
11,65215	6984
11,65660	6795
11,66103	6487
11,66548	8303
11,66993	7614
11,67437	7039
11,67882	7230
11,68325	7217
11,68770	6758
11,69213	7308
11,69658	7654
11,70102	7638
11,70547	7924
11,70990	6843
11,71435	6900
11,71878	6618
11,72323	8327
11,72767	6613
11,73212	7204
11,73655	7700
11,74100	7601
11,74543	7677
11,74988	8740
11,75432	10679
11,75877	16220
11,76320	22782
11,76765	31480
11,77208	47418
11,77653	69321
11,78097	97371
11,78542	126155
11,78987	163322
11,79430	205890
11,79875	243704
11,80318	283295
11,80763	315823
11,81207	347948
11,81652	370725
11,82095	384355
11,82540	383290
11,82983	381684
11,83428	373753
11,83872	355055
11,84317	328089
11,84760	305228
11,85205	276372
11,85648	247529
11,86093	220197
11,86537	192892
11,86982	173573
11,87425	149717
11,87870	131199
11,88313	113881
11,88758	97371
11,89202	83705
11,89647	71695
11,90090	63088
11,90535	53634
11,90978	46801
11,91423	39847
11,91868	36760
11,92312	31820
11,92757	28089
11,93200	25210
11,93645	23375
11,94088	20448
11,94533	19424
11,94977	19280
11,95422	17070
11,95865	16395
11,96310	16231
11,96753	13286
11,97198	13493
11,97642	12584
11,98087	12295
11,98530	11405
11,98975	10689
11,99418	11667
11,99863	12019
12,00307	10429
12,00752	10704
12,01195	9890
12,01640	9777
12,02083	9349
12,02528	9163
12,02972	9142
12,03417	9317
12,03862	9620
12,04305	8475
12,04750	8306
12,05193	9269
12,05638	8348
12,06082	7731
12,06527	8366
12,06970	7777
12,07415	7245
12,07858	8786
12,08303	7857
12,08747	6366
12,09192	8602
12,09635	7280
12,10080	8564
12,10523	7862
12,10968	8313
12,11412	7792
12,11857	7526
12,12300	9358
12,12745	8675
12,13188	7574
12,13633	7919
12,14077	9533
12,14522	9188
12,14965	9572
12,15410	10881
12,15855	10790
12,16298	10915
12,16743	11877
12,17187	11486
12,17632	12362
12,18075	11807
12,18520	12232
12,18963	11930
12,19408	12397
12,19852	12492
12,20297	11551
12,20740	12557
12,21185	11442
12,21628	11768
12,22073	14026
12,22517	16121
12,22962	19709
12,23405	29077
12,23850	42929
12,24293	65546
12,24738	95906
12,25182	139154
12,25627	196984
12,26070	263225
12,26515	343348
12,26958	435100
12,27403	529150
12,27848	620905
12,28292	711274
12,28737	772765
12,29180	827016
12,29625	879104
12,30068	897637
12,30513	888736
12,30957	859197
12,31402	815793
12,31845	753877
12,32290	692494
12,32733	618193
12,33178	542471
12,33622	479350
12,34067	408625
12,34510	349926
12,34955	295744
12,35398	252715
12,35843	212848
12,36287	177757
12,36732	152062
12,37175	130205
12,37620	109303
12,38063	94138
12,38508	82189
12,38952	73966
12,39397	63389
12,39842	57423
12,40285	51036
12,40730	46947
12,41173	41328
12,41618	38841
12,42062	33986
12,42507	31404
12,42950	31379
12,43395	27652
12,43838	26208
12,44283	23911
12,44727	23126
12,45172	22585
12,45615	22464
12,46060	19116
12,46503	18777
12,46948	18078
12,47392	17421
12,47837	16437
12,48280	16116
12,48725	16023
12,49168	15104
12,49613	14840
12,50057	13726
12,50502	14170
12,50945	13844
12,51390	13060
12,51835	12902
12,52278	10705
12,52723	10697
12,53167	12489
12,53612	10063
12,54055	11344
12,54500	11026
12,54943	10117
12,55388	10608
12,55832	9811
12,56277	9287
12,56720	9566
12,57165	9972
12,57608	9323
12,58053	9917
12,58497	9976
12,58942	9091
12,59385	9294
12,59830	9077
12,60273	8935
12,60718	8216
12,61162	8982
12,61607	8612
12,62050	9254
12,62495	7742
12,62938	9032
12,63383	7675
12,63827	7494
12,64272	7366
12,64717	8611
12,65160	8243
12,65605	7742
12,66048	7852
12,66493	8727
12,66937	9414
12,67382	9210
12,67825	10459
12,68270	12752
12,68713	16156
12,69158	26627
12,69602	37450
12,70047	53580
12,70490	78168
12,70935	108039
12,71378	141490
12,71823	180733
12,72267	225660
12,72712	269275
12,73155	314900
12,73600	348552
12,74043	383542
12,74488	405937
12,74932	426985
12,75377	417591
12,75820	402698
12,76265	392832
12,76710	367103
12,77153	339984
12,77598	307666
12,78042	272632
12,78487	239259
12,78930	210245
12,79375	177039
12,79818	156259
12,80263	131194
12,80707	113100
12,81152	97869
12,81595	83536
12,82040	68928
12,82483	61351
12,82928	52997
12,83372	45892
12,83817	40661
12,84260	36623
12,84705	32960
12,85148	27925
12,85593	25770
12,86037	26165
12,86482	21389
12,86925	19958
12,87370	18008
12,87813	17961
12,88258	16168
12,88703	15884
12,89147	15110
12,89592	14727
12,90035	15747
12,90480	18801
12,90923	21769
12,91368	26483
12,91812	37613
12,92257	55136
12,92700	78047
12,93145	111488
12,93588	159033
12,94033	216541
12,94477	285769
12,94922	361943
12,95365	455373
12,95810	529432
12,96253	616217
12,96698	694028
12,97142	767076
12,97587	814179
12,98030	844090
12,98475	851282
12,98918	831958
12,99363	804506
12,99807	745710
13,00252	685127
13,00697	613630
13,01140	535135
13,01585	464882
13,02028	405215
13,02473	346751
13,02917	296851
13,03362	251660
13,03805	212187
13,04250	179881
13,04693	150233
13,05138	130443
13,05582	112724
13,06027	97971
13,06470	84257
13,06915	75025
13,07358	65006
13,07803	59538
13,08247	51430
13,08692	49905
13,09135	43624
13,09580	39393
13,10023	36248
13,10468	34516
13,10912	30532
13,11357	30036
13,11800	27598
13,12245	25509
13,12690	23936
13,13133	23583
13,13578	22714
13,14022	20804
13,14467	19825
13,14910	19064
13,15355	18190
13,15798	16364
13,16243	16771
13,16687	16289
13,17132	15680
13,17575	14278
13,18020	14199
13,18463	13468
13,18908	13210
13,19352	13275
13,19797	13132
13,20240	12937
13,20685	11369
13,21128	11607
13,21573	10821
13,22017	11555
13,22462	10496
13,22905	10717
13,23350	10341
13,23793	9292
13,24238	10338
13,24683	9754
13,25127	9710
13,25572	9864
13,26015	8842
13,26460	9431
13,26903	9647
13,27348	8620
13,27792	8599
13,28237	8866
13,28680	8342
13,29125	8217
13,29568	8986
13,30013	8366
13,30457	7783
13,30902	8452
13,31345	7574
13,31790	7339
13,32233	7724
13,32678	7974
13,33122	7758
13,33567	7619
13,34010	7343
13,34455	7476
13,34898	7611
13,35343	7975
13,35787	6983
13,36232	8113
13,36677	7351
13,37120	7724
13,37565	8240
13,38008	8303
13,38453	8357
13,38897	8187
13,39342	8035
13,39785	7273
13,40230	8171
13,40673	9373
13,41118	7650
13,41562	8016
13,42007	7460
13,42450	7847
13,42895	7827
13,43338	7569
13,43783	9351
13,44227	9263
13,44672	14055
13,45115	18251
13,45560	27324
13,46003	38995
13,46448	55530
13,46892	79390
13,47337	112192
13,47780	144441
13,48225	185654
13,48668	226643
13,49113	269605
13,49558	309847
13,50002	347826
13,50447	373428
13,50890	384709
13,51335	392911
13,51778	391976
13,52223	374714
13,52667	354710
13,53112	314668
13,53555	290209
13,54000	257328
13,54443	227488
13,54888	201139
13,55332	169664
13,55777	146735
13,56220	126037
13,56665	107663
13,57108	92365
13,57553	79881
13,57997	66250
13,58442	58402
13,58885	50799
13,59330	45858
13,59773	40535
13,60218	35138
13,60662	32098
13,61107	28175
13,61552	25650
13,61995	23916
13,62440	21383
13,62883	20584
13,63328	19140
13,63772	17743
13,64217	17162
13,64660	15325
13,65105	15079
13,65548	14243
13,65993	13113
13,66437	12242
13,66882	12580
13,67325	12639
13,67770	10719
13,68213	11315
13,68658	12450
13,69102	9336
13,69547	11396
13,69990	10225
13,70435	9454
13,70878	10475
13,71323	8907
13,71767	8871
13,72212	9449
13,72655	8237
13,73100	9877
13,73545	7448
13,73988	8805
13,74433	8557
13,74877	7690
13,75322	8694
13,75765	7825
13,76210	8355
13,76653	7658
13,77098	8880
13,77542	8445
13,77987	9454
13,78430	9152
13,78875	8083
13,79318	8176
13,79763	7428
13,80207	7471
13,80652	7779
13,81095	7597
13,81540	8268
13,81983	8045
13,82428	7778
13,82872	7827
13,83317	6761
13,83760	7623
13,84205	7730
13,84648	7724
13,85093	6994
13,85538	7485
13,85982	8302
13,86427	7547
13,86870	7241
13,87315	6814
13,87758	6682
13,88203	6209
13,88647	7032
13,89092	6893
13,89535	7497
13,89980	7831
13,90423	6924
13,90868	7079
13,91312	7214
13,91757	7469
13,92200	6844
13,92645	7824
13,93088	7944
13,93533	6660
13,93977	7460
13,94422	7272
13,94865	7330
13,95310	6877
13,95753	6360
13,96198	6999
13,96642	7399
13,97087	6813
13,97532	9896
13,97975	12179
13,98420	17145
13,98863	22526
13,99308	34092
13,99752	47778
14,00197	71747
14,00640	96833
14,01085	131842
14,01528	173068
14,01973	208584
14,02417	252901
14,02862	295826
14,03305	328292
14,03750	349890
14,04193	367872
14,04638	378409
14,05082	374654
14,05527	363994
14,05970	339096
14,06415	316248
14,06858	289203
14,07303	251492
14,07747	230623
14,08192	201013
14,08635	172730
14,09080	146177
14,09525	125397
14,09968	107627
14,10413	94578
14,10857	76543
14,11302	66793
14,11745	56946
14,12190	50847
14,12633	43976
14,13078	38774
14,13522	36113
14,13967	31360
14,14410	27898
14,14855	26935
14,15298	24837
14,15743	22085
14,16187	21791
14,16632	17777
14,17075	17253
14,17520	15832
14,17963	15034
14,18408	14653
14,18852	15402
14,19297	14396
14,19740	13483
14,20185	13949
14,20628	11020
14,21073	11541
14,21517	12064
14,21962	10925
14,22407	10895
14,22850	10855
14,23295	10138
14,23738	10180
14,24183	9822
14,24627	10043
14,25072	9083
14,25515	8638
14,25960	9664
14,26403	9621
14,26848	8761
14,27292	9335
14,27737	8667
14,28180	9153
14,28625	9922
14,29068	9196
14,29513	8636
14,29957	7850
14,30402	8611
14,30845	7666
14,31290	7379
14,31733	8511
14,32178	6738
14,32622	7073
14,33067	7515
14,33510	7938
14,33955	6692
14,34400	6498
14,34843	6902
14,35288	7664
14,35732	7031
14,36177	7037
14,36620	6287
14,37065	6585
14,37508	7724
14,37953	6961
14,38397	5775
14,38842	6735
14,39285	6371
14,39730	7405
14,40173	7341
14,40618	6617
14,41062	6228
14,41507	7353
14,41950	6349
14,42395	6492
14,42838	6342
14,43283	7062
14,43727	6622
14,44172	6570
14,44615	6484
14,45060	6579
14,45503	6374
14,45948	7076
14,46393	6843
14,46837	6394
14,47282	6715
14,47725	6273
14,48170	6209
14,48613	7204
14,49058	6359
14,49502	6251
14,49947	7020
14,50390	7391
14,50835	7129
14,51278	6604
14,51723	7698
14,52167	6686
14,52612	6409
14,53055	7093
14,53500	6741
14,53943	7719
14,54388	6769
14,54832	6897
14,55277	6455
14,55720	6778
14,56165	7256
14,56608	6449
14,57053	6478
14,57497	6083
14,57942	6735
14,58387	6609
14,58830	6242
14,59275	7014
14,59718	6951
14,60163	6026
14,60607	6269
14,61052	6852
14,61495	6689
14,61940	6668
14,62383	6001
14,62828	7532
14,63272	6782
14,63717	6222
14,64160	7810
14,64605	6977
14,65048	7597
14,65493	6715
14,65937	6062
14,66382	6518
14,66825	6673
14,67270	6593
14,67713	6970
14,68158	6775
14,68602	6961
14,69047	6649
14,69490	6262
14,69935	6598
14,70380	6912
14,70823	7366
14,71268	7138
14,71712	5820
14,72157	6249
14,72600	6534
14,73045	6936
14,73488	7525
14,73933	8011
14,74377	8680
14,74822	9737
14,75265	13307
14,75710	19624
14,76153	28586
14,76598	40177
14,77042	57590
14,77487	77843
14,77930	107229
14,78375	141495
14,78818	177110
14,79263	211655
14,79707	254444
14,80152	287562
14,80595	321392
14,81040	346170
14,81483	355054
14,81928	367724
14,82373	372284
14,82817	373576
14,83262	375592
14,83705	381362
14,84150	402178
14,84593	431421
14,85038	473575
14,85482	526559
14,85927	590555
14,86370	659573
14,86815	748375
14,87258	844917
14,87703	932608
14,88147	994318
14,88592	1054575
14,89035	1077866
14,89480	1064031
14,89923	1009442
14,90368	951345
14,90812	863608
14,91257	759875
14,91700	656706
14,92145	562641
14,92588	477451
14,93033	399875
14,93477	334006
14,93922	280197
14,94365	236749
14,94810	200553
14,95255	175141
14,95698	146045
14,96143	129205
14,96587	114250
14,97032	102974
14,97475	91252
14,97920	83702
14,98363	78941
14,98808	68217
14,99252	62734
14,99697	59247
15,00140	56470
15,00585	50460
15,01028	48845
15,01473	46245
15,01917	42780
15,02362	40053
15,02805	36129
15,03250	32609
15,03693	31660
15,04138	32003
15,04582	29033
15,05027	26447
15,05470	26625
15,05915	24439
15,06358	23317
15,06803	22445
15,07248	21153
15,07692	19426
15,08137	18736
15,08580	19375
15,09025	17034
15,09468	17592
15,09913	17483
15,10357	15420
15,10802	15927
15,11245	15224
15,11690	14085
15,12133	14911
15,12578	13044
15,13022	13824
15,13467	14015
15,13910	12613
15,14355	13789
15,14798	13620
15,15243	11748
15,15687	11550
15,16132	12547
15,16575	12206
15,17020	11329
15,17463	10447
15,17908	10085
15,18352	10586
15,18797	10402
15,19242	9247
15,19685	9687
15,20130	9730
15,20573	9317
15,21018	9884
15,21462	9670
15,21907	9190
15,22350	7487
15,22795	8137
15,23238	9718
15,23683	11385
15,24127	11803
15,24572	14304
15,25015	18153
15,25460	23932
15,25903	32281
15,26348	45181
15,26792	62146
15,27237	86279
15,27680	113954
15,28125	145470
15,28568	185433
15,29013	219503
15,29457	259062
15,29902	294340
15,30345	311392
15,30790	329319
15,31235	336568
15,31678	346481
15,32123	331705
15,32567	315237
15,33012	290425
15,33455	260636
15,33900	231922
15,34343	203131
15,34788	179337
15,35232	152430
15,35677	132373
15,36120	109941
15,36565	94225
15,37008	81449
15,37453	70445
15,37897	60752
15,38342	51993
15,38785	46825
15,39230	41327
15,39673	35272
15,40118	32181
15,40562	29612
15,41007	25799
15,41450	25161
15,41895	22460
15,42338	22007
15,42783	21894
15,43228	17962
15,43672	17607
15,44117	16420
15,44560	16000
15,45005	14493
15,45448	15534
15,45893	15124
15,46337	13435
15,46782	14495
15,47225	12873
15,47670	12034
15,48113	11922
15,48558	12441
15,49002	11548
15,49447	11982
15,49890	11447
15,50335	13562
15,50778	15597
15,51223	19031
15,51667	22578
15,52112	33717
15,52555	46813
15,53000	66121
15,53443	90636
15,53888	122377
15,54332	158245
15,54777	208376
15,55222	249049
15,55665	303554
15,56110	351554
15,56553	395382
15,56998	426673
15,57442	444581
15,57887	457506
15,58330	450790
15,58775	440355
15,59218	405919
15,59663	372386
15,60107	333094
15,60552	287464
15,60995	249187
15,61440	217728
15,61883	182255
15,62328	154362
15,62772	131404
15,63217	112071
15,63660	96610
15,64105	83339
15,64548	74724
15,64993	61309
15,65437	57083
15,65882	51655
15,66325	44167
15,66770	37967
15,67213	36077
15,67658	33091
15,68103	30157
15,68547	26260
15,68992	28078
15,69435	24794
15,69880	22082
15,70323	19194
15,70768	20368
15,71212	20103
15,71657	18542
15,72100	17262
15,72545	15802
15,72988	16356
15,73433	13484
15,73877	15169
15,74322	15251
15,74765	14403
15,75210	14086
15,75653	13348
15,76098	11627
15,76542	13249
15,76987	11681
15,77430	10380
15,77875	10797
15,78318	12222
15,78763	10032
15,79207	10600
15,79652	9411
15,80097	10492
15,80540	9237
15,80985	8284
15,81428	10145
15,81873	10028
15,82317	10094
15,82762	9437
15,83205	10403
15,83650	8992
15,84093	9549
15,84538	9239
15,84982	8344
15,85427	8874
15,85870	8684
15,86315	8891
15,86758	8132
15,87203	8383
15,87647	8468
15,88092	7932
15,88535	7658
15,88980	8692
15,89423	8455
15,89868	8439
15,90312	7946
15,90757	9267
15,91200	7446
15,91645	8411
15,92090	7814
15,92533	8234
15,92978	8190
15,93422	7217
15,93867	6840
15,94310	8257
15,94755	8104
15,95198	8661
15,95643	6895
15,96087	6674
15,96532	7692
15,96975	8894
15,97420	6268
15,97863	6870
15,98308	6910
15,98752	8159
15,99197	7228
15,99640	7297
16,00085	6162
16,00528	7348
16,00973	6893
16,01417	6970
16,01862	6837
16,02305	6769
16,02750	7130
16,03193	6521
16,03638	6085
16,04083	7085
16,04527	6672
16,04972	7704
16,05415	7685
16,05860	6499
16,06303	6519
16,06748	6810
16,07192	7309
16,07637	6641
16,08080	6747
16,08525	7409
16,08968	7458
16,09413	6961
16,09857	7447
16,10302	6765
16,10745	6671
16,11190	7703
16,11633	7760
16,12078	9392
16,12522	8613
16,12967	11200
16,13410	14943
16,13855	20116
16,14298	29458
16,14743	44610
16,15187	65192
16,15632	91699
16,16077	127205
16,16520	172295
16,16965	219106
16,17408	276908
16,17853	338648
16,18297	394094
16,18742	448445
16,19185	490153
16,19630	518078
16,20073	526666
16,20518	520359
16,20962	494962
16,21407	459074
16,21850	412140
16,22295	355965
16,22738	312342
16,23183	266373
16,23627	229412
16,24072	194626
16,24515	162679
16,24960	138346
16,25403	117500
16,25848	100798
16,26292	88037
16,26737	75638
16,27180	66504
16,27625	57724
16,28070	53582
16,28513	45961
16,28958	41512
16,29402	40054
16,29847	37212
16,30290	34417
16,30735	30906
16,31178	28846
16,31623	26681
16,32067	25121
16,32512	24057
16,32955	21458
16,33400	21346
16,33843	21018
16,34288	17685
16,34732	17475
16,35177	18175
16,35620	16425
16,36065	16089
16,36508	15308
16,36953	15729
16,37397	14594
16,37842	16718
16,38285	16392
16,38730	15424
16,39173	15118
16,39618	14100
16,40062	15562
16,40507	14735
16,40952	11847
16,41395	12900
16,41840	11133
16,42283	12982
16,42728	11038
16,43172	11155
16,43617	11027
16,44060	9684
16,44505	11475
16,44948	10778
16,45393	10542
16,45837	10078
16,46282	8571
16,46725	9785
16,47170	8575
16,47613	10154
16,48058	9090
16,48502	9611
16,48947	9055
16,49390	9883
16,49835	9257
16,50278	8496
16,50723	8909
16,51167	8509
16,51612	8371
16,52055	8507
16,52500	8881
16,52945	8622
16,53388	9369
16,53833	9614
16,54277	7563
16,54722	8021
16,55165	9183
16,55610	8200
16,56053	7102
16,56498	8121
16,56942	7352
16,57387	8344
16,57830	7382
16,58275	7970
16,58718	8196
16,59163	9093
16,59607	9312
16,60052	10979
16,60495	13481
16,60940	20472
16,61383	24960
16,61828	36408
16,62272	53220
16,62717	76212
16,63160	100691
16,63605	130518
16,64048	169169
16,64493	218949
16,64938	259775
16,65382	298090
16,65827	338953
16,66270	367378
16,66715	383882
16,67158	399139
16,67603	396114
16,68047	384444
16,68492	358407
16,68935	328653
16,69380	296627
16,69823	257370
16,70268	225652
16,70712	194615
16,71157	163360
16,71600	141015
16,72045	116519
16,72488	103748
16,72933	85833
16,73377	75578
16,73822	65502
16,74265	59038
16,74710	50873
16,75153	43352
16,75598	40613
16,76042	36822
16,76487	33560
16,76932	30336
16,77375	27645
16,77820	27538
16,78263	24313
16,78708	22739
16,79152	20240
16,79597	21672
16,80040	18021
16,80485	17555
16,80928	16765
16,81373	17692
16,81817	14360
16,82262	13793
16,82705	14768
16,83150	14261
16,83593	13019
16,84038	13144
16,84482	11907
16,84927	11852
16,85370	11844
16,85815	13368
16,86258	12192
16,86703	12490
16,87147	10694
16,87592	12028
16,88035	10673
16,88480	11083
16,88925	10896
16,89368	10530
16,89813	9961
16,90257	9971
16,90702	10154
16,91145	9751
16,91590	8696
16,92033	9360
16,92478	9997
16,92922	8809
16,93367	8938
16,93810	7888
16,94255	8021
16,94698	9133
16,95143	9456
16,95587	7194
16,96032	7757
16,96475	8735
16,96920	8041
16,97363	9049
16,97808	7116
16,98252	7539
16,98697	8063
16,99140	6608
16,99585	8330
17,00028	7600
17,00473	7417
17,00918	7560
17,01362	8211
17,01807	8223
17,02250	8343
17,02695	8273
17,03138	7944
17,03583	7510
17,04027	7098
17,04472	7632
17,04915	8303
17,05360	7658
17,05803	7089
17,06248	7527
17,06692	7207
17,07137	7475
17,07580	7513
17,08025	7862
17,08468	7455
17,08913	7245
17,09357	7800
17,09802	6898
17,10245	8264
17,10690	6974
17,11133	8216
17,11578	6535
17,12022	6535
17,12467	7912
17,12910	7145
17,13355	7779
17,13800	8143
17,14243	7365
17,14688	7058
17,15132	7856
17,15577	7392
17,16020	7025
17,16465	7303
17,16908	7670
17,17353	7418
17,17797	8760
17,18242	6725
17,18685	7125
17,19130	7588
17,19573	7290
17,20018	7900
17,20462	7770
17,20907	7588
17,21350	7294
17,21795	7780
17,22238	8182
17,22683	7140
17,23127	7359
17,23572	8040
17,24015	8032
17,24460	7737
17,24903	7836
17,25348	7945
17,25793	7525
17,26237	7738
17,26682	7634
17,27125	6423
17,27570	8246
17,28013	7541
17,28458	7918
17,28902	7628
17,29347	8783
17,29790	8443
17,30235	7937
17,30678	8405
17,31123	7778
17,31567	9128
17,32012	8333
17,32455	8794
17,32900	8220
17,33343	7844
17,33788	6969
17,34232	8430
17,34677	9585
17,35120	8329
17,35565	8209
17,36008	9778
17,36453	8287
17,36897	8887
17,37342	11919
17,37787	14511
17,38230	19705
17,38675	26855
17,39118	38974
17,39563	53826
17,40007	77637
17,40452	100932
17,40895	134345
17,41340	170108
17,41783	215115
17,42228	250059
17,42672	296325
17,43117	323462
17,43560	351628
17,44005	372002
17,44448	387331
17,44893	397588
17,45337	398100
17,45782	395589
17,46225	393650
17,46670	407605
17,47113	424498
17,47558	447829
17,48002	495201
17,48447	547590
17,48890	617364
17,49335	695851
17,49780	784055
17,50223	873903
17,50668	967394
17,51112	1054581
17,51557	1098393
17,52000	1133082
17,52445	1120362
17,52888	1064804
17,53333	982909
17,53777	884177
17,54222	775392
17,54665	665098
17,55110	559796
17,55553	475469
17,55998	400184
17,56442	337594
17,56887	287931
17,57330	248746
17,57775	211593
17,58218	183724
17,58663	163411
17,59107	143052
17,59552	127298
17,59995	114483
17,60440	101695
17,60883	94661
17,61328	83831
17,61773	77817
17,62217	73036
17,62662	67398
17,63105	62151
17,63550	60345
17,63993	53677
17,64438	50658
17,64882	48864
17,65327	47619
17,65770	43042
17,66215	40665
17,66658	40735
17,67103	37220
17,67547	35905
17,67992	33299
17,68435	31956
17,68880	32381
17,69323	29282
17,69768	26345
17,70212	27476
17,70657	26928
17,71100	25290
17,71545	25972
17,71988	23795
17,72433	24176
17,72877	24284
17,73322	22510
17,73767	22566
17,74210	21713
17,74655	19293
17,75098	20696
17,75543	19341
17,75987	17902
17,76432	16293
17,76875	18953
17,77320	18423
17,77763	17382
17,78208	16103
17,78652	16231
17,79097	14892
17,79540	15961
17,79985	14923
17,80428	15313
17,80873	14198
17,81317	14280
17,81762	14118
17,82205	14305
17,82650	13507
17,83093	14213
17,83538	13274
17,83982	14655
17,84427	14210
17,84870	14508
17,85315	13538
17,85758	13235
17,86203	15422
17,86648	15122
17,87092	18800
17,87537	22170
17,87980	27237
17,88425	37097
17,88868	48336
17,89313	66500
17,89757	88877
17,90202	122135
17,90645	152023
17,91090	194314
17,91533	236096
17,91978	275513
17,92422	311199
17,92867	343445
17,93310	362877
17,93755	376104
17,94198	377042
17,94643	365084
17,95087	354114
17,95532	332934
17,95975	309869
17,96420	293948
17,96863	273140
17,97308	271288
17,97752	272606
17,98197	271055
17,98642	289557
17,99085	309890
17,99530	328737
17,99973	355045
18,00418	371686
18,00862	376563
18,01307	377338
18,01750	369912
18,02195	358818
18,02638	341894
18,03083	316164
18,03527	284000
18,03972	253958
18,04415	225425
18,04860	198624
18,05303	169678
18,05748	149761
18,06192	132574
18,06637	113890
18,07080	98291
18,07525	87581
18,07968	75264
18,08413	66173
18,08857	60634
18,09302	54009
18,09745	50314
18,10190	42342
18,10635	40452
18,11078	38871
18,11523	36498
18,11967	35905
18,12412	36882
18,12855	39609
18,13300	47858
18,13743	57022
18,14188	70044
18,14632	92131
18,15077	122514
18,15520	155633
18,15965	194137
18,16408	244867
18,16853	291912
18,17297	352518
18,17742	390411
18,18185	430823
18,18630	468997
18,19073	480177
18,19518	489604
18,19962	477130
18,20407	452877
18,20850	422080
18,21295	375200
18,21738	334651
18,22183	293984
18,22628	254218
18,23072	221572
18,23517	190882
18,23960	160694
18,24405	139956
18,24848	119137
18,25293	107881
18,25737	92848
18,26182	80160
18,26625	73489
18,27070	67366
18,27513	59068
18,27958	56304
18,28402	51119
18,28847	46935
18,29290	42692
18,29735	38737
18,30178	38532
18,30623	35609
18,31067	32476
18,31512	31955
18,31955	31397
18,32400	28022
18,32843	26086
18,33288	26912
18,33732	25787
18,34177	26340
18,34622	23233
18,35065	21037
18,35510	21401
18,35953	19112
18,36398	19976
18,36842	19241
18,37287	19306
18,37730	18923
18,38175	17974
18,38618	16719
18,39063	17927
18,39507	15717
18,39952	14793
18,40395	13076
18,40840	14327
18,41283	15709
18,41728	14022
18,42172	15135
18,42617	14137
18,43060	13865
18,43505	13279
18,43948	13910
18,44393	13376
18,44837	12762
18,45282	12211
18,45725	13731
18,46170	14134
18,46615	12797
18,47058	10947
18,47503	11298
18,47947	11622
18,48392	10791
18,48835	12035
18,49280	11092
18,49723	11166
18,50168	10711
18,50612	10639
18,51057	10293
18,51500	11251
18,51945	9746
18,52388	10549
18,52833	9512
18,53277	11059
18,53722	10200
18,54165	10646
18,54610	12274
18,55053	9771
18,55498	9586
18,55942	9734
18,56387	10323
18,56830	9585
18,57275	11404
18,57718	9483
18,58163	8956
18,58607	10384
18,59052	10183
18,59497	9615
18,59940	9145
18,60385	8912
18,60828	9713
18,61273	10868
18,61717	10224
18,62162	10688
18,62605	10230
18,63050	9260
18,63493	9654
18,63938	10053
18,64382	8889
18,64827	9472
18,65270	8454
18,65715	9133
18,66158	8672
18,66603	8834
18,67047	8409
18,67492	8800
18,67935	10495
18,68380	9254
18,68823	10089
18,69268	9165
18,69712	9451
18,70157	10215
18,70600	10907
18,71045	10640
18,71490	10457
18,71933	10728
18,72378	13586
18,72822	14206
18,73267	18794
18,73710	25557
18,74155	34457
18,74598	47196
18,75043	67270
18,75487	93857
18,75932	127894
18,76375	166972
18,76820	212816
18,77263	267464
18,77708	323692
18,78152	387742
18,78597	446524
18,79040	488471
18,79485	522138
18,79928	539252
18,80373	538880
18,80817	519885
18,81262	486615
18,81705	442174
18,82150	392103
18,82593	352683
18,83038	302813
18,83483	253103
18,83927	223269
18,84372	192072
18,84815	164610
18,85260	144863
18,85703	124423
18,86148	110342
18,86592	98018
18,87037	86082
18,87480	77103
18,87925	69804
18,88368	64579
18,88813	58246
18,89257	56430
18,89702	50863
18,90145	47948
18,90590	44282
18,91033	40820
18,91478	37905
18,91922	34917
18,92367	34436
18,92810	34408
18,93255	30517
18,93698	28324
18,94143	28139
18,94587	25853
18,95032	26815
18,95477	23626
18,95920	24060
18,96365	23976
18,96808	21713
18,97253	22128
18,97697	21488
18,98142	20958
18,98585	19757
18,99030	20263
18,99473	18373
18,99918	17620
19,00362	17520
19,00807	17883
19,01250	17596
19,01695	17353
19,02138	16704
19,02583	16212
19,03027	16024
19,03472	15170
19,03915	15603
19,04360	15157
19,04803	15218
19,05248	13800
19,05692	14738
19,06137	15300
19,06580	14948
19,07025	13823
19,07470	13472
19,07913	13737
19,08358	13358
19,08802	13100
19,09247	13196
19,09690	12678
19,10135	12427
19,10578	12541
19,11023	12521
19,11467	11836
19,11912	12722
19,12355	12789
19,12800	12386
19,13243	12163
19,13688	10954
19,14132	12052
19,14577	11729
19,15020	11627
19,15465	11663
19,15908	11054
19,16353	11411
19,16797	12459
19,17242	10595
19,17685	10815
19,18130	12059
19,18573	11551
19,19018	13057
19,19463	15310
19,19907	18351
19,20352	22299
19,20795	31076
19,21240	42761
19,21683	57491
19,22128	79113
19,22572	111486
19,23017	149606
19,23460	189119
19,23905	234426
19,24348	282961
19,24793	333405
19,25237	367269
19,25682	403767
19,26125	429616
19,26570	439263
19,27013	446116
19,27458	441692
19,27902	433193
19,28347	423603
19,28790	410741
19,29235	406617
19,29678	399867
19,30123	410308
19,30567	406782
19,31012	414654
19,31455	416316
19,31900	409819
19,32345	399839
19,32788	384788
19,33233	360204
19,33677	341120
19,34122	311868
19,34565	281307
19,35010	250676
19,35453	219587
19,35898	199416
19,36342	169619
19,36787	147174
19,37230	127012
19,37675	113168
19,38118	98590
19,38563	87590
19,39007	77740
19,39452	70051
19,39895	60088
19,40340	55875
19,40783	54917
19,41228	47797
19,41672	43187
19,42117	41071
19,42560	38236
19,43005	36352
19,43448	35084
19,43893	33066
19,44338	30591
19,44782	28105
19,45227	28089
19,45670	26051
19,46115	26355
19,46558	24798
19,47003	22256
19,47447	23378
19,47892	22537
19,48335	20976
19,48780	20108
19,49223	21087
19,49668	19193
19,50112	18381
19,50557	16845
19,51000	17251
19,51445	17512
19,51888	16860
19,52333	16049
19,52777	16042
19,53222	15370
19,53665	15925
19,54110	16025
19,54553	15715
19,54998	14953
19,55442	14833
19,55887	14151
19,56332	14377
19,56775	14033
19,57220	14608
19,57663	13394
19,58108	13527
19,58552	13181
19,58997	12952
19,59440	14164
19,59885	12197
19,60328	13822
19,60773	11538
19,61217	11622
19,61662	12361
19,62105	13034
19,62550	13288
19,62993	13590
19,63438	11508
19,63882	12476
19,64327	11126
19,64770	10312
19,65215	11033
19,65658	11920
19,66103	12055
19,66547	10438
19,66992	11438
19,67435	11293
19,67880	10997
19,68325	9470
19,68768	10134
19,69213	11181
19,69657	11416
19,70102	10661
19,70545	12026
19,70990	10891
19,71433	11283
19,71878	10659
19,72322	10132
19,72767	9734
19,73210	10476
19,73655	9735
19,74098	9996
19,74543	10836
19,74987	11474
19,75432	12342
19,75875	10619
19,76320	10537
19,76763	10627
19,77208	9316
19,77652	9492
19,78097	10986
19,78540	10186
19,78985	9950
19,79428	9782
19,79873	10632
19,80318	10102
19,80762	9834
19,81207	10814
19,81650	11157
19,82095	11091
19,82538	10145
19,82983	10626
19,83427	9180
19,83872	10339
19,84315	10846
19,84760	11570
19,85203	10497
19,85648	9806
19,86092	9772
19,86537	9856
19,86980	11275
19,87425	9828
19,87868	9347
19,88313	9166
19,88757	8961
19,89202	10347
19,89645	9995
19,90090	9934
19,90533	10418
19,90978	9893
19,91422	11490
19,91867	10889
19,92312	10199
19,92755	9812
19,93200	9900
19,93643	10369
19,94088	9763
19,94532	10607
19,94977	9426
19,95420	10193
19,95865	8438
19,96308	10241
19,96753	10310
19,97197	9035
19,97642	9917
19,98085	10875
19,98530	10399
19,98973	11721
19,99418	12908
19,99862	14682
20,00307	17123
20,00750	21488
20,01195	26813
20,01638	38378
20,02083	54112
20,02527	73798
20,02972	97048
20,03415	135471
20,03860	176603
20,04303	227650
20,04748	289540
20,05193	367197
20,05637	444749
20,06082	532703
20,06525	629560
20,06970	721165
20,07413	825996
20,07858	916346
20,08302	997096
20,08747	1066928
20,09190	1080532
20,09635	1065891
20,10078	1015334
20,10523	935988
20,10967	836296
20,11412	730409
20,11855	631348
20,12300	529211
20,12743	449432
20,13188	382351
20,13632	325660
20,14077	285380
20,14520	248353
20,14965	213917
20,15408	186800
20,15853	167103
20,16297	149279
20,16742	134373
20,17187	122202
20,17630	112910
20,18075	102207
20,18518	95292
20,18963	90442
20,19407	80298
20,19852	77599
20,20295	72889
20,20740	70244
20,21183	64216
20,21628	60512
20,22072	57564
20,22517	54261
20,22960	52364
20,23405	51431
20,23848	49374
20,24293	46056
20,24737	43663
20,25182	41751
20,25625	40565
20,26070	38618
20,26513	38810
20,26958	36685
20,27402	36069
20,27847	33977
20,28290	33018
20,28735	31511
20,29180	30880
20,29623	29188
20,30068	29845
20,30512	27698
20,30957	27210
20,31400	26347
20,31845	24731
20,32288	26658
20,32733	23898
20,33177	23612
20,33622	23807
20,34065	24919
20,34510	22533
20,34953	21782
20,35398	20391
20,35842	21720
20,36287	21663
20,36730	20054
20,37175	20247
20,37618	18234
20,38063	20900
20,38507	18260
20,38952	17455
20,39395	18744
20,39840	18366
20,40283	17252
20,40728	18051
20,41173	16709
20,41617	17909
20,42062	16017
20,42505	16231
20,42950	15994
20,43393	15471
20,43838	16123
20,44282	16830
20,44727	15688
20,45170	16497
20,45615	17302
20,46058	15440
20,46503	15284
20,46947	15728
20,47392	14284
20,47835	15925
20,48280	15109
20,48723	15513
20,49168	15158
20,49612	15688
20,50057	15011
20,50500	15075
20,50945	14141
20,51388	15850
20,51833	14487
20,52277	14736
20,52722	14142
20,53167	13872
20,53610	14257
20,54055	14256
20,54498	13781
20,54943	14650
20,55387	14421
20,55832	13506
20,56275	13100
20,56720	11894
20,57163	14262
20,57608	12644
20,58052	13091
20,58497	13880
20,58940	13487
20,59385	12206
20,59828	13633
20,60273	13134
20,60717	12180
20,61162	13486
20,61605	12853
20,62050	12062
20,62493	12789
20,62938	12417
20,63382	12790
20,63827	14591
20,64270	13469
20,64715	13897
20,65160	14344
20,65603	15656
20,66048	16263
20,66492	19430
20,66937	25025
20,67380	33487
20,67825	43610
20,68268	58390
20,68713	78282
20,69157	108055
20,69602	143497
20,70045	182135
20,70490	231093
20,70933	283074
20,71378	334933
20,71822	394746
20,72267	441496
20,72710	476630
20,73155	486760
20,73598	502106
20,74043	491899
20,74487	469348
20,74932	442362
20,75375	399470
20,75820	350687
20,76263	312434
20,76708	274819
20,77152	236440
20,77597	209376
20,78042	184675
20,78485	160994
20,78930	139754
20,79373	123899
20,79818	109918
20,80262	98237
20,80707	87216
20,81150	79988
20,81595	75929
20,82038	66309
20,82483	61214
20,82927	55902
20,83372	54870
20,83815	50239
20,84260	45562
20,84703	44551
20,85148	43399
20,85592	37915
20,86037	36975
20,86480	34685
20,86925	33357
20,87368	31548
20,87813	31249
20,88257	30600
20,88702	29298
20,89145	28630
20,89590	26368
20,90035	25406
20,90478	24522
20,90923	25107
20,91367	23945
20,91812	24548
20,92255	23381
20,92700	23092
20,93143	22208
20,93588	21366
20,94032	19830
20,94477	21831
20,94920	20416
20,95365	19984
20,95808	18315
20,96253	18752
20,96697	18333
20,97142	18217
20,97585	17487
20,98030	18128
20,98473	17863
20,98918	16994
20,99362	17325
20,99807	16577
21,00250	16470
21,00695	16716
21,01138	17453
21,01583	16519
21,02028	16372
21,02472	15993
21,02917	17043
21,03360	16515
21,03805	16536
21,04248	16970
21,04693	16474
21,05137	15717
21,05582	16034
21,06025	15930
21,06470	16420
21,06913	17174
21,07358	15164
21,07802	18033
21,08247	14806
21,08690	15507
21,09135	15492
21,09578	13634
21,10023	15390
21,10467	15035
21,10912	14488
21,11355	14287
21,11800	14389
21,12243	12842
21,12688	14080
21,13132	13515
21,13577	12916
21,14022	12778
21,14465	13946
21,14910	13007
21,15353	14556
21,15798	12414
21,16242	12885
21,16687	13564
21,17130	11930
21,17575	12212
21,18018	12464
21,18463	12048
21,18907	13080
21,19352	12914
21,19795	12894
21,20240	12506
21,20683	13355
21,21128	11393
21,21572	12146
21,22017	11795
21,22460	13152
21,22905	12463
21,23348	12275
21,23793	13263
21,24237	12133
21,24682	12735
21,25125	13430
21,25570	12839
21,26015	13164
21,26458	12387
21,26903	12906
21,27347	12946
21,27792	13169
21,28235	13337
21,28680	12298
21,29123	13244
21,29568	13329
21,30012	12394
21,30457	12440
21,30900	12627
21,31345	11717
21,31788	13624
21,32233	12533
21,32677	12652
21,33122	12647
21,33565	12405
21,34010	12691
21,34453	12178
21,34898	11632
21,35342	12686
21,35787	13237
21,36230	12700
21,36675	12335
21,37118	12578
21,37563	11855
21,38008	11302
21,38452	12645
21,38897	12805
21,39340	11427
21,39785	12288
21,40228	12247
21,40673	12477
21,41117	12457
21,41562	11469
21,42005	12345
21,42450	12881
21,42893	12246
21,43338	13872
21,43782	12140
21,44227	12982
21,44670	12391
21,45115	12881
21,45558	12099
21,46003	11856
21,46447	12826
21,46892	12729
21,47335	12501
21,47780	12801
21,48223	12397
21,48668	11613
21,49112	12240
21,49557	12483
21,50000	11787
21,50445	10651
21,50890	11758
21,51333	11716
21,51778	12143
21,52222	12449
21,52667	11875
21,53110	12877
21,53555	11253
21,53998	11907
21,54443	11591
21,54887	11239
21,55332	11618
21,55775	11200
21,56220	12132
21,56663	11354
21,57108	10438
21,57552	12050
21,57997	11533
21,58440	10572
21,58885	10752
21,59328	11380
21,59773	11133
21,60217	12612
21,60662	10716
21,61105	11281
21,61550	11784
21,61993	11228
21,62438	11049
21,62883	12769
21,63327	11956
21,63772	12804
21,64215	10993
21,64660	12262
21,65103	11542
21,65548	11956
21,65992	12310
21,66437	11164
21,66880	12328
21,67325	12592
21,67768	11712
21,68213	12040
21,68657	12113
21,69102	12997
21,69545	11623
21,69990	12901
21,70433	10953
21,70878	12069
21,71322	12441
21,71767	12006
21,72210	12136
21,72655	11570
21,73098	12069
21,73543	12076
21,73987	12264
21,74432	11291
21,74877	11021
21,75320	10599
21,75765	12921
21,76208	11952
21,76653	12756
21,77097	11662
21,77542	12895
21,77985	10216
21,78430	11390
21,78873	11378
21,79318	12123
21,79762	13716
21,80207	10713
21,80650	11677
21,81095	11412
21,81538	11836
21,81983	12460
21,82427	11364
21,82872	11925
21,83315	12418
21,83760	12770
21,84203	11662
21,84648	12442
21,85092	12033
21,85537	13245
21,85980	11880
21,86425	12437
21,86870	11838
21,87313	11981
21,87758	13116
21,88202	11471
21,88647	10744
21,89090	11520
21,89535	13432
21,89978	11652
21,90423	12202
21,90867	13027
21,91312	10935
21,91755	11476
21,92200	11393
21,92643	12214
21,93088	10670
21,93532	11495
21,93977	11235
21,94420	11254
21,94865	12349
21,95308	11135
21,95753	10969
21,96197	12059
21,96642	13249
21,97085	11362
21,97530	11853
21,97973	11960
21,98418	13154
21,98863	12364
21,99307	12434
21,99752	12442
22,00195	11516
22,00640	12551
22,01083	12604
22,01528	12416
22,01972	11250
22,02417	11884
22,02860	11421
22,03305	11951
22,03748	11799
22,04193	11297
22,04637	11459
22,05082	11665
22,05525	10938
22,05970	11792
22,06413	11672
22,06858	12290
22,07302	12070
22,07747	12743
22,08190	13476
22,08635	12272
22,09078	10968
22,09523	10795
22,09967	11983
22,10412	12085
22,10857	12326
22,11300	12472
22,11745	12121
22,12188	12146
22,12633	11530
22,13077	11436
22,13522	12137
22,13965	12806
22,14410	13649
22,14853	13057
22,15298	12287
22,15742	14032
22,16187	14808
22,16630	13115
22,17075	13859
22,17518	13526
22,17963	13801
22,18407	13609
22,18852	13595
22,19295	13030
22,19740	12786
22,20183	13796
22,20628	13295
22,21072	12561
22,21517	11923
22,21960	11306
22,22405	13249
22,22848	12472
22,23293	13268
22,23738	11466
22,24182	12290
22,24627	13094
22,25070	11482
22,25515	12023
22,25958	12409
22,26403	13025
22,26847	11669
22,27292	12621
22,27735	12600
22,28180	13223
22,28623	12937
22,29068	12608
22,29512	11883
22,29957	13192
22,30400	12911
22,30845	11066
22,31288	12231
22,31733	13749
22,32177	13163
22,32622	12386
22,33065	11668
22,33510	12027
22,33953	13041
22,34398	12155
22,34842	12548
22,35287	12322
22,35732	12583
22,36175	12061
22,36620	12568
22,37063	12391
22,37508	13067
22,37952	13296
22,38397	12046
22,38840	12259
22,39285	13331
22,39728	14069
22,40173	15002
22,40617	18502
22,41062	20191
22,41505	24368
22,41950	33529
22,42393	43415
22,42838	58831
22,43282	77098
22,43727	100369
22,44170	125915
22,44615	152998
22,45058	193678
22,45503	223419
22,45947	248425
22,46392	272168
22,46835	281551
22,47280	286525
22,47725	285126
22,48168	268225
22,48613	261816
22,49057	243806
22,49502	219431
22,49945	197168
22,50390	175748
22,50833	153486
22,51278	129155
22,51722	119270
22,52167	101689
22,52610	91069
22,53055	79066
22,53498	71026
22,53943	63357
22,54387	56694
22,54832	52363
22,55275	48456
22,55720	43460
22,56163	38331
22,56608	38917
22,57052	33034
22,57497	34362
22,57940	31388
22,58385	30819
22,58828	28411
22,59273	28198
22,59718	25599
22,60162	23550
22,60607	24179
22,61050	21470
22,61495	23621
22,61938	21836
22,62383	20630
22,62827	19652
22,63272	20124
22,63715	20200
22,64160	17564
22,64603	20803
22,65048	18427
22,65492	18316
22,65937	16894
22,66380	18571
22,66825	18300
22,67268	17103
22,67713	18375
22,68157	17404
22,68602	16352
22,69045	16508
22,69490	14948
22,69933	16052
22,70378	15881
22,70822	17593
22,71267	16600
22,71712	16143
22,72155	14924
22,72600	17250
22,73043	14612
22,73488	13777
22,73932	15624
22,74377	14610
22,74820	14161
22,75265	17039
22,75708	16026
22,76153	15738
22,76597	15678
22,77042	15732
22,77485	15346
22,77930	15463
22,78373	15315
22,78818	16222
22,79262	15939
22,79707	15342
22,80150	14955
22,80595	15416
22,81038	14669
22,81483	13974
22,81927	15535
22,82372	14899
22,82815	13885
22,83260	15896
22,83705	13488
22,84148	13760
22,84593	13881
22,85037	12930
22,85482	12797
22,85925	14183
22,86370	14779
22,86813	14587
22,87258	15011
22,87702	13739
22,88147	14329
22,88590	13834
22,89035	14737
22,89478	13229
22,89923	14756
22,90367	14494
22,90812	13907
22,91255	14603
22,91700	13496
22,92143	13831
22,92588	13211
22,93032	14507
22,93477	13142
22,93920	15036
22,94365	12963
22,94808	14314
22,95253	14526
22,95697	13634
22,96142	14032
22,96587	12790
22,97030	14315
22,97475	15342
22,97918	13180
22,98363	13679
22,98807	15059
22,99252	13808
22,99695	15129
23,00140	14962
23,00583	14180
23,01028	14358
23,01472	13890
23,01917	14555
