D:\MassHunter\GCMS\1\data\Amal\Constant flow\110C\110C_1ml-min_8C-min_2.D Tue Sep 03 19:49:10 2024
Start of data points
5,34085	179042
5,34497	170122
5,34910	170760
5,35322	167664
5,35733	169176
5,36147	163520
5,36558	162909
5,36970	160500
5,37383	155349
5,37795	154988
5,38207	154331
5,38620	150623
5,39032	150421
5,39443	146047
5,39855	144613
5,40268	145564
5,40680	140824
5,41092	144906
5,41505	141399
5,41917	138810
5,42328	134562
5,42742	138153
5,43153	136701
5,43565	129790
5,43978	133317
5,44390	129025
5,44802	129804
5,45215	125354
5,45627	128252
5,46038	124360
5,46452	122051
5,46863	124154
5,47275	119947
5,47688	122381
5,48100	122399
5,48512	119674
5,48923	119636
5,49337	119815
5,49748	115789
5,50160	115744
5,50573	115914
5,50985	114235
5,51397	116143
5,51810	116764
5,52222	116727
5,52633	112062
5,53047	115200
5,53458	112727
5,53870	112281
5,54283	113792
5,54695	114036
5,55107	113605
5,55520	113098
5,55932	112944
5,56343	110595
5,56757	105967
5,57168	111565
5,57580	113641
5,57992	108303
5,58405	110119
5,58817	104881
5,59228	108969
5,59642	111057
5,60053	109463
5,60465	111113
5,60878	111645
5,61290	113290
5,61702	111287
5,62115	112398
5,62527	115826
5,62938	114830
5,63352	114948
5,63763	113039
5,64175	113193
5,64588	113360
5,65000	111030
5,65412	114253
5,65825	117177
5,66237	113675
5,66648	118280
5,67060	115816
5,67473	114358
5,67885	117942
5,68297	117909
5,68710	115469
5,69122	115473
5,69533	113764
5,69947	117744
5,70358	112989
5,70770	117851
5,71183	111858
5,71595	114737
5,72007	111990
5,72420	112398
5,72832	112812
5,73243	109340
5,73657	110386
5,74068	109068
5,74480	107666
5,74893	108135
5,75305	103857
5,75717	102222
5,76128	105824
5,76542	104147
5,76953	107470
5,77365	102046
5,77778	99577
5,78190	101153
5,78602	99255
5,79015	97847
5,79427	100927
5,79838	99965
5,80252	109060
5,80663	130008
5,81075	165282
5,81488	234582
5,81900	336614
5,82312	463459
5,82725	610937
5,83137	753742
5,83548	885400
5,83962	973004
5,84373	1019987
5,84785	1027499
5,85197	1009581
5,85610	974693
5,86022	947130
5,86433	903669
5,86847	856755
5,87258	818973
5,87670	777279
5,88083	739256
5,88495	709928
5,88907	672827
5,89320	638441
5,89732	602007
5,90143	571589
5,90557	547793
5,90968	518466
5,91380	491199
5,91793	466938
5,92205	447876
5,92617	426567
5,93030	407672
5,93442	381049
5,93853	371019
5,94267	349241
5,94678	333481
5,95090	316258
5,95502	299106
5,95915	285293
5,96327	266598
5,96738	252500
5,97152	240585
5,97563	223964
5,97975	205655
5,98388	197543
5,98800	184175
5,99212	175916
5,99625	164282
6,00037	158235
6,00448	147398
6,00862	144381
6,01273	136623
6,01685	131377
6,02098	125097
6,02510	118414
6,02922	111084
6,03335	110312
6,03747	103956
6,04158	100566
6,04570	97512
6,04983	94648
6,05395	93359
6,05807	91263
6,06220	88537
6,06632	84980
6,07043	84078
6,07457	85019
6,07868	80272
6,08280	79319
6,08693	75969
6,09105	78669
6,09517	77563
6,09930	77986
6,10342	75318
6,10753	73887
6,11167	73484
6,11578	72578
6,11990	73834
6,12403	71703
6,12815	71519
6,13227	69385
6,13638	72311
6,14052	70879
6,14463	71094
6,14875	69962
6,15288	69966
6,15700	70288
6,16112	68572
6,16525	69094
6,16937	67670
6,17348	67128
6,17762	67961
6,18173	66530
6,18585	67402
6,18998	66452
6,19410	65496
6,19822	66868
6,20235	64379
6,20647	63813
6,21058	64015
6,21472	65633
6,21883	65665
6,22295	65124
6,22707	65804
6,23120	64958
6,23532	62019
6,23943	65949
6,24357	63973
6,24768	61193
6,25180	60852
6,25593	61093
6,26005	60922
6,26417	58878
6,26830	60458
6,27242	59012
6,27653	59646
6,28067	57745
6,28478	62543
6,28890	58226
6,29303	58394
6,29715	56802
6,30127	60623
6,30540	57037
6,30952	60918
6,31363	60135
6,31775	55719
6,32188	57779
6,32600	57524
6,33012	55963
6,33425	57481
6,33837	57953
6,34248	56370
6,34662	56466
6,35073	56297
6,35485	56937
6,35898	55404
6,36310	55251
6,36722	55521
6,37135	54993
6,37547	53941
6,37958	54534
6,38372	54744
6,38783	55698
6,39195	53031
6,39608	55150
6,40020	54497
6,40432	55774
6,40843	53802
6,41257	56050
6,41668	54949
6,42080	55085
6,42493	53669
6,42905	53484
6,43317	55017
6,43730	55783
6,44142	52786
6,44553	54971
6,44967	50530
6,45378	50317
6,45790	51464
6,46203	49420
6,46615	48661
6,47027	50655
6,47440	48466
6,47852	49044
6,48263	49381
6,48677	47806
6,49088	47849
6,49500	48836
6,49912	47923
6,50325	45602
6,50737	48071
6,51148	46313
6,51562	47881
6,51973	47510
6,52385	47618
6,52798	48066
6,53210	49072
6,53622	45391
6,54035	47327
6,54447	46458
6,54858	44620
6,55272	46397
6,55683	45405
6,56095	46073
6,56508	45639
6,56920	44747
6,57332	45653
6,57745	45933
6,58157	45404
6,58568	45170
6,58980	43438
6,59393	46799
6,59805	45918
6,60217	46002
6,60630	44546
6,61042	46579
6,61453	46806
6,61867	44845
6,62278	45515
6,62690	45497
6,63103	49737
6,63515	45888
6,63927	46674
6,64340	45344
6,64752	46360
6,65163	48152
6,65577	45435
6,65988	45593
6,66400	45619
6,66813	44516
6,67225	42903
6,67637	45815
6,68048	44142
6,68462	45393
6,68873	42816
6,69285	43791
6,69698	44840
6,70110	43325
6,70522	41948
6,70935	42411
6,71347	42326
6,71758	42233
6,72172	42818
6,72583	41880
6,72995	42508
6,73408	44077
6,73820	42577
6,74232	43443
6,74645	42024
6,75057	41392
6,75468	39873
6,75882	40885
6,76293	39574
6,76705	39612
6,77117	40882
6,77530	40192
6,77942	39747
6,78353	40324
6,78767	38862
6,79178	40555
6,79590	40922
6,80003	41917
6,80415	40872
6,80827	39275
6,81240	39791
6,81652	38697
6,82063	39059
6,82477	39782
6,82888	39878
6,83300	40047
6,83713	39283
6,84125	40684
6,84537	42258
6,84950	37496
6,85362	39173
6,85773	38844
6,86185	39687
6,86598	39358
6,87010	39073
6,87422	38462
6,87835	39355
6,88247	37200
6,88658	37223
6,89072	37015
6,89483	37339
6,89895	37246
6,90308	38079
6,90720	36168
6,91132	35974
6,91545	34864
6,91957	36885
6,92368	36681
6,92782	36086
6,93193	35180
6,93605	35425
6,94018	36416
6,94430	36817
6,94842	37363
6,95253	34806
6,95667	35590
6,96078	36236
6,96490	38773
6,96903	38548
6,97315	37058
6,97727	35663
6,98140	36922
6,98552	35378
6,98963	36113
6,99377	37367
6,99788	38717
7,00200	35275
7,00613	36301
7,01025	35938
7,01437	36137
7,01850	33589
7,02262	36300
7,02673	36243
7,03087	36458
7,03498	38544
7,03910	36341
7,04322	39484
7,04735	48304
7,05147	64350
7,05558	98138
7,05972	158863
7,06383	248256
7,06795	388757
7,07208	559603
7,07620	775028
7,08032	971686
7,08445	1160218
7,08857	1318618
7,09268	1396913
7,09682	1456522
7,10093	1439980
7,10505	1408608
7,10918	1349314
7,11330	1283770
7,11742	1201939
7,12155	1127865
7,12567	1041085
7,12978	965389
7,13390	889810
7,13803	821783
7,14215	752106
7,14627	691418
7,15040	638380
7,15452	579094
7,15863	528513
7,16277	472597
7,16688	428568
7,17100	392222
7,17513	350138
7,17925	313374
7,18337	274382
7,18750	248201
7,19162	216982
7,19573	194979
7,19987	172029
7,20398	158898
7,20810	142010
7,21223	124083
7,21635	114167
7,22047	106549
7,22458	98502
7,22872	88117
7,23283	81949
7,23695	80362
7,24108	71557
7,24520	66656
7,24932	66457
7,25345	61690
7,25757	58255
7,26168	54703
7,26582	52962
7,26993	50494
7,27405	48336
7,27818	47365
7,28230	46114
7,28642	43723
7,29055	46164
7,29467	45399
7,29878	44943
7,30292	43411
7,30703	38998
7,31115	41333
7,31527	41367
7,31940	38374
7,32352	38303
7,32763	37241
7,33177	37035
7,33588	36864
7,34000	36190
7,34413	37374
7,34825	35026
7,35237	35950
7,35650	34139
7,36062	35059
7,36473	35331
7,36887	35467
7,37298	34831
7,37710	35231
7,38123	33203
7,38535	34032
7,38947	33679
7,39360	33259
7,39772	33432
7,40183	32354
7,40595	31607
7,41008	32201
7,41420	33698
7,41832	33068
7,42245	33723
7,42657	32684
7,43068	32880
7,43482	33033
7,43893	32278
7,44305	34025
7,44718	32949
7,45130	32346
7,45542	33106
7,45955	33534
7,46367	31936
7,46778	33231
7,47192	32136
7,47603	33203
7,48015	33462
7,48428	31798
7,48840	32027
7,49252	32356
7,49663	31603
7,50077	31085
7,50488	30225
7,50900	31557
7,51313	30045
7,51725	30231
7,52137	30964
7,52550	29921
7,52962	30845
7,53373	29342
7,53787	29528
7,54198	30274
7,54610	29559
7,55023	30186
7,55435	31546
7,55847	30210
7,56260	29841
7,56672	29270
7,57083	29441
7,57497	29692
7,57908	29875
7,58320	28400
7,58733	29341
7,59145	28439
7,59557	27635
7,59968	27925
7,60382	28194
7,60793	29331
7,61205	28502
7,61618	28713
7,62030	29566
7,62442	26408
7,62855	27562
7,63267	27315
7,63678	28001
7,64092	27962
7,64503	27607
7,64915	27069
7,65328	29615
7,65740	27809
7,66152	28099
7,66565	29037
7,66977	28996
7,67388	28457
7,67802	28542
7,68213	29544
7,68625	28941
7,69037	27478
7,69450	25855
7,69862	27915
7,70273	27491
7,70687	27212
7,71098	27263
7,71510	25735
7,71923	27076
7,72335	26208
7,72747	26746
7,73160	26976
7,73572	25941
7,73983	27965
7,74397	26004
7,74808	27541
7,75220	26925
7,75633	25488
7,76045	25676
7,76457	24904
7,76870	25600
7,77282	25558
7,77693	25290
7,78105	26551
7,78518	26393
7,78930	24797
7,79342	26329
7,79755	27849
7,80167	25690
7,80578	26770
7,80992	28901
7,81403	30372
7,81815	35522
7,82228	49320
7,82640	71307
7,83052	108866
7,83465	173081
7,83877	257819
7,84288	362590
7,84702	480760
7,85113	605043
7,85525	719114
7,85938	799532
7,86350	860003
7,86762	881446
7,87173	873923
7,87587	840034
7,87998	796353
7,88410	740735
7,88823	684704
7,89235	625586
7,89647	567878
7,90060	509813
7,90472	456859
7,90883	408122
7,91297	364163
7,91708	322252
7,92120	282587
7,92533	249013
7,92945	217248
7,93357	188861
7,93770	162710
7,94182	145850
7,94593	122606
7,95007	111258
7,95418	94671
7,95830	85433
7,96242	74971
7,96655	73236
7,97067	63635
7,97478	59053
7,97892	52728
7,98303	53257
7,98715	48532
7,99128	46475
7,99540	44297
7,99952	42577
8,00365	39580
8,00777	40064
8,01188	38834
8,01602	35294
8,02013	33824
8,02425	33872
8,02838	31705
8,03250	33405
8,03662	32568
8,04075	31683
8,04487	31855
8,04898	31777
8,05310	28493
8,05723	29508
8,06135	30802
8,06547	27692
8,06960	27306
8,07372	29306
8,07783	28923
8,08197	28214
8,08608	28545
8,09020	29932
8,09433	29873
8,09845	29943
8,10257	30414
8,10670	29474
8,11082	28406
8,11493	28226
8,11907	27723
8,12318	27150
8,12730	27095
8,13143	26394
8,13555	26916
8,13967	25848
8,14378	28153
8,14792	29929
8,15203	28061
8,15615	29889
8,16028	29224
8,16440	28705
8,16852	30279
8,17265	28465
8,17677	28711
8,18088	28628
8,18502	27956
8,18913	25290
8,19325	27161
8,19738	26562
8,20150	25635
8,20562	24915
8,20975	24621
8,21387	26132
8,21798	23489
8,22212	24083
8,22623	22418
8,23035	22441
8,23447	22671
8,23860	23793
8,24272	21713
8,24683	22615
8,25097	22211
8,25508	23986
8,25920	21818
8,26333	22346
8,26745	22330
8,27157	22851
8,27570	21883
8,27982	20726
8,28393	22555
8,28807	21625
8,29218	23040
8,29630	21594
8,30043	23059
8,30455	22915
8,30867	22570
8,31280	19454
8,31692	22619
8,32103	22385
8,32515	20327
8,32928	21694
8,33340	21772
8,33752	20756
8,34165	21533
8,34577	21610
8,34988	19805
8,35402	21413
8,35813	21944
8,36225	20444
8,36638	21144
8,37050	21237
8,37462	19900
8,37875	22367
8,38287	19795
8,38698	20717
8,39112	20680
8,39523	20751
8,39935	22906
8,40348	21235
8,40760	21168
8,41172	20278
8,41583	20914
8,41997	20746
8,42408	20888
8,42820	20405
8,43233	20972
8,43645	20239
8,44057	18964
8,44470	21810
8,44882	19762
8,45293	20461
8,45707	21141
8,46118	20172
8,46530	19442
8,46943	21419
8,47355	19791
8,47767	20075
8,48180	21381
8,48592	21156
8,49003	21084
8,49417	21311
8,49828	20776
8,50240	19822
8,50652	19182
8,51065	20209
8,51477	20685
8,51888	19617
8,52302	19993
8,52713	21474
8,53125	21959
8,53538	20643
8,53950	20092
8,54362	21334
8,54775	20211
8,55187	19047
8,55598	19356
8,56012	20463
8,56423	20020
8,56835	21194
8,57248	18564
8,57660	19502
8,58072	20057
8,58485	19853
8,58897	19394
8,59308	19908
8,59720	20026
8,60133	21055
8,60545	19597
8,60957	19333
8,61370	19954
8,61782	20293
8,62193	18863
8,62607	19532
8,63018	19765
8,63430	19099
8,63843	19501
8,64255	23493
8,64667	30312
8,65080	45420
8,65492	75484
8,65903	128746
8,66317	221644
8,66728	362344
8,67140	568290
8,67553	836534
8,67965	1128156
8,68377	1437412
8,68788	1721001
8,69202	1935788
8,69613	2063409
8,70025	2108496
8,70438	2046158
8,70850	1941891
8,71262	1791429
8,71675	1636722
8,72087	1453048
8,72498	1268896
8,72912	1084875
8,73323	941181
8,73735	793163
8,74148	669064
8,74560	553120
8,74972	465551
8,75385	389893
8,75797	327875
8,76208	273111
8,76622	228699
8,77033	196978
8,77445	168010
8,77857	143619
8,78270	126321
8,78682	110770
8,79093	100006
8,79507	91153
8,79918	82225
8,80330	75605
8,80743	69420
8,81155	64359
8,81567	58283
8,81980	55998
8,82392	51824
8,82803	50663
8,83217	47992
8,83628	44693
8,84040	42587
8,84453	42311
8,84865	40677
8,85277	39530
8,85690	37176
8,86102	36930
8,86513	35245
8,86925	34807
8,87338	34889
8,87750	31678
8,88162	31935
8,88575	32686
8,88987	27982
8,89398	29226
8,89812	29487
8,90223	29639
8,90635	27163
8,91048	27449
8,91460	27029
8,91872	26208
8,92285	25246
8,92697	25630
8,93108	24856
8,93522	22837
8,93933	24514
8,94345	25313
8,94758	22954
8,95170	23660
8,95582	22621
8,95993	24472
8,96407	23339
8,96818	23743
8,97230	21243
8,97643	22949
8,98055	23721
8,98467	22095
8,98880	22496
8,99292	20630
8,99703	22943
9,00117	20719
9,00528	21031
9,00940	22883
9,01353	21063
9,01765	21900
9,02177	19693
9,02590	21641
9,03002	21217
9,03413	19696
9,03827	19971
9,04238	19406
9,04650	18943
9,05062	19616
9,05475	19407
9,05887	16988
9,06298	19851
9,06712	19064
9,07123	18651
9,07535	18389
9,07948	18459
9,08360	19970
9,08772	19717
9,09185	19565
9,09597	18002
9,10008	18030
9,10422	19062
9,10833	18755
9,11245	17971
9,11658	18432
9,12070	18979
9,12482	17351
9,12895	18409
9,13307	18356
9,13718	18832
9,14130	16277
9,14543	17208
9,14955	17033
9,15367	17326
9,15780	18084
9,16192	18384
9,16603	18228
9,17017	18864
9,17428	16639
9,17840	16440
9,18253	18537
9,18665	18426
9,19077	18345
9,19490	17098
9,19902	17666
9,20313	17574
9,20727	18099
9,21138	18343
9,21550	18588
9,21963	17228
9,22375	17820
9,22787	17530
9,23198	18587
9,23612	16869
9,24023	17804
9,24435	17883
9,24848	16803
9,25260	17545
9,25672	17196
9,26085	18866
9,26497	16830
9,26908	17966
9,27322	18606
9,27733	16974
9,28145	16905
9,28558	18635
9,28970	17331
9,29382	18029
9,29795	17370
9,30207	18898
9,30618	20013
9,31032	20246
9,31443	21419
9,31855	20866
9,32268	22592
9,32680	23302
9,33092	22456
9,33503	22349
9,33917	21077
9,34328	22473
9,34740	22664
9,35153	21862
9,35565	21056
9,35977	20772
9,36390	20941
9,36802	20804
9,37213	19668
9,37627	18970
9,38038	17334
9,38450	18107
9,38863	17410
9,39275	16927
9,39687	16981
9,40100	16787
9,40512	16794
9,40923	15206
9,41337	16236
9,41748	15981
9,42160	15977
9,42572	14441
9,42985	15257
9,43397	15037
9,43808	15427
9,44222	15145
9,44633	15912
9,45045	15297
9,45458	14901
9,45870	15023
9,46282	14586
9,46695	14149
9,47107	14738
9,47518	16504
9,47932	15933
9,48343	14908
9,48755	14686
9,49168	15123
9,49580	15518
9,49992	16226
9,50405	15096
9,50817	17454
9,51228	19023
9,51640	25353
9,52053	36513
9,52465	62234
9,52877	100867
9,53290	176421
9,53702	277855
9,54113	425076
9,54527	601079
9,54938	778870
9,55350	954179
9,55763	1090327
9,56175	1170755
9,56587	1198148
9,57000	1176973
9,57412	1116734
9,57823	1009274
9,58237	887642
9,58648	755055
9,59060	637292
9,59473	533181
9,59885	431151
9,60297	351077
9,60708	287143
9,61122	236409
9,61533	192411
9,61945	158795
9,62358	135769
9,62770	115099
9,63182	94556
9,63595	84079
9,64007	75231
9,64418	67016
9,64832	61016
9,65243	51228
9,65655	50245
9,66068	46159
9,66480	43376
9,66892	40258
9,67305	39149
9,67717	37227
9,68128	34593
9,68542	33846
9,68953	30965
9,69365	28855
9,69777	27967
9,70190	29384
9,70602	24970
9,71013	26892
9,71427	25670
9,71838	24358
9,72250	23627
9,72663	24727
9,73075	22781
9,73487	21365
9,73900	22321
9,74312	22195
9,74723	20934
9,75137	20264
9,75548	19702
9,75960	19506
9,76373	18236
9,76785	18054
9,77197	19195
9,77610	18782
9,78022	18923
9,78433	18185
9,78845	17756
9,79258	18333
9,79670	18225
9,80082	17361
9,80495	17676
9,80907	17546
9,81318	17044
9,81732	16884
9,82143	17994
9,82555	15563
9,82968	16146
9,83380	17215
9,83792	16478
9,84205	15698
9,84617	15475
9,85028	16645
9,85442	16344
9,85853	16600
9,86265	14708
9,86678	14547
9,87090	15967
9,87502	14662
9,87913	15087
9,88327	14919
9,88738	15787
9,89150	14631
9,89563	14416
9,89975	15860
9,90387	15291
9,90800	15153
9,91212	14435
9,91623	14031
9,92037	14996
9,92448	14901
9,92860	15662
9,93273	14756
9,93685	14565
9,94097	14715
9,94510	15335
9,94922	13305
9,95333	12213
9,95747	15730
9,96158	14837
9,96570	15548
9,96982	14124
9,97395	15703
9,97807	15703
9,98218	16307
9,98632	18442
9,99043	20198
9,99455	19036
9,99868	18042
10,00280	20501
10,00692	19470
10,01105	20256
10,01517	18898
10,01928	19664
10,02342	17832
10,02753	16326
10,03165	17198
10,03578	18124
10,03990	14790
10,04402	16105
10,04815	15103
10,05227	14288
10,05638	14248
10,06050	14304
10,06463	14969
10,06875	14767
10,07287	13777
10,07700	12869
10,08112	14041
10,08523	13047
10,08937	12722
10,09348	12058
10,09760	13223
10,10173	12420
10,10585	13602
10,10997	13343
10,11410	14101
10,11822	13401
10,12233	13651
10,12647	13144
10,13058	14140
10,13470	13027
10,13883	13319
10,14295	13941
10,14707	15237
10,15118	14810
10,15532	15273
10,15943	15314
10,16355	15549
10,16768	17940
10,17180	18760
10,17592	18953
10,18005	20398
10,18417	19860
10,18828	19385
10,19242	20120
10,19653	20056
10,20065	19548
10,20478	17492
10,20890	16803
10,21302	15807
10,21715	18112
10,22127	16007
10,22538	14968
10,22952	14780
10,23363	14457
10,23775	14546
10,24187	14292
10,24600	15214
10,25012	15659
10,25423	14661
10,25837	15015
10,26248	15841
10,26660	14762
10,27073	14346
10,27485	14497
10,27897	13594
10,28310	13130
10,28722	13455
10,29133	14018
10,29547	12900
10,29958	14188
10,30370	13916
10,30783	13427
10,31195	13163
10,31607	13229
10,32020	12093
10,32432	13378
10,32843	13778
10,33255	12420
10,33668	13229
10,34080	12410
10,34492	11467
10,34905	12337
10,35317	11896
10,35728	12608
10,36142	12106
10,36553	12501
10,36965	12194
10,37378	12377
10,37790	12491
10,38202	12812
10,38615	13204
10,39027	17311
10,39438	25856
10,39852	41341
10,40263	81782
10,40675	155811
10,41088	280082
10,41500	482643
10,41912	769043
10,42323	1134485
10,42737	1568746
10,43148	2011343
10,43560	2382695
10,43973	2651292
10,44385	2730930
10,44797	2668342
10,45210	2509775
10,45622	2236929
10,46033	1913671
10,46447	1598652
10,46858	1288633
10,47270	1022282
10,47683	810902
10,48095	639672
10,48507	505948
10,48920	405008
10,49332	332780
10,49743	275679
10,50157	229055
10,50568	197865
10,50980	171525
10,51392	155060
10,51805	133497
10,52217	117126
10,52628	109908
10,53042	97903
10,53453	89826
10,53865	80765
10,54278	76215
10,54690	65284
10,55102	62491
10,55515	56771
10,55927	53300
10,56338	50224
10,56752	48697
10,57163	44874
10,57575	41476
10,57988	40244
10,58400	37131
10,58812	36088
10,59225	35420
10,59637	33886
10,60048	31162
10,60460	31340
10,60873	29593
10,61285	28482
10,61697	29005
10,62110	26101
10,62522	26032
10,62933	26737
10,63347	25148
10,63758	25942
10,64170	24258
10,64583	22828
10,64995	24180
10,65407	22619
10,65820	22251
10,66232	22502
10,66643	21691
10,67057	25096
10,67468	22862
10,67880	22727
10,68293	24185
10,68705	22725
10,69117	24256
10,69528	22876
10,69942	24617
10,70353	24297
10,70765	21252
10,71178	20680
10,71590	20845
10,72002	20077
10,72415	18540
10,72827	18959
10,73238	16507
10,73652	16460
10,74063	17348
10,74475	16652
10,74888	16505
10,75300	16287
10,75712	15901
10,76125	16325
10,76537	14720
10,76948	15378
10,77362	16519
10,77773	15402
10,78185	15521
10,78597	14143
10,79010	15998
10,79422	15473
10,79833	15134
10,80247	15625
10,80658	15062
10,81070	14593
10,81483	14681
10,81895	14387
10,82307	12957
10,82720	15019
10,83132	14431
10,83543	14151
10,83957	14235
10,84368	14748
10,84780	15976
10,85193	16807
10,85605	16251
10,86017	17103
10,86430	15350
10,86842	17666
10,87253	19336
10,87667	16967
10,88078	18970
10,88490	17365
10,88902	16809
10,89315	15004
10,89727	15156
10,90138	15682
10,90552	14532
10,90963	15212
10,91375	13757
10,91788	13957
10,92200	13604
10,92612	13505
10,93025	13849
10,93437	13179
10,93848	12995
10,94262	12621
10,94673	13915
10,95085	12591
10,95498	12643
10,95910	14061
10,96322	12966
10,96735	11901
10,97147	12389
10,97558	12724
10,97970	12964
10,98383	12790
10,98795	11452
10,99207	12492
10,99620	11092
11,00032	11063
11,00443	13166
11,00857	13198
11,01268	11519
11,01680	12302
11,02093	14411
11,02505	16598
11,02917	21867
11,03330	37591
11,03742	63697
11,04153	111956
11,04567	190983
11,04978	305738
11,05390	467344
11,05803	649113
11,06215	865112
11,06627	1059874
11,07038	1212158
11,07452	1288692
11,07863	1302497
11,08275	1235552
11,08688	1111316
11,09100	966753
11,09512	809137
11,09925	663765
11,10337	528507
11,10748	424705
11,11162	333104
11,11573	275344
11,11985	225773
11,12398	183031
11,12810	159208
11,13222	135014
11,13635	120571
11,14047	107327
11,14458	94544
11,14872	84789
11,15283	75342
11,15695	68732
11,16107	61180
11,16520	56545
11,16932	49878
11,17343	47921
11,17757	42599
11,18168	38954
11,18580	37770
11,18993	35078
11,19405	34290
11,19817	30129
11,20230	29543
11,20642	28065
11,21053	26974
11,21467	25906
11,21878	24810
11,22290	24476
11,22703	23623
11,23115	24127
11,23527	22143
11,23940	21557
11,24352	20922
11,24763	19672
11,25175	19043
11,25588	19499
11,26000	20386
11,26412	20113
11,26825	24382
11,27237	34135
11,27648	52516
11,28062	97372
11,28473	166303
11,28885	273754
11,29298	439117
11,29710	647741
11,30122	875179
11,30535	1105102
11,30947	1306165
11,31358	1433825
11,31772	1468775
11,32183	1399247
11,32595	1291972
11,33008	1120824
11,33420	930814
11,33832	756026
11,34243	590413
11,34657	468057
11,35068	368557
11,35480	286856
11,35893	227411
11,36305	184224
11,36717	153032
11,37130	131945
11,37542	112190
11,37953	96623
11,38367	84325
11,38778	75849
11,39190	68702
11,39603	60237
11,40015	54847
11,40427	52650
11,40840	45992
11,41252	41681
11,41663	40961
11,42077	36955
11,42488	35286
11,42900	33759
11,43312	32169
11,43725	31182
11,44137	30524
11,44548	27297
11,44962	28203
11,45373	26441
11,45785	24856
11,46198	23979
11,46610	23150
11,47022	21519
11,47435	23344
11,47847	20945
11,48258	20034
11,48672	21210
11,49083	19164
11,49495	18549
11,49908	18200
11,50320	17578
11,50732	18132
11,51145	18541
11,51557	17388
11,51968	16238
11,52380	18010
11,52793	17314
11,53205	16975
11,53617	16187
11,54030	16617
11,54442	16019
11,54853	14281
11,55267	14455
11,55678	14816
11,56090	13513
11,56503	14581
11,56915	13877
11,57327	13840
11,57740	13953
11,58152	12613
11,58563	14197
11,58977	12997
11,59388	15184
11,59800	14848
11,60213	13207
11,60625	13539
11,61037	13376
11,61448	11670
11,61862	13763
11,62273	12464
11,62685	13098
11,63098	12461
11,63510	13059
11,63922	12957
11,64335	13108
11,64747	13038
11,65158	12774
11,65572	10956
11,65983	12313
11,66395	13120
11,66808	12535
11,67220	11512
11,67632	12550
11,68045	12306
11,68457	12385
11,68868	12290
11,69282	12847
11,69693	11211
11,70105	13278
11,70517	11272
11,70930	13171
11,71342	12802
11,71753	13100
11,72167	12719
11,72578	13286
11,72990	12867
11,73403	12922
11,73815	12233
11,74227	13202
11,74640	11205
11,75052	12569
11,75463	11707
11,75877	12342
11,76288	13085
11,76700	12519
11,77113	13771
11,77525	11031
11,77937	11871
11,78350	12732
11,78762	12451
11,79173	13287
11,79585	12664
11,79998	13019
11,80410	11874
11,80822	11420
11,81235	10880
11,81647	11537
11,82058	12338
11,82472	11033
11,82883	12247
11,83295	12464
11,83708	12001
11,84120	11363
11,84532	11348
11,84945	10398
11,85357	11615
11,85768	11574
11,86182	11160
11,86593	11300
11,87005	11899
11,87418	14008
11,87830	10523
11,88242	11956
11,88653	12897
11,89067	13532
11,89478	14860
11,89890	18791
11,90303	27698
11,90715	48196
11,91127	82927
11,91540	148892
11,91952	253207
11,92363	408409
11,92777	604893
11,93188	834054
11,93600	1059682
11,94013	1251413
11,94425	1372169
11,94837	1400901
11,95250	1360470
11,95662	1222115
11,96073	1076220
11,96487	892738
11,96898	724574
11,97310	573183
11,97722	454889
11,98135	360120
11,98547	279047
11,98958	230845
11,99372	189208
11,99783	154715
12,00195	127266
12,00608	110492
12,01020	95646
12,01432	85898
12,01845	76065
12,02257	63618
12,02668	61441
12,03082	53280
12,03493	49799
12,03905	48494
12,04318	43994
12,04730	39971
12,05142	37172
12,05555	36057
12,05967	33565
12,06378	32517
12,06790	32200
12,07203	29655
12,07615	27070
12,08027	27248
12,08440	24958
12,08852	24561
12,09263	24997
12,09677	22992
12,10088	22553
12,10500	23820
12,10913	21532
12,11325	21627
12,11737	24122
12,12150	26646
12,12562	34248
12,12973	53395
12,13387	98563
12,13798	190630
12,14210	356581
12,14623	639980
12,15035	1053503
12,15447	1611143
12,15858	2272327
12,16272	2996336
12,16683	3725939
12,17095	4297104
12,17508	4656039
12,17920	4704488
12,18332	4444915
12,18745	3934897
12,19157	3308513
12,19568	2686232
12,19982	2089994
12,20393	1603101
12,20805	1246778
12,21218	968796
12,21630	761441
12,22042	599325
12,22455	487668
12,22867	405454
12,23278	342098
12,23692	284603
12,24103	253506
12,24515	216530
12,24927	189543
12,25340	167492
12,25752	151754
12,26163	142120
12,26577	126059
12,26988	113949
12,27400	102664
12,27813	96611
12,28225	89315
12,28637	82755
12,29050	76667
12,29462	74567
12,29873	67553
12,30287	63307
12,30698	60903
12,31110	55817
12,31523	53876
12,31935	52631
12,32347	47613
12,32760	47366
12,33172	44037
12,33583	41325
12,33995	39863
12,34408	36711
12,34820	36728
12,35232	34327
12,35645	33977
12,36057	30625
12,36468	31718
12,36882	30015
12,37293	30627
12,37705	27756
12,38118	26630
12,38530	28110
12,38942	27141
12,39355	26364
12,39767	24487
12,40178	25483
12,40592	23012
12,41003	22769
12,41415	21494
12,41828	22694
12,42240	20389
12,42652	21532
12,43065	19336
12,43477	19653
12,43888	20507
12,44300	20508
12,44713	22511
12,45125	18779
12,45537	19134
12,45950	18438
12,46362	17536
12,46773	19689
12,47187	18222
12,47598	17728
12,48010	17257
12,48423	18342
12,48835	18557
12,49247	18815
12,49660	18666
12,50072	17075
12,50483	18455
12,50897	17020
12,51308	18025
12,51720	18587
12,52133	17546
12,52545	16276
12,52957	16670
12,53368	16210
12,53782	16563
12,54193	15347
12,54605	14907
12,55018	14548
12,55430	14400
12,55842	15011
12,56255	14867
12,56667	13852
12,57078	16501
12,57492	15348
12,57903	15664
12,58315	16189
12,58728	15251
12,59140	15809
12,59552	17435
12,59965	15925
12,60377	16001
12,60788	16030
12,61202	16409
12,61613	14382
12,62025	15975
12,62437	14861
12,62850	15219
12,63262	17344
12,63673	20767
12,64087	29691
12,64498	49193
12,64910	86417
12,65323	150449
12,65735	251717
12,66147	403137
12,66560	606279
12,66972	842326
12,67383	1079116
12,67797	1284533
12,68208	1411944
12,68620	1459223
12,69033	1404454
12,69445	1279648
12,69857	1100533
12,70270	919923
12,70682	736144
12,71093	591504
12,71505	466485
12,71918	362813
12,72330	293557
12,72742	235372
12,73155	191592
12,73567	160125
12,73978	136303
12,74392	118535
12,74803	102549
12,75215	90536
12,75628	83739
12,76040	67900
12,76452	67697
12,76865	63404
12,77277	60928
12,77688	61246
12,78102	58821
12,78513	57774
12,78925	59225
12,79338	56133
12,79750	57353
12,80162	54893
12,80573	51087
12,80987	48709
12,81398	41544
12,81810	41198
12,82223	38801
12,82635	35059
12,83047	32556
12,83460	30984
12,83872	28419
12,84283	28896
12,84697	26272
12,85108	27563
12,85520	24663
12,85933	23726
12,86345	24439
12,86757	20224
12,87170	21944
12,87582	20746
12,87993	20363
12,88407	21079
12,88818	20455
12,89230	21939
12,89642	21929
12,90055	20344
12,90467	22223
12,90878	19971
12,91292	21549
12,91703	18628
12,92115	17879
12,92528	17285
12,92940	17064
12,93352	19023
12,93765	19030
12,94177	17252
12,94588	17119
12,95002	17575
12,95413	17287
12,95825	20103
12,96238	27071
12,96650	39432
12,97062	77375
12,97475	135358
12,97887	238518
12,98298	392209
12,98710	612070
12,99123	870260
12,99535	1158912
12,99947	1408566
13,00360	1581649
13,00772	1644055
13,01183	1605775
13,01597	1483041
13,02008	1302211
13,02420	1070984
13,02833	870577
13,03245	676469
13,03657	522582
13,04070	421624
13,04482	332438
13,04893	265215
13,05307	217162
13,05718	176347
13,06130	151399
13,06543	130923
13,06955	109021
13,07367	98621
13,07778	88146
13,08192	78874
13,08603	69726
13,09015	64342
13,09428	58069
13,09840	53316
13,10252	49081
13,10665	45107
13,11077	44980
13,11488	40721
13,11902	39193
13,12313	35206
13,12725	33081
13,13138	33382
13,13550	31355
13,13962	30309
13,14375	28385
13,14787	28509
13,15198	26408
13,15612	26436
13,16023	23465
13,16435	23462
13,16847	22863
13,17260	23763
13,17672	21905
13,18083	22633
13,18497	21466
13,18908	22477
13,19320	22846
13,19733	20835
13,20145	20585
13,20557	20647
13,20970	19848
13,21382	19857
13,21793	18836
13,22207	19280
13,22618	18955
13,23030	19640
13,23443	17868
13,23855	17906
13,24267	16279
13,24680	17633
13,25092	15981
13,25503	17300
13,25915	16409
13,26328	16403
13,26740	15022
13,27152	16573
13,27565	15356
13,27977	15019
13,28388	14538
13,28802	14890
13,29213	15469
13,29625	15624
13,30038	16448
13,30450	15428
13,30862	14874
13,31275	14361
13,31687	15869
13,32098	15649
13,32512	15185
13,32923	14817
13,33335	13839
13,33748	14597
13,34160	14812
13,34572	15465
13,34983	14111
13,35397	14459
13,35808	14941
13,36220	13823
13,36633	13240
13,37045	14147
13,37457	13703
13,37870	13833
13,38282	13315
13,38693	12864
13,39107	13337
13,39518	13973
13,39930	11946
13,40343	13124
13,40755	13186
13,41167	11329
13,41580	12954
13,41992	14071
13,42403	12671
13,42817	13379
13,43228	13811
13,43640	13247
13,44052	12155
13,44465	15610
13,44877	14097
13,45288	17359
13,45702	18186
13,46113	22084
13,46525	31095
13,46938	53431
13,47350	93097
13,47762	163187
13,48175	283240
13,48587	456718
13,48998	687841
13,49412	946403
13,49823	1205394
13,50235	1414192
13,50648	1547656
13,51060	1570551
13,51472	1501346
13,51885	1362720
13,52297	1167096
13,52708	971721
13,53120	779754
13,53533	607877
13,53945	481082
13,54357	382341
13,54770	304128
13,55182	244943
13,55593	204807
13,56007	168077
13,56418	142629
13,56830	122152
13,57243	109249
13,57655	96353
13,58067	83509
13,58480	75787
13,58892	69816
13,59303	64108
13,59717	59310
13,60128	55975
13,60540	49693
13,60953	47872
13,61365	44493
13,61777	40935
13,62188	40117
13,62602	37407
13,63013	36986
13,63425	32501
13,63838	33278
13,64250	30593
13,64662	28611
13,65075	29386
13,65487	27315
13,65898	27095
13,66312	26757
13,66723	23874
13,67135	24812
13,67548	23716
13,67960	23225
13,68372	22528
13,68785	23241
13,69197	18881
13,69608	20370
13,70022	20635
13,70433	20034
13,70845	21170
13,71257	19177
13,71670	19516
13,72082	19216
13,72493	20244
13,72907	19223
13,73318	18943
13,73730	19575
13,74143	19972
13,74555	21213
13,74967	24814
13,75380	26982
13,75792	30026
13,76203	33031
13,76617	37539
13,77028	44602
13,77440	64828
13,77853	102993
13,78265	173478
13,78677	310356
13,79090	532029
13,79502	862429
13,79913	1333193
13,80325	1876687
13,80738	2469105
13,81150	2997268
13,81562	3406579
13,81975	3591331
13,82387	3593886
13,82798	3325427
13,83212	2891198
13,83623	2413593
13,84035	1909943
13,84448	1501527
13,84860	1156605
13,85272	906766
13,85685	710952
13,86097	569473
13,86508	459739
13,86922	384778
13,87333	320466
13,87745	270448
13,88158	239675
13,88570	204433
13,88982	178678
13,89393	159188
13,89807	146430
13,90218	131882
13,90630	119323
13,91043	108000
13,91455	101561
13,91867	95961
13,92280	89813
13,92692	80522
13,93103	78587
13,93517	71713
13,93928	69217
13,94340	62721
13,94753	64093
13,95165	55945
13,95577	54614
13,95990	50850
13,96402	51261
13,96813	45817
13,97227	44797
13,97638	44366
13,98050	38559
13,98462	39664
13,98875	39072
13,99287	35655
13,99698	36027
14,00112	33997
14,00523	33099
14,00935	32450
14,01348	29571
14,01760	29976
14,02172	29126
14,02585	29163
14,02997	27386
14,03408	27783
14,03822	28126
14,04233	25950
14,04645	29580
14,05058	35757
14,05470	49425
14,05882	75408
14,06295	128656
14,06707	214561
14,07118	357588
14,07532	549296
14,07943	799857
14,08355	1084154
14,08767	1340773
14,09180	1569046
14,09592	1694124
14,10003	1701352
14,10417	1605274
14,10828	1430239
14,11240	1218798
14,11653	995165
14,12065	803944
14,12477	635291
14,12890	499801
14,13302	405446
14,13713	327627
14,14127	265304
14,14538	220873
14,14950	189706
14,15363	158120
14,15775	139855
14,16187	122463
14,16600	111052
14,17012	100353
14,17423	89421
14,17835	82019
14,18248	76041
14,18660	70960
14,19072	71755
14,19485	75676
14,19897	99025
14,20308	143557
14,20722	235847
14,21133	391174
14,21545	652179
14,21958	1023095
14,22370	1498874
14,22782	2043241
14,23195	2571979
14,23607	3024583
14,24018	3330089
14,24432	3457132
14,24843	3269420
14,25255	2974497
14,25668	2538890
14,26080	2099782
14,26492	1675456
14,26903	1318195
14,27317	1037262
14,27728	824688
14,28140	657501
14,28553	529949
14,28965	432386
14,29377	367881
14,29790	306004
14,30202	267343
14,30613	235779
14,31027	208944
14,31438	184223
14,31850	167341
14,32263	150927
14,32675	134998
14,33087	127149
14,33500	114429
14,33912	105662
14,34323	100270
14,34737	91409
14,35148	87974
14,35560	81173
14,35972	76980
14,36385	76394
14,36797	68433
14,37208	64860
14,37622	62946
14,38033	61775
14,38445	55873
14,38858	52530
14,39270	53272
14,39682	48526
14,40095	46526
14,40507	44407
14,40918	42817
14,41332	43513
14,41743	40981
14,42155	41484
14,42568	39131
14,42980	36320
14,43392	37260
14,43805	36128
14,44217	34942
14,44628	35272
14,45040	32851
14,45453	30457
14,45865	31804
14,46277	30872
14,46690	32357
14,47102	30014
14,47513	28612
14,47927	28594
14,48338	28646
14,48750	28853
14,49163	27042
14,49575	26117
14,49987	27980
14,50400	28093
14,50812	34201
14,51223	40487
14,51637	60345
14,52048	98837
14,52460	169408
14,52873	287292
14,53285	466346
14,53697	684804
14,54108	942669
14,54522	1213891
14,54933	1419869
14,55345	1571635
14,55758	1639503
14,56170	1636999
14,56582	1650318
14,56995	1686947
14,57407	1824766
14,57818	2092515
14,58232	2461573
14,58643	2925489
14,59055	3397827
14,59468	3734691
14,59880	3863405
14,60292	3768777
14,60705	3465475
14,61117	3004599
14,61528	2502403
14,61942	2015966
14,62353	1574862
14,62765	1235957
14,63177	980213
14,63590	773214
14,64002	639160
14,64413	525918
14,64827	441233
14,65238	385698
14,65650	334788
14,66063	290017
14,66475	259560
14,66887	228421
14,67300	206599
14,67712	187013
14,68123	173412
14,68537	154373
14,68948	141470
14,69360	137635
14,69773	126976
14,70185	118146
14,70597	110743
14,71010	103158
14,71422	97935
14,71833	91483
14,72245	91727
14,72658	82033
14,73070	81601
14,73482	77966
14,73895	73604
14,74307	72466
14,74718	64727
14,75132	61610
14,75543	60614
14,75955	59473
14,76368	56365
14,76780	55083
14,77192	53121
14,77605	52337
14,78017	50694
14,78428	48193
14,78842	48166
14,79253	49945
14,79665	45600
14,80078	43756
14,80490	42552
14,80902	43447
14,81313	41081
14,81727	39278
14,82138	38036
14,82550	36298
14,82963	37134
14,83375	39001
14,83787	41631
14,84200	50979
14,84612	75852
14,85023	116264
14,85437	190021
14,85848	307864
14,86260	479336
14,86673	693104
14,87085	939701
14,87497	1164907
14,87910	1362392
14,88322	1471911
14,88733	1475429
14,89147	1409642
14,89558	1274699
14,89970	1094788
14,90382	903162
14,90795	735340
14,91207	594200
14,91618	466772
14,92032	374544
14,92443	311365
14,92855	251789
14,93268	212803
14,93680	179126
14,94092	157929
14,94505	138832
14,94917	120413
14,95328	108559
14,95742	98639
14,96153	91643
14,96565	81271
14,96978	79477
14,97390	73281
14,97802	65824
14,98215	65759
14,98627	61539
14,99038	58190
14,99450	56887
14,99863	54324
15,00275	52246
15,00687	52340
15,01100	49180
15,01512	48033
15,01923	45833
15,02337	42307
15,02748	42889
15,03160	41419
15,03573	38827
15,03985	39697
15,04397	39124
15,04810	37269
15,05222	35236
15,05633	33881
15,06047	33226
15,06458	31837
15,06870	31457
15,07283	32797
15,07695	29667
15,08107	31801
15,08518	30507
15,08932	30804
15,09343	28445
15,09755	30403
15,10168	27081
15,10580	28080
15,10992	27992
15,11405	26013
15,11817	26747
15,12228	26329
15,12642	27585
15,13053	24839
15,13465	26326
15,13878	25829
15,14290	22628
15,14702	24414
15,15115	23718
15,15527	22973
15,15938	23369
15,16352	23845
15,16763	22278
15,17175	22530
15,17587	22724
15,18000	22173
15,18412	23510
15,18823	21127
15,19237	22901
15,19648	24191
15,20060	22046
15,20473	21923
15,20885	21013
15,21297	21305
15,21710	19054
15,22122	23275
15,22533	22952
15,22947	21566
15,23358	20704
15,23770	21351
15,24183	22825
15,24595	19928
15,25007	21363
15,25420	20655
15,25832	20550
15,26243	21016
15,26655	20970
15,27068	20635
15,27480	19150
15,27892	21206
15,28305	21967
15,28717	22246
15,29128	24943
15,29542	34339
15,29953	51699
15,30365	93761
15,30778	167748
15,31190	302989
15,31602	532081
15,32015	868035
15,32427	1331288
15,32838	1906272
15,33252	2576792
15,33663	3311977
15,34075	3998318
15,34488	4556205
15,34900	4932393
15,35312	5098664
15,35723	4922286
15,36137	4478439
15,36548	3842914
15,36960	3172022
15,37373	2541183
15,37785	1985922
15,38197	1571997
15,38610	1240529
15,39022	998078
15,39433	815888
15,39847	681261
15,40258	576748
15,40670	487897
15,41083	426173
15,41495	370882
15,41907	335963
15,42320	294775
15,42732	266122
15,43143	239394
15,43557	218368
15,43968	200237
15,44380	186965
15,44792	169359
15,45205	160378
15,45617	145968
15,46028	137172
15,46442	132616
15,46853	119270
15,47265	112095
15,47678	107458
15,48090	102469
15,48502	98321
15,48915	94340
15,49327	87781
15,49738	85829
15,50152	83407
15,50563	79513
15,50975	76349
15,51388	76365
15,51800	75813
15,52212	75495
15,52625	77389
15,53037	73811
15,53448	78639
15,53860	75939
15,54273	75234
15,54685	73774
15,55097	72907
15,55510	67716
15,55922	65604
15,56333	61543
15,56747	59040
15,57158	59549
15,57570	58142
15,57983	66834
15,58395	87718
15,58807	122785
15,59220	187800
15,59632	300225
15,60043	437890
15,60457	633155
15,60868	841502
15,61280	1056588
15,61693	1212603
15,62105	1318641
15,62517	1330896
15,62928	1263542
15,63342	1135488
15,63753	982318
15,64165	818389
15,64578	666629
15,64990	536681
15,65402	433265
15,65815	351138
15,66227	284972
15,66638	238461
15,67052	202755
15,67463	174343
15,67875	152988
15,68288	131292
15,68700	119807
15,69112	110302
15,69525	100527
15,69937	95621
15,70348	99543
15,70762	113435
15,71173	140964
15,71585	202127
15,71998	303382
15,72410	472381
15,72822	702371
15,73233	986079
15,73647	1307703
15,74058	1574486
15,74470	1781300
15,74883	1889446
15,75295	1866538
15,75707	1737481
15,76120	1517909
15,76532	1275222
15,76943	1049119
15,77357	839780
15,77768	677631
15,78180	551101
15,78593	451654
15,79005	379452
15,79417	316838
15,79830	274837
15,80242	242628
15,80653	209971
15,81067	189184
15,81478	168480
15,81890	154480
15,82302	146062
15,82715	130242
15,83127	121613
15,83538	113916
15,83952	104476
15,84363	98076
15,84775	94212
15,85188	89806
15,85600	83768
15,86012	76715
15,86425	73491
15,86837	71263
15,87248	67292
15,87662	66972
15,88073	64901
15,88485	60369
15,88898	60797
15,89310	58713
15,89722	56788
15,90135	53823
15,90547	51473
15,90958	53127
15,91370	51463
15,91783	47939
15,92195	48065
15,92607	46146
15,93020	46209
15,93432	43603
15,93843	45266
15,94257	42349
15,94668	40945
15,95080	41235
15,95493	41670
15,95905	40884
15,96317	39628
15,96730	40847
15,97142	37206
15,97553	36390
15,97967	37442
15,98378	36660
15,98790	35612
15,99203	36082
15,99615	34103
16,00027	34738
16,00438	33874
16,00852	33321
16,01263	36139
16,01675	36578
16,02088	36760
16,02500	38461
16,02912	46225
16,03325	62490
16,03737	97268
16,04148	163848
16,04562	275554
16,04973	462522
16,05385	734882
16,05798	1061037
16,06210	1432353
16,06622	1780451
16,07035	2009920
16,07447	2108237
16,07858	2052607
16,08272	1879924
16,08683	1623530
16,09095	1356517
16,09507	1116679
16,09920	899614
16,10332	729866
16,10743	596890
16,11157	483490
16,11568	416496
16,11980	353492
16,12393	301383
16,12805	264213
16,13217	233084
16,13630	205942
16,14042	188004
16,14453	169026
16,14867	155659
16,15278	143554
16,15690	131809
16,16103	124556
16,16515	114528
16,16927	107534
16,17340	100765
16,17752	98194
16,18163	94762
16,18575	88854
16,18988	88666
16,19400	84261
16,19812	82853
16,20225	78573
16,20637	77720
16,21048	71808
16,21462	69176
16,21873	68273
16,22285	63902
16,22698	63067
16,23110	60334
16,23522	57428
16,23935	54766
16,24347	57306
16,24758	52473
16,25172	50495
16,25583	50535
16,25995	51959
16,26408	51576
16,26820	47425
16,27232	47812
16,27643	47529
16,28057	45338
16,28468	43890
16,28880	44797
16,29293	44864
16,29705	44075
16,30117	42371
16,30530	42910
16,30942	42851
16,31353	47161
16,31767	60536
16,32178	81844
16,32590	129006
16,33003	205457
16,33415	341363
16,33827	517102
16,34240	755827
16,34652	1025294
16,35063	1293202
16,35477	1507441
16,35888	1619891
16,36300	1633433
16,36712	1547467
16,37125	1398904
16,37537	1195595
16,37948	993346
16,38362	815701
16,38773	658067
16,39185	536528
16,39598	436110
16,40010	362699
16,40422	306191
16,40835	262481
16,41247	225696
16,41658	198181
16,42072	176752
16,42483	158020
16,42895	144043
16,43308	130818
16,43720	123260
16,44132	113233
16,44545	103343
16,44957	99238
16,45368	92118
16,45780	90374
16,46193	83987
16,46605	78160
16,47017	76980
16,47430	71903
16,47842	70228
16,48253	65558
16,48667	65878
16,49078	64154
16,49490	60591
16,49903	61217
16,50315	56874
16,50727	56447
16,51140	54855
16,51552	52038
16,51963	55378
16,52377	52187
16,52788	49825
16,53200	51354
16,53613	47708
16,54025	47037
16,54437	48244
16,54848	47673
16,55262	46039
16,55673	43231
16,56085	45367
16,56498	44122
16,56910	44032
16,57322	42393
16,57735	42278
16,58147	42248
16,58558	39219
16,58972	40833
16,59383	38980
16,59795	39167
16,60208	38168
16,60620	39328
16,61032	39401
16,61445	37947
16,61857	34667
16,62268	36571
16,62682	37335
16,63093	37476
16,63505	37063
16,63917	37437
16,64330	37960
16,64742	36382
16,65153	38061
16,65567	36245
16,65978	38261
16,66390	35709
16,66803	34461
16,67215	36668
16,67627	35747
16,68040	35552
16,68452	34097
16,68863	35545
16,69277	35458
16,69688	34958
16,70100	36472
16,70513	36302
16,70925	35695
16,71337	34126
16,71750	35774
16,72162	37866
16,72573	38540
16,72985	47644
16,73398	64654
16,73810	100114
16,74222	168844
16,74635	289025
16,75047	500109
16,75458	828681
16,75872	1311650
16,76283	1953244
16,76695	2696899
16,77108	3571800
16,77520	4428221
16,77932	5160845
16,78345	5593383
16,78757	5695456
16,79168	5400137
16,79582	4801936
16,79993	4103492
16,80405	3395199
16,80818	2768250
16,81230	2228283
16,81642	1795586
16,82053	1465484
16,82467	1203627
16,82878	1012817
16,83290	847644
16,83703	732713
16,84115	631538
16,84527	555558
16,84940	494927
16,85352	437580
16,85763	408139
16,86177	365009
16,86588	334280
16,87000	306898
16,87413	285193
16,87825	264424
16,88237	244617
16,88650	230749
16,89062	213333
16,89473	204378
16,89887	195061
16,90298	181995
16,90710	172751
16,91122	168300
16,91535	159846
16,91947	153234
16,92358	145391
16,92772	141042
16,93183	133407
16,93595	131967
16,94008	127841
16,94420	118567
16,94832	114876
16,95245	114309
16,95657	105019
16,96068	106184
16,96482	103093
16,96893	98995
16,97305	96096
16,97718	97745
16,98130	94454
16,98542	88159
16,98955	89517
16,99367	87239
16,99778	84413
17,00190	87998
17,00603	89178
17,01015	96805
17,01427	118757
17,01840	157644
17,02252	229672
17,02663	341779
17,03077	515790
17,03488	734794
17,03900	975468
17,04313	1218242
17,04725	1407121
17,05137	1522585
17,05550	1537675
17,05962	1466920
17,06373	1330447
17,06787	1159405
17,07198	1003975
17,07610	883829
17,08023	801505
17,08435	795380
17,08847	850428
17,09258	956878
17,09672	1124814
17,10083	1282122
17,10495	1429366
17,10908	1536166
17,11320	1584593
17,11732	1558040
17,12145	1511529
17,12557	1459282
17,12968	1451799
17,13382	1512515
17,13793	1652719
17,14205	1844423
17,14618	2049788
17,15030	2229621
17,15442	2258557
17,15855	2232371
17,16267	2082799
17,16678	1848356
17,17092	1585070
17,17503	1347629
17,17915	1128953
17,18327	933826
17,18740	782965
17,19152	673103
17,19563	573822
17,19977	493619
17,20388	442454
17,20800	393831
17,21213	361805
17,21625	324840
17,22037	296489
17,22450	268217
17,22862	253092
17,23273	234065
17,23687	216788
17,24098	203553
17,24510	189878
17,24923	183585
17,25335	173919
17,25747	161050
17,26160	154436
17,26572	147603
17,26983	138102
17,27397	134875
17,27808	129233
17,28220	123286
17,28632	121603
17,29045	117634
17,29457	111226
17,29868	107788
17,30282	105846
17,30693	100852
17,31105	98402
17,31518	96917
17,31930	97334
17,32342	93962
17,32755	90163
17,33167	86099
17,33578	83252
17,33992	82648
17,34403	81930
17,34815	81784
17,35228	80631
17,35640	77775
17,36052	77594
17,36465	79057
17,36877	74604
17,37288	73037
17,37700	70565
17,38113	70435
17,38525	73139
17,38937	74904
17,39350	73427
17,39762	76777
17,40173	77566
17,40587	90656
17,40998	115774
17,41410	163343
17,41823	245695
17,42235	374145
17,42647	574594
17,43060	831528
17,43472	1162401
17,43883	1514878
17,44297	1825166
17,44708	2032527
17,45120	2129248
17,45533	2063488
17,45945	1914840
17,46357	1653725
17,46768	1403849
17,47182	1149593
17,47593	972737
17,48005	810414
17,48418	684276
17,48830	582101
17,49242	504000
17,49655	444788
17,50067	396187
17,50478	354905
17,50892	322804
17,51303	295639
17,51715	272518
17,52128	252926
17,52540	233339
17,52952	215430
17,53365	206641
17,53777	192656
17,54188	181238
17,54602	177527
17,55013	166221
17,55425	156134
17,55837	150149
17,56250	144704
17,56662	143210
17,57073	135554
17,57487	130797
17,57898	125422
17,58310	121928
17,58723	117713
17,59135	113737
17,59547	110114
17,59960	108389
17,60372	106440
17,60783	103258
17,61197	99077
17,61608	97384
17,62020	96027
17,62433	97763
17,62845	92395
17,63257	92695
17,63670	91689
17,64082	88098
17,64493	87601
17,64905	83621
17,65318	85893
17,65730	84355
17,66142	81197
17,66555	79807
17,66967	79765
17,67378	79775
17,67792	74272
17,68203	78150
17,68615	82815
17,69028	93851
17,69440	111578
17,69852	150064
17,70265	218632
17,70677	335095
17,71088	504240
17,71502	725270
17,71913	1008006
17,72325	1279176
17,72738	1516055
17,73150	1682664
17,73562	1743448
17,73973	1699213
17,74387	1554049
17,74798	1373356
17,75210	1168466
17,75623	989204
17,76035	834957
17,76447	687495
17,76860	577539
17,77272	496778
17,77683	437619
17,78097	390462
17,78508	367596
17,78920	365830
17,79333	402658
17,79745	471666
17,80157	583393
17,80570	721263
17,80982	897328
17,81393	1053212
17,81807	1195825
17,82218	1281086
17,82630	1313373
17,83042	1275351
17,83455	1198717
17,83867	1075267
17,84278	937928
17,84692	796277
17,85103	675491
17,85515	568984
17,85928	486428
17,86340	408137
17,86752	354780
17,87165	314639
17,87577	275701
17,87988	249640
17,88402	229161
17,88813	207842
17,89225	189208
17,89638	173818
17,90050	164314
17,90462	158526
17,90875	149922
17,91287	142570
17,91698	136772
17,92110	126757
17,92523	124575
17,92935	119294
17,93347	116337
17,93760	110139
17,94172	109307
17,94583	103708
17,94997	102320
17,95408	95261
17,95820	96312
17,96233	93347
17,96645	93023
17,97057	88879
17,97470	90416
17,97882	88814
17,98293	87529
17,98707	85378
17,99118	84690
17,99530	84482
17,99943	81405
18,00355	80296
18,00767	78440
18,01178	78263
18,01592	76215
18,02003	74336
18,02415	77611
18,02828	73025
18,03240	72358
18,03652	71911
18,04065	71128
18,04477	71618
18,04888	70845
18,05302	71841
18,05713	68408
18,06125	65438
18,06538	68769
18,06950	72651
18,07362	78219
18,07775	93112
18,08187	122425
18,08598	171113
18,09012	246952
18,09423	384205
18,09835	581711
18,10247	868889
18,10660	1234514
18,11072	1685889
18,11483	2192400
18,11897	2732274
18,12308	3267572
18,12720	3703857
18,13133	3928521
18,13545	3937579
18,13957	3677653
18,14370	3280534
18,14782	2821348
18,15193	2354119
18,15607	1954580
18,16018	1613505
18,16430	1346602
18,16843	1146998
18,17255	995660
18,17667	866221
18,18080	764929
18,18492	675456
18,18903	610926
18,19315	554561
18,19728	501687
18,20140	463366
18,20552	421750
18,20965	397813
18,21377	369556
18,21788	341254
18,22202	323417
18,22613	305455
18,23025	290945
18,23438	271738
18,23850	256555
18,24262	242725
18,24675	232165
18,25087	225602
18,25498	212548
18,25912	210288
18,26323	196274
18,26735	191232
18,27148	183341
18,27560	176801
18,27972	175433
18,28383	167015
18,28797	162305
18,29208	158480
18,29620	157447
18,30033	149966
18,30445	150155
18,30857	141750
18,31270	136945
18,31682	134094
18,32093	133035
18,32507	129572
18,32918	128086
18,33330	125707
18,33743	124066
18,34155	123788
18,34567	119694
18,34980	118932
18,35392	113818
18,35803	112836
18,36217	110521
18,36628	107081
18,37040	109052
18,37452	103495
18,37865	99680
18,38277	99946
18,38688	101543
18,39102	99142
18,39513	95856
18,39925	94812
18,40338	94754
18,40750	88654
18,41162	94477
18,41575	90565
18,41987	92751
18,42398	89432
18,42812	86563
18,43223	87629
18,43635	90320
18,44048	87494
18,44460	88209
18,44872	89027
18,45285	90401
18,45697	94561
18,46108	100682
18,46520	123924
18,46933	150438
18,47345	204633
18,47757	283050
18,48170	405236
18,48582	571391
18,48993	783652
18,49407	1024312
18,49818	1272363
18,50230	1502353
18,50643	1689410
18,51055	1801333
18,51467	1772568
18,51880	1693800
18,52292	1558356
18,52703	1372711
18,53117	1202503
18,53528	1037398
18,53940	898311
18,54353	774240
18,54765	671477
18,55177	594368
18,55588	526472
18,56002	471803
18,56413	424893
18,56825	392231
18,57238	359445
18,57650	331692
18,58062	307038
18,58475	286837
18,58887	263916
18,59298	249638
18,59712	236546
18,60123	227589
18,60535	211411
18,60948	206629
18,61360	192289
18,61772	186950
18,62185	180093
18,62597	165720
18,63008	167182
18,63422	159350
18,63833	155238
18,64245	149540
18,64657	142926
18,65070	135715
18,65482	134408
18,65893	133556
18,66307	131328
18,66718	125600
18,67130	122841
18,67543	118840
18,67955	116034
18,68367	114292
18,68780	111589
18,69192	111459
18,69603	106779
18,70017	106616
18,70428	105255
18,70840	102414
18,71253	99547
18,71665	98953
18,72077	99136
18,72490	96063
18,72902	97280
18,73313	94715
18,73725	93923
18,74138	91310
18,74550	89723
18,74962	89808
18,75375	91529
18,75787	86330
18,76198	83895
18,76612	81840
18,77023	83010
18,77435	84664
18,77848	83747
18,78260	82385
18,78672	82110
18,79085	83845
18,79497	81901
18,79908	84698
18,80322	82055
18,80733	77256
18,81145	81090
18,81558	79529
18,81970	78360
18,82382	81679
18,82793	79294
18,83207	77258
18,83618	80046
18,84030	78144
18,84443	77246
18,84855	76343
18,85267	72894
18,85680	76238
18,86092	72306
18,86503	72326
18,86917	72448
18,87328	71515
18,87740	69203
18,88153	69773
18,88565	69382
18,88977	70440
18,89390	67274
18,89802	67426
18,90213	67881
18,90627	70543
18,91038	73606
18,91450	76995
18,91863	82151
18,92275	87675
18,92687	100051
18,93098	108459
18,93512	116568
18,93923	121603
18,94335	131773
18,94748	136410
18,95160	133712
18,95572	131813
18,95985	131483
18,96397	122845
18,96808	119074
18,97222	110078
18,97633	104835
18,98045	95938
18,98458	93173
18,98870	85058
18,99282	81641
18,99695	76993
19,00107	78391
19,00518	72504
19,00932	72140
19,01343	70536
19,01755	68600
19,02167	69133
19,02580	66174
19,02992	65873
19,03403	68950
19,03817	62511
19,04228	66926
19,04640	62523
19,05053	63703
19,05465	60770
19,05877	64008
19,06290	60693
19,06702	60717
19,07113	59985
19,07527	61703
19,07938	63903
19,08350	59558
19,08763	61758
19,09175	61922
19,09587	59391
19,10000	60847
19,10412	60830
19,10823	59315
19,11235	59997
19,11648	59564
19,12060	56090
19,12472	59612
19,12885	61056
19,13297	58139
19,13708	57812
19,14122	60115
19,14533	58975
19,14945	60190
19,15358	58962
19,15770	60475
19,16182	59588
19,16595	57549
19,17007	58212
19,17418	57980
19,17832	60640
19,18243	58362
19,18655	58718
19,19068	61075
19,19480	59178
19,19892	60149
19,20303	57569
19,20717	58280
19,21128	58578
19,21540	56630
19,21953	57276
19,22365	57857
19,22777	58693
19,23190	58870
19,23602	59249
19,24013	55918
19,24427	59043
19,24838	56995
19,25250	54358
19,25663	56323
19,26075	56592
19,26487	57534
19,26900	58148
19,27312	55663
19,27723	55573
19,28137	54834
19,28548	54046
19,28960	57671
19,29372	56286
19,29785	58297
19,30197	56525
19,30608	55200
19,31022	55992
19,31433	54840
19,31845	55795
19,32258	54529
19,32670	55869
19,33082	53764
19,33495	54844
19,33907	55068
19,34318	54448
19,34732	52883
19,35143	55250
19,35555	57034
19,35968	55146
19,36380	55205
19,36792	55299
19,37205	58602
19,37617	55946
19,38028	58318
19,38440	55513
19,38853	53375
19,39265	57155
19,39677	55302
19,40090	56053
19,40502	56515
19,40913	55782
19,41327	55299
19,41738	53383
19,42150	56690
19,42563	54707
19,42975	56113
19,43387	56316
19,43800	54156
19,44212	54516
19,44623	56061
19,45037	56328
19,45448	54270
19,45860	56866
19,46273	52482
19,46685	54951
19,47097	53367
19,47508	54213
19,47922	52800
19,48333	55956
19,48745	50883
19,49158	52651
19,49570	55074
19,49982	53245
19,50395	51877
19,50807	52204
19,51218	54306
19,51632	52229
19,52043	51893
19,52455	51672
19,52868	53238
19,53280	52683
19,53692	53936
19,54105	55664
19,54517	53151
19,54928	50947
19,55342	53460
19,55753	52825
19,56165	50689
19,56577	52978
19,56990	51909
19,57402	53984
19,57813	56261
19,58227	55727
19,58638	53614
19,59050	54954
19,59463	58457
19,59875	60648
19,60287	66447
19,60700	76716
19,61112	97815
19,61523	124179
19,61937	166632
19,62348	224366
19,62760	302083
19,63173	394753
19,63585	496128
19,63997	602852
19,64410	705390
19,64822	781727
19,65233	839195
19,65645	862727
19,66058	858634
19,66470	832269
19,66882	768576
19,67295	713029
19,67707	647882
19,68118	573540
19,68532	516452
19,68943	454530
19,69355	400698
19,69768	356731
19,70180	322121
19,70592	286332
19,71005	258483
19,71417	236357
19,71828	221030
19,72242	201461
19,72653	185798
19,73065	173062
19,73478	165070
19,73890	152211
19,74302	147233
19,74713	138547
19,75127	132996
19,75538	128359
19,75950	123949
19,76363	117528
19,76775	112958
19,77187	111998
19,77600	103760
19,78012	102739
19,78423	100973
19,78837	99889
19,79248	96129
19,79660	96141
19,80073	93901
19,80485	90884
19,80897	87437
19,81310	88229
19,81722	86662
19,82133	86063
19,82547	82982
19,82958	82870
19,83370	80075
19,83782	78825
19,84195	78116
19,84607	76770
19,85018	74705
19,85432	71546
19,85843	76333
19,86255	73773
19,86668	68200
19,87080	72449
19,87492	68397
19,87905	69594
19,88317	71079
19,88728	68689
19,89142	66700
19,89553	68733
19,89965	67031
19,90378	64493
19,90790	65207
19,91202	65697
19,91615	65864
19,92027	64052
19,92438	63768
19,92850	64566
19,93263	65156
19,93675	65073
19,94087	64105
19,94500	66660
19,94912	62944
19,95323	61606
19,95737	62254
19,96148	62220
19,96560	60237
19,96973	63636
19,97385	63251
19,97797	59620
19,98210	59794
19,98622	60492
19,99033	61710
19,99447	59620
19,99858	59742
20,00270	58552
20,00683	63810
20,01095	59359
20,01507	57137
20,01918	60114
20,02332	60882
20,02743	58125
20,03155	59408
20,03568	57423
20,03980	57277
20,04392	56496
20,04805	60229
20,05217	56872
20,05628	55229
20,06042	56913
20,06453	58172
20,06865	57087
20,07278	57213
20,07690	57160
20,08102	59402
20,08515	55900
20,08927	58552
20,09338	54186
20,09752	57735
20,10163	57860
20,10575	57538
20,10987	56977
20,11400	56932
20,11812	57611
20,12223	59482
20,12637	58829
20,13048	58273
20,13460	58670
20,13873	55971
20,14285	56053
20,14697	58497
20,15110	58703
20,15522	58051
20,15933	56168
20,16347	55810
20,16758	58365
20,17170	56696
20,17583	56269
20,17995	56363
20,18407	54314
20,18820	52687
20,19232	55881
20,19643	53378
20,20055	53908
20,20468	53753
20,20880	53280
20,21292	57061
20,21705	53098
20,22117	53152
20,22528	53128
20,22942	54296
20,23353	54513
20,23765	52516
20,24178	55167
20,24590	53721
20,25002	56410
20,25415	52674
20,25827	54596
20,26238	53751
20,26652	51311
20,27063	54278
20,27475	54708
20,27888	54478
20,28300	54861
20,28712	53925
20,29123	56860
20,29537	55547
20,29948	56772
20,30360	55579
20,30773	59285
20,31185	54076
20,31597	53646
20,32010	54020
20,32422	58363
20,32833	55781
20,33247	56631
20,33658	55084
20,34070	55485
20,34483	54640
20,34895	56671
20,35307	55457
20,35720	55580
20,36132	54958
