D:\MassHunter\GCMS\1\data\Amal\Constant flow\100C\100C_1ml-min_6C-min_1.D Wed Jul 31 14:23:31 2024
Start of data points
5,84095,30190
5,84507,27087
5,84920,25927
5,85332,26038
5,85743,25433
5,86157,24351
5,86568,24916
5,86980,25448
5,87393,24971
5,87805,22865
5,88217,23175
5,88630,22397
5,89042,22871
5,89453,21916
5,89867,21889
5,90278,22752
5,90690,21677
5,91103,20927
5,91515,19112
5,91927,20223
5,92340,20152
5,92752,20023
5,93163,20894
5,93575,20159
5,93988,19207
5,94400,19368
5,94812,20453
5,95225,18472
5,95637,19134
5,96048,20109
5,96462,18451
5,96873,18588
5,97285,17578
5,97698,18213
5,98110,18601
5,98522,17704
5,98935,19537
5,99347,17902
5,99758,18129
6,00172,18655
6,00583,18319
6,00995,18033
6,01408,18364
6,01820,18153
6,02232,17521
6,02645,18044
6,03057,18144
6,03468,17165
6,03880,16662
6,04293,16272
6,04705,16701
6,05117,18745
6,05530,17190
6,05942,18359
6,06353,16820
6,06767,18661
6,07178,16671
6,07590,16708
6,08003,15858
6,08415,15219
6,08827,16171
6,09240,16154
6,09652,16840
6,10063,15319
6,10477,16248
6,10888,15718
6,11300,15316
6,11713,16637
6,12125,16879
6,12537,16448
6,12948,14910
6,13362,15917
6,13773,17018
6,14185,16557
6,14598,15958
6,15010,16353
6,15422,17474
6,15835,16422
6,16247,16038
6,16658,14791
6,17072,15504
6,17483,14424
6,17895,15381
6,18308,16334
6,18720,15751
6,19132,15438
6,19545,16478
6,19957,16444
6,20368,15945
6,20782,15084
6,21193,14932
6,21605,15031
6,22017,14870
6,22430,15614
6,22842,15654
6,23253,15224
6,23667,16530
6,24078,16222
6,24490,15404
6,24903,16261
6,25315,15670
6,25727,15718
6,26140,15679
6,26552,14342
6,26963,15095
6,27377,14751
6,27788,14394
6,28200,14666
6,28613,13986
6,29025,13604
6,29437,14976
6,29850,15520
6,30262,14000
6,30673,14782
6,31085,14844
6,31498,15384
6,31910,14359
6,32322,13571
6,32735,14195
6,33147,13852
6,33558,13229
6,33972,14444
6,34383,13955
6,34795,14026
6,35208,13455
6,35620,13784
6,36032,14015
6,36445,13847
6,36857,13666
6,37268,12260
6,37682,13057
6,38093,12861
6,38505,13416
6,38918,13426
6,39330,13470
6,39742,13173
6,40153,14097
6,40567,12833
6,40978,12575
6,41390,13754
6,41803,13834
6,42215,14152
6,42627,13169
6,43040,12089
6,43452,12854
6,43863,12573
6,44277,12796
6,44688,13510
6,45100,12567
6,45513,12085
6,45925,12136
6,46337,12740
6,46750,13041
6,47162,12041
6,47573,12699
6,47987,12722
6,48398,12156
6,48810,13110
6,49222,13239
6,49635,12804
6,50047,12517
6,50458,11600
6,50872,12573
6,51283,12678
6,51695,11405
6,52108,12373
6,52520,11845
6,52932,12485
6,53345,13598
6,53757,12281
6,54168,12016
6,54582,12400
6,54993,11875
6,55405,11767
6,55818,10869
6,56230,11730
6,56642,11069
6,57055,11191
6,57467,11854
6,57878,10973
6,58290,11635
6,58703,11515
6,59115,11618
6,59527,11054
6,59940,11510
6,60352,11240
6,60763,11049
6,61177,10802
6,61588,11494
6,62000,10747
6,62413,10793
6,62825,11002
6,63237,11407
6,63650,10543
6,64062,11441
6,64473,10307
6,64887,10664
6,65298,11189
6,65710,9715
6,66123,11070
6,66535,9660
6,66947,10674
6,67358,10972
6,67772,10054
6,68183,10648
6,68595,10147
6,69008,9781
6,69420,9976
6,69832,10305
6,70245,11022
6,70657,11080
6,71068,11497
6,71482,11846
6,71893,13058
6,72305,14546
6,72718,20857
6,73130,26711
6,73542,35055
6,73955,45992
6,74367,61134
6,74778,73162
6,75192,88267
6,75603,98110
6,76015,107133
6,76427,111280
6,76840,112979
6,77252,111740
6,77663,110190
6,78077,107042
6,78488,100347
6,78900,95556
6,79313,88803
6,79725,88106
6,80137,83063
6,80550,76061
6,80962,72076
6,81373,67164
6,81787,65462
6,82198,59025
6,82610,56843
6,83023,54100
6,83435,50099
6,83847,47391
6,84260,45933
6,84672,41599
6,85083,41926
6,85495,38586
6,85908,35806
6,86320,34051
6,86732,31563
6,87145,31136
6,87557,28030
6,87968,26035
6,88382,25642
6,88793,24427
6,89205,22287
6,89618,20722
6,90030,18514
6,90442,18440
6,90855,16515
6,91267,17948
6,91678,15809
6,92092,16754
6,92503,15158
6,92915,13580
6,93328,13938
6,93740,13052
6,94152,13003
6,94563,12637
6,94977,11811
6,95388,11449
6,95800,11847
6,96213,11705
6,96625,10380
6,97037,10536
6,97450,10610
6,97862,9581
6,98273,10147
6,98687,9228
6,99098,9122
6,99510,9095
6,99923,9416
7,00335,8833
7,00747,8885
7,01160,8978
7,01572,9584
7,01983,9410
7,02397,9384
7,02808,9220
7,03220,7981
7,03632,8023
7,04045,9379
7,04457,9068
7,04868,9129
7,05282,8548
7,05693,8662
7,06105,8707
7,06518,8958
7,06930,8043
7,07342,8032
7,07755,7433
7,08167,8432
7,08578,8657
7,08992,8188
7,09403,8976
7,09815,8524
7,10228,8219
7,10640,8528
7,11052,8516
7,11465,8515
7,11877,8412
7,12288,8218
7,12700,7881
7,13113,8598
7,13525,9195
7,13937,7882
7,14350,7519
7,14762,8233
7,15173,8568
7,15587,8551
7,15998,7929
7,16410,7832
7,16823,8000
7,17235,8857
7,17647,8396
7,18060,7793
7,18472,7507
7,18883,7952
7,19297,7227
7,19708,8251
7,20120,8347
7,20533,7933
7,20945,8016
7,21357,7843
7,21768,7893
7,22182,7995
7,22593,7741
7,23005,7477
7,23418,7031
7,23830,7318
7,24242,7839
7,24655,8618
7,25067,8005
7,25478,9165
7,25892,8180
7,26303,7324
7,26715,7569
7,27128,7740
7,27540,7176
7,27952,6989
7,28365,7917
7,28777,7927
7,29188,7316
7,29602,7307
7,30013,7213
7,30425,8420
7,30837,7771
7,31250,8168
7,31662,7862
7,32073,7293
7,32487,7674
7,32898,7659
7,33310,7858
7,33723,8045
7,34135,7186
7,34547,7675
7,34960,7536
7,35372,7328
7,35783,7125
7,36197,6670
7,36608,7081
7,37020,7581
7,37433,7366
7,37845,6741
7,38257,7181
7,38670,7398
7,39082,7439
7,39493,8326
7,39905,7599
7,40318,7241
7,40730,7791
7,41142,6958
7,41555,8257
7,41967,7803
7,42378,8177
7,42792,7107
7,43203,7084
7,43615,7348
7,44028,7485
7,44440,6948
7,44852,7307
7,45265,7789
7,45677,7748
7,46088,7739
7,46502,6670
7,46913,7525
7,47325,7138
7,47738,6988
7,48150,7143
7,48562,7473
7,48973,6967
7,49387,6922
7,49798,7148
7,50210,7205
7,50623,6401
7,51035,7529
7,51447,6824
7,51860,7133
7,52272,7300
7,52683,7239
7,53097,6802
7,53508,7004
7,53920,6876
7,54333,6278
7,54745,6510
7,55157,6698
7,55570,6496
7,55982,6843
7,56393,6544
7,56807,6830
7,57218,6451
7,57630,6531
7,58042,6092
7,58455,7146
7,58867,6829
7,59278,6706
7,59692,6585
7,60103,6974
7,60515,6227
7,60928,6762
7,61340,6779
7,61752,6322
7,62165,6793
7,62577,6806
7,62988,6493
7,63402,7180
7,63813,6598
7,64225,7248
7,64638,7303
7,65050,6718
7,65462,6703
7,65875,7187
7,66287,6582
7,66698,6579
7,67112,6924
7,67523,6112
7,67935,7212
7,68347,7584
7,68760,6687
7,69172,7783
7,69583,6679
7,69997,7381
7,70408,6673
7,70820,7075
7,71233,6503
7,71645,5727
7,72057,6860
7,72470,6599
7,72882,6799
7,73293,6488
7,73707,6805
7,74118,6798
7,74530,5994
7,74943,6907
7,75355,6633
7,75767,5628
7,76180,6552
7,76592,6559
7,77003,5989
7,77415,6960
7,77828,6463
7,78240,6226
7,78652,6910
7,79065,6921
7,79477,6529
7,79888,5688
7,80302,6658
7,80713,7419
7,81125,6182
7,81538,6825
7,81950,6604
7,82362,6855
7,82775,7002
7,83187,6753
7,83598,6944
7,84012,7489
7,84423,7853
7,84835,6311
7,85248,7535
7,85660,7686
7,86072,8992
7,86483,7763
7,86897,8036
7,87308,7813
7,87720,7467
7,88133,7921
7,88545,7696
7,88957,7807
7,89370,8206
7,89782,7078
7,90193,7560
7,90607,7511
7,91018,6439
7,91430,6404
7,91843,6725
7,92255,7284
7,92667,7383
7,93080,7191
7,93492,7137
7,93903,6111
7,94317,6458
7,94728,6350
7,95140,6662
7,95552,6205
7,95965,5847
7,96377,6076
7,96788,6988
7,97202,6630
7,97613,5609
7,98025,5679
7,98438,6069
7,98850,6070
7,99262,5576
7,99675,5657
8,00087,5945
8,00498,6641
8,00912,6674
8,01323,6240
8,01735,5483
8,02148,5345
8,02560,5645
8,02972,5770
8,03385,5940
8,03797,5979
8,04208,5975
8,04620,5439
8,05033,5485
8,05445,5164
8,05857,5864
8,06270,6142
8,06682,5911
8,07093,5728
8,07507,5550
8,07918,5758
8,08330,6485
8,08743,5533
8,09155,5078
8,09567,5468
8,09980,5643
8,10392,6007
8,10803,5650
8,11217,5349
8,11628,5243
8,12040,5705
8,12453,5308
8,12865,5571
8,13277,5459
8,13688,5105
8,14102,4912
8,14513,5242
8,14925,5752
8,15338,6454
8,15750,5456
8,16162,5682
8,16575,4859
8,16987,5078
8,17398,5645
8,17812,4672
8,18223,5471
8,18635,5454
8,19048,5153
8,19460,4873
8,19872,5931
8,20285,5644
8,20697,4894
8,21108,5796
8,21522,5366
8,21933,6258
8,22345,5597
8,22757,5809
8,23170,5785
8,23582,5300
8,23993,5369
8,24407,5062
8,24818,4995
8,25230,5380
8,25643,4746
8,26055,5228
8,26467,5102
8,26880,5469
8,27292,5784
8,27703,4948
8,28117,5477
8,28528,5770
8,28940,5327
8,29353,4721
8,29765,4919
8,30177,5094
8,30590,4818
8,31002,4938
8,31413,5179
8,31825,4980
8,32238,5473
8,32650,6061
8,33062,5194
8,33475,4400
8,33887,5071
8,34298,5306
8,34712,4835
8,35123,4653
8,35535,5461
8,35948,5849
8,36360,4857
8,36772,5181
8,37185,5517
8,37597,4928
8,38008,5445
8,38422,5832
8,38833,6097
8,39245,6025
8,39658,5942
8,40070,5032
8,40482,5465
8,40893,4797
8,41307,5479
8,41718,5555
8,42130,5396
8,42543,5450
8,42955,5367
8,43367,5862
8,43780,4791
8,44192,5276
8,44603,6156
8,45017,6039
8,45428,5260
8,45840,5655
8,46253,5238
8,46665,5384
8,47077,5150
8,47490,5256
8,47902,4950
8,48313,5265
8,48727,4791
8,49138,5358
8,49550,4647
8,49962,5880
8,50375,4395
8,50787,5405
8,51198,4999
8,51612,4394
8,52023,5505
8,52435,5167
8,52848,5241
8,53260,4967
8,53672,4852
8,54085,5789
8,54497,4693
8,54908,5161
8,55322,4626
8,55733,4099
8,56145,4445
8,56558,4471
8,56970,4750
8,57382,4734
8,57795,5113
8,58207,4424
8,58618,4699
8,59030,4247
8,59443,5360
8,59855,4533
8,60267,5010
8,60680,4802
8,61092,4759
8,61503,5237
8,61917,4670
8,62328,5007
8,62740,4601
8,63153,4753
8,63565,5396
8,63977,5012
8,64390,5651
8,64802,7174
8,65213,10340
8,65627,15557
8,66038,26180
8,66450,42490
8,66863,70510
8,67275,109582
8,67687,158175
8,68098,217700
8,68512,290470
8,68923,353812
8,69335,422916
8,69748,479945
8,70160,526840
8,70572,559784
8,70985,565657
8,71397,562560
8,71808,547270
8,72222,520719
8,72633,481214
8,73045,450362
8,73458,414509
8,73870,379463
8,74282,342667
8,74695,302505
8,75107,272982
8,75518,239178
8,75932,214478
8,76343,187400
8,76755,163759
8,77167,138232
8,77580,124973
8,77992,104995
8,78403,93083
8,78817,78930
8,79228,68403
8,79640,59392
8,80053,52516
8,80465,47384
8,80877,40422
8,81290,36609
8,81702,31292
8,82113,29187
8,82527,25127
8,82938,23702
8,83350,21054
8,83763,20407
8,84175,17496
8,84587,16777
8,85000,15620
8,85412,15794
8,85823,14536
8,86235,13595
8,86648,13037
8,87060,11203
8,87472,10612
8,87885,10806
8,88297,10759
8,88708,10502
8,89122,10431
8,89533,8628
8,89945,9872
8,90358,8752
8,90770,7661
8,91182,8540
8,91595,8269
8,92007,6904
8,92418,8465
8,92832,7281
8,93243,7541
8,93655,7440
8,94068,7169
8,94480,7012
8,94892,6349
8,95303,6581
8,95717,6225
8,96128,6146
8,96540,5915
8,96953,5959
8,97365,6203
8,97777,5776
8,98190,6134
8,98602,5749
8,99013,5512
8,99427,5833
8,99838,5537
9,00250,5355
9,00663,5356
9,01075,5610
9,01487,4874
9,01900,5847
9,02312,5419
9,02723,5271
9,03137,5365
9,03548,4360
9,03960,4898
9,04372,5578
9,04785,5499
9,05197,4988
9,05608,5625
9,06022,4836
9,06433,4649
9,06845,5371
9,07258,5289
9,07670,4861
9,08082,5803
9,08495,5664
9,08907,4840
9,09318,5410
9,09732,4558
9,10143,4620
9,10555,4637
9,10968,5575
9,11380,4223
9,11792,4968
9,12205,4961
9,12617,4863
9,13028,4398
9,13442,5187
9,13853,5215
9,14265,4482
9,14677,5054
9,15090,4595
9,15502,5227
9,15913,4329
9,16327,4857
9,16738,4136
9,17150,3910
9,17563,4475
9,17975,4149
9,18387,4407
9,18800,4434
9,19212,4685
9,19623,4268
9,20037,4443
9,20448,4922
9,20860,5019
9,21273,4404
9,21685,5146
9,22097,5769
9,22510,5353
9,22922,6759
9,23333,6531
9,23745,6145
9,24158,6033
9,24570,6527
9,24982,5868
9,25395,6418
9,25807,5899
9,26218,5284
9,26632,3607
9,27043,4145
9,27455,4384
9,27868,4194
9,28280,4148
9,28692,4343
9,29105,4122
9,29517,4216
9,29928,3697
9,30342,4132
9,30753,3900
9,31165,3815
9,31578,3944
9,31990,3885
9,32402,4231
9,32813,4050
9,33227,4071
9,33638,3762
9,34050,3312
9,34463,4136
9,34875,4081
9,35287,3677
9,35700,4419
9,36112,4078
9,36523,3946
9,36937,4262
9,37348,4220
9,37760,3518
9,38173,3815
9,38585,3186
9,38997,3800
9,39410,4444
9,39822,3215
9,40233,3898
9,40647,3594
9,41058,3702
9,41470,3645
9,41882,3826
9,42295,3819
9,42707,3894
9,43118,3784
9,43532,3497
9,43943,3420
9,44355,4066
9,44768,3479
9,45180,3551
9,45592,3740
9,46005,3859
9,46417,3285
9,46828,3417
9,47242,3351
9,47653,4027
9,48065,3935
9,48478,3512
9,48890,3725
9,49302,3351
9,49715,4348
9,50127,3179
9,50538,4075
9,50950,3847
9,51363,4121
9,51775,4242
9,52187,3650
9,52600,3320
9,53012,4343
9,53423,3552
9,53837,4447
9,54248,3940
9,54660,3766
9,55073,3996
9,55485,3677
9,55897,3226
9,56310,4755
9,56722,3809
9,57133,3488
9,57547,3780
9,57958,3289
9,58370,4249
9,58783,3424
9,59195,3469
9,59607,4156
9,60018,3684
9,60432,4535
9,60843,4170
9,61255,4321
9,61668,3941
9,62080,3624
9,62492,4059
9,62905,3238
9,63317,4065
9,63728,3623
9,64142,3995
9,64553,3593
9,64965,3905
9,65378,3224
9,65790,3493
9,66202,3954
9,66615,3621
9,67027,3310
9,67438,3155
9,67852,3001
9,68263,2942
9,68675,3254
9,69087,3436
9,69500,2808
9,69912,3498
9,70323,3821
9,70737,2887
9,71148,3447
9,71560,3203
9,71973,3651
9,72385,3322
9,72797,3145
9,73210,3521
9,73622,3082
9,74033,3807
9,74447,3459
9,74858,3673
9,75270,3248
9,75683,3840
9,76095,3159
9,76507,3309
9,76920,3404
9,77332,3468
9,77743,3438
9,78155,3631
9,78568,3173
9,78980,3249
9,79392,3479
9,79805,4120
9,80217,5789
9,80628,7858
9,81042,11710
9,81453,19586
9,81865,33104
9,82278,50688
9,82690,75054
9,83102,112767
9,83515,151212
9,83927,198456
9,84338,245886
9,84752,288282
9,85163,335713
9,85575,359350
9,85988,376372
9,86400,380826
9,86812,378233
9,87223,364571
9,87637,335989
9,88048,305804
9,88460,277163
9,88873,245510
9,89285,213254
9,89697,184526
9,90110,157127
9,90522,135461
9,90933,112164
9,91347,94544
9,91758,82917
9,92170,67458
9,92583,59363
9,92995,49236
9,93407,43267
9,93820,36006
9,94232,33086
9,94643,27944
9,95057,25028
9,95468,23188
9,95880,21255
9,96292,19080
9,96705,17766
9,97117,15820
9,97528,14523
9,97942,14039
9,98353,13161
9,98765,12231
9,99178,10995
9,99590,10446
10,00002,10331
10,00415,10334
10,00827,9210
10,01238,8850
10,01652,8342
10,02063,8391
10,02475,8168
10,02888,7245
10,03300,7269
10,03712,7218
10,04125,7023
10,04537,5983
10,04948,6193
10,05360,6148
10,05773,5869
10,06185,4690
10,06597,4758
10,07010,4641
10,07422,4868
10,07833,5099
10,08247,4838
10,08658,4440
10,09070,4975
10,09483,4569
10,09895,5021
10,10307,4830
10,10720,3845
10,11132,4817
10,11543,4500
10,11957,4077
10,12368,4506
10,12780,3762
10,13193,3540
10,13605,4579
10,14017,4627
10,14428,4435
10,14842,4129
10,15253,4216
10,15665,3608
10,16078,3368
10,16490,4308
10,16902,3299
10,17315,3550
10,17727,3809
10,18138,3662
10,18552,3337
10,18963,3875
10,19375,3015
10,19788,3682
10,20200,3461
10,20612,3942
10,21025,3519
10,21437,3363
10,21848,3193
10,22262,3830
10,22673,3678
10,23085,3573
10,23497,3245
10,23910,2869
10,24322,2901
10,24733,3120
10,25147,3445
10,25558,3749
10,25970,3651
10,26383,2934
10,26795,2868
10,27207,3579
10,27620,3238
10,28032,3580
10,28443,3464
10,28857,3370
10,29268,3564
10,29680,3668
10,30093,3985
10,30505,4261
10,30917,4111
10,31330,4811
10,31742,3714
10,32153,3679
10,32565,4316
10,32978,4748
10,33390,4733
10,33802,3792
10,34215,3726
10,34627,3531
10,35038,3548
10,35452,3587
10,35863,4294
10,36275,3084
10,36688,2716
10,37100,3459
10,37512,3053
10,37925,3377
10,38337,2858
10,38748,3554
10,39162,2980
10,39573,2743
10,39985,3221
10,40398,3004
10,40810,2857
10,41222,3366
10,41633,2910
10,42047,2842
10,42458,2817
10,42870,2635
10,43283,2830
10,43695,3060
10,44107,3161
10,44520,2843
10,44932,2569
10,45343,2653
10,45757,2769
10,46168,3087
10,46580,2703
10,46993,2677
10,47405,2955
10,47817,2587
10,48230,2364
10,48642,2680
10,49053,2682
10,49467,3119
10,49878,2823
10,50290,2178
10,50702,2941
10,51115,2316
10,51527,2697
10,51938,2831
10,52352,2476
10,52763,2357
10,53175,2753
10,53588,2563
10,54000,3400
10,54412,2199
10,54825,2422
10,55237,2632
10,55648,2836
10,56062,2390
10,56473,2449
10,56885,2340
10,57298,2425
10,57710,2638
10,58122,2746
10,58535,2770
10,58947,2703
10,59358,3133
10,59770,2556
10,60183,2494
10,60595,3152
10,61007,3005
10,61420,2882
10,61832,2724
10,62243,2446
10,62657,2883
10,63068,2693
10,63480,2738
10,63893,2177
10,64305,2907
10,64717,3137
10,65130,3011
10,65542,2566
10,65953,2681
10,66367,2300
10,66778,2400
10,67190,2515
10,67603,2296
10,68015,2666
10,68427,2644
10,68838,3031
10,69252,2686
10,69663,2374
10,70075,2248
10,70488,2259
10,70900,2795
10,71312,2573
10,71725,2825
10,72137,2846
10,72548,2449
10,72962,2700
10,73373,2944
10,73785,2439
10,74198,2498
10,74610,2625
10,75022,2667
10,75435,2371
10,75847,2808
10,76258,2506
10,76672,2688
10,77083,2401
10,77495,2647
10,77908,2619
10,78320,2249
10,78732,2698
10,79143,2512
10,79557,3284
10,79968,2935
10,80380,3375
10,80793,2550
10,81205,2887
10,81617,2999
10,82030,2902
10,82442,3044
10,82853,3235
10,83267,2801
10,83678,2695
10,84090,2281
10,84503,2864
10,84915,2869
10,85327,2480
10,85740,2658
10,86152,2345
10,86563,2794
10,86977,2786
10,87388,2859
10,87800,2881
10,88212,3153
10,88625,3452
10,89037,2786
10,89448,3201
10,89862,2827
10,90273,3324
10,90685,2920
10,91098,2627
10,91510,2868
10,91922,2953
10,92335,2803
10,92747,2082
10,93158,3082
10,93572,2450
10,93983,2417
10,94395,2324
10,94808,2205
10,95220,2803
10,95632,2482
10,96045,1872
10,96457,2974
10,96868,2610
10,97280,2666
10,97693,2562
10,98105,2022
10,98517,2214
10,98930,2237
10,99342,2485
10,99753,2706
11,00167,2675
11,00578,2846
11,00990,3137
11,01403,4071
11,01815,7737
11,02227,13706
11,02640,24013
11,03052,42942
11,03463,74234
11,03877,115517
11,04288,185747
11,04700,270502
11,05113,373569
11,05525,492982
11,05937,611756
11,06348,725193
11,06762,838171
11,07173,918951
11,07585,955547
11,07998,950435
11,08410,916000
11,08822,859493
11,09235,784025
11,09647,696065
11,10058,595728
11,10472,511789
11,10883,415889
11,11295,347066
11,11708,287361
11,12120,230311
11,12532,185289
11,12945,152731
11,13357,126351
11,13768,105492
11,14182,88038
11,14593,74381
11,15005,62718
11,15417,56274
11,15830,48603
11,16242,42347
11,16653,39194
11,17067,33285
11,17478,30874
11,17890,27657
11,18303,24035
11,18715,22925
11,19127,20694
11,19540,19774
11,19952,18707
11,20363,18097
11,20777,17401
11,21188,14163
11,21600,13234
11,22013,13841
11,22425,11902
11,22837,11066
11,23250,10253
11,23662,9135
11,24073,9577
11,24485,8693
11,24898,8886
11,25310,9092
11,25722,7520
11,26135,7687
11,26547,7822
11,26958,7662
11,27372,6872
11,27783,6775
11,28195,6584
11,28608,6701
11,29020,6282
11,29432,6506
11,29845,5933
11,30257,6041
11,30668,5183
11,31082,5048
11,31493,5045
11,31905,4569
11,32318,5667
11,32730,5427
11,33142,4488
11,33553,4606
11,33967,4190
11,34378,3818
11,34790,4266
11,35203,4650
11,35615,3685
11,36027,3896
11,36440,3647
11,36852,3704
11,37263,3535
11,37677,3211
11,38088,3765
11,38500,3176
11,38913,3539
11,39325,3688
11,39737,3718
11,40150,3512
11,40562,3604
11,40973,3199
11,41387,3109
11,41798,2616
11,42210,3726
11,42622,3154
11,43035,3648
11,43447,2838
11,43858,2880
11,44272,2889
11,44683,3128
11,45095,3454
11,45508,3682
11,45920,3103
11,46332,2857
11,46745,2918
11,47157,2686
11,47568,2956
11,47982,2615
11,48393,2603
11,48805,2373
11,49218,2762
11,49630,2246
11,50042,3072
11,50455,2466
11,50867,2046
11,51278,2924
11,51690,2870
11,52103,2330
11,52515,2577
11,52927,2786
11,53340,2891
11,53752,2781
11,54163,2863
11,54577,2618
11,54988,2663
11,55400,2345
11,55813,3351
11,56225,2531
11,56637,2853
11,57050,2269
11,57462,3069
11,57873,2725
11,58287,2402
11,58698,2450
11,59110,2737
11,59523,2480
11,59935,2289
11,60347,2249
11,60758,2280
11,61172,3338
11,61583,2494
11,61995,2422
11,62408,2006
11,62820,2855
11,63232,2089
11,63645,2181
11,64057,2091
11,64468,2566
11,64882,2804
11,65293,3231
11,65705,2293
11,66118,3490
11,66530,2819
11,66942,3032
11,67355,3327
11,67767,3104
11,68178,3645
11,68592,3826
11,69003,3318
11,69415,4321
11,69827,4969
11,70240,4727
11,70652,5970
11,71063,6882
11,71477,6364
11,71888,7333
11,72300,6633
11,72713,7077
11,73125,6658
11,73537,6548
11,73950,6002
11,74362,5718
11,74773,5656
11,75187,4983
11,75598,5507
11,76010,4436
11,76423,3889
11,76835,4310
11,77247,3885
11,77660,3784
11,78072,3327
11,78483,3064
11,78895,3263
11,79308,2994
11,79720,2650
11,80132,2791
11,80545,2129
11,80957,2508
11,81368,2438
11,81782,2428
11,82193,2474
11,82605,3045
11,83018,4205
11,83430,4152
11,83842,4412
11,84255,4103
11,84667,3746
11,85078,3726
11,85492,2830
11,85903,1992
11,86315,2362
11,86728,1983
11,87140,2173
11,87552,2007
11,87963,1939
11,88377,1698
11,88788,1832
11,89200,2446
11,89613,1479
11,90025,2194
11,90437,1975
11,90850,1881
11,91262,2056
11,91673,2530
11,92087,2019
11,92498,1641
11,92910,1856
11,93323,2034
11,93735,2182
11,94147,1817
11,94560,2179
11,94972,2234
11,95383,1901
11,95797,2126
11,96208,2291
11,96620,2209
11,97032,2138
11,97445,1967
11,97857,2114
11,98268,1883
11,98682,1696
11,99093,1915
11,99505,1815
11,99918,1824
12,00330,1767
12,00742,1756
12,01155,1750
12,01567,1877
12,01978,1426
12,02392,2113
12,02803,1980
12,03215,1683
12,03628,2063
12,04040,1566
12,04452,1492
12,04865,2059
12,05277,2069
12,05688,2058
12,06100,2238
12,06513,2374
12,06925,2273
12,07337,1956
12,07750,1551
12,08162,1796
12,08573,1716
12,08987,1479
12,09398,2108
12,09810,1779
12,10223,1822
12,10635,1977
12,11047,2309
12,11460,2182
12,11872,1632
12,12283,2133
12,12697,2105
12,13108,1343
12,13520,1751
12,13933,1111
12,14345,1723
12,14757,1998
12,15168,2209
12,15582,1975
12,15993,1650
12,16405,1964
12,16818,2077
12,17230,1954
12,17642,2354
12,18055,2071
12,18467,1439
12,18878,1992
12,19292,1639
12,19703,1719
12,20115,1894
12,20528,2018
12,20940,1609
12,21352,1687
12,21765,2005
12,22177,1744
12,22588,1720
12,23002,1664
12,23413,2034
12,23825,1974
12,24237,2151
12,24650,1871
12,25062,3006
12,25473,3745
12,25887,6399
12,26298,12041
12,26710,20565
12,27123,36350
12,27535,60032
12,27947,92686
12,28360,143788
12,28772,203756
12,29183,271877
12,29597,349686
12,30008,419312
12,30420,476916
12,30833,517248
12,31245,533819
12,31657,534708
12,32070,516646
12,32482,470842
12,32893,417486
12,33305,362141
12,33718,304073
12,34130,250573
12,34542,203707
12,34955,162315
12,35367,129595
12,35778,106959
12,36192,88160
12,36603,71775
12,37015,58322
12,37428,48096
12,37840,40104
12,38252,34259
12,38665,30760
12,39077,28005
12,39488,23903
12,39902,20210
12,40313,19332
12,40725,16622
12,41138,14666
12,41550,14387
12,41962,12512
12,42375,12026
12,42787,10842
12,43198,10105
12,43610,8466
12,44023,8647
12,44435,8027
12,44847,7940
12,45260,7014
12,45672,7134
12,46083,5898
12,46497,6092
12,46908,5892
12,47320,5373
12,47733,5268
12,48145,5051
12,48557,5238
12,48970,4546
12,49382,4122
12,49793,4478
12,50207,3552
12,50618,4294
12,51030,3918
12,51443,3724
12,51855,3003
12,52267,3108
12,52678,3352
12,53092,3456
12,53503,3231
12,53915,3296
12,54328,2471
12,54740,3762
12,55152,3398
12,55565,2347
12,55977,2683
12,56388,2918
12,56802,3332
12,57213,2345
12,57625,2876
12,58038,2365
12,58450,2512
12,58862,2661
12,59275,2808
12,59687,2168
12,60098,2259
12,60512,2418
12,60923,2343
12,61335,2418
12,61747,3044
12,62160,2326
12,62572,2520
12,62983,1979
12,63397,2131
12,63808,2836
12,64220,2048
12,64633,2616
12,65045,1565
12,65457,2180
12,65870,1809
12,66282,1579
12,66693,1852
12,67107,1783
12,67518,1978
12,67930,1697
12,68343,2035
12,68755,1686
12,69167,2155
12,69580,1559
12,69992,1141
12,70403,1451
12,70815,2248
12,71228,1853
12,71640,1785
12,72052,1667
12,72465,1544
12,72877,2160
12,73288,1641
12,73702,1870
12,74113,1832
12,74525,1521
12,74938,1742
12,75350,1995
12,75762,2162
12,76175,1636
12,76587,1929
12,76998,1807
12,77412,1871
12,77823,1841
12,78235,1732
12,78648,1721
12,79060,1743
12,79472,1916
12,79883,1789
12,80297,1452
12,80708,1699
12,81120,1793
12,81533,1557
12,81945,1718
12,82357,1768
12,82770,1012
12,83182,1694
12,83593,1758
12,84007,1258
12,84418,1409
12,84830,1923
12,85243,1692
12,85655,1097
12,86067,1471
12,86480,1492
12,86892,1938
12,87303,1632
12,87717,1860
12,88128,1618
12,88540,1973
12,88952,1489
12,89365,1587
12,89777,1578
12,90188,1645
12,90602,2278
12,91013,2704
12,91425,2511
12,91838,2420
12,92250,2925
12,92662,3727
12,93075,3838
12,93487,2890
12,93898,3186
12,94312,3907
12,94723,3255
12,95135,3314
12,95548,3100
12,95960,3014
12,96372,2195
12,96785,2426
12,97197,1762
12,97608,2737
12,98020,2176
12,98433,2492
12,98845,3032
12,99257,2843
12,99670,3487
13,00082,3106
13,00493,3283
13,00907,4015
13,01318,4040
13,01730,4438
13,02143,3079
13,02555,3876
13,02967,2633
13,03380,2829
13,03792,2420
13,04203,2649
13,04617,1983
13,05028,2234
13,05440,1927
13,05853,2124
13,06265,2475
13,06677,1418
13,07088,1626
13,07502,1452
13,07913,1692
13,08325,1449
13,08738,1571
13,09150,1402
13,09562,1825
13,09975,1144
13,10387,1146
13,10798,1542
13,11212,1255
13,11623,1459
13,12035,1972
13,12448,1306
13,12860,1632
13,13272,1255
13,13685,1415
13,14097,1641
13,14508,1184
13,14922,1125
13,15333,1474
13,15745,1227
13,16157,1468
13,16570,1427
13,16982,1326
13,17393,1779
13,17807,1499
13,18218,1662
13,18630,1318
13,19043,1503
13,19455,1706
13,19867,1896
13,20280,1278
13,20692,900
13,21103,1690
13,21517,1349
13,21928,1324
13,22340,1532
13,22753,1039
13,23165,1546
13,23577,1450
13,23990,1403
13,24402,1826
13,24813,1722
13,25225,1720
13,25638,1494
13,26050,2022
13,26462,1182
13,26875,1535
13,27287,1215
13,27698,1390
13,28112,1229
13,28523,1079
13,28935,1308
13,29348,1546
13,29760,1113
13,30172,1418
13,30585,1905
13,30997,1479
13,31408,1474
13,31822,1394
13,32233,1419
13,32645,1211
13,33058,1249
13,33470,1176
13,33882,1444
13,34293,1691
13,34707,1399
13,35118,1307
13,35530,1599
13,35943,1750
13,36355,1366
13,36767,1440
13,37180,1512
13,37592,1770
13,38003,1513
13,38417,1444
13,38828,1528
13,39240,1388
13,39653,1548
13,40065,1459
13,40477,1831
13,40890,1872
13,41302,2091
13,41713,1873
13,42127,2335
13,42538,2346
13,42950,3254
13,43362,3229
13,43775,4600
13,44187,4899
13,44598,5759
13,45012,4850
13,45423,5391
13,45835,5158
13,46248,5504
13,46660,5273
13,47072,3559
13,47485,3597
13,47897,3987
13,48308,4235
13,48722,5785
13,49133,10802
13,49545,18683
13,49958,33484
13,50370,60261
13,50782,102387
13,51195,165112
13,51607,254629
13,52018,374175
13,52430,515469
13,52843,675570
13,53255,833640
13,53667,974727
13,54080,1094474
13,54492,1187100
13,54903,1204935
13,55317,1192783
13,55728,1108949
13,56140,1005781
13,56553,858332
13,56965,715015
13,57377,580174
13,57790,463903
13,58202,362782
13,58613,286054
13,59027,229330
13,59438,182783
13,59850,149699
13,60263,121866
13,60675,101909
13,61087,86182
13,61498,75868
13,61912,63468
13,62323,53858
13,62735,50356
13,63148,43746
13,63560,41875
13,63972,37842
13,64385,33076
13,64797,29486
13,65208,29071
13,65622,25788
13,66033,24047
13,66445,22306
13,66858,20651
13,67270,18023
13,67682,16801
13,68095,16637
13,68507,13266
13,68918,13414
13,69332,11397
13,69743,10929
13,70155,10808
13,70567,9649
13,70980,9322
13,71392,9210
13,71803,7743
13,72217,8662
13,72628,6915
13,73040,7966
13,73453,7450
13,73865,6426
13,74277,6478
13,74690,5996
13,75102,5633
13,75513,5855
13,75927,4959
13,76338,5307
13,76750,5714
13,77163,4698
13,77575,4899
13,77987,4400
13,78400,4398
13,78812,3721
13,79223,4226
13,79635,3950
13,80048,3939
13,80460,4101
13,80872,3573
13,81285,3292
13,81697,3086
13,82108,2875
13,82522,2913
13,82933,2744
13,83345,2931
13,83758,3336
13,84170,2683
13,84582,2357
13,84995,2536
13,85407,2379
13,85818,2752
13,86232,2694
13,86643,2769
13,87055,1870
13,87468,2563
13,87880,2867
13,88292,2425
13,88703,2637
13,89117,2345
13,89528,2225
13,89940,2625
13,90353,2657
13,90765,2060
13,91177,2286
13,91590,1867
13,92002,1731
13,92413,2392
13,92827,2357
13,93238,1940
13,93650,2108
13,94063,1620
13,94475,1846
13,94887,1529
13,95300,1771
13,95712,1852
13,96123,2051
13,96537,2376
13,96948,1873
13,97360,1878
13,97772,1919
13,98185,1925
13,98597,1956
13,99008,1738
13,99422,1824
13,99833,1627
14,00245,1526
14,00658,2080
14,01070,1546
14,01482,1485
14,01895,2049
14,02307,1592
14,02718,1678
14,03132,1428
14,03543,1855
14,03955,1825
14,04368,1662
14,04780,1588
14,05192,1550
14,05605,1855
14,06017,1434
14,06428,1237
14,06842,1716
14,07253,1458
14,07665,1165
14,08077,1091
14,08490,2139
14,08902,1121
14,09313,1585
14,09727,1609
14,10138,1418
14,10550,1875
14,10963,1411
14,11375,1149
14,11787,1445
14,12200,1838
14,12612,1601
14,13023,2160
14,13437,1981
14,13848,2006
14,14260,3063
14,14673,2034
14,15085,3467
14,15497,2549
14,15910,2383
14,16322,3312
14,16733,2331
14,17145,2500
14,17558,2013
14,17970,1596
14,18382,2071
14,18795,1520
14,19207,1693
14,19618,1587
14,20032,1497
14,20443,1156
14,20855,1784
14,21268,1451
14,21680,991
14,22092,1471
14,22505,1612
14,22917,1297
14,23328,1115
14,23742,1258
14,24153,1106
14,24565,1526
14,24978,1396
14,25390,819
14,25802,1053
14,26213,1388
14,26627,1093
14,27038,1640
14,27450,1140
14,27863,1467
14,28275,1459
14,28687,1246
14,29100,1395
14,29512,1186
14,29923,1077
14,30337,1490
14,30748,1127
14,31160,1253
14,31573,960
14,31985,1038
14,32397,2451
14,32810,2567
14,33222,3717
14,33633,4663
14,34047,8747
14,34458,14809
14,34870,26564
14,35282,46658
14,35695,69743
14,36107,112092
14,36518,164845
14,36932,229695
14,37343,308218
14,37755,388460
14,38168,460789
14,38580,520664
14,38992,554307
14,39405,567787
14,39817,552273
14,40228,517721
14,40642,463054
14,41053,403651
14,41465,341003
14,41878,288346
14,42290,228660
14,42702,183706
14,43115,148399
14,43527,117172
14,43938,93390
14,44350,77542
14,44763,63828
14,45175,53103
14,45587,44351
14,46000,38860
14,46412,33709
14,46823,27054
14,47237,25220
14,47648,20923
14,48060,20149
14,48473,18474
14,48885,15489
14,49297,14591
14,49710,13458
14,50122,11800
14,50533,9695
14,50947,8758
14,51358,7845
14,51770,7956
14,52183,7226
14,52595,7082
14,53007,5205
14,53418,5720
14,53832,6687
14,54243,5306
14,54655,4909
14,55068,4866
14,55480,4575
14,55892,4787
14,56305,3641
14,56717,4031
14,57128,3943
14,57542,3058
14,57953,3366
14,58365,2520
14,58778,3656
14,59190,2194
14,59602,2583
14,60015,2337
14,60427,1667
14,60838,2320
14,61252,1999
14,61663,2131
14,62075,2073
14,62487,2374
14,62900,2581
14,63312,2370
14,63723,1922
14,64137,2186
14,64548,2125
14,64960,2028
14,65373,1707
14,65785,2144
14,66197,1743
14,66610,1070
14,67022,1996
14,67433,1549
14,67847,1099
14,68258,1707
14,68670,1438
14,69083,1725
14,69495,3166
14,69907,5248
14,70320,7741
14,70732,16368
14,71143,28850
14,71555,53049
14,71968,83916
14,72380,133537
14,72792,200569
14,73205,277525
14,73617,361275
14,74028,450005
14,74442,532393
14,74853,601986
14,75265,635565
14,75678,645165
14,76090,612922
14,76502,566968
14,76915,492658
14,77327,418030
14,77738,347741
14,78152,279527
14,78563,221564
14,78975,173639
14,79388,141609
14,79800,110728
14,80212,88996
14,80623,70595
14,81037,59116
14,81448,50323
14,81860,40358
14,82273,36434
14,82685,30286
14,83097,27199
14,83510,23260
14,83922,21638
14,84333,19652
14,84747,17664
14,85158,16432
14,85570,14944
14,85983,12600
14,86395,10993
14,86807,11233
14,87220,10651
14,87632,8751
14,88043,9220
14,88457,8125
14,88868,7787
14,89280,6102
14,89692,6976
14,90105,6037
14,90517,5000
14,90928,4821
14,91342,4952
14,91753,4330
14,92165,4473
14,92578,4783
14,92990,4223
14,93402,3605
14,93815,3704
14,94227,4313
14,94638,2917
14,95052,3850
14,95463,3805
14,95875,2395
14,96288,2845
14,96700,2565
14,97112,3193
14,97525,2384
14,97937,2442
14,98348,2110
14,98760,1961
14,99173,2250
14,99585,2591
14,99997,3105
15,00410,2669
15,00822,1948
15,01233,2576
15,01647,2010
15,02058,2211
15,02470,2169
15,02883,2319
15,03295,1689
15,03707,1942
15,04120,2136
15,04532,1858
15,04943,2044
15,05357,1899
15,05768,2139
15,06180,1730
15,06593,1842
15,07005,1866
15,07417,1379
15,07828,1592
15,08242,1502
15,08653,1360
15,09065,1680
15,09478,1700
15,09890,1857
15,10302,1440
15,10715,1720
15,11127,1600
15,11538,1542
15,11952,1487
15,12363,1856
15,12775,1320
15,13188,1680
15,13600,1522
15,14012,2454
15,14425,1461
15,14837,1948
15,15248,1584
15,15662,1414
15,16073,1495
15,16485,1729
15,16897,1911
15,17310,1423
15,17722,1617
15,18133,1537
15,18547,1561
15,18958,1277
15,19370,1362
15,19783,949
15,20195,1987
15,20607,1882
15,21020,905
15,21432,1297
15,21843,1388
15,22257,1022
15,22668,1127
15,23080,1152
15,23493,2158
15,23905,1142
15,24317,1364
15,24730,1383
15,25142,1342
15,25553,1519
15,25965,1417
15,26378,1480
15,26790,1811
15,27202,1534
15,27615,1801
15,28027,1092
15,28438,1734
15,28852,1241
15,29263,1481
15,29675,1841
15,30088,1651
15,30500,1110
15,30912,1224
15,31325,1185
15,31737,953
15,32148,1574
15,32562,1401
15,32973,1508
15,33385,1058
15,33798,1064
15,34210,741
15,34622,1023
15,35033,927
15,35447,1215
15,35858,1254
15,36270,847
15,36683,1104
15,37095,961
15,37507,1251
15,37920,1699
15,38332,1037
15,38743,1540
15,39157,1230
15,39568,1554
15,39980,1427
15,40393,1105
15,40805,1054
15,41217,1227
15,41630,1167
15,42042,1575
15,42453,1064
15,42867,1195
15,43278,1333
15,43690,1246
15,44102,846
15,44515,1010
15,44927,1175
15,45338,1031
15,45752,941
15,46163,1163
15,46575,1025
15,46988,1244
15,47400,1070
15,47812,771
15,48225,1607
15,48637,907
15,49048,1411
15,49462,1119
15,49873,1038
15,50285,1622
15,50698,1009
15,51110,1370
15,51522,995
15,51935,1088
15,52347,791
15,52758,1463
15,53170,2120
15,53583,3498
15,53995,8414
15,54407,13956
15,54820,29071
15,55232,52612
15,55643,83781
15,56057,130177
15,56468,194149
15,56880,269442
15,57293,345281
15,57705,435614
15,58117,513982
15,58530,563290
15,58942,595844
15,59353,608646
15,59767,593649
15,60178,550194
15,60590,481352
15,61003,409455
15,61415,342021
15,61827,276165
15,62238,221689
15,62652,177051
15,63063,140346
15,63475,112673
15,63888,90077
15,64300,73335
15,64712,59475
15,65125,48703
15,65537,41897
15,65948,36492
15,66362,30340
15,66773,25949
15,67185,23565
15,67598,21850
15,68010,18123
15,68422,17041
15,68835,14705
15,69247,13441
15,69658,12410
15,70072,11665
15,70483,9604
15,70895,9096
15,71308,8647
15,71720,7918
15,72132,7472
15,72543,7224
15,72957,5716
15,73368,5744
15,73780,6146
15,74193,5177
15,74605,4346
15,75017,4459
15,75430,4120
15,75842,3341
15,76253,3837
15,76667,3921
15,77078,4119
15,77490,3536
15,77903,3848
15,78315,2470
15,78727,3057
15,79140,2625
15,79552,2579
15,79963,2810
15,80377,2766
15,80788,2315
15,81200,2244
15,81612,1194
15,82025,2357
15,82437,2064
15,82848,1757
15,83262,1989
15,83673,1403
15,84085,1356
15,84498,1787
15,84910,1969
15,85322,1361
15,85735,1916
15,86147,2282
15,86558,2310
15,86972,3743
15,87383,7565
15,87795,14167
15,88208,28123
15,88620,52966
15,89032,92471
15,89445,155358
15,89857,249421
15,90268,376263
15,90680,530572
15,91093,728397
15,91505,957330
15,91917,1193587
15,92330,1452326
15,92742,1719962
15,93153,1911857
15,93567,2062464
15,93978,2091582
15,94390,2003229
15,94803,1833791
15,95215,1597280
15,95627,1343709
15,96040,1066017
15,96452,847173
15,96863,661624
15,97277,502254
15,97688,396157
15,98100,314756
15,98513,248729
15,98925,202174
15,99337,169288
15,99748,146200
16,00162,119900
16,00573,104767
16,00985,92347
16,01398,81636
16,01810,70719
16,02222,61712
16,02635,57445
16,03047,50129
16,03458,45713
16,03872,41259
16,04283,37936
16,04695,35420
16,05108,33186
16,05520,29288
16,05932,27514
16,06345,26111
16,06757,24313
16,07168,22415
16,07582,20284
16,07993,19509
16,08405,17384
16,08817,18173
16,09230,17314
16,09642,14907
16,10053,13353
16,10467,14609
16,10878,13584
16,11290,12018
16,11703,11528
16,12115,10279
16,12527,9997
16,12940,10248
16,13352,9422
16,13763,8619
16,14177,7648
16,14588,7495
16,15000,8252
16,15413,7086
16,15825,6058
16,16237,5768
16,16650,6685
16,17062,5784
16,17473,6568
16,17885,4876
16,18298,5312
16,18710,4595
16,19122,5032
16,19535,5065
16,19947,4814
16,20358,4743
16,20772,4481
16,21183,4443
16,21595,3963
16,22008,3088
16,22420,3503
16,22832,4070
16,23245,3055
16,23657,3342
16,24068,3741
16,24482,3865
16,24893,3422
16,25305,2566
16,25718,2246
16,26130,2245
16,26542,3119
16,26953,2093
16,27367,2056
16,27778,2623
16,28190,2579
16,28603,1906
16,29015,2127
16,29427,2427
16,29840,2771
16,30252,2405
16,30663,2705
16,31077,1885
16,31488,2775
16,31900,2683
16,32313,1878
16,32725,2382
16,33137,2341
16,33550,2371
16,33962,1788
16,34373,2211
16,34787,1914
16,35198,2184
16,35610,2048
16,36022,2008
16,36435,2555
16,36847,1953
16,37258,2489
16,37672,2951
16,38083,2261
16,38495,2363
16,38908,2393
16,39320,2284
16,39732,1637
16,40145,1937
16,40557,2046
16,40968,2241
16,41382,1974
16,41793,2060
16,42205,1765
16,42618,1735
16,43030,1907
16,43442,1506
16,43855,1762
16,44267,1974
16,44678,1361
16,45090,1683
16,45503,1901
16,45915,1748
16,46327,1803
16,46740,1681
16,47152,1878
16,47563,3163
16,47977,2270
16,48388,2883
16,48800,2102
16,49213,2162
16,49625,2803
16,50037,2409
16,50450,1315
16,50862,2526
16,51273,3122
16,51687,2746
16,52098,3533
16,52510,3703
16,52923,4493
16,53335,5129
16,53747,6666
16,54158,8779
16,54572,12291
16,54983,17854
16,55395,26595
16,55808,45431
16,56220,71543
16,56632,112002
16,57045,168896
16,57457,237592
16,57868,317492
16,58282,404342
16,58693,489205
16,59105,562275
16,59518,613395
16,59930,642570
16,60342,630049
16,60755,589660
16,61167,532006
16,61578,464630
16,61992,392092
16,62403,322247
16,62815,260705
16,63227,210470
16,63640,166480
16,64052,129834
16,64463,106248
16,64877,84004
16,65288,68786
16,65700,58369
16,66113,49785
16,66525,40147
16,66937,36936
16,67350,29636
16,67762,28525
16,68173,26062
16,68587,20807
16,68998,18714
16,69410,16866
16,69823,16028
16,70235,13943
16,70647,13311
16,71060,12329
16,71472,11215
16,71883,13351
16,72295,13388
16,72708,12856
16,73120,13820
16,73532,13251
16,73945,12966
16,74357,12471
16,74768,12995
16,75182,9841
16,75593,9970
16,76005,7379
16,76418,8623
16,76830,6794
16,77242,6233
16,77655,7359
16,78067,5561
16,78478,5060
16,78892,5086
16,79303,5079
16,79715,4672
16,80128,4564
16,80540,3814
16,80952,3710
16,81363,4693
16,81777,3299
16,82188,3412
16,82600,3793
16,83013,3086
16,83425,3175
16,83837,3290
16,84250,2407
16,84662,2558
16,85073,1787
16,85487,2287
16,85898,2535
16,86310,1567
16,86723,2184
16,87135,1551
16,87547,1838
16,87960,1429
16,88372,2597
16,88783,2408
16,89197,1902
16,89608,1726
16,90020,1912
16,90432,1823
16,90845,1375
16,91257,2015
16,91668,1874
16,92082,1645
16,92493,1614
16,92905,1503
16,93318,1349
16,93730,1174
16,94142,1871
16,94555,869
16,94967,2016
16,95378,1495
16,95792,1616
16,96203,1676
16,96615,1140
16,97028,1624
16,97440,1601
16,97852,1595
16,98265,1030
16,98677,1944
16,99088,2036
16,99500,2036
16,99913,2253
17,00325,2317
17,00737,3112
17,01150,5568
17,01562,12050
17,01973,20723
17,02387,37965
17,02798,68602
17,03210,110859
17,03623,168110
17,04035,243338
17,04447,341360
17,04860,444144
17,05272,548638
17,05683,640225
17,06097,698228
17,06508,736310
17,06920,732195
17,07333,685792
17,07745,624151
17,08157,540414
17,08568,448750
17,08982,359061
17,09393,286823
17,09805,227342
17,10218,176111
17,10630,138485
17,11042,112628
17,11455,87601
17,11867,70361
17,12278,60365
17,12692,51361
17,13103,43964
17,13515,37809
17,13928,33474
17,14340,28519
17,14752,25158
17,15165,22867
17,15577,20161
17,15988,18209
17,16402,15424
17,16813,14551
17,17225,13919
17,17637,13282
17,18050,11107
17,18462,10744
17,18873,10392
17,19287,10404
17,19698,9825
17,20110,8122
17,20523,8258
17,20935,8263
17,21347,8038
17,21760,7681
17,22172,6771
17,22583,6375
17,22997,7370
17,23408,6048
17,23820,6174
17,24233,5462
17,24645,5158
17,25057,5474
17,25470,4824
17,25882,4724
17,26293,5079
17,26707,4036
17,27118,3713
17,27530,3256
17,27942,3454
17,28355,3580
17,28767,3621
17,29178,3218
17,29592,2821
17,30003,3170
17,30415,3117
17,30828,2491
17,31240,3276
17,31652,2485
17,32065,1890
17,32477,2374
17,32888,2275
17,33302,2035
17,33713,1694
17,34125,2279
17,34538,1623
17,34950,1653
17,35362,1825
17,35775,2053
17,36187,1707
17,36598,1512
17,37010,2009
17,37423,2584
17,37835,2800
17,38247,1776
17,38660,2033
17,39072,1941
17,39483,2134
17,39897,2239
17,40308,2165
17,40720,2302
17,41133,1564
17,41545,2353
17,41957,2492
17,42370,2112
17,42782,2078
17,43193,1539
17,43607,1315
17,44018,1533
17,44430,2057
17,44843,1775
17,45255,1802
17,45667,1731
17,46078,1392
17,46492,1778
17,46903,1449
17,47315,1644
17,47728,1549
17,48140,1533
17,48552,1510
17,48965,1822
17,49377,1419
17,49788,1642
17,50202,1182
17,50613,1358
17,51025,1801
17,51438,1741
17,51850,1389
17,52262,1276
17,52675,1913
17,53087,1927
17,53498,1284
17,53912,1655
17,54323,1495
17,54735,1165
17,55147,1221
17,55560,1599
17,55972,1478
17,56383,820
17,56797,863
17,57208,1235
17,57620,829
17,58033,634
17,58445,1253
17,58857,1885
17,59270,879
17,59682,1285
17,60093,1455
17,60507,1394
17,60918,1807
17,61330,1743
17,61743,907
17,62155,1477
17,62567,1133
17,62980,1649
17,63392,1301
17,63803,1788
17,64215,1197
17,64628,1530
17,65040,1525
17,65452,2035
17,65865,1902
17,66277,4410
17,66688,9652
17,67102,16381
17,67513,29003
17,67925,52859
17,68338,88187
17,68750,142738
17,69162,208881
17,69575,299052
17,69987,393942
17,70398,484695
17,70812,576333
17,71223,651100
17,71635,694212
17,72048,709000
17,72460,680765
17,72872,624553
17,73283,556113
17,73697,470118
17,74108,385718
17,74520,317708
17,74933,249525
17,75345,202773
17,75757,158758
17,76170,127262
17,76582,101550
17,76993,83047
17,77407,70202
17,77818,57351
17,78230,48569
17,78643,39655
17,79055,35190
17,79467,30802
17,79880,26412
17,80292,24325
17,80703,22126
17,81117,19828
17,81528,17445
17,81940,16678
17,82352,14133
17,82765,13421
17,83177,12008
17,83588,13149
17,84002,11843
17,84413,10466
17,84825,12068
17,85238,12687
17,85650,13128
17,86062,13674
17,86475,14448
17,86887,16394
17,87298,19624
17,87712,19413
17,88123,19499
17,88535,19282
17,88948,17957
17,89360,18839
17,89772,16290
17,90185,15352
17,90597,13253
17,91008,11777
17,91420,11389
17,91833,10053
17,92245,8192
17,92657,6826
17,93070,6516
17,93482,5556
17,93893,4779
17,94307,5199
17,94718,4045
17,95130,3999
17,95543,3787
17,95955,3499
17,96367,3604
17,96780,4114
17,97192,3779
17,97603,3604
17,98017,3350
17,98428,2616
17,98840,2607
17,99253,2583
17,99665,2528
18,00077,2178
18,00488,2417
18,00902,1811
18,01313,2516
18,01725,2998
18,02138,1654
18,02550,2108
18,02962,1776
18,03375,2183
18,03787,2032
18,04198,1629
18,04612,1261
18,05023,1809
18,05435,2190
18,05848,1667
18,06260,1371
18,06672,2454
18,07085,1770
18,07497,1304
18,07908,1377
18,08322,1677
18,08733,1581
18,09145,1396
18,09557,2273
18,09970,2457
18,10382,4167
18,10793,6121
18,11207,13256
18,11618,25474
18,12030,44745
18,12443,80044
18,12855,130682
18,13267,199808
18,13680,298629
18,14092,412913
18,14503,582095
18,14917,761945
18,15328,960673
18,15740,1166302
18,16153,1338290
18,16565,1474580
18,16977,1563267
18,17390,1605935
18,17802,1540539
18,18213,1405902
18,18625,1233543
18,19038,1024876
18,19450,839187
18,19862,664151
18,20275,511773
18,20687,399771
18,21098,316121
18,21512,249891
18,21923,196996
18,22335,166020
18,22748,137559
18,23160,115976
18,23572,96916
18,23985,87445
18,24397,74572
18,24808,66157
18,25222,57149
18,25633,51610
18,26045,47279
18,26458,43037
18,26870,39557
18,27282,33867
18,27693,33329
18,28107,29354
18,28518,27440
18,28930,26516
18,29343,24773
18,29755,23917
18,30167,21464
18,30580,18917
18,30992,16900
18,31403,16975
18,31817,16415
18,32228,14511
18,32640,13539
18,33053,11355
18,33465,12547
18,33877,11506
18,34290,10207
18,34702,11157
18,35113,9744
18,35527,9137
18,35938,8327
18,36350,8590
18,36762,8490
18,37175,7877
18,37587,7064
18,37998,7700
18,38412,6160
18,38823,6355
18,39235,7442
18,39648,6376
18,40060,6383
18,40472,5698
18,40885,5915
18,41297,5711
18,41708,5209
18,42122,4982
18,42533,4854
18,42945,5720
18,43358,5081
18,43770,5012
18,44182,4513
18,44595,4060
18,45007,4290
18,45418,3805
18,45830,4008
18,46243,4180
18,46655,5611
18,47067,7948
18,47480,11469
18,47892,19832
18,48303,33039
18,48717,55004
18,49128,92077
18,49540,140080
18,49953,205826
18,50365,286478
18,50777,373005
18,51190,465271
18,51602,570072
18,52013,652786
18,52427,717595
18,52838,754334
18,53250,751985
18,53663,699375
18,54075,639446
18,54487,559753
18,54898,466461
18,55312,390626
18,55723,314713
18,56135,245771
18,56548,202403
18,56960,159523
18,57372,131078
18,57785,104870
18,58197,84563
18,58608,69920
18,59022,62150
18,59433,51121
18,59845,44101
18,60258,37276
18,60670,33578
18,61082,29817
18,61495,26802
18,61907,24313
18,62318,22811
18,62732,21053
18,63143,18921
18,63555,16973
18,63967,17399
18,64380,15175
18,64792,16355
18,65203,16873
18,65617,20943
18,66028,30308
18,66440,49312
18,66853,73563
18,67265,116688
18,67677,184740
18,68090,277844
18,68502,398164
18,68913,545217
18,69327,716189
18,69738,899894
18,70150,1111243
18,70563,1291282
18,70975,1416603
18,71387,1492784
18,71800,1489242
18,72212,1431667
18,72623,1290541
18,73035,1135675
18,73448,938814
18,73860,760070
18,74272,605112
18,74685,484304
18,75097,383447
18,75508,303574
18,75922,238397
18,76333,195929
18,76745,161065
18,77158,136571
18,77570,114965
18,77982,98918
18,78395,85071
18,78807,76188
18,79218,68746
18,79632,58608
18,80043,55283
18,80455,50317
18,80868,43360
18,81280,41208
18,81692,36373
18,82103,34566
18,82517,32257
18,82928,30589
18,83340,28594
18,83753,25962
18,84165,23500
18,84577,21908
18,84990,20545
18,85402,19908
18,85813,18128
18,86227,18379
18,86638,17437
18,87050,15656
18,87463,14773
18,87875,13588
18,88287,12485
18,88700,11514
18,89112,11334
18,89523,10661
18,89937,10706
18,90348,10139
18,90760,10074
18,91173,9277
18,91585,8519
18,91997,7812
18,92408,8678
18,92822,7259
18,93233,6965
18,93645,7718
18,94058,6106
18,94470,6842
18,94882,6113
18,95295,6672
18,95707,7534
18,96118,6650
18,96532,6517
18,96943,5304
18,97355,6163
18,97768,7106
18,98180,7518
18,98592,8648
18,99005,8400
18,99417,9684
18,99828,7136
19,00242,7034
19,00653,7420
19,01065,6275
19,01477,4387
19,01890,4511
19,02302,3569
19,02713,3095
19,03127,3743
19,03538,2795
19,03950,2925
19,04363,3696
19,04775,3666
19,05187,3010
19,05600,3286
19,06012,3153
19,06423,1993
19,06837,2475
19,07248,3042
19,07660,3616
19,08073,4618
19,08485,5995
19,08897,9533
19,09310,16134
19,09722,31408
19,10133,53666
19,10545,85318
19,10958,136051
19,11370,202384
19,11782,285107
19,12195,377015
19,12607,481921
19,13018,565881
19,13432,654642
19,13843,700873
19,14255,714156
19,14668,695298
19,15080,631385
19,15492,561901
19,15905,486568
19,16317,404235
19,16728,323793
19,17142,257947
19,17553,206740
19,17965,162141
19,18378,131523
19,18790,107102
19,19202,88186
19,19613,76190
19,20027,63947
19,20438,57536
19,20850,48116
19,21263,42754
19,21675,36201
19,22087,35695
19,22500,30830
19,22912,28185
19,23323,24332
19,23737,22442
19,24148,21230
19,24560,19647
19,24973,17073
19,25385,16689
19,25797,13752
19,26210,13833
19,26622,13516
19,27033,11431
19,27447,12599
19,27858,9476
19,28270,9006
19,28682,8438
19,29095,8728
19,29507,8020
19,29918,7550
19,30332,6574
19,30743,7487
19,31155,6478
19,31568,6340
19,31980,6115
19,32392,5418
19,32805,5968
19,33217,6711
19,33628,4979
19,34042,6302
19,34453,5377
19,34865,6415
19,35278,6170
19,35690,6848
19,36102,6268
19,36515,6000
19,36927,5780
19,37338,5053
19,37750,5230
19,38163,5156
19,38575,3890
19,38987,3857
19,39400,3216
19,39812,3524
19,40223,4265
19,40637,3170
19,41048,4334
19,41460,5023
19,41873,4921
19,42285,4581
19,42697,3982
19,43110,4048
19,43522,4471
19,43933,4834
19,44347,3977
19,44758,4970
19,45170,5718
19,45583,4931
19,45995,4554
19,46407,4233
19,46818,3481
19,47232,3591
19,47643,3657
19,48055,4055
19,48468,3762
19,48880,3507
19,49292,3472
19,49705,4828
19,50117,7156
19,50528,7214
19,50942,13681
19,51353,22636
19,51765,39185
19,52178,62907
19,52590,103697
19,53002,157682
19,53415,219799
19,53827,294602
19,54238,388437
19,54652,479540
19,55063,555535
19,55475,620680
19,55887,659879
19,56300,662004
19,56712,631129
19,57123,577802
19,57537,512552
19,57948,434898
19,58360,359943
19,58773,291101
19,59185,233382
19,59597,186873
19,60010,149299
19,60422,120227
19,60833,96078
19,61247,80312
19,61658,68040
19,62070,55371
19,62483,49101
19,62895,42895
19,63307,37009
19,63720,32601
19,64132,27991
19,64543,25091
19,64955,22878
19,65368,22109
19,65780,19645
19,66192,18080
19,66605,16456
19,67017,15292
19,67428,15758
19,67842,11828
19,68253,11889
19,68665,11355
19,69078,11655
19,69490,10001
19,69902,10244
19,70315,8692
19,70727,8613
19,71138,8353
19,71552,8856
19,71963,8046
19,72375,8502
19,72788,8766
19,73200,7868
19,73612,8353
19,74023,7405
19,74437,7018
19,74848,7040
19,75260,6990
19,75673,5648
19,76085,6110
19,76497,5276
19,76910,5293
19,77322,6059
19,77733,5318
19,78147,3777
19,78558,4898
19,78970,4750
19,79383,3669
19,79795,4098
19,80207,4282
19,80620,3653
19,81032,4321
19,81443,3410
19,81857,3403
19,82268,4090
19,82680,3535
19,83092,3606
19,83505,3929
19,83917,2357
19,84328,2841
19,84742,3136
19,85153,2898
19,85565,3103
19,85978,2923
19,86390,2847
19,86802,2721
19,87215,2451
19,87627,2610
19,88038,3031
19,88452,2381
19,88863,3538
19,89275,3051
19,89688,3156
19,90100,2543
19,90512,3234
19,90925,3087
19,91337,2361
19,91748,3041
19,92160,2720
19,92573,3037
19,92985,2566
19,93397,2861
19,93810,3038
19,94222,2103
19,94633,2968
19,95047,3133
19,95458,2716
19,95870,2469
19,96283,1972
19,96695,2539
19,97107,3285
19,97520,2741
19,97932,2515
19,98343,2893
19,98757,2793
19,99168,2330
19,99580,2843
19,99993,2886
20,00405,3488
20,00817,2703
20,01228,2527
20,01642,2345
20,02053,2410
20,02465,2148
20,02878,2222
20,03290,2194
20,03702,2076
20,04115,1894
20,04527,2379
20,04938,2208
20,05352,2211
20,05763,1975
20,06175,1376
20,06588,2221
20,07000,1877
20,07412,1970
20,07825,2344
20,08237,2795
20,08648,2129
20,09062,2724
20,09473,2552
20,09885,4168
20,10297,5637
20,10710,11571
20,11122,22043
20,11533,36944
20,11947,62726
20,12358,100402
20,12770,149956
20,13183,215903
20,13595,288338
20,14007,376687
20,14420,461677
20,14832,528227
20,15243,575811
20,15657,594430
20,16068,596023
20,16480,562176
20,16893,504055
20,17305,445874
20,17717,380015
20,18130,331889
20,18542,294003
20,18953,275764
20,19365,280607
20,19778,309256
20,20190,364513
20,20602,453314
20,21015,579226
20,21427,720459
20,21838,899089
20,22252,1102819
20,22663,1286526
20,23075,1508755
20,23488,1661228
20,23900,1783286
20,24312,1798926
20,24725,1756918
20,25137,1605739
20,25548,1393956
20,25962,1174107
20,26373,946980
20,26785,763276
20,27198,597973
20,27610,465015
20,28022,377123
20,28433,303166
20,28847,251980
20,29258,207885
20,29670,179814
20,30083,155718
20,30495,138015
20,30907,122117
20,31320,104625
20,31732,95231
20,32143,87508
20,32557,74568
20,32968,68391
20,33380,61751
20,33793,57767
20,34205,52305
20,34617,48807
20,35030,44412
20,35442,40917
20,35853,38496
20,36267,36011
20,36678,33572
20,37090,32159
20,37502,30093
20,37915,27742
20,38327,26718
20,38738,24989
20,39152,23822
20,39563,22198
20,39975,21248
20,40388,19898
20,40800,20054
20,41212,18385
20,41625,17993
20,42037,15950
20,42448,14540
20,42862,14256
20,43273,15323
20,43685,12955
20,44098,13240
20,44510,13244
20,44922,11769
20,45335,10422
20,45747,10372
20,46158,11047
20,46570,10727
20,46983,10503
20,47395,10064
20,47807,12204
20,48220,12358
20,48632,18914
20,49043,24647
20,49457,41328
20,49868,61792
20,50280,94505
20,50693,140204
20,51105,200430
20,51517,272879
20,51930,345323
20,52342,418305
20,52753,485560
20,53167,537623
20,53578,569048
20,53990,573121
20,54403,555764
20,54815,517603
20,55227,458279
20,55640,388158
20,56052,321041
20,56463,267576
20,56875,211201
20,57288,171190
20,57700,137693
20,58112,112492
20,58525,93081
20,58937,75298
20,59348,62952
20,59762,55813
20,60173,48734
20,60585,41984
20,60998,37991
20,61410,34294
20,61822,29525
20,62235,27316
20,62647,25368
20,63058,24036
20,63472,19890
20,63883,19408
20,64295,18551
20,64708,16720
20,65120,16869
20,65532,15457
20,65943,15950
20,66357,13741
20,66768,13686
20,67180,14642
20,67593,13285
20,68005,13044
20,68417,15016
20,68830,18631
20,69242,24185
20,69653,36571
20,70067,57736
20,70478,84487
20,70890,133006
20,71303,194754
20,71715,273515
20,72127,365876
20,72540,471369
20,72952,584475
20,73363,679782
20,73777,766586
20,74188,807849
20,74600,820260
20,75012,792576
20,75425,743198
20,75837,652371
20,76248,554710
20,76662,465093
20,77073,375197
20,77485,298823
20,77898,242288
20,78310,193886
20,78722,156245
20,79135,130133
20,79547,109059
20,79958,93115
20,80372,75088
20,80783,68072
20,81195,57327
20,81608,54250
20,82020,46321
20,82432,43222
20,82845,39629
20,83257,36829
20,83668,33044
20,84080,30893
20,84493,27729
20,84905,26421
20,85317,24205
20,85730,22060
20,86142,21616
20,86553,21570
20,86967,21136
20,87378,18599
20,87790,16741
20,88203,17443
20,88615,15468
20,89027,14570
20,89440,15128
20,89852,13253
20,90263,11732
20,90677,12934
20,91088,11372
20,91500,10131
20,91913,10410
20,92325,10370
20,92737,9563
20,93148,8881
20,93562,9071
20,93973,7980
20,94385,9063
20,94798,8988
20,95210,8275
20,95622,5992
20,96035,7408
20,96447,7036
20,96858,7822
20,97272,7017
20,97683,7851
20,98095,7040
20,98508,5651
20,98920,5235
20,99332,7230
20,99745,6676
21,00157,6025
21,00568,7014
21,00982,7450
21,01393,7339
21,01805,6312
21,02217,6469
21,02630,6912
21,03042,4274
21,03453,5613
21,03867,5438
21,04278,5450
21,04690,5354
21,05103,4553
21,05515,4326
21,05927,5403
21,06340,4291
21,06752,5480
21,07163,4387
21,07577,5717
21,07988,5381
21,08400,4293
21,08813,3941
21,09225,4726
21,09637,4935
21,10050,4505
21,10462,5053
21,10873,5892
21,11285,6103
21,11698,7567
21,12110,7858
21,12522,7640
21,12935,7397
21,13347,8186
21,13758,6980
21,14172,7714
21,14583,8308
21,14995,12356
21,15408,19946
21,15820,33094
21,16232,52819
21,16645,87242
21,17057,137761
21,17468,206223
21,17882,292392
21,18293,395002
21,18705,522136
21,19118,649200
21,19530,767591
21,19942,877857
21,20353,940024
21,20767,945208
21,21178,921100
21,21590,847492
21,22003,734082
21,22415,614597
21,22827,508246
21,23240,401237
21,23652,318217
21,24063,255861
21,24477,201979
21,24888,168213
21,25300,136948
21,25713,114764
21,26125,95984
21,26537,86047
21,26950,73415
21,27362,62977
21,27773,58901
21,28187,50675
21,28598,45808
21,29010,41204
21,29422,39088
21,29835,36013
21,30247,31402
21,30658,32105
21,31072,29473
21,31483,26577
21,31895,24559
21,32308,25361
21,32720,22983
21,33132,23719
21,33545,21125
21,33957,21251
21,34368,19405
21,34782,19327
21,35193,17604
21,35605,17040
21,36018,17081
21,36430,14858
21,36842,13678
21,37255,13995
21,37667,12072
21,38078,12617
21,38490,11076
21,38903,12483
21,39315,11518
21,39727,12050
21,40140,11056
21,40552,9880
21,40963,9609
21,41377,9054
21,41788,9440
21,42200,8922
21,42613,8345
21,43025,8828
21,43437,8245
21,43850,7853
21,44262,8042
21,44673,7815
21,45087,7683
21,45498,7050
21,45910,7997
21,46323,7206
21,46735,7367
21,47147,5553
21,47558,7024
21,47972,6042
21,48383,6840
21,48795,7319
21,49208,9152
21,49620,12165
21,50032,17330
21,50445,30565
21,50857,46900
21,51268,77077
21,51682,120647
21,52093,178519
21,52505,253518
21,52918,347101
21,53330,451600
21,53742,545831
21,54155,632019
21,54567,692168
21,54978,718519
21,55392,719281
21,55803,684871
21,56215,625020
21,56627,547063
21,57040,464062
21,57452,386884
21,57863,310169
21,58277,251049
21,58688,205581
21,59100,166410
21,59513,136330
21,59925,107564
21,60337,91479
21,60750,77760
21,61162,67438
21,61573,59253
21,61987,52170
21,62398,47637
21,62810,40867
21,63223,38402
21,63635,33379
21,64047,31555
21,64460,29766
21,64872,26902
21,65283,25970
21,65695,23251
21,66108,19862
21,66520,21821
21,66932,19287
21,67345,16440
21,67757,17389
21,68168,16215
21,68582,15844
21,68993,14815
21,69405,12753
21,69818,13016
21,70230,12190
21,70642,12594
21,71055,11644
21,71467,12142
21,71878,12264
21,72292,10728
21,72703,10713
21,73115,11102
21,73528,9188
21,73940,8379
21,74352,8535
21,74763,9038
21,75177,9064
21,75588,8381
21,76000,7430
21,76413,8310
21,76825,7887
21,77237,7844
21,77650,7522
21,78062,8265
21,78473,7076
21,78887,7374
21,79298,7387
21,79710,6054
21,80123,6483
21,80535,6203
21,80947,4868
21,81360,6822
21,81772,4986
21,82183,5993
21,82597,5869
21,83008,5977
21,83420,5197
21,83832,5229
21,84245,6732
21,84657,5384
21,85068,6113
21,85482,6177
21,85893,5268
21,86305,5347
21,86718,5937
21,87130,5322
21,87542,4259
21,87955,5077
21,88367,6070
21,88778,5907
21,89192,5719
21,89603,6662
21,90015,5699
21,90428,5178
21,90840,5701
21,91252,5910
21,91665,6676
21,92077,6020
21,92488,7502
21,92900,6060
21,93313,6149
21,93725,6031
21,94137,6603
21,94550,6049
21,94962,4962
21,95373,5530
21,95787,5702
21,96198,5183
21,96610,4877
21,97023,4933
21,97435,5063
21,97847,5453
21,98260,5894
21,98672,4436
21,99083,4339
21,99497,5213
21,99908,4450
22,00320,4463
22,00733,4540
22,01145,5640
22,01557,4937
22,01968,3959
22,02382,3973
22,02793,4021
22,03205,3757
22,03618,4341
22,04030,4729
22,04442,4291
22,04855,5562
22,05267,6828
22,05678,9537
22,06092,14941
22,06503,21836
22,06915,37083
22,07328,61399
22,07740,96486
22,08152,142604
22,08565,211557
22,08977,294113
22,09388,383292
22,09802,480377
22,10213,589014
22,10625,676899
22,11037,747375
22,11450,815017
22,11862,863596
22,12273,896838
22,12687,941481
22,13098,978993
22,13510,1076346
22,13923,1161498
22,14335,1279553
22,14747,1433062
22,15160,1589166
22,15572,1731590
22,15983,1891117
22,16397,1967020
22,16808,1993427
22,17220,1875293
22,17633,1708506
22,18045,1455128
22,18457,1205234
22,18870,960841
22,19282,750803
22,19693,593573
22,20107,474477
22,20518,387694
22,20930,316524
22,21342,267351
22,21755,227205
22,22167,198058
22,22578,175472
22,22992,158128
22,23403,138081
22,23815,124651
22,24228,113824
22,24640,104355
22,25052,93854
22,25465,88876
22,25877,80252
22,26288,75001
22,26702,69470
22,27113,66864
22,27525,63167
22,27938,58800
22,28350,54363
22,28762,50414
22,29175,49737
22,29587,44666
22,29998,43548
22,30410,42382
22,30823,39870
22,31235,38550
22,31647,34564
22,32060,34406
22,32472,31477
22,32883,32432
22,33297,30346
22,33708,26155
22,34120,26048
22,34533,26353
22,34945,24213
22,35357,24418
22,35770,23755
22,36182,22923
22,36593,22633
22,37007,19800
22,37418,21400
22,37830,21365
22,38243,18289
22,38655,19547
22,39067,18191
22,39478,17961
22,39892,17543
22,40303,21114
22,40715,20297
22,41128,22736
22,41540,27692
22,41952,38196
22,42365,53904
22,42777,77751
22,43188,113623
22,43602,166153
22,44013,233724
22,44425,315648
22,44838,411012
22,45250,502983
22,45662,582696
22,46075,639025
22,46487,677047
22,46898,688555
22,47312,653593
22,47723,608184
22,48135,549217
22,48547,480196
22,48960,430669
22,49372,403834
22,49783,387527
22,50197,403784
22,50608,435768
22,51020,481011
22,51433,547691
22,51845,584771
22,52257,638522
22,52670,656631
22,53082,655238
22,53493,622487
22,53907,566232
22,54318,505915
22,54730,441395
22,55143,368675
22,55555,304250
22,55967,253493
22,56380,208628
22,56792,172861
22,57203,145309
22,57615,125277
22,58028,115211
22,58440,109603
22,58852,109246
22,59265,120898
22,59677,148727
22,60088,187017
22,60502,245192
22,60913,321957
22,61325,417663
22,61738,526295
22,62150,638970
22,62562,752349
22,62975,843766
22,63387,894091
22,63798,911929
22,64212,887928
22,64623,821072
22,65035,737888
22,65448,627760
22,65860,526892
22,66272,429438
22,66683,354949
22,67097,295952
22,67508,239541
22,67920,197534
22,68333,170080
22,68745,144801
22,69157,125674
22,69570,107825
22,69982,97669
22,70393,87709
22,70807,81016
22,71218,71567
22,71630,67173
22,72043,62734
22,72455,60664
22,72867,55475
22,73280,50092
22,73692,44407
22,74103,44782
22,74517,43430
22,74928,38984
22,75340,35546
22,75752,34248
22,76165,32640
22,76577,30041
22,76988,29538
22,77402,28479
22,77813,27197
22,78225,25049
22,78638,24162
22,79050,23372
22,79462,23753
22,79875,21889
22,80287,21100
22,80698,21186
22,81112,20719
22,81523,20003
22,81935,18091
22,82348,19015
22,82760,18829
22,83172,17683
22,83585,18141
22,83997,17632
22,84408,17427
22,84820,17088
22,85233,16253
22,85645,17652
22,86057,16227
22,86470,16886
22,86882,16340
22,87293,13253
22,87707,13858
22,88118,12638
22,88530,15174
22,88943,13310
22,89355,13232
22,89767,13381
22,90180,12403
22,90592,12615
22,91003,11959
22,91417,11239
22,91828,11494
22,92240,12286
22,92653,11760
22,93065,11296
22,93477,11280
22,93888,10851
22,94302,10064
22,94713,9802
22,95125,9720
22,95538,10469
22,95950,10864
22,96362,9938
22,96775,10645
22,97187,8842
22,97598,9116
22,98012,10134
22,98423,11352
22,98835,12387
22,99248,13657
22,99660,15743
23,00072,25102
23,00485,38089
23,00897,55619
23,01308,90854
23,01722,139671
23,02133,201150
23,02545,277470
23,02957,376823
23,03370,484862
23,03782,606242
23,04193,717658
23,04607,843874
23,05018,920700
23,05430,963993
23,05843,979043
23,06255,934923
23,06667,839256
23,07080,732056
23,07492,614805
23,07903,497432
23,08317,404558
23,08728,330562
23,09140,266895
23,09553,218215
23,09965,184186
23,10377,154506
23,10790,136848
23,11202,117997
23,11613,103744
23,12025,93928
23,12438,83812
23,12850,77021
23,13262,72826
23,13675,67656
23,14087,65160
23,14498,61967
23,14912,56842
23,15323,57805
23,15735,52468
23,16148,47534
23,16560,46063
23,16972,42793
23,17385,41811
23,17797,41234
23,18208,37479
23,18622,37796
23,19033,35669
23,19445,36260
23,19858,34695
23,20270,31761
23,20682,30311
23,21093,27769
23,21507,27530
23,21918,25659
23,22330,23420
23,22743,23511
23,23155,22945
23,23567,19476
23,23980,22224
23,24392,19762
23,24803,18629
23,25217,19835
23,25628,19672
23,26040,16807
23,26453,16362
23,26865,18105
23,27277,17206
23,27690,16774
23,28102,16411
23,28513,15784
23,28927,15772
23,29338,14200
23,29750,15300
23,30162,13404
23,30575,16154
23,30987,12511
23,31398,13452
23,31812,13387
23,32223,12006
23,32635,12769
23,33048,13640
23,33460,15628
23,33872,16056
23,34285,23776
23,34697,31694
23,35108,46491
23,35522,72458
23,35933,105777
23,36345,158636
23,36758,234456
23,37170,320213
23,37582,413179
23,37995,516218
23,38407,618129
23,38818,708478
23,39230,764043
23,39643,786092
23,40055,772857
23,40467,727165
23,40880,656772
23,41292,571835
23,41703,502249
23,42117,432710
23,42528,387849
23,42940,358387
23,43353,355939
23,43765,378002
23,44177,413328
23,44590,472378
23,45002,517542
23,45413,569871
23,45827,598059
23,46238,611165
23,46650,597334
23,47063,571458
23,47475,518786
23,47887,460967
23,48298,398001
23,48712,342146
23,49123,284390
23,49535,234820
23,49948,197202
23,50360,161141
23,50772,142231
23,51185,118811
23,51597,104458
23,52008,89874
23,52422,83161
23,52833,72651
23,53245,67177
23,53658,62452
23,54070,54400
23,54482,51811
23,54895,48471
23,55307,45911
23,55718,42407
23,56132,39537
23,56543,38249
23,56955,37659
23,57367,33513
23,57780,33328
23,58192,31891
23,58603,29836
23,59017,29525
23,59428,27391
23,59840,27331
23,60253,26228
23,60665,23512
23,61077,24582
23,61490,23032
23,61902,21951
23,62313,21291
23,62727,22526
23,63138,19983
23,63550,20206
23,63963,20560
23,64375,18549
23,64787,18734
23,65200,18648
23,65612,18159
23,66023,16993
23,66435,16907
23,66848,17022
23,67260,16615
23,67672,16238
23,68085,15112
23,68497,15934
23,68908,14914
23,69322,14535
23,69733,15151
23,70145,15871
23,70558,16081
23,70970,14812
23,71382,14157
23,71795,14213
23,72207,14103
23,72618,14955
23,73032,13979
23,73443,13198
23,73855,13821
23,74268,12998
23,74680,12981
23,75092,11815
23,75503,11784
23,75917,12159
23,76328,12470
23,76740,11044
23,77153,12436
23,77565,12087
23,77977,12203
23,78390,11426
23,78802,10915
23,79213,10892
23,79627,12639
23,80038,10814
23,80450,12031
23,80863,11446
23,81275,11864
23,81687,11794
23,82100,11464
23,82512,12023
23,82923,12010
23,83337,11521
23,83748,10551
23,84160,11862
23,84573,10870
23,84985,11602
23,85397,9527
23,85808,10559
23,86222,10758
23,86633,13058
23,87045,14667
23,87458,16474
23,87870,20102
23,88282,29853
23,88695,43786
23,89107,64270
23,89518,100408
23,89932,146467
23,90343,204513
23,90755,284216
23,91168,384930
23,91580,497033
23,91992,633481
23,92405,788323
23,92817,969187
23,93228,1137852
23,93642,1334119
23,94053,1507847
23,94465,1672536
23,94877,1807895
23,95290,1896623
23,95702,1869900
23,96113,1753800
23,96527,1540535
23,96938,1300487
23,97350,1057930
23,97763,848338
23,98175,675404
23,98587,542065
23,99000,440443
23,99412,367737
23,99823,307539
24,00237,263462
24,00648,232134
24,01060,202687
24,01473,176880
24,01885,166578
24,02297,146383
24,02710,135034
24,03122,126550
24,03533,113856
24,03945,107588
24,04358,98671
24,04770,96666
24,05182,86861
24,05595,81679
24,06007,77430
24,06418,74901
24,06832,69320
24,07243,64034
24,07655,63256
24,08068,59882
24,08480,56337
24,08892,54554
24,09305,49673
24,09717,49951
24,10128,50448
24,10542,46905
24,10953,44548
24,11365,42520
24,11778,41784
24,12190,40171
24,12602,38893
24,13013,37702
24,13427,36599
24,13838,35665
24,14250,34609
24,14663,33652
24,15075,32289
24,15487,33016
24,15900,30947
24,16312,29550
24,16723,29054
24,17137,28727
24,17548,27868
24,17960,27560
24,18373,26755
24,18785,25197
24,19197,27866
24,19610,24693
24,20022,26093
24,20433,26192
24,20847,24027
24,21258,23813
24,21670,23083
24,22082,25430
24,22495,24738
24,22907,24402
24,23318,22378
24,23732,22869
24,24143,22545
24,24555,24487
24,24968,21180
24,25380,21367
24,25792,20871
24,26205,20064
24,26617,19653
24,27028,20548
24,27442,19670
24,27853,18686
24,28265,18476
24,28678,16909
24,29090,16474
24,29502,19414
24,29915,17735
24,30327,16755
24,30738,16222
24,31150,17825
24,31563,16583
24,31975,15661
24,32387,16840
24,32800,17730
24,33212,16100
24,33623,20020
24,34037,21620
24,34448,27163
24,34860,38734
24,35273,54828
24,35685,83249
24,36097,124282
24,36510,177650
24,36922,246663
24,37333,340357
24,37747,443136
24,38158,555866
24,38570,672150
24,38983,773677
24,39395,875148
24,39807,923155
24,40218,941304
24,40632,911717
24,41043,825298
24,41455,729360
24,41868,616979
24,42280,517035
24,42692,428896
24,43105,351998
24,43517,287932
24,43928,241860
24,44342,202523
24,44753,177203
24,45165,154551
24,45578,135589
24,45990,123991
24,46402,108474
24,46815,100290
24,47227,90854
24,47638,84784
24,48052,78178
24,48463,72815
24,48875,66850
24,49287,62422
24,49700,59579
24,50112,53605
24,50523,55297
24,50937,50425
24,51348,48826
24,51760,45909
24,52173,45112
24,52585,40811
24,52997,40918
24,53410,39632
24,53822,37422
24,54233,36874
24,54647,34216
24,55058,33304
24,55470,33776
24,55883,31856
24,56295,29542
24,56707,27625
24,57120,28764
24,57532,27234
24,57943,26933
24,58355,26325
24,58768,23996
24,59180,24821
24,59592,24019
24,60005,24479
24,60417,24849
24,60828,22088
24,61242,23599
24,61653,21639
24,62065,21616
24,62478,22064
24,62890,20036
24,63302,22116
24,63715,21207
24,64127,20114
24,64538,18439
24,64952,19506
24,65363,19513
24,65775,19396
24,66188,19958
24,66600,19432
24,67012,19401
24,67423,20345
24,67837,20521
24,68248,20893
24,68660,23263
24,69073,21764
24,69485,24651
24,69897,21812
24,70310,21074
24,70722,20818
24,71133,22564
24,71547,21101
24,71958,20366
24,72370,19955
24,72783,20499
24,73195,20838
24,73607,20009
24,74020,18551
24,74432,19745
24,74843,19530
24,75257,18908
24,75668,19734
24,76080,18713
24,76492,17496
24,76905,17631
24,77317,18156
24,77728,17425
24,78142,16822
24,78553,15748
24,78965,15656
24,79378,16484
24,79790,14858
24,80202,15124
24,80615,15206
24,81027,15377
24,81438,15851
24,81852,15473
24,82263,15811
24,82675,14019
24,83088,14099
24,83500,16446
24,83912,15473
24,84325,15258
24,84737,15007
24,85148,15921
24,85560,14534
24,85973,15846
24,86385,16140
24,86797,16021
24,87210,17238
24,87622,15484
24,88033,16935
24,88447,15173
24,88858,15727
24,89270,15635
24,89683,13355
24,90095,14326
24,90507,13912
24,90920,13745
24,91332,13967
24,91743,15831
24,92157,16997
24,92568,14509
24,92980,12912
24,93393,14286
24,93805,15691
24,94217,15165
24,94628,15287
24,95042,15014
24,95453,15793
24,95865,16024
24,96278,16770
24,96690,15591
24,97102,17754
24,97515,17206
24,97927,15520
24,98338,16393
24,98752,16225
24,99163,16918
24,99575,16119
24,99988,15118
25,00400,13452
25,00812,14133
25,01225,14500
25,01637,14580
25,02048,12980
25,02462,14279
25,02873,13569
25,03285,15506
25,03697,15475
25,04110,14954
25,04522,16016
25,04933,19032
25,05347,19038
25,05758,17938
25,06170,19578
25,06583,18427
25,06995,15618
25,07407,16869
25,07820,16048
25,08232,14930
25,08643,16539
25,09057,15002
25,09468,16076
25,09880,14938
25,10293,14766
25,10705,14758
25,11117,14441
25,11530,14493
25,11942,14104
25,12353,16061
25,12765,15083
25,13178,14735
25,13590,14403
25,14002,13985
25,14415,15220
25,14827,15801
25,15238,12796
25,15652,14555
25,16063,13694
25,16475,13599
25,16888,14512
25,17300,14012
25,17712,13293
25,18125,14206
25,18537,13927
25,18948,15298
25,19362,14740
25,19773,13584
25,20185,16235
25,20598,16840
25,21010,16622
25,21422,17263
25,21833,16040
25,22247,16364
25,22658,16853
25,23070,16217
25,23483,16208
25,23895,15281
25,24307,14284
25,24720,14579
25,25132,15869
25,25543,14620
25,25957,13920
25,26368,13531
25,26780,14496
25,27193,13950
25,27605,13187
25,28017,15408
25,28430,13827
25,28842,14989
25,29253,12074
25,29667,14664
25,30078,14726
25,30490,13788
25,30902,14060
25,31315,14873
25,31727,12794
25,32138,13782
25,32552,14291
25,32963,13535
25,33375,12501
25,33788,13464
25,34200,11747
25,34612,11899
25,35025,10743
25,35437,13946
25,35848,12933
25,36262,12667
25,36673,12493
25,37085,11722
25,37498,13512
25,37910,13337
25,38322,13293
25,38735,14460
25,39147,14278
25,39558,14151
25,39972,13728
25,40383,13273
25,40795,12569
25,41207,12994
25,41620,13390
25,42032,13877
25,42443,13791
25,42857,12294
25,43268,12299
25,43680,13910
25,44093,13356
25,44505,13794
25,44917,12113
25,45330,13171
25,45742,13097
25,46153,14500
25,46567,12615
25,46978,13099
25,47390,13088
25,47803,11667
25,48215,13781
25,48627,13984
25,49040,13994
25,49452,14404
25,49863,14436
25,50275,14139
25,50688,12622
25,51100,12685
25,51512,12399
25,51925,12169
25,52337,12854
25,52748,12489
25,53162,12507
25,53573,13153
25,53985,13175
25,54398,13996
25,54810,12582
25,55222,13278
25,55635,13700
25,56047,13172
25,56458,13127
25,56872,13534
25,57283,13727
25,57695,15081
25,58108,13011
25,58520,14948
25,58932,15328
25,59343,14507
25,59757,15809
25,60168,16410
25,60580,19165
25,60993,20874
25,61405,28796
25,61817,42375
25,62230,58723
25,62642,85612
25,63053,119632
25,63467,164877
25,63878,216390
25,64290,279855
25,64703,341043
25,65115,400836
25,65527,443985
25,65940,486758
25,66352,500599
25,66763,503713
25,67177,468797
25,67588,436243
25,68000,391525
25,68412,338752
25,68825,290980
25,69237,251354
25,69648,213776
25,70062,180703
25,70473,150258
25,70885,130022
25,71298,109863
25,71710,96493
25,72122,85225
25,72535,76655
25,72947,72097
25,73358,64919
25,73772,58822
25,74183,53368
25,74595,48284
25,75008,45910
25,75420,43717
25,75832,39912
25,76245,39959
25,76657,35866
25,77068,33303
25,77480,33219
25,77893,33953
25,78305,32288
25,78717,29320
25,79130,28620
25,79542,29864
25,79953,28580
25,80367,28342
25,80778,25664
25,81190,26081
25,81603,25369
25,82015,24433
25,82427,23524
25,82840,24694
25,83252,23868
25,83663,23928
25,84077,22678
25,84488,21202
25,84900,21042
25,85313,19527
25,85725,21308
25,86137,21013
25,86548,18786
25,86962,18504
25,87373,19260
25,87785,20295
25,88198,19958
25,88610,19392
25,89022,18121
25,89435,19486
25,89847,19074
25,90258,17587
25,90672,18361
25,91083,18126
25,91495,17169
25,91908,18348
25,92320,19247
25,92732,17546
25,93145,18580
25,93557,16434
25,93968,17383
25,94382,16954
25,94793,17256
25,95205,17440
25,95617,16077
25,96030,15968
25,96442,17049
25,96853,15818
25,97267,16020
25,97678,14860
25,98090,14766
25,98503,15513
25,98915,15457
25,99327,14880
