D:\MassHunter\GCMS\1\data\Amal\Constant flow\150C_1ml-min_3C-min_1.D Fri Jul 26 13:07:47 2024
Start of data points
4,84130,1901713
4,84575,1799986
4,85018,1691438
4,85463,1606414
4,85907,1522257
4,86352,1434840
4,86795,1349491
4,87240,1284667
4,87683,1211169
4,88128,1150546
4,88572,1082634
4,89017,1025735
4,89460,980375
4,89905,927502
4,90348,876372
4,90793,834943
4,91237,792844
4,91682,744675
4,92125,708983
4,92570,673688
4,93013,636463
4,93458,604811
4,93902,582546
4,94347,546402
4,94790,520469
4,95235,492337
4,95678,469121
4,96123,449734
4,96568,427439
4,97012,405961
4,97457,389692
4,97900,370218
4,98345,353052
4,98788,338262
4,99233,321226
4,99677,308856
5,00122,292220
5,00565,281995
5,01010,268410
5,01453,254500
5,01898,244947
5,02342,235058
5,02787,225530
5,03230,214129
5,03675,210537
5,04118,201524
5,04563,195281
5,05007,182719
5,05452,179273
5,05895,169011
5,06340,166643
5,06783,160246
5,07228,154829
5,07672,147141
5,08117,141912
5,08562,138556
5,09005,133381
5,09450,131088
5,09893,125237
5,10338,119288
5,10782,117597
5,11227,116131
5,11670,112452
5,12115,107638
5,12558,106580
5,13003,101890
5,13447,99195
5,13892,98829
5,14335,95073
5,14780,95632
5,15223,93005
5,15668,89323
5,16112,90296
5,16557,85625
5,17000,85383
5,17445,81703
5,17888,81475
5,18333,77881
5,18777,78626
5,19222,77438
5,19665,76339
5,20110,75161
5,20555,72057
5,20998,73803
5,21443,71261
5,21887,69332
5,22332,70215
5,22775,67018
5,23220,66727
5,23663,67085
5,24108,66433
5,24552,64900
5,24997,63371
5,25440,62695
5,25885,62090
5,26328,62507
5,26773,63269
5,27217,61984
5,27662,61643
5,28105,60465
5,28550,59869
5,28993,58605
5,29438,58770
5,29882,57389
5,30327,58621
5,30770,56905
5,31215,54933
5,31658,55293
5,32103,55324
5,32548,56803
5,32992,55451
5,33437,55524
5,33880,54461
5,34325,55493
5,34768,55544
5,35213,54372
5,35657,53808
5,36102,52833
5,36545,51837
5,36990,53149
5,37433,54679
5,37878,51747
5,38322,53226
5,38767,51126
5,39210,53199
5,39655,51052
5,40098,50464
5,40543,49420
5,40987,51181
5,41432,49451
5,41875,50939
5,42320,48927
5,42763,50306
5,43208,49499
5,43652,48817
5,44097,50270
5,44542,53293
5,44985,61136
5,45430,78351
5,45873,105283
5,46318,152222
5,46762,213933
5,47207,274202
5,47650,314987
5,48095,358114
5,48538,370804
5,48983,381425
5,49427,377119
5,49872,379822
5,50315,366371
5,50760,356677
5,51203,352313
5,51648,336894
5,52092,327187
5,52537,315055
5,52980,305672
5,53425,295010
5,53868,286204
5,54313,279165
5,54757,271527
5,55202,259336
5,55645,253287
5,56090,242196
5,56533,231980
5,56978,223649
5,57423,215428
5,57867,206824
5,58312,198007
5,58755,189282
5,59200,184589
5,59643,175468
5,60088,172047
5,60532,165301
5,60977,155636
5,61420,149543
5,61865,143738
5,62308,138212
5,62753,132538
5,63197,128407
5,63642,122376
5,64085,119229
5,64530,114873
5,64973,110724
5,65418,103890
5,65862,105094
5,66307,97877
5,66750,94285
5,67195,92359
5,67638,88891
5,68083,83908
5,68527,77896
5,68972,77121
5,69417,72653
5,69860,70580
5,70305,67939
5,70748,62625
5,71193,62399
5,71637,59875
5,72082,59468
5,72525,54902
5,72970,55112
5,73413,52806
5,73858,51014
5,74302,50092
5,74747,48319
5,75190,47426
5,75635,46586
5,76078,44406
5,76523,45245
5,76967,43203
5,77412,43149
5,77855,42123
5,78300,40612
5,78743,41936
5,79188,38602
5,79632,37462
5,80077,38429
5,80520,39858
5,80965,39375
5,81410,37287
5,81853,38678
5,82298,37440
5,82742,37057
5,83187,35908
5,83630,37425
5,84075,36752
5,84518,36936
5,84963,36173
5,85407,36750
5,85852,37175
5,86295,36580
5,86740,37033
5,87183,35316
5,87628,35487
5,88072,36397
5,88517,35869
5,88960,35686
5,89405,35715
5,89848,35067
5,90293,35640
5,90737,34018
5,91182,36682
5,91625,33964
5,92070,35135
5,92513,35167
5,92958,36801
5,93403,43846
5,93847,51089
5,94292,68477
5,94735,89719
5,95180,116817
5,95623,149899
5,96068,181505
5,96512,201697
5,96957,218930
5,97400,232434
5,97845,237152
5,98288,236521
5,98733,226310
5,99177,229115
5,99622,222429
6,00065,210092
6,00510,207177
6,00953,201639
6,01398,201456
6,01842,195573
6,02287,183250
6,02730,179033
6,03175,169462
6,03618,167491
6,04063,162970
6,04507,155137
6,04952,151530
6,05397,142338
6,05840,138618
6,06285,131935
6,06728,130008
6,07173,124051
6,07617,117028
6,08062,109604
6,08505,108803
6,08950,104928
6,09393,99676
6,09838,97928
6,10282,89880
6,10727,88968
6,11170,83757
6,11615,82758
6,12058,78122
6,12503,74882
6,12947,71809
6,13392,70869
6,13835,67437
6,14280,64388
6,14723,62798
6,15168,59370
6,15612,57291
6,16057,54877
6,16500,53352
6,16945,49841
6,17390,47298
6,17833,46999
6,18278,45529
6,18722,44420
6,19167,40125
6,19610,38472
6,20055,39726
6,20498,35875
6,20943,36069
6,21387,33770
6,21832,33446
6,22275,33552
6,22720,33005
6,23163,33007
6,23608,31970
6,24052,29876
6,24497,30086
6,24940,29626
6,25385,29105
6,25828,26629
6,26273,27914
6,26717,27425
6,27162,27936
6,27605,27779
6,28050,26294
6,28493,25874
6,28938,27455
6,29382,26375
6,29827,26990
6,30272,24857
6,30715,25164
6,31160,24571
6,31603,26364
6,32048,25587
6,32492,25639
6,32937,25120
6,33380,25191
6,33825,25551
6,34268,25599
6,34713,25878
6,35157,23670
6,35602,24744
6,36045,25330
6,36490,25343
6,36933,25167
6,37378,26306
6,37822,25638
6,38267,25042
6,38710,25212
6,39155,23974
6,39598,24217
6,40043,24573
6,40487,23987
6,40932,24089
6,41375,24251
6,41820,25211
6,42265,23705
6,42708,24316
6,43153,25031
6,43597,25462
6,44042,23574
6,44485,24322
6,44930,23559
6,45373,22693
6,45818,23149
6,46262,24808
6,46707,22956
6,47150,24127
6,47595,22881
6,48038,23231
6,48483,22553
6,48927,22275
6,49372,23646
6,49815,23544
6,50260,22599
6,50703,23581
6,51148,22860
6,51592,23785
6,52037,22614
6,52480,22883
6,52925,21794
6,53368,24348
6,53813,22675
6,54258,23469
6,54702,24883
6,55147,29095
6,55590,36750
6,56035,48824
6,56478,74028
6,56923,108165
6,57367,160343
6,57812,217657
6,58255,283871
6,58700,343354
6,59143,402164
6,59588,434358
6,60032,462022
6,60477,474481
6,60920,480332
6,61365,486967
6,61808,467722
6,62253,462959
6,62697,452828
6,63142,441743
6,63585,423720
6,64030,409340
6,64473,396881
6,64918,379941
6,65362,368323
6,65807,360606
6,66252,340439
6,66695,328106
6,67140,311782
6,67583,296212
6,68028,280919
6,68472,266291
6,68917,255586
6,69360,244255
6,69805,232374
6,70248,218079
6,70693,210109
6,71137,194863
6,71582,185497
6,72025,176314
6,72470,165457
6,72913,154625
6,73358,149789
6,73802,140555
6,74247,133316
6,74690,127764
6,75135,119346
6,75578,111734
6,76023,102092
6,76467,99105
6,76912,88811
6,77355,85040
6,77800,78958
6,78245,73486
6,78688,67935
6,79133,60868
6,79577,59183
6,80022,54274
6,80465,49716
6,80910,46113
6,81353,43989
6,81798,43173
6,82242,40887
6,82687,37233
6,83130,36435
6,83575,33531
6,84018,32031
6,84463,32098
6,84907,29827
6,85352,28969
6,85795,29615
6,86240,26773
6,86683,25063
6,87128,24817
6,87572,25824
6,88017,25216
6,88460,24508
6,88905,22782
6,89348,21344
6,89793,22107
6,90238,21599
6,90682,22439
6,91127,19801
6,91570,20335
6,92015,20286
6,92458,20118
6,92903,20829
6,93347,19854
6,93792,21037
6,94235,20519
6,94680,19834
6,95123,20189
6,95568,20468
6,96012,19204
6,96457,18585
6,96900,20010
6,97345,18761
6,97788,18027
6,98233,19856
6,98677,19367
6,99122,19699
6,99565,19036
7,00010,18720
7,00453,19415
7,00898,17861
7,01342,18410
7,01787,18401
7,02230,19318
7,02675,18504
7,03120,19023
7,03563,18048
7,04008,17788
7,04452,18274
7,04897,18382
7,05340,18410
7,05785,17683
7,06228,17405
7,06673,18724
7,07117,19136
7,07562,17702
7,08005,17672
7,08450,17705
7,08893,17213
7,09338,17626
7,09782,16798
7,10227,17619
7,10670,17744
7,11115,17990
7,11558,17085
7,12003,16503
7,12447,18497
7,12892,17551
7,13335,17357
7,13780,16927
7,14223,18407
7,14668,17097
7,15113,17152
7,15557,17851
7,16002,16795
7,16445,16979
7,16890,17127
7,17333,17545
7,17778,16326
7,18222,15836
7,18667,16353
7,19110,17517
7,19555,17232
7,19998,16915
7,20443,16520
7,20887,17044
7,21332,17283
7,21775,17408
7,22220,16019
7,22663,15686
7,23108,16857
7,23552,16095
7,23997,15486
7,24440,16718
7,24885,15974
7,25328,16866
7,25773,16792
7,26217,17012
7,26662,16527
7,27107,17391
7,27550,16333
7,27995,17532
7,28438,16183
7,28883,18448
7,29327,16499
7,29772,15732
7,30215,16522
7,30660,16215
7,31103,17003
7,31548,16502
7,31992,16214
7,32437,17972
7,32880,17493
7,33325,17214
7,33768,20440
7,34213,26889
7,34657,32895
7,35102,43510
7,35545,61433
7,35990,84333
7,36433,111318
7,36878,142089
7,37322,174366
7,37767,200909
7,38210,225167
7,38655,249128
7,39100,257085
7,39543,265531
7,39988,273414
7,40432,268241
7,40877,262712
7,41320,261327
7,41765,250114
7,42208,246919
7,42653,234076
7,43097,230493
7,43542,220584
7,43985,215688
7,44430,206405
7,44873,199624
7,45318,191277
7,45762,179895
7,46207,168436
7,46650,165585
7,47095,155029
7,47538,147718
7,47983,137836
7,48427,131654
7,48872,125951
7,49315,116698
7,49760,108957
7,50203,103670
7,50648,97352
7,51093,91689
7,51537,87038
7,51982,81001
7,52425,76321
7,52870,71615
7,53313,67184
7,53758,60531
7,54202,57506
7,54647,54267
7,55090,49958
7,55535,47347
7,55978,42810
7,56423,40615
7,56867,38269
7,57312,35803
7,57755,32124
7,58200,30554
7,58643,30026
7,59088,28108
7,59532,25212
7,59977,25460
7,60420,24563
7,60865,23346
7,61308,21120
7,61753,22157
7,62197,20286
7,62642,19716
7,63087,19280
7,63530,19748
7,63975,16866
7,64418,17243
7,64863,16900
7,65307,16964
7,65752,16584
7,66195,16970
7,66640,17288
7,67083,15999
7,67528,16143
7,67972,15240
7,68417,15950
7,68860,15463
7,69305,14851
7,69748,14984
7,70193,15865
7,70637,15129
7,71082,16177
7,71525,14870
7,71970,14273
7,72413,14914
7,72858,14484
7,73302,14668
7,73747,13723
7,74190,13819
7,74635,14521
7,75078,14319
7,75523,13801
7,75968,13769
7,76412,14493
7,76857,14757
7,77300,14047
7,77745,14825
7,78188,13563
7,78633,14171
7,79077,14572
7,79522,14020
7,79965,13694
7,80410,12790
7,80853,14899
7,81298,15819
7,81742,15207
7,82187,13826
7,82630,14544
7,83075,14651
7,83518,14155
7,83963,15599
7,84407,15143
7,84852,14441
7,85295,14008
7,85740,14583
7,86183,14367
7,86628,14879
7,87072,15892
7,87517,13879
7,87962,14947
7,88405,13949
7,88850,14994
7,89293,15001
7,89738,14385
7,90182,14774
7,90627,14435
7,91070,14855
7,91515,13930
7,91958,14443
7,92403,14465
7,92847,13704
7,93292,13103
7,93735,13931
7,94180,12771
7,94623,13300
7,95068,12577
7,95512,14087
7,95957,13846
7,96400,12888
7,96845,13285
7,97288,13834
7,97733,13386
7,98177,13738
7,98622,12270
7,99065,13214
7,99510,13545
7,99955,13318
8,00398,13692
8,00843,13788
8,01287,12532
8,01732,13928
8,02175,13438
8,02620,13145
8,03063,14653
8,03508,13225
8,03952,12592
8,04397,13259
8,04840,13486
8,05285,13097
8,05728,13816
8,06173,12527
8,06617,13089
8,07062,13067
8,07505,12488
8,07950,13291
8,08393,13289
8,08838,12809
8,09282,12137
8,09727,12638
8,10170,13002
8,10615,12434
8,11058,12153
8,11503,12781
8,11948,12759
8,12392,12775
8,12837,12808
8,13280,12821
8,13725,13097
8,14168,11822
8,14613,13634
8,15057,12993
8,15502,12831
8,15945,12861
8,16390,13752
8,16833,13628
8,17278,12697
8,17722,13040
8,18167,13157
8,18610,13472
8,19055,12312
8,19498,12989
8,19943,12444
8,20387,13734
8,20832,14016
8,21275,12983
8,21720,13646
8,22163,13365
8,22608,13942
8,23052,13805
8,23497,13030
8,23942,12496
8,24385,12755
8,24830,12453
8,25273,13096
8,25718,12635
8,26162,13534
8,26607,12683
8,27050,13018
8,27495,13156
8,27938,13855
8,28383,13648
8,28827,14682
8,29272,17288
8,29715,21536
8,30160,28331
8,30603,41628
8,31048,60328
8,31492,86676
8,31937,128702
8,32380,178819
8,32825,236454
8,33268,299211
8,33713,361778
8,34157,417750
8,34602,475916
8,35045,522573
8,35490,546628
8,35935,573590
8,36378,577965
8,36823,581230
8,37267,583737
8,37712,571947
8,38155,559799
8,38600,551656
8,39043,530887
8,39488,510472
8,39932,492214
8,40377,468561
8,40820,444319
8,41265,418654
8,41708,403201
8,42153,376287
8,42597,359355
8,43042,333245
8,43485,315942
8,43930,294809
8,44373,275313
8,44818,256404
8,45262,234563
8,45707,221999
8,46150,205062
8,46595,191177
8,47038,175183
8,47483,161221
8,47927,149859
8,48372,135167
8,48817,119846
8,49260,112333
8,49705,101456
8,50148,91058
8,50593,83947
8,51037,74493
8,51482,67122
8,51925,63586
8,52370,56424
8,52813,48524
8,53258,47957
8,53702,44508
8,54147,39408
8,54590,35593
8,55035,33573
8,55478,30602
8,55923,29992
8,56367,28893
8,56812,28816
8,57255,25684
8,57700,24694
8,58143,22885
8,58588,20952
8,59032,20656
8,59477,20413
8,59920,21206
8,60365,19549
8,60810,18043
8,61253,19126
8,61698,19524
8,62142,18859
8,62587,17462
8,63030,17248
8,63475,17061
8,63918,16405
8,64363,17419
8,64807,16673
8,65252,16731
8,65695,15695
8,66140,15204
8,66583,15287
8,67028,13923
8,67472,14008
8,67917,13607
8,68360,14277
8,68805,13960
8,69248,14436
8,69693,13109
8,70137,12571
8,70582,14200
8,71025,12766
8,71470,13539
8,71913,12962
8,72358,13197
8,72803,13183
8,73247,13480
8,73692,12396
8,74135,12508
8,74580,11688
8,75023,12447
8,75468,13630
8,75912,12189
8,76357,11955
8,76800,12097
8,77245,11900
8,77688,10763
8,78133,11536
8,78577,12030
8,79022,11350
8,79465,12345
8,79910,11836
8,80353,11347
8,80798,11724
8,81242,10624
8,81687,11570
8,82130,11425
8,82575,12074
8,83018,12088
8,83463,11799
8,83907,12415
8,84352,12725
8,84797,13506
8,85240,13000
8,85685,12869
8,86128,13236
8,86573,12731
8,87017,14174
8,87462,12650
8,87905,12669
8,88350,13403
8,88793,12449
8,89238,11986
8,89682,12778
8,90127,11957
8,90570,12595
8,91015,12599
8,91458,12620
8,91903,12102
8,92347,12126
8,92792,10997
8,93235,11776
8,93680,12857
8,94123,12041
8,94568,11992
8,95012,12008
8,95457,11578
8,95900,11056
8,96345,10753
8,96790,11734
8,97233,11709
8,97678,11322
8,98122,11647
8,98567,11906
8,99010,11351
8,99455,11023
8,99898,11939
9,00343,11123
9,00787,11313
9,01232,10699
9,01675,10509
9,02120,11299
9,02563,10854
9,03008,10775
9,03452,10604
9,03897,10868
9,04340,10548
9,04785,10674
9,05228,10128
9,05673,10335
9,06117,11460
9,06562,10252
9,07005,10970
9,07450,11463
9,07893,10154
9,08338,10225
9,08782,10388
9,09227,10436
9,09672,10186
9,10115,11374
9,10560,10260
9,11003,9766
9,11448,11566
9,11892,11235
9,12337,12565
9,12780,13984
9,13225,16196
9,13668,21503
9,14113,31188
9,14557,43176
9,15002,59113
9,15445,79119
9,15890,99882
9,16333,128312
9,16778,156150
9,17222,180895
9,17667,205473
9,18110,231801
9,18555,252574
9,18998,263714
9,19443,271787
9,19887,274496
9,20332,279350
9,20775,279224
9,21220,267355
9,21665,261385
9,22108,254846
9,22553,248354
9,22997,240043
9,23442,230515
9,23885,221572
9,24330,207257
9,24773,196481
9,25218,187907
9,25662,174974
9,26107,160932
9,26550,152613
9,26995,142571
9,27438,131388
9,27883,125560
9,28327,116270
9,28772,107351
9,29215,96899
9,29660,90590
9,30103,83417
9,30548,76692
9,30992,69418
9,31437,64976
9,31880,58150
9,32325,52152
9,32768,47317
9,33213,42968
9,33658,38949
9,34102,35389
9,34547,33432
9,34990,27912
9,35435,28215
9,35878,25343
9,36323,23307
9,36767,22008
9,37212,19702
9,37655,19986
9,38100,17622
9,38543,17391
9,38988,15742
9,39432,15583
9,39877,14304
9,40320,14492
9,40765,13802
9,41208,12759
9,41653,13286
9,42097,11841
9,42542,12584
9,42985,14461
9,43430,15127
9,43873,19543
9,44318,25919
9,44762,31603
9,45207,43582
9,45652,59800
9,46095,78525
9,46540,104124
9,46983,129115
9,47428,165311
9,47872,195376
9,48317,220751
9,48760,246671
9,49205,271330
9,49648,285149
9,50093,294617
9,50537,303544
9,50982,313223
9,51425,310112
9,51870,304652
9,52313,300566
9,52758,289945
9,53202,289149
9,53647,279980
9,54090,265529
9,54535,251591
9,54978,241283
9,55423,223225
9,55867,209509
9,56312,195156
9,56755,185521
9,57200,171469
9,57645,160735
9,58088,149262
9,58533,136073
9,58977,125687
9,59422,112776
9,59865,107270
9,60310,96843
9,60753,87330
9,61198,80077
9,61642,70300
9,62087,64181
9,62530,58041
9,62975,52252
9,63418,48124
9,63863,44609
9,64307,40915
9,64752,36161
9,65195,31742
9,65640,30363
9,66083,29338
9,66528,25471
9,66972,22742
9,67417,20716
9,67860,19517
9,68305,19494
9,68748,17950
9,69193,17460
9,69638,16078
9,70082,15856
9,70527,14420
9,70970,13711
9,71415,13392
9,71858,13795
9,72303,13077
9,72747,13227
9,73192,12156
9,73635,12310
9,74080,11637
9,74523,13379
9,74968,11678
9,75412,10378
9,75857,10654
9,76300,11350
9,76745,10958
9,77188,11562
9,77633,11511
9,78077,10344
9,78522,10043
9,78965,10538
9,79410,10126
9,79853,9519
9,80298,10327
9,80742,10176
9,81187,9694
9,81630,10519
9,82075,8784
9,82520,9873
9,82963,9682
9,83408,10252
9,83852,10890
9,84297,10271
9,84740,10160
9,85185,9240
9,85628,9288
9,86073,10705
9,86517,9545
9,86962,10075
9,87405,9495
9,87850,9281
9,88293,9061
9,88738,9963
9,89182,10018
9,89627,9588
9,90070,8466
9,90515,10077
9,90958,9002
9,91403,7554
9,91847,8889
9,92292,9990
9,92735,8704
9,93180,8835
9,93623,9567
9,94068,9027
9,94513,8416
9,94957,10011
9,95402,9185
9,95845,9163
9,96290,9550
9,96733,9310
9,97178,8859
9,97622,8736
9,98067,9170
9,98510,9112
9,98955,9450
9,99398,9396
9,99843,9868
10,00287,9562
10,00732,9023
10,01175,8821
10,01620,9731
10,02063,8394
10,02508,9477
10,02952,9185
10,03397,8702
10,03840,8829
10,04285,8151
10,04728,8585
10,05173,8434
10,05617,8752
10,06062,7795
10,06507,8754
10,06950,9005
10,07395,8335
10,07838,8314
10,08283,8441
10,08727,8742
10,09172,8485
10,09615,8905
10,10060,9034
10,10503,8708
10,10948,8546
10,11392,8582
10,11837,8284
10,12280,8258
10,12725,8270
10,13168,8843
10,13613,8291
10,14057,8391
10,14502,8591
10,14945,8398
10,15390,8629
10,15833,9195
10,16278,7927
10,16722,9187
10,17167,8381
10,17610,8569
10,18055,8030
10,18500,7813
10,18943,8272
10,19388,8581
10,19832,8430
10,20277,8576
10,20720,9182
10,21165,8693
10,21608,9334
10,22053,8282
10,22497,8871
10,22942,8643
10,23385,7734
10,23830,8552
10,24273,9252
10,24718,8390
10,25162,8815
10,25607,8689
10,26050,7410
10,26495,9307
10,26938,8819
10,27383,8136
10,27827,8357
10,28272,8328
10,28715,9037
10,29160,8279
10,29603,8149
10,30048,8401
10,30493,7814
10,30937,8826
10,31382,8698
10,31825,8471
10,32270,8605
10,32713,7957
10,33158,8631
10,33602,8043
10,34047,7998
10,34490,8292
10,34935,7775
10,35378,8092
10,35823,8498
10,36267,8278
10,36712,8377
10,37155,7687
10,37600,9594
10,38043,8469
10,38488,9648
10,38932,10355
10,39377,13210
10,39820,16614
10,40265,22371
10,40708,30267
10,41153,43149
10,41597,57062
10,42042,76715
10,42487,101104
10,42930,128521
10,43375,155748
10,43818,184399
10,44263,213416
10,44707,242033
10,45152,263897
10,45595,282863
10,46040,292961
10,46483,302815
10,46928,307280
10,47372,308496
10,47817,302436
10,48260,293020
10,48705,288742
10,49148,275243
10,49593,262425
10,50037,249573
10,50482,238328
10,50925,222356
10,51370,211017
10,51813,194900
10,52258,177790
10,52702,166710
10,53147,156847
10,53590,141625
10,54035,130612
10,54478,121413
10,54923,107988
10,55368,97577
10,55812,90954
10,56257,81838
10,56700,72475
10,57145,64921
10,57588,55874
10,58033,52079
10,58477,48010
10,58922,39847
10,59365,36664
10,59810,33137
10,60253,30869
10,60698,28102
10,61142,26195
10,61587,22925
10,62030,22519
10,62475,20230
10,62918,17154
10,63363,17676
10,63807,17201
10,64252,15260
10,64695,14793
10,65140,13863
10,65583,13762
10,66028,12633
10,66472,13132
10,66917,13181
10,67362,11414
10,67805,10745
10,68250,10332
10,68693,10676
10,69138,10376
10,69582,11400
10,70027,10931
10,70470,10901
10,70915,8223
10,71358,9528
10,71803,10754
10,72247,9645
10,72692,10770
10,73135,12309
10,73580,16382
10,74023,22014
10,74468,30626
10,74912,45525
10,75357,66211
10,75800,95543
10,76245,139839
10,76688,188338
10,77133,256255
10,77577,331786
10,78022,412480
10,78465,494574
10,78910,581721
10,79355,676371
10,79798,753921
10,80243,835217
10,80687,902228
10,81132,959665
10,81575,1001589
10,82020,1031428
10,82463,1034924
10,82908,1041344
10,83352,1034593
10,83797,999385
10,84240,960293
10,84685,912014
10,85128,864646
10,85573,815661
10,86017,763958
10,86462,705961
10,86905,644119
10,87350,594270
10,87793,540384
10,88238,490597
10,88682,441198
10,89127,405079
10,89570,358526
10,90015,315928
10,90458,279672
10,90903,248711
10,91348,219894
10,91792,197217
10,92237,174357
10,92680,155599
10,93125,133725
10,93568,120862
10,94013,107648
10,94457,95416
10,94902,84015
10,95345,73181
10,95790,67210
10,96233,62377
10,96678,55922
10,97122,50191
10,97567,47910
10,98010,42393
10,98455,40324
10,98898,36603
10,99343,34293
10,99787,31257
11,00232,31536
11,00675,29395
11,01120,27101
11,01563,27079
11,02008,24166
11,02452,23210
11,02897,20907
11,03342,21844
11,03785,20174
11,04230,18777
11,04673,18800
11,05118,16709
11,05562,17066
11,06007,16982
11,06450,15938
11,06895,15388
11,07338,14931
11,07783,14553
11,08227,15103
11,08672,14134
11,09115,14788
11,09560,13575
11,10003,12493
11,10448,13526
11,10892,13577
11,11337,11316
11,11780,10870
11,12225,11291
11,12668,13200
11,13113,11976
11,13557,12942
11,14002,11831
11,14445,10892
11,14890,10986
11,15335,10513
11,15778,10284
11,16223,9932
11,16667,9549
11,17112,10554
11,17555,9850
11,18000,10472
11,18443,10006
11,18888,8565
11,19332,9243
11,19777,9095
11,20220,8778
11,20665,9014
11,21108,9261
11,21553,8823
11,21997,9423
11,22442,9602
11,22885,9615
11,23330,8627
11,23773,9041
11,24218,9297
11,24662,8161
11,25107,9266
11,25550,9977
11,25995,8769
11,26438,8727
11,26883,7623
11,27327,8919
11,27772,9579
11,28217,8442
11,28660,8397
11,29105,8226
11,29548,7916
11,29993,9336
11,30437,7703
11,30882,8621
11,31325,8483
11,31770,8177
11,32213,8661
11,32658,8594
11,33102,7573
11,33547,7950
11,33990,8596
11,34435,7205
11,34878,7584
11,35323,8108
11,35767,8095
11,36212,7215
11,36655,7791
11,37100,6976
11,37543,7899
11,37988,8868
11,38432,8648
11,38877,8085
11,39320,8653
11,39765,7244
11,40210,9285
11,40653,8266
11,41098,7406
11,41542,7714
11,41987,8582
11,42430,7323
11,42875,8004
11,43318,7582
11,43763,7931
11,44207,7992
11,44652,7323
11,45095,8226
11,45540,8163
11,45983,6785
11,46428,7688
11,46872,7643
11,47317,7903
11,47760,8584
11,48205,7722
11,48648,7470
11,49093,8082
11,49537,8075
11,49982,7855
11,50425,6971
11,50870,8094
11,51313,7528
11,51758,7921
11,52203,7885
11,52647,7568
11,53092,8115
11,53535,8099
11,53980,7437
11,54423,7536
11,54868,8003
11,55312,8528
11,55757,7826
11,56200,7693
11,56645,8527
11,57088,7911
11,57533,7036
11,57977,7505
11,58422,7214
11,58865,8643
11,59310,7949
11,59753,8800
11,60198,8199
11,60642,9566
11,61087,11639
11,61530,14789
11,61975,20593
11,62418,24810
11,62863,35980
11,63307,49697
11,63752,68419
11,64197,87281
11,64640,110798
11,65085,135854
11,65528,167850
11,65973,195554
11,66417,224748
11,66862,255955
11,67305,269891
11,67750,296899
11,68193,312060
11,68638,322023
11,69082,324965
11,69527,329517
11,69970,327725
11,70415,315832
11,70858,310727
11,71303,298492
11,71747,284517
11,72192,263349
11,72635,250154
11,73080,227914
11,73523,209723
11,73968,191089
11,74412,176794
11,74857,160236
11,75300,147567
11,75745,131549
11,76190,119715
11,76633,104837
11,77078,94739
11,77522,84905
11,77967,74904
11,78410,68889
11,78855,59441
11,79298,54949
11,79743,48273
11,80187,47066
11,80632,40553
11,81075,39020
11,81520,34432
11,81963,31651
11,82408,30039
11,82852,27058
11,83297,26348
11,83740,24636
11,84185,21447
11,84628,21925
11,85073,21071
11,85517,18832
11,85962,18667
11,86405,15279
11,86850,17072
11,87293,14672
11,87738,16006
11,88183,14733
11,88627,15421
11,89072,13771
11,89515,13228
11,89960,12494
11,90403,12093
11,90848,11838
11,91292,11317
11,91737,11204
11,92180,10942
11,92625,10959
11,93068,11482
11,93513,9401
11,93957,9753
11,94402,9477
11,94845,8615
11,95290,9144
11,95733,9824
11,96178,9455
11,96622,9511
11,97067,8231
11,97510,8323
11,97955,8844
11,98398,8079
11,98843,8089
11,99287,8228
11,99732,8292
12,00175,7877
12,00620,8256
12,01065,8151
12,01508,7798
12,01953,7564
12,02397,7547
12,02842,7391
12,03285,8234
12,03730,7826
12,04173,7456
12,04618,7860
12,05062,7605
12,05507,6874
12,05950,8121
12,06395,6852
12,06838,7387
12,07283,6856
12,07727,6698
12,08172,6014
12,08615,6105
12,09060,6817
12,09503,7523
12,09948,7304
12,10392,7254
12,10837,7158
12,11280,7154
12,11725,6819
12,12168,7040
12,12613,7099
12,13058,7479
12,13502,7373
12,13947,6373
12,14390,7031
12,14835,7419
12,15278,7160
12,15723,6893
12,16167,7483
12,16612,7233
12,17055,6964
12,17500,6822
12,17943,8618
12,18388,8470
12,18832,10221
12,19277,12252
12,19720,17514
12,20165,20703
12,20608,31102
12,21053,41945
12,21497,57659
12,21942,76973
12,22385,100984
12,22830,130314
12,23273,161491
12,23718,194426
12,24162,221863
12,24607,256648
12,25052,282022
12,25495,309978
12,25940,332439
12,26383,350788
12,26828,359880
12,27272,363666
12,27717,368919
12,28160,354973
12,28605,352407
12,29048,339732
12,29493,320420
12,29937,303654
12,30382,285404
12,30825,262222
12,31270,241032
12,31713,214491
12,32158,199150
12,32602,176766
12,33047,157136
12,33490,140156
12,33935,125606
12,34378,111692
12,34823,99500
12,35267,87830
12,35712,76293
12,36155,66449
12,36600,59719
12,37045,54327
12,37488,47891
12,37933,42831
12,38377,37359
12,38822,34380
12,39265,30583
12,39710,29056
12,40153,26118
12,40598,24225
12,41042,21947
12,41487,19899
12,41930,18528
12,42375,18000
12,42818,16782
12,43263,15922
12,43707,15310
12,44152,16292
12,44595,14058
12,45040,12994
12,45483,12248
12,45928,12074
12,46372,11640
12,46817,10693
12,47260,10646
12,47705,11513
12,48148,11922
12,48593,10284
12,49038,9455
12,49482,9625
12,49927,9414
12,50370,10599
12,50815,9301
12,51258,8602
12,51703,9618
12,52147,9322
12,52592,8547
12,53035,9786
12,53480,8681
12,53923,8719
12,54368,8450
12,54812,8690
12,55257,8089
12,55700,8237
12,56145,7903
12,56588,8269
12,57033,7883
12,57477,8915
12,57922,8051
12,58365,8375
12,58810,7691
12,59253,8261
12,59698,7721
12,60142,7289
12,60587,6757
12,61032,7434
12,61475,7370
12,61920,6998
12,62363,7391
12,62808,7797
12,63252,7207
12,63697,6984
12,64140,6958
12,64585,7484
12,65028,7156
12,65473,8000
12,65917,7996
12,66362,6937
12,66805,6909
12,67250,7677
12,67693,7770
12,68138,7541
12,68582,7333
12,69027,7449
12,69470,7392
12,69915,7063
12,70358,7405
12,70803,7130
12,71247,6897
12,71692,6567
12,72135,7011
12,72580,6403
12,73023,7342
12,73468,7224
12,73913,6714
12,74357,6667
12,74802,7187
12,75245,7221
12,75690,7157
12,76133,7168
12,76578,7437
12,77022,7077
12,77467,5665
12,77910,6120
12,78355,7253
12,78798,6393
12,79243,7090
12,79687,6461
12,80132,7148
12,80575,6016
12,81020,6649
12,81463,7359
12,81908,6549
12,82352,6579
12,82797,7152
12,83240,7001
12,83685,6636
12,84128,6612
12,84573,6343
12,85017,6303
12,85462,6727
12,85907,7354
12,86350,7352
12,86795,6980
12,87238,6587
12,87683,7016
12,88127,6535
12,88572,6712
12,89015,7046
12,89460,5684
12,89903,6683
12,90348,5717
12,90792,6630
12,91237,6688
12,91680,5752
12,92125,6456
12,92568,6118
12,93013,6789
12,93457,6146
12,93902,6894
12,94345,5628
12,94790,6814
12,95233,6231
12,95678,7270
12,96122,6321
12,96567,7188
12,97010,6435
12,97455,6840
12,97900,7122
12,98343,7007
12,98788,6225
12,99232,6918
12,99677,5835
13,00120,6296
13,00565,7309
13,01008,6511
13,01453,6425
13,01897,6553
13,02342,7616
13,02785,7274
13,03230,6948
13,03673,6374
13,04118,6635
13,04562,6731
13,05007,6776
13,05450,7090
13,05895,6453
13,06338,7368
13,06783,6735
13,07227,7185
13,07672,5671
13,08115,6831
13,08560,6738
13,09003,6660
13,09448,6502
13,09893,6515
13,10337,6376
13,10782,7115
13,11225,7520
13,11670,7389
13,12113,7654
13,12558,8414
13,13002,11475
13,13447,14881
13,13890,21174
13,14335,26005
13,14778,37288
13,15223,51503
13,15667,69303
13,16112,92010
13,16555,114132
13,17000,141270
13,17443,174605
13,17888,207584
13,18332,242720
13,18777,274173
13,19220,298977
13,19665,320257
13,20108,347132
13,20553,354000
13,20997,365296
13,21442,365768
13,21887,357974
13,22330,348500
13,22775,334880
13,23218,319876
13,23663,297702
13,24107,282267
13,24552,257320
13,24995,235974
13,25440,212348
13,25883,192534
13,26328,171903
13,26772,152168
13,27217,135964
13,27660,123289
13,28105,108293
13,28548,94947
13,28993,83766
13,29437,73127
13,29882,66398
13,30325,57300
13,30770,49298
13,31213,43768
13,31658,40827
13,32102,36391
13,32547,32547
13,32990,28735
13,33435,27385
13,33880,25254
13,34323,23129
13,34768,20208
13,35212,20161
13,35657,17443
13,36100,16531
13,36545,15938
13,36988,15455
13,37433,13986
13,37877,14079
13,38322,13926
13,38765,11246
13,39210,12649
13,39653,10417
13,40098,11537
13,40542,11342
13,40987,10176
13,41430,9560
13,41875,10073
13,42318,11566
13,42763,8794
13,43207,9709
13,43652,8809
13,44095,9323
13,44540,9507
13,44983,8446
13,45428,8792
13,45872,9311
13,46317,9653
13,46762,9860
13,47205,9636
13,47650,11279
13,48093,10303
13,48538,10516
13,48982,11490
13,49427,11968
13,49870,11012
13,50315,10938
13,50758,11597
13,51203,11865
13,51647,11934
13,52092,11151
13,52535,10204
13,52980,11050
13,53423,10725
13,53868,10390
13,54312,10885
13,54757,9810
13,55200,10850
13,55645,9422
13,56088,9619
13,56533,9368
13,56977,8468
13,57422,8520
13,57865,7998
13,58310,8895
13,58755,7413
13,59198,8175
13,59643,8217
13,60087,7031
13,60532,7308
13,60975,7035
13,61420,7016
13,61863,7568
13,62308,7106
13,62752,6258
13,63197,6844
13,63640,6959
13,64085,7120
13,64528,7277
13,64973,7116
13,65417,6718
13,65862,6339
13,66305,6394
13,66750,7314
13,67193,6889
13,67638,6607
13,68082,6204
13,68527,6172
13,68970,6224
13,69415,5971
13,69858,6840
13,70303,6277
13,70748,6861
13,71192,7337
13,71637,6013
13,72080,6805
13,72525,6074
13,72968,6930
13,73413,7153
13,73857,8329
13,74302,7004
13,74745,10518
13,75190,12135
13,75633,17554
13,76078,24739
13,76522,33862
13,76967,49384
13,77410,69576
13,77855,95253
13,78298,133628
13,78743,175228
13,79187,226835
13,79632,279122
13,80075,347563
13,80520,409300
13,80963,484713
13,81408,552064
13,81852,615776
13,82297,678031
13,82742,732154
13,83185,779856
13,83630,808201
13,84073,838331
13,84518,842014
13,84962,819008
13,85407,792951
13,85850,766144
13,86295,717064
13,86738,665514
13,87183,613921
13,87627,555709
13,88072,496958
13,88515,445040
13,88960,385387
13,89403,343377
13,89848,295188
13,90292,257802
13,90737,224790
13,91180,196986
13,91625,175051
13,92068,151333
13,92513,131584
13,92957,115415
13,93402,102095
13,93845,88595
13,94290,79651
13,94735,70586
13,95178,62537
13,95623,58863
13,96067,52804
13,96512,48458
13,96955,44141
13,97400,41080
13,97843,38761
13,98288,33545
13,98732,33236
13,99177,30711
13,99620,28729
14,00065,27362
14,00508,25393
14,00953,23806
14,01397,22697
14,01842,21458
14,02285,21003
14,02730,19299
14,03173,19105
14,03618,17001
14,04062,17307
14,04507,16149
14,04950,16862
14,05395,16297
14,05838,14103
14,06283,14499
14,06728,13448
14,07172,12795
14,07617,14313
14,08060,12832
14,08505,12714
14,08948,13007
14,09393,10104
14,09837,10840
14,10282,10902
14,10725,11717
14,11170,9795
14,11613,11101
14,12058,10736
14,12502,10707
14,12947,10379
14,13390,9216
14,13835,8429
14,14278,8583
14,14723,8673
14,15167,9118
14,15612,9110
14,16055,8505
14,16500,8852
14,16943,7985
14,17388,8793
14,17832,8235
14,18277,8328
14,18720,7453
14,19165,7909
14,19610,8145
14,20053,7913
14,20498,7809
14,20942,7973
14,21387,8402
14,21830,8158
14,22275,7488
14,22718,7511
14,23163,6958
14,23607,6752
14,24052,6760
14,24495,7227
14,24940,7770
14,25383,7072
14,25828,7645
14,26272,6943
14,26717,7563
14,27160,6887
14,27605,6821
14,28048,6715
14,28493,6489
14,28937,7568
14,29382,6545
14,29825,6645
14,30270,7684
14,30713,7401
14,31158,7374
14,31603,8685
14,32047,12029
14,32492,13536
14,32935,18153
14,33380,25763
14,33823,36823
14,34268,50884
14,34712,68783
14,35157,90055
14,35600,113663
14,36045,146038
14,36488,175538
14,36933,208765
14,37377,243761
14,37822,274657
14,38265,306242
14,38710,339408
14,39153,356818
14,39598,375225
14,40042,383011
14,40487,389151
14,40930,387474
14,41375,373687
14,41818,360888
14,42263,341313
14,42707,321888
14,43152,295177
14,43597,268197
14,44040,244578
14,44485,222575
14,44928,190866
14,45373,171168
14,45817,153906
14,46262,135676
14,46705,115649
14,47150,102220
14,47593,89876
14,48038,80829
14,48482,69483
14,48927,62283
14,49370,54633
14,49815,49346
14,50258,45133
14,50703,38847
14,51147,35680
14,51592,33586
14,52035,29831
14,52480,28950
14,52923,24914
14,53368,23386
14,53812,21725
14,54257,19164
14,54700,19278
14,55145,18279
14,55590,16749
14,56033,15247
14,56478,14112
14,56922,14166
14,57367,12943
14,57810,13455
14,58255,12964
14,58698,13571
14,59143,14445
14,59587,16101
14,60032,17154
14,60475,24926
14,60920,29293
14,61363,40452
14,61808,54023
14,62252,75677
14,62697,103418
14,63140,136226
14,63585,181367
14,64028,226327
14,64473,283741
14,64917,336279
14,65362,406435
14,65805,478546
14,66250,542342
14,66693,607725
14,67138,663953
14,67583,709860
14,68027,753801
14,68472,770693
14,68915,786332
14,69360,781110
14,69803,774635
14,70248,736747
14,70692,694219
14,71137,655182
14,71580,599388
14,72025,542131
14,72468,489919
14,72913,435688
14,73357,385093
14,73802,340691
14,74245,300204
14,74690,262605
14,75133,226926
14,75578,194920
14,76022,172473
14,76467,154583
14,76910,134874
14,77355,115288
14,77798,104191
14,78243,91830
14,78687,81661
14,79132,73431
14,79577,63666
14,80020,60193
14,80465,55592
14,80908,50790
14,81353,47331
14,81797,42235
14,82242,36717
14,82685,35063
14,83130,32696
14,83573,32487
14,84018,30084
14,84462,29640
14,84907,26780
14,85350,24122
14,85795,22182
14,86238,21380
14,86683,20651
14,87127,19732
14,87572,18947
14,88015,17917
14,88460,18450
14,88903,16969
14,89348,15902
14,89792,15554
14,90237,15282
14,90680,14578
14,91125,13221
14,91568,14055
14,92013,13739
14,92458,13299
14,92902,12693
14,93347,11982
14,93790,12929
14,94235,11551
14,94678,10752
14,95123,10689
14,95567,11348
14,96012,11498
14,96455,11283
14,96900,10887
14,97343,10117
14,97788,10040
14,98232,10101
14,98677,10110
14,99120,10095
14,99565,9646
15,00008,9038
15,00453,9677
15,00897,9428
15,01342,9261
15,01785,7972
15,02230,8335
15,02673,8743
15,03118,7591
15,03562,7242
15,04007,7715
15,04452,7284
15,04895,7183
15,05340,7735
15,05783,6705
15,06228,7184
15,06672,7884
15,07117,8083
15,07560,8101
15,08005,6664
15,08448,7924
15,08893,6735
15,09337,6954
15,09782,6601
15,10225,6270
15,10670,6836
15,11113,6877
15,11558,6313
15,12002,6523
15,12447,7060
15,12890,6758
15,13335,6007
15,13778,6239
15,14223,7151
15,14667,6238
15,15112,6290
15,15555,6477
15,16000,6949
15,16445,6260
15,16888,6399
15,17333,5887
15,17777,6767
15,18222,6445
15,18665,6689
15,19110,7097
15,19553,5620
15,19998,6388
15,20442,6170
15,20887,6893
15,21330,6045
15,21775,7014
15,22218,5875
15,22663,6268
15,23107,5645
15,23552,6463
15,23995,6642
15,24440,6152
15,24883,6875
15,25328,6904
15,25772,6343
15,26217,7043
15,26660,7020
15,27105,6850
15,27548,6676
15,27993,8339
15,28438,8213
15,28882,9094
15,29327,10587
15,29770,12353
15,30215,14851
15,30658,21250
15,31103,29186
15,31547,40741
15,31992,55215
15,32435,75504
15,32880,99829
15,33323,125149
15,33768,151294
15,34212,182567
15,34657,219213
15,35100,249159
15,35545,281125
15,35988,306193
15,36433,330133
15,36877,348161
15,37322,361729
15,37765,358871
15,38210,358144
15,38653,352856
15,39098,334842
15,39542,322821
15,39987,295589
15,40432,267802
15,40875,242833
15,41320,221572
15,41763,194411
15,42208,173411
15,42652,151629
15,43097,134527
15,43540,117427
15,43985,101606
15,44428,91705
15,44873,81041
15,45317,71157
15,45762,63823
15,46205,55310
15,46650,50469
15,47093,45957
15,47538,40956
15,47982,39081
15,48427,34944
15,48870,31740
15,49315,29640
15,49758,26092
15,50203,24623
15,50647,22367
15,51092,21567
15,51535,20815
15,51980,19629
15,52425,16597
15,52868,16306
15,53313,14397
15,53757,15929
15,54202,14459
15,54645,13349
15,55090,12589
15,55533,12098
15,55978,11384
15,56422,12858
15,56867,12011
15,57310,12209
15,57755,11512
15,58198,12487
15,58643,10920
15,59087,11265
15,59532,10508
15,59975,9141
15,60420,9849
15,60863,9735
15,61308,8195
15,61752,7930
15,62197,8070
15,62640,7872
15,63085,7060
15,63528,6631
15,63973,7928
15,64417,7480
15,64862,7346
15,65307,6471
15,65750,8560
15,66195,7654
15,66638,6701
15,67083,6977
15,67527,7436
15,67972,6928
15,68415,7517
15,68860,7671
15,69303,6993
15,69748,6278
15,70192,7754
15,70637,7642
15,71080,7190
15,71525,7111
15,71968,7319
15,72413,7782
15,72857,6642
15,73302,6757
15,73745,6547
15,74190,6185
15,74633,7765
15,75078,6988
15,75522,6709
15,75967,6977
15,76410,6442
15,76855,6647
15,77300,5934
15,77743,6243
15,78188,6560
15,78632,6031
15,79077,6856
15,79520,5696
15,79965,7220
15,80408,7047
15,80853,7376
15,81297,6098
15,81742,5798
15,82185,6497
15,82630,7357
15,83073,6693
15,83518,6071
15,83962,7348
15,84407,6061
15,84850,6272
15,85295,6747
15,85738,6461
15,86183,6660
15,86627,6643
15,87072,6121
15,87515,7651
15,87960,6042
15,88403,6514
15,88848,7040
15,89293,5042
15,89737,7049
15,90182,6707
15,90625,6431
15,91070,6777
15,91513,5927
15,91958,6785
15,92402,6600
15,92847,7186
15,93290,6452
15,93735,6691
15,94178,6818
15,94623,7211
15,95067,8883
15,95512,10072
15,95955,12411
15,96400,15982
15,96843,20590
15,97288,31013
15,97732,41722
15,98177,55828
15,98620,73294
15,99065,96701
15,99508,124984
15,99953,149420
16,00397,177264
16,00842,206396
16,01287,239961
16,01730,271158
16,02175,293499
16,02618,320732
16,03063,335157
16,03507,349126
16,03952,344660
16,04395,343892
16,04840,334015
16,05283,321014
16,05728,301592
16,06172,282824
16,06617,260940
16,07060,237733
16,07505,211309
16,07948,188649
16,08393,169098
16,08837,150792
16,09282,132201
16,09725,113917
16,10170,101339
16,10613,90322
16,11058,77386
16,11502,66545
16,11947,59916
16,12390,52549
16,12835,48432
16,13280,42081
16,13723,39134
16,14168,36045
16,14612,32154
16,15057,28579
16,15500,26537
16,15945,24445
16,16388,22677
16,16833,21333
16,17277,20522
16,17722,19188
16,18165,17213
16,18610,15696
16,19053,15481
16,19498,15360
16,19942,14355
16,20387,13866
16,20830,12823
16,21275,11364
16,21718,11854
16,22163,11277
16,22607,11691
16,23052,9990
16,23495,9390
16,23940,10892
16,24383,9037
16,24828,9919
16,25273,8538
16,25717,9315
16,26162,8507
16,26605,8307
16,27050,9393
16,27493,8071
16,27938,8579
16,28382,7820
16,28827,8051
16,29270,8448
16,29715,7990
16,30158,7713
16,30603,8188
16,31047,8274
16,31492,7906
16,31935,7931
16,32380,7767
16,32823,7605
16,33268,7677
16,33712,9092
16,34157,6790
16,34600,7557
16,35045,6657
16,35488,6857
16,35933,6999
16,36377,7460
16,36822,6301
16,37267,6801
16,37710,7033
16,38155,6403
16,38598,6817
16,39043,6480
16,39487,6761
16,39932,6899
16,40375,6637
16,40820,6488
16,41263,6801
16,41708,7419
16,42152,6760
16,42597,6382
16,43040,7307
16,43485,6415
16,43928,7132
16,44373,6606
16,44817,6527
16,45262,5877
16,45705,5914
16,46150,6145
16,46593,6020
16,47038,6636
16,47482,6072
16,47927,6204
16,48370,5934
16,48815,5615
16,49258,6643
16,49703,6363
16,50148,7143
16,50592,5935
16,51037,6855
16,51480,5674
16,51925,6044
16,52368,6586
16,52813,6440
16,53257,6179
16,53702,6535
16,54145,5253
16,54590,5717
16,55033,5970
16,55478,5558
16,55922,6050
16,56367,6554
16,56810,5827
16,57255,5483
16,57698,5822
16,58143,6335
16,58587,6359
16,59032,6005
16,59475,6409
16,59920,5852
16,60363,5463
16,60808,6429
16,61252,5684
16,61697,6454
16,62142,5629
16,62585,5588
16,63030,5627
16,63473,6037
16,63918,6322
16,64362,5904
16,64807,6209
16,65250,6462
16,65695,5797
16,66138,5839
16,66583,6014
16,67027,5638
16,67472,6496
16,67915,6479
16,68360,6250
16,68803,5501
16,69248,5720
16,69692,6380
16,70137,5728
16,70580,5904
16,71025,5732
16,71468,5853
16,71913,5270
16,72357,5757
16,72802,6457
16,73245,5623
16,73690,6008
16,74135,6064
16,74578,5804
16,75023,5919
16,75467,6202
16,75912,5108
16,76355,5919
16,76800,5900
16,77243,6121
16,77688,5445
16,78132,5848
16,78577,6079
16,79020,5413
16,79465,5926
16,79908,6192
16,80353,6650
16,80797,5854
16,81242,5665
16,81685,6593
16,82130,5772
16,82573,6003
16,83018,5938
16,83462,6514
16,83907,5948
16,84350,6186
16,84795,5912
16,85238,5277
16,85683,5902
16,86128,6938
16,86572,6250
16,87017,5637
16,87460,5978
16,87905,5368
16,88348,5479
16,88793,6244
16,89237,6148
16,89682,6386
16,90125,6107
16,90570,5591
16,91013,5462
16,91458,6588
16,91902,6015
16,92347,6759
16,92790,7542
16,93235,9517
16,93678,11214
16,94123,14462
16,94567,18742
16,95012,26327
16,95455,35662
16,95900,49285
16,96343,64296
16,96788,82165
16,97232,103078
16,97677,127329
16,98122,162012
16,98565,187954
16,99010,214433
16,99453,240747
16,99898,267689
17,00342,287658
17,00787,304695
17,01230,312105
17,01675,312772
17,02118,320100
17,02563,310225
17,03007,296549
17,03452,284224
17,03895,260583
17,04340,240892
17,04783,220067
17,05228,201121
17,05672,180730
17,06117,160061
17,06560,142369
17,07005,124395
17,07448,110949
17,07893,98743
17,08337,91687
17,08782,85217
17,09225,82558
17,09670,80178
17,10115,80525
17,10558,88036
17,11003,99903
17,11447,115763
17,11892,141359
17,12335,176962
17,12780,213761
17,13223,260196
17,13668,306804
17,14112,368203
17,14557,427330
17,15000,506443
17,15445,576334
17,15888,654074
17,16333,718047
17,16777,772966
17,17222,834591
17,17665,876707
17,18110,918555
17,18553,924549
17,18998,910868
17,19442,882802
17,19887,842020
17,20330,782728
17,20775,713408
17,21218,636640
17,21663,561622
17,22107,500879
17,22552,435777
17,22997,372228
17,23440,320809
17,23885,281875
17,24328,243716
17,24773,209929
17,25217,188559
17,25662,160987
17,26105,143121
17,26550,131186
17,26993,113209
17,27438,99734
17,27882,93072
17,28327,84434
17,28770,77423
17,29215,67279
17,29658,65102
17,30103,58616
17,30547,53897
17,30992,49964
17,31435,46186
17,31880,43292
17,32323,42350
17,32768,38574
17,33212,34563
17,33657,31282
17,34100,32493
17,34545,30963
17,34990,29705
17,35433,29217
17,35878,26001
17,36322,24540
17,36767,25429
17,37210,22515
17,37655,22683
17,38098,21174
17,38543,19135
17,38987,19062
17,39432,17791
17,39875,16440
17,40320,18013
17,40763,17240
17,41208,15407
17,41652,14540
17,42097,14749
17,42540,12844
17,42985,14782
17,43428,14638
17,43873,13050
17,44317,12564
17,44762,13211
17,45205,12653
17,45650,12373
17,46093,11323
17,46538,10940
17,46983,11094
17,47427,10494
17,47872,10936
17,48315,10829
17,48760,10696
17,49203,9284
17,49648,10037
17,50092,10005
17,50537,9831
17,50980,10090
17,51425,8818
17,51868,9381
17,52313,9686
17,52757,9345
17,53202,10426
17,53645,8547
17,54090,8466
17,54533,8853
17,54978,8925
17,55422,7633
17,55867,8486
17,56310,9460
17,56755,9566
17,57198,9797
17,57643,11646
17,58087,12668
17,58532,16159
17,58977,21023
17,59420,28773
17,59865,38695
17,60308,51148
17,60753,64172
17,61197,84216
17,61642,104964
17,62085,130701
17,62530,151449
17,62973,183811
17,63418,207481
17,63862,236548
17,64307,257035
17,64750,276822
17,65195,288637
17,65638,303757
17,66083,297253
17,66527,300911
17,66972,299815
17,67415,288169
17,67860,272991
17,68303,249869
17,68748,230087
17,69192,215574
17,69637,191695
17,70080,173300
17,70525,152547
17,70970,136423
17,71413,120035
17,71858,104886
17,72302,89020
17,72747,82448
17,73190,71553
17,73635,64453
17,74078,56974
17,74523,51511
17,74967,44147
17,75412,41377
17,75855,36121
17,76300,33711
17,76743,30035
17,77188,29594
17,77632,26450
17,78077,24274
17,78520,22684
17,78965,22639
17,79408,20546
17,79853,19789
17,80297,17456
17,80742,16227
17,81185,16596
17,81630,15659
17,82073,14572
17,82518,14820
17,82962,13877
17,83407,12741
17,83852,13788
17,84295,12306
17,84740,11620
17,85183,11528
17,85628,11212
17,86072,10784
17,86517,10057
17,86960,10338
17,87405,10066
17,87848,10276
17,88293,9211
17,88737,8834
17,89182,9526
17,89625,9595
17,90070,8724
17,90513,9852
17,90958,8302
17,91402,8605
17,91847,7192
17,92290,8264
17,92735,8495
17,93178,8173
17,93623,7468
17,94067,8018
17,94512,9046
17,94955,8092
17,95400,10108
17,95845,8802
17,96288,11131
17,96733,13159
17,97177,17411
17,97622,21930
17,98065,30419
17,98510,39187
17,98953,53897
17,99398,70629
17,99842,94038
18,00287,120861
18,00730,145796
18,01175,183643
18,01618,222467
18,02063,260616
18,02507,296902
18,02952,327033
18,03395,357156
18,03840,380373
18,04283,395419
18,04728,404290
18,05172,397785
18,05617,397950
18,06060,388404
18,06505,371802
18,06948,340975
18,07393,318042
18,07838,287632
18,08282,256149
18,08727,230655
18,09170,207449
18,09615,180439
18,10058,158247
18,10503,134752
18,10947,122500
18,11392,108907
18,11835,91993
18,12280,86757
18,12723,71932
18,13168,66190
18,13612,59093
18,14057,52769
18,14500,47903
18,14945,42621
18,15388,39667
18,15833,35009
18,16277,32384
18,16722,29951
18,17165,27158
18,17610,26223
18,18053,24703
18,18498,23479
18,18942,22095
18,19387,22413
18,19832,18165
18,20275,18427
18,20720,16915
18,21163,15979
18,21608,16814
18,22052,16834
18,22497,16098
18,22940,12962
18,23385,14299
18,23828,12561
18,24273,11613
18,24717,12504
18,25162,12637
18,25605,10615
18,26050,9759
18,26493,10835
18,26938,10833
18,27382,11758
18,27827,10544
18,28270,9554
18,28715,9498
18,29158,8884
18,29603,8279
18,30047,8999
18,30492,8874
18,30935,10026
18,31380,9487
18,31825,8200
18,32268,8074
18,32713,7013
18,33157,8364
18,33602,7727
18,34045,7807
18,34490,7162
18,34933,8316
18,35378,7099
18,35822,7559
18,36267,6808
18,36710,6926
18,37155,6991
18,37598,6677
18,38043,7127
18,38487,6382
18,38932,7796
18,39375,7577
18,39820,7777
18,40263,7282
18,40708,6724
18,41152,6026
18,41597,6965
18,42040,7235
18,42485,7139
18,42928,7349
18,43373,6159
18,43818,6974
18,44262,6077
18,44707,6866
18,45150,5694
18,45595,6095
18,46038,6491
18,46483,7114
18,46927,6193
18,47372,7264
18,47815,5859
18,48260,5884
18,48703,5724
18,49148,6430
18,49592,6020
18,50037,6619
18,50480,6551
18,50925,6005
18,51368,5260
18,51813,6511
18,52257,6337
18,52702,5837
18,53145,6376
18,53590,5992
18,54033,5731
18,54478,6928
18,54922,6219
18,55367,6214
18,55812,6147
18,56255,5874
18,56700,5661
18,57143,6809
18,57588,6538
18,58032,6299
18,58477,6036
18,58920,5884
18,59365,6404
18,59808,5995
18,60253,5796
18,60697,5678
18,61142,6273
18,61585,6455
18,62030,4903
18,62473,5995
18,62918,6240
18,63362,5514
18,63807,6124
18,64250,6069
18,64695,5763
18,65138,5689
18,65583,6410
18,66027,5895
18,66472,5778
18,66915,5934
18,67360,5751
18,67803,6095
18,68248,5539
18,68693,6343
18,69137,6320
18,69582,6012
18,70025,6133
18,70470,6307
18,70913,5764
18,71358,5540
18,71802,6175
18,72247,5374
18,72690,5939
18,73135,6237
18,73578,6727
18,74023,5886
18,74467,6783
18,74912,5654
18,75355,5565
18,75800,6493
18,76243,6572
18,76688,5865
18,77132,6256
18,77577,5995
18,78020,6222
18,78465,5785
18,78908,6793
18,79353,6512
18,79797,6325
18,80242,7513
18,80687,9563
18,81130,11937
18,81575,14081
18,82018,20448
18,82463,27694
18,82907,36801
18,83352,50892
18,83795,67638
18,84240,88431
18,84683,116031
18,85128,144363
18,85572,181955
18,86017,218291
18,86460,259578
18,86905,300014
18,87348,338054
18,87793,376336
18,88237,408293
18,88682,433221
18,89125,445476
18,89570,457531
18,90013,447306
18,90458,430134
18,90902,411536
18,91347,392125
18,91790,353966
18,92235,324992
18,92680,287668
18,93123,249517
18,93568,220405
18,94012,190719
18,94457,169423
18,94900,150235
18,95345,128559
18,95788,112356
18,96233,102638
18,96677,90256
18,97122,78334
18,97565,68995
18,98010,62959
18,98453,56324
18,98898,50490
18,99342,46374
18,99787,46408
19,00230,40779
19,00675,36615
19,01118,35100
19,01563,31962
19,02007,28557
19,02452,27287
19,02895,27316
19,03340,24040
19,03783,22548
19,04228,22473
19,04673,20856
19,05117,19427
19,05562,19349
19,06005,17570
19,06450,17084
19,06893,18111
19,07338,15342
19,07782,15536
19,08227,16143
19,08670,14131
19,09115,15104
19,09558,13750
19,10003,13014
19,10447,13993
19,10892,12991
19,11335,11965
19,11780,11885
19,12223,10784
19,12668,12114
19,13112,11761
19,13557,11689
19,14000,10133
19,14445,9731
19,14888,10723
19,15333,10241
19,15777,9921
19,16222,8800
19,16667,9048
19,17110,10031
19,17555,9139
19,17998,8948
19,18443,9455
19,18887,8741
19,19332,8669
19,19775,7880
19,20220,8900
19,20663,8135
19,21108,7868
19,21552,8389
19,21997,7959
19,22440,7667
19,22885,6945
19,23328,7470
19,23773,7334
19,24217,7202
19,24662,7364
19,25105,6278
19,25550,7660
19,25993,7231
19,26438,7640
19,26882,6874
19,27327,7992
19,27770,6625
19,28215,7351
19,28660,6379
19,29103,6704
19,29548,7049
19,29992,7215
19,30437,7032
19,30880,6933
19,31325,6143
19,31768,7284
19,32213,7084
19,32657,5954
19,33102,6578
19,33545,7572
19,33990,7062
19,34433,6614
19,34878,6304
19,35322,5476
19,35767,5776
19,36210,7330
19,36655,7557
19,37098,9078
19,37543,10656
19,37987,14982
19,38432,16619
19,38875,22400
19,39320,33473
19,39763,41883
19,40208,57970
19,40652,75275
19,41097,97511
19,41542,121805
19,41985,148989
19,42430,183311
19,42873,209623
19,43318,250845
19,43762,278825
19,44207,302104
19,44650,327914
19,45095,340201
19,45538,350106
19,45983,354697
19,46427,351436
19,46872,336577
19,47315,325003
19,47760,300717
19,48203,277283
19,48648,256699
19,49092,231384
19,49537,204483
19,49980,183251
19,50425,164104
19,50868,145831
19,51313,128942
19,51757,113388
19,52202,99719
19,52645,88676
19,53090,80601
19,53535,67646
19,53978,61222
19,54423,55610
19,54867,49729
19,55312,44607
19,55755,41594
19,56200,36918
19,56643,33725
19,57088,32198
19,57532,29015
19,57977,26414
19,58420,25298
19,58865,25499
19,59308,22643
19,59753,20029
19,60197,21281
19,60642,18615
19,61085,16775
19,61530,16041
19,61973,16064
19,62418,17275
19,62862,15256
19,63307,13872
19,63750,12422
19,64195,13157
19,64638,11924
19,65083,12898
19,65528,11325
19,65972,11426
19,66417,11325
19,66860,11377
19,67305,11773
19,67748,10762
19,68193,10029
19,68637,10258
19,69082,9462
19,69525,9336
19,69970,8799
19,70413,10128
19,70858,9971
19,71302,9150
19,71747,8611
19,72190,7228
19,72635,7161
19,73078,8604
19,73523,7923
19,73967,7648
19,74412,8938
19,74855,8165
19,75300,8054
19,75743,8327
19,76188,7242
19,76632,7698
19,77077,7614
19,77522,7283
19,77965,6503
19,78410,7620
19,78853,7844
19,79298,6488
19,79742,6691
19,80187,7339
19,80630,6475
19,81075,7510
19,81518,7630
19,81963,7177
19,82407,6654
19,82852,7102
19,83295,6556
19,83740,6717
19,84183,5885
19,84628,6462
19,85072,6935
19,85517,6995
19,85960,6433
19,86405,6884
19,86848,7001
19,87293,6388
19,87737,6839
19,88182,7632
19,88625,6681
19,89070,6818
19,89515,6725
19,89958,5774
19,90403,6638
19,90847,5917
19,91292,6212
19,91735,7191
19,92180,6881
19,92623,6611
19,93068,6592
19,93512,6865
19,93957,6276
19,94400,6252
19,94845,6801
19,95288,6517
19,95733,6463
19,96177,6296
19,96622,6278
19,97065,6751
19,97510,7024
19,97953,6560
19,98398,6613
19,98842,6572
19,99287,6726
19,99730,6447
20,00175,7225
20,00618,6184
20,01063,6933
20,01508,7878
20,01952,6677
20,02397,7119
20,02840,7193
20,03285,7025
20,03728,6159
20,04173,7018
20,04617,6235
20,05062,6583
20,05505,7288
20,05950,6535
20,06393,6110
20,06838,6857
20,07282,6086
20,07727,6543
20,08170,5743
20,08615,6819
20,09058,6415
20,09503,5691
20,09947,5117
20,10392,6181
20,10835,6614
20,11280,5943
20,11723,6109
20,12168,7244
20,12612,7292
20,13057,6562
20,13500,6634
20,13945,6152
20,14390,6245
20,14833,6206
20,15278,6442
20,15722,6095
20,16167,5381
20,16610,5812
20,17055,5583
20,17498,5989
20,17943,6537
20,18387,6665
20,18832,6771
20,19275,6457
20,19720,6155
20,20163,5620
20,20608,5775
20,21052,6508
20,21497,6124
20,21940,6429
20,22385,6182
20,22828,6445
20,23273,6372
20,23717,6030
20,24162,5818
20,24605,5847
20,25050,5739
20,25493,6485
20,25938,5964
20,26383,6396
20,26827,5523
20,27272,5823
20,27715,5984
20,28160,6558
20,28603,6228
20,29048,6310
20,29492,6289
20,29937,6307
20,30380,6271
20,30825,5596
20,31268,5958
20,31713,6132
20,32157,6498
20,32602,5755
20,33045,5991
20,33490,6220
20,33933,6162
20,34378,6578
20,34822,6233
20,35267,7711
20,35710,7842
20,36155,8868
20,36598,10494
20,37043,14408
20,37487,17648
20,37932,25374
20,38377,33443
20,38820,45589
20,39265,61631
20,39708,79494
20,40153,98082
20,40597,126066
20,41042,151603
20,41485,179046
20,41930,208904
20,42373,235936
20,42818,261323
20,43262,284039
20,43707,303788
20,44150,312381
20,44595,317721
20,45038,319847
20,45483,313319
20,45927,304672
20,46372,291618
20,46815,269353
20,47260,247915
20,47703,225429
20,48148,201846
20,48592,183275
20,49037,160837
20,49480,140632
20,49925,124420
20,50370,109921
20,50813,97483
20,51258,87369
20,51702,79624
20,52147,73169
20,52590,70311
20,53035,67038
20,53478,65778
20,53923,67779
20,54367,72284
20,54812,81537
20,55255,94959
20,55700,113262
20,56143,132766
20,56588,161322
20,57032,198629
20,57477,238749
20,57920,283770
20,58365,344130
20,58808,394402
20,59253,457993
20,59697,518692
20,60142,590118
20,60585,655562
20,61030,727529
20,61473,778201
20,61918,832878
20,62363,875038
20,62807,899684
20,63252,896438
20,63695,889060
20,64140,839379
20,64583,797135
20,65028,741521
20,65472,662131
20,65917,587886
20,66360,518743
20,66805,449580
20,67248,390650
20,67693,342232
20,68137,300078
20,68582,265541
20,69025,228389
20,69470,206004
20,69913,178143
20,70358,162569
20,70802,141876
20,71247,132222
20,71690,118034
20,72135,104428
20,72578,98248
20,73023,88917
20,73467,80179
20,73912,73644
20,74357,70354
20,74800,66870
20,75245,61526
20,75688,56889
20,76133,51202
20,76577,49158
20,77022,47108
20,77465,45709
20,77910,44275
20,78353,39113
20,78798,37441
20,79242,38320
20,79687,36506
20,80130,35128
20,80575,32147
20,81018,32358
20,81463,30822
20,81907,29370
20,82352,26844
20,82795,26932
20,83240,26591
20,83683,25423
20,84128,24128
20,84572,23606
20,85017,22961
20,85460,21028
20,85905,21486
20,86348,20658
20,86793,19661
20,87238,19213
20,87682,18549
20,88127,16810
20,88570,16340
20,89015,16317
20,89458,15916
20,89903,16887
20,90347,15836
20,90792,15631
20,91235,13891
20,91680,14423
20,92123,13677
20,92568,14429
20,93012,15123
20,93457,12806
20,93900,12328
20,94345,12431
20,94788,11718
20,95233,11983
20,95677,12433
20,96122,11604
20,96565,11015
20,97010,10495
20,97453,11624
20,97898,10500
20,98342,11544
20,98787,10250
20,99232,10994
20,99675,10918
21,00120,10443
21,00563,12045
21,01008,11283
21,01452,13279
21,01897,14611
21,02340,16362
21,02785,19277
21,03228,25544
21,03673,30463
21,04117,39944
21,04562,52893
21,05005,67118
21,05450,86044
21,05893,111461
21,06338,135214
21,06782,167057
21,07227,189347
21,07670,220969
21,08115,253713
21,08558,278725
21,09003,299156
21,09447,319862
21,09892,337896
21,10335,346235
21,10780,345860
21,11225,349793
21,11668,343972
21,12113,343477
21,12557,335284
21,13002,332610
21,13445,330952
21,13890,331594
21,14333,336439
21,14778,339221
21,15222,351913
21,15667,356258
21,16110,361123
21,16555,364038
21,16998,365882
21,17443,366195
21,17887,363113
21,18332,352635
21,18775,338449
21,19220,320510
21,19663,301613
21,20108,283621
21,20552,258935
21,20997,233369
21,21440,213240
21,21885,190223
21,22328,168596
21,22773,155143
21,23218,133390
21,23662,121238
21,24107,106166
21,24550,95743
21,24995,86098
21,25438,76834
21,25883,68134
21,26327,61622
21,26772,55926
21,27215,52459
21,27660,48425
21,28103,43776
21,28548,42064
21,28992,37324
21,29437,34373
21,29880,32377
21,30325,32042
21,30768,29406
21,31213,26518
21,31657,26498
21,32102,25574
21,32545,23062
21,32990,23278
21,33433,21084
21,33878,20172
21,34322,19863
21,34767,21031
21,35212,18311
21,35655,17336
21,36100,16405
21,36543,15770
21,36988,16363
21,37432,15922
21,37877,15675
21,38320,13268
21,38765,15672
21,39208,14671
21,39653,18316
21,40097,19515
21,40542,23910
21,40985,28772
21,41430,34389
21,41873,44199
21,42318,57346
21,42762,71806
21,43207,90674
21,43650,113505
21,44095,142895
21,44538,172997
21,44983,208679
21,45427,247170
21,45872,281002
21,46315,318279
21,46760,344599
21,47205,366518
21,47648,388924
21,48093,403112
21,48537,407949
21,48982,396398
21,49425,385935
21,49870,366282
21,50313,347537
21,50758,319106
21,51202,290708
21,51647,264330
21,52090,240511
21,52535,211085
21,52978,193387
21,53423,169307
21,53867,144727
21,54312,130277
21,54755,118158
21,55200,103957
21,55643,94693
21,56088,83078
21,56532,76290
21,56977,67618
21,57420,62059
21,57865,56844
21,58308,52669
21,58753,47808
21,59197,43650
21,59642,42535
21,60087,37299
21,60530,35656
21,60975,33917
21,61418,31687
21,61863,30634
21,62307,29155
21,62752,28763
21,63195,25468
21,63640,25697
21,64083,24275
21,64528,22106
21,64972,21857
21,65417,20951
21,65860,19440
21,66305,20901
21,66748,19011
21,67193,18084
21,67637,18451
21,68082,16147
21,68525,16668
21,68970,17128
21,69413,16755
21,69858,15089
21,70302,14837
21,70747,14071
21,71190,12947
21,71635,14370
21,72080,12734
21,72523,12186
21,72968,12508
21,73412,11885
21,73857,12753
21,74300,11482
21,74745,12020
21,75188,12925
21,75633,11755
21,76077,11956
21,76522,10678
21,76965,10657
21,77410,9572
21,77853,9323
21,78298,11282
21,78742,10586
21,79187,9540
21,79630,9752
21,80075,9808
21,80518,10111
21,80963,9907
21,81407,9908
21,81852,10157
21,82295,9710
21,82740,9127
21,83183,10228
21,83628,8574
21,84073,9108
21,84517,7979
21,84962,8720
21,85405,8339
21,85850,8493
21,86293,9037
21,86738,8970
21,87182,9334
21,87627,7899
21,88070,7001
21,88515,8503
21,88958,7373
21,89403,7763
21,89847,7065
21,90292,8105
21,90735,7519
21,91180,8020
21,91623,7327
21,92068,7064
21,92512,7274
21,92957,6964
21,93400,6650
21,93845,8680
21,94288,6822
21,94733,7844
21,95177,8016
21,95622,8036
21,96067,7397
21,96510,6585
21,96955,8110
21,97398,7220
21,97843,7014
21,98287,8686
21,98732,6796
21,99175,8221
21,99620,8065
22,00063,7858
22,00508,8939
22,00952,6822
22,01397,7340
22,01840,8754
22,02285,7300
22,02728,6260
22,03173,7242
22,03617,7158
22,04062,7269
22,04505,7522
22,04950,7003
22,05393,6968
22,05838,7359
22,06282,7342
22,06727,7513
22,07170,7582
22,07615,6706
22,08060,6868
22,08503,7141
22,08948,6103
22,09392,6091
22,09837,7597
22,10280,7370
22,10725,7061
22,11168,6916
22,11613,7067
22,12057,7230
22,12502,7099
22,12945,6665
22,13390,6304
22,13833,7672
22,14278,7070
22,14722,6379
22,15167,6279
22,15610,6255
22,16055,6752
22,16498,7108
22,16943,6844
22,17387,6150
22,17832,6930
22,18275,7414
22,18720,7231
22,19163,6694
22,19608,6524
22,20053,6862
22,20497,7463
22,20942,7426
22,21385,7817
22,21830,8408
22,22273,9025
22,22718,10656
22,23162,12170
22,23607,13886
22,24050,17118
22,24495,23337
22,24938,29721
22,25383,41653
22,25827,52934
22,26272,70021
22,26715,86540
22,27160,116748
22,27603,144850
22,28048,176300
22,28492,210213
22,28937,249822
22,29380,283911
22,29825,321072
22,30268,358225
22,30713,386368
22,31157,409551
22,31602,428201
22,32045,425556
22,32490,425558
22,32935,414974
22,33378,390057
22,33823,368864
22,34267,335294
22,34712,304419
22,35155,275240
22,35600,244475
22,36043,215516
22,36488,196436
22,36932,169763
22,37377,147295
22,37820,132307
22,38265,118430
22,38708,108042
22,39153,94415
22,39597,86538
22,40042,76472
22,40485,69982
22,40930,63447
22,41373,60454
22,41818,54350
22,42262,50309
22,42707,47559
22,43150,45096
22,43595,40631
22,44038,39603
22,44483,35548
22,44928,32906
22,45372,33203
22,45817,29953
22,46260,28951
22,46705,29353
22,47148,27202
22,47593,26573
22,48037,24118
22,48482,22779
22,48925,21721
22,49370,22405
22,49813,21853
22,50258,21008
22,50702,19363
22,51147,19287
22,51590,19374
22,52035,19131
22,52478,17787
22,52923,17486
22,53367,16815
22,53812,15098
22,54255,15275
22,54700,14970
22,55143,14654
22,55588,13079
22,56032,13034
22,56477,14598
22,56922,13135
22,57365,12737
22,57810,13331
22,58253,12267
22,58698,11934
22,59142,12921
22,59587,12457
22,60030,11950
22,60475,11065
22,60918,11089
22,61363,10463
22,61807,10059
22,62252,10875
22,62695,10387
22,63140,10353
22,63583,10560
22,64028,9779
22,64472,10406
22,64917,9643
22,65360,10712
22,65805,10963
22,66248,8592
22,66693,10155
22,67137,9859
22,67582,9464
22,68025,9815
22,68470,9086
22,68915,8948
22,69358,9400
22,69803,9173
22,70247,7732
22,70692,9123
22,71135,8546
22,71580,9342
22,72023,9649
22,72468,9147
22,72912,8621
22,73357,8571
22,73800,8363
22,74245,8195
22,74688,7898
22,75133,9026
22,75577,7843
22,76022,9686
22,76465,7769
22,76910,8381
22,77353,8993
22,77798,8343
22,78242,8536
22,78687,11806
22,79130,12887
22,79575,14818
22,80018,20116
22,80463,28509
22,80908,38325
22,81352,53344
22,81797,72548
22,82240,98377
22,82685,129263
22,83128,165241
22,83573,211970
22,84017,257235
22,84462,317129
22,84905,377666
22,85350,432069
22,85793,481839
22,86238,540783
22,86682,579687
22,87127,618385
22,87570,629261
22,88015,648993
22,88458,639523
22,88903,618120
22,89347,582870
22,89792,548748
22,90235,513004
22,90680,462328
22,91123,415424
22,91568,376924
22,92012,343345
22,92457,299803
22,92902,266499
22,93345,236274
22,93790,207417
22,94233,186588
22,94678,161872
22,95122,144018
22,95567,129296
22,96010,116421
22,96455,103666
22,96898,94243
22,97343,82746
22,97787,76942
22,98232,72706
22,98675,64683
22,99120,61362
22,99563,54722
23,00008,52170
23,00452,45622
23,00897,45024
23,01340,43497
23,01785,40678
23,02228,36631
23,02673,34694
23,03117,35272
23,03562,33101
23,04005,31900
23,04450,27888
23,04893,28555
23,05338,26593
23,05783,25425
23,06227,24228
23,06672,24119
23,07115,21858
23,07560,20386
23,08003,19826
23,08448,21820
23,08892,20398
23,09337,18077
23,09780,20835
23,10225,18514
23,10668,16932
23,11113,16984
23,11557,17365
23,12002,16907
23,12445,14674
23,12890,14412
23,13333,15920
23,13778,14536
23,14222,13111
23,14667,15235
23,15110,11876
23,15555,13990
23,15998,13032
23,16443,11199
23,16887,12822
23,17332,13069
23,17777,11021
23,18220,11242
23,18665,11504
23,19108,10403
23,19553,10985
23,19997,11121
23,20442,10434
23,20885,11435
23,21330,10594
23,21773,10869
23,22218,9844
23,22662,9283
23,23107,10297
23,23550,9681
23,23995,11041
23,24438,9647
23,24883,9924
23,25327,9785
23,25772,9843
23,26215,10261
23,26660,9247
23,27103,9408
23,27548,8216
23,27992,8892
23,28437,9797
23,28880,10196
23,29325,9036
23,29770,10198
23,30213,9416
23,30658,8910
23,31102,8811
23,31547,9016
23,31990,8283
23,32435,9662
23,32878,8798
23,33323,8766
23,33767,9415
23,34212,8322
23,34655,8263
23,35100,9558
23,35543,9263
23,35988,9220
23,36432,9134
23,36877,8478
23,37320,8159
23,37765,8787
23,38208,7744
23,38653,7527
23,39097,8681
23,39542,9313
23,39985,9737
23,40430,8156
23,40873,7231
23,41318,9141
23,41763,7926
23,42207,8934
23,42652,10497
23,43095,8550
23,43540,10326
23,43983,9317
23,44428,9616
23,44872,10521
23,45317,8448
23,45760,8320
23,46205,9052
23,46648,9359
23,47093,8724
23,47537,8379
23,47982,7943
23,48425,8870
23,48870,9627
23,49313,8166
23,49758,8551
23,50202,8356
23,50647,8475
23,51090,7156
23,51535,8477
23,51978,7880
23,52423,7801
23,52867,7179
23,53312,7347
23,53757,6680
23,54200,7199
23,54645,7459
23,55088,7030
23,55533,6428
23,55977,6524
23,56422,7239
23,56865,7543
23,57310,7638
23,57753,7007
23,58198,7151
23,58642,6942
23,59087,7106
23,59530,7245
23,59975,7005
23,60418,6070
23,60863,7825
23,61307,7593
23,61752,6333
23,62195,7999
23,62640,7579
23,63083,8170
23,63528,7439
23,63972,7708
23,64417,8125
23,64860,7082
23,65305,6820
23,65750,7042
23,66193,6943
23,66638,6841
23,67082,7133
23,67527,7715
23,67970,7190
23,68415,7250
23,68858,7204
23,69303,7520
23,69747,7279
23,70192,8219
23,70635,7398
23,71080,6891
23,71523,8780
23,71968,7672
23,72412,7196
23,72857,7785
23,73300,7923
23,73745,8410
23,74188,7912
23,74633,7738
23,75077,7589
23,75522,7825
23,75965,8381
23,76410,6815
23,76853,7136
23,77298,7416
23,77742,7467
23,78187,8031
23,78632,7062
23,79075,8256
23,79520,6851
23,79963,7617
23,80408,7982
23,80852,8105
23,81297,7917
23,81740,7716
23,82185,8071
23,82628,7544
23,83073,7367
23,83517,6830
23,83962,8115
23,84405,6997
23,84850,8645
23,85293,7594
23,85738,7732
23,86182,7215
23,86627,7827
23,87070,7384
23,87515,8392
23,87958,8657
23,88403,7878
23,88847,7587
23,89292,8511
23,89735,8762
23,90180,8759
23,90625,9982
23,91068,10011
23,91513,12242
23,91957,13693
23,92402,16116
23,92845,18889
23,93290,24618
23,93733,33613
23,94178,43743
23,94622,53166
23,95067,71984
23,95510,90811
23,95955,119650
23,96398,150331
23,96843,184533
23,97287,221648
23,97732,264823
23,98175,309899
23,98620,362472
23,99063,420243
23,99508,477110
23,99952,531776
24,00397,590546
24,00840,652851
24,01285,704057
24,01728,755353
24,02173,800687
24,02618,814607
24,03062,819185
24,03507,818754
24,03950,780539
24,04395,721913
24,04838,666730
24,05283,610801
24,05727,541171
24,06172,480043
24,06615,427107
24,07060,371195
24,07503,324401
24,07948,285901
24,08392,256294
24,08837,227439
24,09280,201773
24,09725,183874
24,10168,160593
24,10613,146145
24,11057,133460
24,11502,122078
24,11945,110442
24,12390,102625
24,12833,97338
24,13278,88616
24,13722,81283
24,14167,79096
24,14612,70880
24,15055,68630
24,15500,62839
24,15943,59073
24,16388,56611
24,16832,54257
24,17277,50255
24,17720,49313
24,18165,45175
24,18608,43129
24,19053,44278
24,19497,41940
24,19942,38287
24,20385,37010
24,20830,36871
24,21273,33123
24,21718,33954
24,22162,30171
24,22607,30381
24,23050,28634
24,23495,28586
24,23938,28289
24,24383,28386
24,24827,26966
24,25272,25370
24,25715,25021
24,26160,23355
24,26605,21633
24,27048,22701
24,27493,22726
24,27937,19686
24,28382,19608
24,28825,19960
24,29270,19313
24,29713,19755
24,30158,20054
24,30602,18278
24,31047,18881
24,31490,18997
24,31935,18627
24,32378,16726
24,32823,17797
24,33267,15540
24,33712,15941
24,34155,16196
24,34600,15781
24,35043,16208
24,35488,15402
24,35932,14652
24,36377,14955
24,36820,13959
24,37265,14303
24,37708,13844
24,38153,13859
24,38598,13693
24,39042,13893
24,39487,14659
24,39930,14029
24,40375,13738
24,40818,13429
24,41263,13990
24,41707,13773
24,42152,13099
24,42595,11834
24,43040,12083
24,43483,12323
24,43928,12335
24,44372,12271
24,44817,12397
24,45260,11832
24,45705,11960
24,46148,11783
24,46593,12394
24,47037,11718
24,47482,11329
24,47925,11312
24,48370,9603
24,48813,11297
24,49258,11144
24,49702,11009
24,50147,10580
24,50590,11235
24,51035,9679
24,51480,11062
24,51923,10730
24,52368,10811
24,52812,10975
24,53257,10542
24,53700,10107
24,54145,10630
24,54588,10482
24,55033,9917
24,55477,11070
24,55922,9654
24,56365,10443
24,56810,9985
24,57253,10038
24,57698,8404
24,58142,10630
24,58587,10371
24,59030,11042
24,59475,9261
24,59918,9584
24,60363,8949
24,60807,9949
24,61252,10441
24,61695,10087
24,62140,9450
24,62583,9186
24,63028,10476
24,63473,10649
24,63917,8740
24,64362,9956
24,64805,10427
24,65250,8913
24,65693,9379
24,66138,9683
24,66582,9556
24,67027,9541
24,67470,10153
24,67915,8820
24,68358,8697
24,68803,8701
24,69247,9740
24,69692,9294
24,70135,9178
24,70580,8985
24,71023,9064
24,71468,10293
24,71912,7803
24,72357,8639
24,72800,9147
24,73245,7349
24,73688,9751
24,74133,9772
24,74577,9511
24,75022,9986
24,75467,11603
24,75910,11163
24,76355,14209
24,76798,17359
24,77243,20916
24,77687,27382
24,78132,33868
24,78575,40499
24,79020,53440
24,79463,71927
24,79908,86384
24,80352,109514
24,80797,136149
24,81240,162107
24,81685,196086
24,82128,223972
24,82573,258503
24,83017,291670
24,83462,323494
24,83905,351433
24,84350,367169
24,84793,380920
24,85238,384690
24,85682,375306
24,86127,368569
24,86570,354906
24,87015,328925
24,87460,301945
24,87903,281866
24,88348,250464
24,88792,231667
24,89237,202543
24,89680,185468
24,90125,163317
24,90568,146063
24,91013,132255
24,91457,116890
24,91902,106594
24,92345,95463
24,92790,88550
24,93233,81304
24,93678,71399
24,94122,67932
24,94567,62573
24,95010,56089
24,95455,51553
24,95898,47984
24,96343,45475
24,96787,44649
24,97232,42751
24,97675,38772
24,98120,36715
24,98563,33413
24,99008,35059
24,99453,32815
24,99897,31668
25,00342,30631
25,00785,27905
25,01230,26583
25,01673,26676
25,02118,25375
25,02562,25231
25,03007,23249
25,03450,23086
25,03895,21581
25,04338,21331
25,04783,21153
25,05227,19145
25,05672,20782
25,06115,18475
25,06560,18889
25,07003,18376
25,07448,17216
25,07892,17988
25,08337,15378
25,08780,16846
25,09225,15450
25,09668,15129
25,10113,15543
25,10557,17428
25,11002,15659
25,11447,14169
25,11890,13634
25,12335,15296
25,12778,14811
25,13223,13463
25,13667,14111
25,14112,12906
25,14555,13857
25,15000,11731
25,15443,12811
25,15888,12935
25,16332,13753
25,16777,13053
25,17220,14440
25,17665,11874
25,18108,13610
25,18553,12723
25,18997,12449
25,19442,11213
25,19885,12312
25,20330,11622
25,20773,11313
25,21218,11125
25,21662,11094
25,22107,10573
25,22550,10802
25,22995,10614
25,23438,11257
25,23883,10827
25,24328,10450
25,24772,11861
25,25217,8977
25,25660,10797
25,26105,9426
25,26548,10591
25,26993,10209
25,27437,10631
25,27882,10408
25,28325,9773
25,28770,10658
25,29213,9370
25,29658,10387
25,30102,10114
25,30547,10063
25,30990,11596
25,31435,11215
25,31878,9877
25,32323,9925
25,32767,8722
25,33212,8582
25,33655,9549
25,34100,9069
25,34543,9375
25,34988,9808
25,35432,9116
25,35877,10770
25,36322,9058
25,36765,10039
25,37210,9322
25,37653,8749
25,38098,8629
25,38542,8879
25,38987,9390
25,39430,10220
25,39875,8141
25,40318,8860
25,40763,8987
25,41207,9418
25,41652,8814
25,42095,9404
25,42540,9911
25,42983,10103
25,43428,9039
25,43872,7631
25,44317,8149
25,44760,8419
25,45205,8165
25,45648,8799
25,46093,8855
25,46537,8263
25,46982,9076
25,47425,9720
25,47870,9173
25,48315,8619
25,48758,9602
25,49203,9542
25,49647,10306
25,50092,9716
25,50535,9822
25,50980,9031
25,51423,9236
25,51868,8629
25,52312,9361
25,52757,8413
25,53200,7987
25,53645,9017
25,54088,9447
25,54533,9256
25,54977,9105
25,55422,8949
25,55865,7944
25,56310,8654
25,56753,8806
25,57198,8974
25,57642,8727
25,58087,9073
25,58530,8905
25,58975,8337
25,59418,9506
25,59863,9158
25,60308,8779
25,60752,9791
25,61197,8743
25,61640,9351
25,62085,9996
25,62528,8516
25,62973,8961
25,63417,8314
25,63862,9245
25,64305,9463
25,64750,9248
25,65193,9250
25,65638,8950
25,66082,8802
25,66527,9681
25,66970,10003
25,67415,9480
25,67858,10812
25,68303,9195
25,68747,9205
25,69192,7963
25,69635,9580
25,70080,8594
25,70523,9431
25,70968,8862
25,71412,8722
25,71857,9553
25,72302,9477
25,72745,8889
25,73190,9719
25,73633,9586
25,74078,8958
25,74522,10798
25,74967,9446
25,75410,9264
25,75855,9958
25,76298,9747
25,76743,10074
25,77187,8594
25,77632,9491
25,78075,9172
25,78520,8539
25,78963,9641
25,79408,9047
25,79852,8524
25,80297,8577
25,80740,9009
25,81185,9158
25,81628,9061
25,82073,8414
25,82517,8662
25,82962,9961
25,83405,9385
25,83850,8758
25,84295,9556
25,84738,9157
25,85183,8793
25,85627,8977
25,86072,9294
25,86515,9244
25,86960,8529
25,87403,9224
25,87848,8017
25,88292,9264
25,88737,8707
25,89180,8894
25,89625,9478
25,90068,8673
25,90513,7819
25,90957,8406
25,91402,7744
25,91845,7574
25,92290,9466
25,92733,8510
25,93178,8865
25,93622,8755
25,94067,8949
25,94510,8985
25,94955,8724
25,95398,8879
25,95843,8751
25,96287,9553
25,96732,8574
25,97177,9457
25,97620,7882
25,98065,7770
25,98508,9073
25,98953,8096
25,99397,9218
25,99842,8361
26,00285,8274
26,00730,8880
26,01173,9121
26,01618,9193
26,02062,9355
26,02507,8401
26,02950,8353
26,03395,8025
26,03838,8540
26,04283,7980
26,04727,9463
26,05172,8915
26,05615,8985
26,06060,7973
26,06503,9605
26,06948,8692
26,07392,9287
26,07837,9390
26,08280,9141
26,08725,8675
26,09170,8392
26,09613,9142
26,10058,9514
26,10502,9269
26,10947,8449
26,11390,8547
26,11835,8041
26,12278,8746
26,12723,8225
26,13167,8953
26,13612,8522
26,14055,9571
26,14500,9135
26,14943,9093
26,15388,10034
26,15832,9862
26,16277,8169
26,16720,8848
26,17165,8532
26,17608,8034
26,18053,8395
26,18497,9591
26,18942,9010
26,19385,9184
26,19830,8713
26,20273,9096
26,20718,8589
26,21163,8464
26,21607,9105
26,22052,9558
26,22495,9273
26,22940,8391
26,23383,8632
26,23828,8746
26,24272,8365
26,24717,8769
26,25160,10181
26,25605,9138
26,26048,7664
26,26493,8665
26,26937,10000
26,27382,8355
26,27825,9450
26,28270,10131
26,28713,9574
26,29158,10675
26,29602,9055
26,30047,8956
26,30490,8789
26,30935,8835
26,31378,8815
26,31823,10640
26,32267,9552
26,32712,8947
26,33157,8948
26,33600,8985
26,34045,9729
26,34488,8415
26,34933,8020
26,35377,9616
26,35822,9252
26,36265,9621
26,36710,9151
26,37153,9159
26,37598,8770
26,38042,9260
26,38487,8878
26,38930,9271
26,39375,9748
26,39818,8915
26,40263,9942
26,40707,9674
26,41152,9342
26,41595,10629
26,42040,8611
26,42483,9587
26,42928,9737
26,43372,9042
26,43817,8883
26,44260,9823
26,44705,9882
26,45150,9404
26,45593,10727
26,46038,8270
26,46482,8275
26,46927,8799
26,47370,9731
26,47815,9657
26,48258,8550
26,48703,8742
26,49147,8752
26,49592,8970
26,50035,8447
26,50480,8683
26,50923,8798
26,51368,9409
26,51812,9868
26,52257,9797
26,52700,9940
26,53145,9669
26,53588,8124
26,54033,8964
26,54477,9823
26,54922,9566
26,55365,9318
26,55810,9456
26,56253,8956
26,56698,8788
26,57143,9030
26,57587,9716
26,58032,8618
26,58475,9600
26,58920,9164
26,59363,9520
26,59808,8735
26,60252,9246
26,60697,9813
26,61140,10054
26,61585,8967
26,62028,9441
26,62473,8689
26,62917,9650
26,63362,9613
26,63805,8366
26,64250,10157
26,64693,7919
26,65138,9218
26,65582,8357
26,66027,9403
26,66470,9641
26,66915,8525
26,67358,8645
26,67803,9738
26,68247,10140
26,68692,8903
26,69135,9348
26,69580,9715
26,70025,7705
26,70468,10031
26,70913,9545
26,71357,10240
26,71802,9813
26,72245,9720
26,72690,9025
26,73133,9980
26,73578,8705
26,74022,9823
26,74467,9408
26,74910,9576
26,75355,8907
26,75798,9202
26,76243,9877
26,76687,8840
26,77132,10529
26,77575,10513
26,78020,10476
26,78463,9733
26,78908,9311
26,79352,9826
26,79797,10041
26,80240,9614
26,80685,9268
26,81128,9629
26,81573,8990
26,82018,9724
26,82462,9621
26,82907,9095
26,83350,9544
26,83795,9669
26,84238,8733
26,84683,9704
26,85127,9035
26,85572,9556
26,86015,8716
26,86460,9507
26,86903,9001
26,87348,8305
26,87792,10039
26,88237,8493
26,88680,9391
26,89125,10424
26,89568,9878
26,90013,9223
26,90457,9295
26,90902,9327
26,91345,9328
26,91790,9492
26,92233,8398
26,92678,10270
26,93122,9793
26,93567,8583
26,94012,9192
26,94455,9801
26,94900,9835
26,95343,10061
26,95788,10810
26,96232,13023
26,96677,14718
26,97120,16525
26,97565,20353
26,98008,24470
26,98453,33047
26,98897,38904
26,99342,53465
26,99785,64719
27,00230,79134
27,00673,92650
27,01118,112263
27,01562,133324
27,02007,156908
27,02450,174982
27,02895,197726
27,03338,208665
27,03783,225998
27,04227,235890
27,04672,242966
27,05115,238426
27,05560,233592
27,06005,229513
27,06448,211157
27,06893,204138
27,07337,188725
27,07782,175012
27,08225,156469
27,08670,146336
27,09113,128982
27,09558,114896
27,10002,105132
27,10447,92714
27,10890,82851
27,11335,75074
27,11778,70112
27,12223,62320
27,12667,56214
27,13112,52291
27,13555,46698
27,14000,42816
27,14443,40317
27,14888,36225
27,15332,34926
27,15777,34552
27,16220,30628
27,16665,28778
27,17108,27455
27,17553,25611
27,17998,25939
27,18442,26432
27,18887,22342
27,19330,22153
27,19775,21074
27,20218,21823
27,20663,19723
27,21107,19495
27,21552,18906
27,21995,19801
27,22440,18726
27,22883,18843
27,23328,17476
27,23772,16902
27,24217,16503
27,24660,16800
27,25105,14830
27,25548,14122
27,25993,14971
27,26437,14913
27,26882,15982
27,27325,14593
27,27770,13212
27,28213,13724
27,28658,13414
27,29102,13438
27,29547,13054
27,29992,13433
27,30435,12991
27,30880,12035
27,31323,13136
27,31768,10877
27,32212,12158
27,32657,12654
27,33100,12860
27,33545,12466
27,33988,11808
27,34433,11452
27,34877,11092
27,35322,12562
27,35765,10934
27,36210,11591
27,36653,10789
27,37098,11078
27,37542,11234
27,37987,11923
27,38430,11192
27,38875,11354
27,39318,10871
27,39763,10190
27,40207,9963
27,40652,10669
27,41095,11119
27,41540,11507
27,41983,10631
27,42428,10713
27,42873,10759
27,43317,10200
27,43762,10148
27,44205,10303
27,44650,10522
27,45093,10627
27,45538,10137
27,45982,10891
27,46427,10415
27,46870,10868
27,47315,10146
27,47758,10465
27,48203,10621
27,48647,10363
27,49092,9691
27,49535,9374
27,49980,9820
27,50423,11783
27,50868,10329
27,51312,10403
27,51757,9763
27,52200,11679
27,52645,10355
27,53088,9161
27,53533,11401
27,53977,10550
27,54422,10819
27,54867,10237
27,55310,10219
27,55755,10584
27,56198,10061
27,56643,11843
27,57087,11017
27,57532,10140
27,57975,10606
27,58420,10874
27,58863,10626
27,59308,11511
27,59752,10814
27,60197,10516
27,60640,11642
27,61085,10592
27,61528,10405
27,61973,9693
27,62417,9923
27,62862,10452
27,63305,10193
27,63750,11280
27,64193,9617
27,64638,9762
27,65082,10461
27,65527,9826
27,65970,9940
27,66415,9505
27,66860,10894
27,67303,10322
27,67748,9895
27,68192,10250
27,68637,11037
27,69080,10475
27,69525,9985
27,69968,10501
27,70413,10769
27,70857,10178
27,71302,10170
27,71745,10218
27,72190,10833
27,72633,9313
27,73078,9053
27,73522,8193
27,73967,11137
27,74410,11351
27,74855,9907
27,75298,9467
27,75743,10216
27,76187,11322
27,76632,9977
27,77075,10083
27,77520,9222
27,77963,10459
27,78408,10415
27,78853,9548
27,79297,10427
27,79742,10260
27,80185,9999
27,80630,11176
27,81073,10881
27,81518,9034
27,81962,9947
27,82407,9509
27,82850,9844
27,83295,10308
27,83738,10020
27,84183,10080
27,84627,9894
27,85072,10895
27,85515,10027
27,85960,9643
27,86403,10726
27,86848,10286
27,87292,9479
27,87737,10742
27,88180,10709
27,88625,11159
27,89068,11037
27,89513,9714
27,89957,11449
27,90402,11210
27,90847,11064
27,91290,10142
27,91735,9634
27,92178,10231
27,92623,10157
27,93067,11224
27,93512,11236
27,93955,10658
27,94400,10050
27,94843,10630
27,95288,11696
27,95732,10387
27,96177,11152
27,96620,10563
27,97065,10325
27,97508,10298
27,97953,10629
27,98397,10332
27,98842,10362
27,99285,10966
27,99730,10613
28,00173,9727
28,00618,11566
28,01062,11143
28,01507,9768
28,01950,11299
28,02395,11242
28,02840,10979
28,03283,10210
28,03728,11070
28,04172,9696
28,04617,11188
28,05060,9898
28,05505,10261
28,05948,11156
