D:\MassHunter\GCMS\1\data\Amal\Constant flow\120C\120C_1ml-min_4C-min_2.D Tue Sep 03 15:28:47 2024
Start of data points
5,19083	403958
5,19495	383693
5,19907	365061
5,20320	350976
5,20732	339076
5,21143	331063
5,21557	317904
5,21968	305628
5,22380	293154
5,22793	287085
5,23205	277816
5,23617	267281
5,24030	259820
5,24442	251229
5,24853	245526
5,25265	236676
5,25678	240677
5,26090	228612
5,26502	224265
5,26915	213542
5,27327	205873
5,27738	208223
5,28152	200339
5,28563	191403
5,28975	190786
5,29388	185798
5,29800	179903
5,30212	176783
5,30625	173807
5,31037	172226
5,31448	171150
5,31862	167208
5,32273	161214
5,32685	157779
5,33098	154706
5,33510	151834
5,33922	150900
5,34333	147600
5,34747	146472
5,35158	140985
5,35570	143196
5,35983	137813
5,36395	138135
5,36807	133892
5,37220	134998
5,37632	134483
5,38043	131024
5,38457	130299
5,38868	128636
5,39280	129466
5,39693	124816
5,40105	121908
5,40517	122891
5,40930	123118
5,41342	121252
5,41753	120341
5,42167	117482
5,42578	119772
5,42990	117418
5,43402	117436
5,43815	110315
5,44227	118136
5,44638	108682
5,45052	109978
5,45463	109353
5,45875	112202
5,46288	107392
5,46700	108069
5,47112	107374
5,47525	106015
5,47937	106477
5,48348	106000
5,48762	105682
5,49173	104523
5,49585	102036
5,49998	102406
5,50410	102526
5,50822	100256
5,51235	100840
5,51647	98011
5,52058	99275
5,52470	95980
5,52883	96939
5,53295	99188
5,53707	99576
5,54120	99543
5,54532	98373
5,54943	95059
5,55357	97632
5,55768	97454
5,56180	96756
5,56593	95457
5,57005	95436
5,57417	97472
5,57830	96702
5,58242	96902
5,58653	99577
5,59067	97821
5,59478	99686
5,59890	102127
5,60303	98278
5,60715	100361
5,61127	97378
5,61538	98115
5,61952	98113
5,62363	100811
5,62775	98741
5,63188	96659
5,63600	99581
5,64012	100060
5,64425	100844
5,64837	101895
5,65248	100377
5,65662	101000
5,66073	102923
5,66485	103557
5,66898	100374
5,67310	101944
5,67722	102480
5,68135	100978
5,68547	100298
5,68958	99830
5,69372	100489
5,69783	98253
5,70195	98923
5,70607	99514
5,71020	98841
5,71432	97480
5,71843	94702
5,72257	94036
5,72668	92844
5,73080	93789
5,73493	93801
5,73905	93828
5,74317	90064
5,74730	91682
5,75142	90366
5,75553	87815
5,75967	87049
5,76378	87980
5,76790	87466
5,77203	85960
5,77615	85570
5,78027	84061
5,78440	86119
5,78852	85349
5,79263	92927
5,79675	101816
5,80088	119919
5,80500	153184
5,80912	209735
5,81325	289920
5,81737	394046
5,82148	507862
5,82562	628900
5,82973	728849
5,83385	793362
5,83798	845484
5,84210	876633
5,84622	886632
5,85035	877427
5,85447	850265
5,85858	822767
5,86272	794513
5,86683	768346
5,87095	745359
5,87508	711274
5,87920	681577
5,88332	649991
5,88743	620285
5,89157	613691
5,89568	579144
5,89980	561682
5,90393	532013
5,90805	509510
5,91217	493718
5,91630	477513
5,92042	458987
5,92453	442419
5,92867	430312
5,93278	405522
5,93690	394411
5,94103	372484
5,94515	363667
5,94927	347385
5,95340	337839
5,95752	317653
5,96163	310309
5,96577	289635
5,96988	280940
5,97400	268874
5,97812	256652
5,98225	237331
5,98637	229055
5,99048	216885
5,99462	204715
5,99873	194725
6,00285	183917
6,00698	172251
6,01110	165826
6,01522	155888
6,01935	147749
6,02347	140548
6,02758	136494
6,03172	127441
6,03583	125654
6,03995	119574
6,04408	111541
6,04820	108709
6,05232	104379
6,05645	101236
6,06057	100977
6,06468	92674
6,06880	90346
6,07293	91493
6,07705	86203
6,08117	86308
6,08530	80871
6,08942	79739
6,09353	79835
6,09767	75605
6,10178	73733
6,10590	75094
6,11003	73482
6,11415	72482
6,11827	69095
6,12240	68811
6,12652	69393
6,13063	67564
6,13477	68431
6,13888	66017
6,14300	66688
6,14713	65832
6,15125	65166
6,15537	66051
6,15948	63777
6,16362	63298
6,16773	64994
6,17185	61551
6,17598	62364
6,18010	62012
6,18422	62361
6,18835	63348
6,19247	61813
6,19658	60599
6,20072	58573
6,20483	57717
6,20895	59932
6,21308	59347
6,21720	58467
6,22132	57884
6,22545	59409
6,22957	57369
6,23368	57572
6,23782	57908
6,24193	57482
6,24605	58069
6,25017	57915
6,25430	57464
6,25842	56792
6,26253	55223
6,26667	55452
6,27078	55082
6,27490	54632
6,27903	54270
6,28315	54399
6,28727	54418
6,29140	54748
6,29552	51447
6,29963	54071
6,30377	53144
6,30788	53729
6,31200	53273
6,31613	53826
6,32025	50456
6,32437	49785
6,32850	51057
6,33262	52295
6,33673	50131
6,34085	54685
6,34498	52105
6,34910	51877
6,35322	51085
6,35735	51603
6,36147	51177
6,36558	52024
6,36972	51925
6,37383	51316
6,37795	49582
6,38208	50797
6,38620	52022
6,39032	50921
6,39445	49973
6,39857	49405
6,40268	49139
6,40682	49116
6,41093	49291
6,41505	49731
6,41918	48806
6,42330	49247
6,42742	47783
6,43153	46771
6,43567	47586
6,43978	47477
6,44390	46455
6,44803	46092
6,45215	47793
6,45627	47153
6,46040	45964
6,46452	48866
6,46863	46197
6,47277	46011
6,47688	45268
6,48100	46526
6,48513	45249
6,48925	46648
6,49337	45323
6,49750	45712
6,50162	45813
6,50573	46627
6,50987	46002
6,51398	45859
6,51810	47052
6,52222	44863
6,52635	44730
6,53047	46666
6,53458	46152
6,53872	47358
6,54283	47329
6,54695	46201
6,55108	45364
6,55520	44364
6,55932	44945
6,56345	45776
6,56757	45104
6,57168	43484
6,57582	43975
6,57993	43406
6,58405	42150
6,58818	43895
6,59230	43590
6,59642	44926
6,60055	42319
6,60467	42072
6,60878	42931
6,61292	43007
6,61703	43238
6,62115	43012
6,62527	42816
6,62940	42543
6,63352	40546
6,63763	41508
6,64177	41812
6,64588	40129
6,65000	41764
6,65413	42514
6,65825	41318
6,66237	41402
6,66650	41315
6,67062	39877
6,67473	40196
6,67887	41896
6,68298	41353
6,68710	41984
6,69123	40965
6,69535	37931
6,69947	40721
6,70360	40726
6,70772	40161
6,71183	40579
6,71595	38641
6,72008	38771
6,72420	40697
6,72832	38188
6,73245	40606
6,73657	40049
6,74068	41268
6,74482	40918
6,74893	39497
6,75305	40360
6,75718	41977
6,76130	40472
6,76542	40233
6,76955	41195
6,77367	41035
6,77778	40412
6,78192	41198
6,78603	39549
6,79015	40330
6,79428	40639
6,79840	39703
6,80252	39782
6,80663	39858
6,81077	40648
6,81488	39059
6,81900	38723
6,82313	36989
6,82725	39734
6,83137	38394
6,83550	38264
6,83962	39317
6,84373	38263
6,84787	35699
6,85198	37873
6,85610	37638
6,86023	37902
6,86435	37363
6,86847	37431
6,87260	37154
6,87672	37766
6,88083	36628
6,88497	36650
6,88908	38249
6,89320	37201
6,89732	36004
6,90145	35590
6,90557	36296
6,90968	38068
6,91382	36499
6,91793	35293
6,92205	34924
6,92618	36697
6,93030	36212
6,93442	36860
6,93855	36193
6,94267	36951
6,94678	35477
6,95092	36674
6,95503	35620
6,95915	36410
6,96328	35382
6,96740	36583
6,97152	35708
6,97565	34911
6,97977	36546
6,98388	34375
6,98800	33997
6,99213	37352
6,99625	35560
7,00037	34271
7,00450	33530
7,00862	36018
7,01273	32855
7,01687	34560
7,02098	36139
7,02510	32833
7,02923	34592
7,03335	34362
7,03747	33387
7,04160	32872
7,04572	32943
7,04983	32685
7,05397	34079
7,05808	33439
7,06220	31846
7,06633	33367
7,07045	35809
7,07457	33710
7,07868	34074
7,08282	32783
7,08693	32521
7,09105	33792
7,09518	32842
7,09930	32122
7,10342	34242
7,10755	33545
7,11167	31675
7,11578	32539
7,11992	32093
7,12403	32087
7,12815	32215
7,13228	32984
7,13640	32989
7,14052	32464
7,14465	29857
7,14877	33649
7,15288	32847
7,15702	32573
7,16113	30605
7,16525	32553
7,16937	32060
7,17350	31711
7,17762	31581
7,18173	32492
7,18587	32637
7,18998	32414
7,19410	31676
7,19823	31931
7,20235	32550
7,20647	32380
7,21060	30876
7,21472	31753
7,21883	33196
7,22297	32304
7,22708	32321
7,23120	32401
7,23533	31134
7,23945	31508
7,24357	31269
7,24770	32770
7,25182	31718
7,25593	31310
7,26005	30397
7,26418	31601
7,26830	31013
7,27242	30201
7,27655	30970
7,28067	31728
7,28478	31949
7,28892	30296
7,29303	31824
7,29715	34186
7,30128	41741
7,30540	47217
7,30952	60929
7,31365	87841
7,31777	129681
7,32188	186280
7,32602	261178
7,33013	365701
7,33425	475205
7,33838	595775
7,34250	721732
7,34662	835081
7,35073	925262
7,35487	999742
7,35898	1046824
7,36310	1084289
7,36723	1090938
7,37135	1084971
7,37547	1066203
7,37960	1044653
7,38372	1000688
7,38783	969706
7,39197	928531
7,39608	892033
7,40020	842264
7,40433	810396
7,40845	764864
7,41257	734564
7,41670	694888
7,42082	656235
7,42493	631381
7,42907	592915
7,43318	561676
7,43730	529008
7,44142	499856
7,44555	470420
7,44967	441174
7,45378	409707
7,45792	379143
7,46203	355490
7,46615	330601
7,47028	300972
7,47440	282256
7,47852	261306
7,48265	237192
7,48677	219932
7,49088	202477
7,49502	186955
7,49913	172621
7,50325	155889
7,50738	144659
7,51150	137645
7,51562	123066
7,51975	115439
7,52387	105219
7,52798	98066
7,53210	92818
7,53623	87016
7,54035	80652
7,54447	80035
7,54860	71165
7,55272	70114
7,55683	64575
7,56097	64307
7,56508	61148
7,56920	57034
7,57333	56904
7,57745	54318
7,58157	53106
7,58570	49905
7,58982	47635
7,59393	47760
7,59807	46215
7,60218	43278
7,60630	43209
7,61043	40627
7,61455	41340
7,61867	40646
7,62278	41719
7,62692	39240
7,63103	40001
7,63515	38375
7,63928	37601
7,64340	37110
7,64752	37179
7,65165	36066
7,65577	34577
7,65988	36861
7,66402	35710
7,66813	33671
7,67225	33770
7,67638	34189
7,68050	34605
7,68462	35045
7,68875	32162
7,69287	33164
7,69698	31816
7,70112	31108
7,70523	30119
7,70935	31695
7,71347	31200
7,71760	31496
7,72172	31841
7,72583	31888
7,72997	28347
7,73408	30055
7,73820	28538
7,74233	30530
7,74645	30354
7,75057	29697
7,75470	28647
7,75882	29782
7,76293	29401
7,76707	27893
7,77118	28839
7,77530	29491
7,77943	28928
7,78355	27896
7,78767	27374
7,79180	29531
7,79592	26488
7,80003	29391
7,80415	29720
7,80828	30459
7,81240	28717
7,81652	29381
7,82065	27409
7,82477	28677
7,82888	29224
7,83302	30165
7,83713	30101
7,84125	29284
7,84538	29422
7,84950	28858
7,85362	28184
7,85775	28928
7,86187	28281
7,86598	27862
7,87012	28175
7,87423	26022
7,87835	28990
7,88248	27510
7,88660	28457
7,89072	28057
7,89483	26026
7,89897	27023
7,90308	26558
7,90720	27095
7,91133	26565
7,91545	24963
7,91957	25378
7,92370	25892
7,92782	26511
7,93193	25317
7,93607	24511
7,94018	25877
7,94430	24804
7,94843	26693
7,95255	24717
7,95667	24958
7,96080	24490
7,96492	27023
7,96903	24971
7,97317	25110
7,97728	25909
7,98140	25982
7,98552	25513
7,98965	25236
7,99377	25558
7,99788	24944
8,00202	25525
8,00613	23953
8,01025	23441
8,01438	23898
8,01850	25398
8,02262	24213
8,02675	24153
8,03087	22670
8,03498	24418
8,03912	25401
8,04323	23191
8,04735	24368
8,05148	22074
8,05560	23164
8,05972	23248
8,06385	23602
8,06797	24671
8,07208	23999
8,07620	24121
8,08033	24360
8,08445	23869
8,08857	23536
8,09270	23595
8,09682	24929
8,10093	22842
8,10507	24322
8,10918	23889
8,11330	23924
8,11743	25073
8,12155	23513
8,12567	22536
8,12980	23903
8,13392	23631
8,13803	22140
8,14217	23248
8,14628	22773
8,15040	23852
8,15453	23112
8,15865	22712
8,16277	23366
8,16688	23129
8,17102	23701
8,17513	22749
8,17925	22322
8,18338	22985
8,18750	22374
8,19162	22461
8,19575	22632
8,19987	23162
8,20398	21777
8,20812	23136
8,21223	21174
8,21635	23002
8,22048	20815
8,22460	24158
8,22872	23130
8,23285	20867
8,23697	22374
8,24108	21006
8,24522	21768
8,24933	22947
8,25345	21990
8,25758	21929
8,26170	21058
8,26582	20649
8,26993	22059
8,27407	22798
8,27818	21979
8,28230	21535
8,28643	20660
8,29055	21261
8,29467	21281
8,29880	21384
8,30292	21990
8,30703	22352
8,31117	21030
8,31528	21908
8,31940	22335
8,32353	21274
8,32765	20952
8,33177	22788
8,33590	22066
8,34002	21595
8,34413	23114
8,34827	22522
8,35238	26300
8,35650	28113
8,36062	31974
8,36475	44569
8,36887	61068
8,37298	82811
8,37712	113920
8,38123	152284
8,38535	204802
8,38948	260365
8,39360	332114
8,39772	388036
8,40185	447939
8,40597	501354
8,41008	546060
8,41422	585556
8,41833	597807
8,42245	607708
8,42658	620636
8,43070	606102
8,43482	601958
8,43895	579073
8,44307	563341
8,44718	534327
8,45130	508197
8,45543	486751
8,45955	458877
8,46367	437464
8,46780	413050
8,47192	388178
8,47603	365264
8,48017	339604
8,48428	321621
8,48840	295203
8,49253	271482
8,49665	256771
8,50077	233872
8,50490	217066
8,50902	198779
8,51313	181554
8,51727	165417
8,52138	147712
8,52550	139032
8,52963	125502
8,53375	114922
8,53787	107524
8,54198	95502
8,54612	89489
8,55023	80873
8,55435	76336
8,55848	70667
8,56260	67148
8,56672	62062
8,57085	59651
8,57497	54049
8,57908	51933
8,58322	49625
8,58733	46020
8,59145	44409
8,59558	43186
8,59970	41266
8,60382	39208
8,60795	36516
8,61207	36232
8,61618	37866
8,62032	34415
8,62443	33000
8,62855	32852
8,63267	33171
8,63680	32782
8,64092	31197
8,64503	31167
8,64917	30733
8,65328	29627
8,65740	30945
8,66153	30526
8,66565	30052
8,66977	29332
8,67390	28377
8,67802	27740
8,68213	27976
8,68627	27284
8,69038	26149
8,69450	26455
8,69863	24263
8,70275	25893
8,70687	26381
8,71100	26875
8,71512	25570
8,71923	24396
8,72335	24357
8,72748	24364
8,73160	23615
8,73572	22863
8,73985	22905
8,74397	21480
8,74808	23070
8,75222	22842
8,75633	23433
8,76045	22162
8,76458	21052
8,76870	20698
8,77282	21937
8,77695	21578
8,78107	21031
8,78518	21731
8,78932	22848
8,79343	20627
8,79755	21644
8,80168	21620
8,80580	19529
8,80992	20892
8,81403	20835
8,81817	20711
8,82228	21618
8,82640	20599
8,83053	21479
8,83465	20212
8,83877	21105
8,84290	22404
8,84702	21048
8,85113	22352
8,85527	20643
8,85938	21144
8,86350	21982
8,86763	21781
8,87175	22664
8,87587	22305
8,88000	20991
8,88412	22011
8,88823	21100
8,89237	21062
8,89648	23149
8,90060	20452
8,90472	21288
8,90885	19493
8,91297	20881
8,91708	19536
8,92122	20267
8,92533	19905
8,92945	19627
8,93358	18408
8,93770	20190
8,94182	18926
8,94595	18911
8,95007	18782
8,95418	18186
8,95832	18266
8,96243	18550
8,96655	18024
8,97068	17835
8,97480	18467
8,97892	18693
8,98305	18928
8,98717	17757
8,99128	17949
8,99540	17721
8,99953	16282
9,00365	17455
9,00777	17232
9,01190	18524
9,01602	17775
9,02013	17398
9,02427	16615
9,02838	17661
9,03250	16539
9,03663	17777
9,04075	17382
9,04487	17228
9,04900	16538
9,05312	18664
9,05723	17540
9,06137	17894
9,06548	16904
9,06960	17169
9,07373	17529
9,07785	18183
9,08197	16795
9,08608	17566
9,09022	16828
9,09433	16654
9,09845	16480
9,10258	17457
9,10670	16944
9,11082	15827
9,11495	17257
9,11907	17580
9,12318	16719
9,12732	16789
9,13143	16716
9,13555	17689
9,13968	17031
9,14380	16360
9,14792	17849
9,15205	16862
9,15617	17021
9,16028	16484
9,16442	17621
9,16853	17562
9,17265	17566
9,17677	16334
9,18090	19461
9,18502	15812
9,18913	15860
9,19327	17365
9,19738	16397
9,20150	16732
9,20563	15341
9,20975	17126
9,21387	17324
9,21800	16589
9,22212	16182
9,22623	15315
9,23037	15176
9,23448	17371
9,23860	16304
9,24273	16663
9,24685	16338
9,25097	16943
9,25510	15922
9,25922	15688
9,26333	16956
9,26745	15736
9,27158	16679
9,27570	16780
9,27982	16141
9,28395	16559
9,28807	15017
9,29218	15127
9,29632	17022
9,30043	16232
9,30455	17046
9,30868	16534
9,31280	15483
9,31692	15133
9,32105	15580
9,32517	16747
9,32928	14994
9,33342	15605
9,33753	16053
9,34165	15756
9,34578	15900
9,34990	16390
9,35402	16875
9,35813	16015
9,36227	16778
9,36638	18062
9,37050	15124
9,37463	14831
9,37875	15564
9,38287	17508
9,38700	15856
9,39112	16369
9,39523	15626
9,39937	16485
9,40348	16427
9,40760	16329
9,41173	16205
9,41585	15908
9,41997	15751
9,42410	15971
9,42822	16143
9,43233	16069
9,43647	14592
9,44058	15626
9,44470	15221
9,44882	15513
9,45295	15721
9,45707	15467
9,46118	16292
9,46532	16514
9,46943	15902
9,47355	15862
9,47768	14784
9,48180	15958
9,48592	15029
9,49005	15027
9,49417	16375
9,49828	14844
9,50242	14773
9,50653	15135
9,51065	14572
9,51478	14747
9,51890	14363
9,52302	15309
9,52715	17092
9,53127	16300
9,53538	14844
9,53950	14425
9,54363	14899
9,54775	16360
9,55187	15030
9,55600	15530
9,56012	16327
9,56423	16137
9,56837	15523
9,57248	15600
9,57660	15827
9,58073	16786
9,58485	18275
9,58897	19511
9,59310	25029
9,59722	34828
9,60133	47019
9,60547	69044
9,60958	107749
9,61370	153093
9,61783	224143
9,62195	308695
9,62607	416704
9,63018	537660
9,63432	674960
9,63843	817236
9,64255	957474
9,64668	1086004
9,65080	1194117
9,65492	1278140
9,65905	1344234
9,66317	1380977
9,66728	1392593
9,67142	1392563
9,67553	1374763
9,67965	1325105
9,68378	1290298
9,68790	1224163
9,69202	1170793
9,69615	1089797
9,70027	1018838
9,70438	948143
9,70852	881351
9,71263	805712
9,71675	737921
9,72087	677683
9,72500	616202
9,72912	543900
9,73323	497052
9,73737	449942
9,74148	401190
9,74560	356790
9,74973	317095
9,75385	286683
9,75797	258686
9,76210	230019
9,76622	212070
9,77033	185560
9,77447	170300
9,77858	153994
9,78270	138387
9,78683	128559
9,79095	116672
9,79507	107516
9,79920	97738
9,80332	90330
9,80743	83988
9,81155	81636
9,81568	76877
9,81980	70273
9,82392	66794
9,82805	63873
9,83217	60192
9,83628	54732
9,84042	55902
9,84453	50310
9,84865	49260
9,85278	48936
9,85690	45548
9,86102	42642
9,86515	40959
9,86927	40334
9,87338	37744
9,87752	37838
9,88163	34734
9,88575	34772
9,88988	35044
9,89400	32800
9,89812	33508
9,90225	33839
9,90637	29215
9,91048	31229
9,91460	31318
9,91873	29235
9,92285	28106
9,92697	27924
9,93110	26883
9,93522	26396
9,93933	25047
9,94347	26955
9,94758	25280
9,95170	24940
9,95583	23698
9,95995	23746
9,96407	22810
9,96820	23325
9,97232	21649
9,97643	23100
9,98057	20835
9,98468	22236
9,98880	21075
9,99293	21140
9,99705	20738
10,00117	21406
10,00528	19752
10,00942	20991
10,01353	20314
10,01765	19156
10,02178	18257
10,02590	20551
10,03002	20131
10,03415	19754
10,03827	18352
10,04238	19654
10,04652	18583
10,05063	19330
10,05475	17878
10,05888	17602
10,06300	18163
10,06712	17716
10,07125	17043
10,07537	17116
10,07948	18065
10,08362	16235
10,08773	16109
10,09185	17539
10,09597	16793
10,10010	16539
10,10422	17315
10,10833	15962
10,11247	16132
10,11658	15783
10,12070	16310
10,12483	16330
10,12895	17602
10,13307	17330
10,13720	15669
10,14132	15955
10,14543	15776
10,14957	16430
10,15368	16442
10,15780	14864
10,16193	15105
10,16605	15383
10,17017	15524
10,17430	15010
10,17842	14558
10,18253	14140
10,18665	14421
10,19078	14930
10,19490	15398
10,19902	14885
10,20315	15206
10,20727	14747
10,21138	14719
10,21552	14630
10,21963	14841
10,22375	14071
10,22788	14616
10,23200	14981
10,23612	14508
10,24025	14990
10,24437	13675
10,24848	15127
10,25262	13441
10,25673	12735
10,26085	13104
10,26498	15012
10,26910	14167
10,27322	13593
10,27733	13924
10,28147	14729
10,28558	14024
10,28970	13925
10,29383	15082
10,29795	13969
10,30207	12983
10,30620	13652
10,31032	13376
10,31443	14185
10,31857	13020
10,32268	13694
10,32680	13983
10,33093	13993
10,33505	14660
10,33917	13684
10,34330	13404
10,34742	14075
10,35153	13618
10,35567	13337
10,35978	12834
10,36390	14740
10,36802	13449
10,37215	13314
10,37627	13310
10,38038	13661
10,38452	13040
10,38863	15038
10,39275	13041
10,39688	14331
10,40100	13232
10,40512	13066
10,40925	12953
10,41337	14077
10,41748	12959
10,42162	14309
10,42573	12904
10,42985	13390
10,43398	14432
10,43810	14781
10,44222	13291
10,44635	14251
10,45047	13795
10,45458	15535
10,45870	15545
10,46283	15028
10,46695	15889
10,47107	16416
10,47520	16987
10,47932	17888
10,48343	17096
10,48757	16594
10,49168	15743
10,49580	16190
10,49993	17420
10,50405	14990
10,50817	15564
10,51230	15441
10,51642	15648
10,52053	16126
10,52467	15280
10,52878	15555
10,53290	15723
10,53703	15885
10,54115	13894
10,54527	13775
10,54938	14344
10,55352	14519
10,55763	14642
10,56175	13363
10,56588	14440
10,57000	13593
10,57412	13324
10,57825	13346
10,58237	13934
10,58648	13474
10,59062	12161
10,59473	13084
10,59885	12764
10,60298	12604
10,60710	13305
10,61122	12883
10,61535	12149
10,61947	11733
10,62358	13368
10,62772	12787
10,63183	12970
10,63595	11893
10,64007	11857
10,64420	11571
10,64832	12224
10,65243	12367
10,65657	11464
10,66068	11981
10,66480	12380
10,66893	11898
10,67305	11770
10,67717	11332
10,68130	10704
10,68542	11440
10,68953	9871
10,69367	11900
10,69778	12324
10,70190	10937
10,70603	10977
10,71015	12169
10,71427	11444
10,71840	12043
10,72252	11561
10,72663	11336
10,73075	12580
10,73488	12001
10,73900	11218
10,74312	10702
10,74725	11823
10,75137	10994
10,75548	11234
10,75962	10908
10,76373	10842
10,76785	11750
10,77198	11190
10,77610	11056
10,78022	10379
10,78435	11065
10,78847	10708
10,79258	11733
10,79672	11513
10,80083	11251
10,80495	10373
10,80908	11587
10,81320	10593
10,81732	12015
10,82143	10841
10,82557	10517
10,82968	10978
10,83380	11549
10,83793	11720
10,84205	10961
10,84617	10714
10,85030	10725
10,85442	11065
10,85853	10285
10,86267	11395
10,86678	10228
10,87090	11596
10,87503	10912
10,87915	10331
10,88327	11192
10,88740	12463
10,89152	11158
10,89563	10799
10,89977	11209
10,90388	10963
10,90800	10937
10,91212	11160
10,91625	10544
10,92037	11066
10,92448	10471
10,92862	10338
10,93273	10974
10,93685	10669
10,94098	10716
10,94510	10688
10,94922	10669
10,95335	10879
10,95747	10257
10,96158	10866
10,96572	10907
10,96983	11386
10,97395	12196
10,97808	11513
10,98220	15140
10,98632	18818
10,99045	23284
10,99457	31987
10,99868	44500
11,00280	65055
11,00693	90737
11,01105	126063
11,01517	172094
11,01930	226780
11,02342	297854
11,02753	374274
11,03167	454741
11,03578	522847
11,03990	594844
11,04403	655332
11,04815	725138
11,05227	753978
11,05640	785015
11,06052	787905
11,06463	784790
11,06877	777595
11,07288	745406
11,07700	709102
11,08113	665731
11,08525	623987
11,08937	575769
11,09348	526809
11,09762	480148
11,10173	427256
11,10585	381067
11,10998	346563
11,11410	311332
11,11822	277230
11,12235	240821
11,12647	218163
11,13058	192716
11,13472	174607
11,13883	151991
11,14295	136100
11,14708	123003
11,15120	111367
11,15532	98639
11,15945	87170
11,16357	80441
11,16768	73144
11,17182	71250
11,17593	63344
11,18005	60321
11,18417	55829
11,18830	51173
11,19242	46535
11,19653	45971
11,20067	39802
11,20478	39557
11,20890	38677
11,21303	36768
11,21715	35224
11,22127	33384
11,22540	32165
11,22952	29056
11,23363	27841
11,23777	28234
11,24188	27279
11,24600	26172
11,25013	26134
11,25425	25409
11,25837	23866
11,26250	24249
11,26662	21796
11,27073	21217
11,27485	22003
11,27898	20851
11,28310	19136
11,28722	20712
11,29135	19622
11,29547	19496
11,29958	19283
11,30372	18430
11,30783	18821
11,31195	17744
11,31608	17891
11,32020	17433
11,32432	16679
11,32845	16086
11,33257	16485
11,33668	15310
11,34082	15732
11,34493	16269
11,34905	16570
11,35318	14278
11,35730	15576
11,36142	15191
11,36553	15482
11,36967	14653
11,37378	13887
11,37790	13507
11,38203	14126
11,38615	14200
11,39027	12885
11,39440	13795
11,39852	13913
11,40263	13207
11,40677	11896
11,41088	13322
11,41500	13640
11,41913	13458
11,42325	12311
11,42737	13067
11,43150	13127
11,43562	12552
11,43973	12459
11,44387	12618
11,44798	12557
11,45210	12589
11,45623	12370
11,46035	12140
11,46447	12896
11,46858	11924
11,47272	12031
11,47683	11601
11,48095	11660
11,48508	10595
11,48920	11144
11,49332	10946
11,49745	11262
11,50157	11613
11,50568	12530
11,50982	11136
11,51393	11289
11,51805	10893
11,52218	12060
11,52630	12186
11,53042	10891
11,53455	11569
11,53867	11157
11,54278	9951
11,54692	10315
11,55103	11323
11,55515	11049
11,55927	9993
11,56340	9917
11,56752	10267
11,57163	10453
11,57577	10021
11,57988	10915
11,58400	10281
11,58813	9909
11,59225	10286
11,59637	9489
11,60050	9883
11,60462	10811
11,60873	10759
11,61287	10684
11,61698	9571
11,62110	10700
11,62523	9774
11,62935	10709
11,63347	11006
11,63760	10230
11,64172	9716
11,64583	10404
11,64995	9351
11,65408	9862
11,65820	10300
11,66232	9494
11,66645	11224
11,67057	9848
11,67468	9520
11,67882	9577
11,68293	10441
11,68705	9391
11,69118	10596
11,69530	8229
11,69942	8764
11,70355	9317
11,70767	9170
11,71178	9825
11,71592	9902
11,72003	9427
11,72415	9623
11,72828	9803
11,73240	8232
11,73652	8955
11,74063	9658
11,74477	9359
11,74888	9205
11,75300	9970
11,75713	9662
11,76125	10469
11,76537	10739
11,76950	10771
11,77362	11814
11,77773	11035
11,78187	11950
11,78598	11958
11,79010	13032
11,79423	12873
11,79835	12836
11,80247	12169
11,80660	12146
11,81072	11675
11,81483	12943
11,81897	11890
11,82308	11613
11,82720	11138
11,83132	10424
11,83545	11708
11,83957	10694
11,84368	12101
11,84782	11446
11,85193	10228
11,85605	9996
11,86018	11015
11,86430	9995
11,86842	10262
11,87255	10359
11,87667	12364
11,88078	10274
11,88492	11652
11,88903	12291
11,89315	12416
11,89728	12691
11,90140	12506
11,90552	13195
11,90965	13161
11,91377	12722
11,91788	13819
11,92200	12612
11,92613	13307
11,93025	13475
11,93437	12246
11,93850	12875
11,94262	13035
11,94673	12567
11,95087	11842
11,95498	13116
11,95910	12319
11,96323	11181
11,96735	12001
11,97147	10183
11,97560	11076
11,97972	10158
11,98383	11543
11,98797	11077
11,99208	10735
11,99620	10641
12,00033	9896
12,00445	9746
12,00857	10152
12,01268	9976
12,01682	8964
12,02093	9245
12,02505	9124
12,02918	9981
12,03330	8891
12,03742	9114
12,04155	8991
12,04567	9124
12,04978	9691
12,05392	9731
12,05803	8604
12,06215	8901
12,06628	8109
12,07040	10041
12,07452	9456
12,07865	8511
12,08277	9590
12,08688	9540
12,09102	9127
12,09513	9091
12,09925	10091
12,10337	7964
12,10750	9245
12,11162	8249
12,11573	9974
12,11987	9108
12,12398	9207
12,12810	7734
12,13223	8187
12,13635	8883
12,14047	9364
12,14460	8943
12,14872	9281
12,15283	8477
12,15697	8669
12,16108	8574
12,16520	8023
12,16933	8719
12,17345	8873
12,17757	9673
12,18170	8820
12,18582	8717
12,18993	9803
12,19405	9115
12,19818	8688
12,20230	8798
12,20642	8755
12,21055	9133
12,21467	9402
12,21878	7848
12,22292	8579
12,22703	9927
12,23115	8642
12,23528	9206
12,23940	8084
12,24352	8923
12,24765	8975
12,25177	8574
12,25588	9737
12,26002	8476
12,26413	7920
12,26825	8640
12,27238	7723
12,27650	8096
12,28062	7731
12,28473	8294
12,28887	8843
12,29298	7932
12,29710	7457
12,30123	9090
12,30535	7630
12,30947	8030
12,31360	8269
12,31772	7871
12,32183	7571
12,32597	8646
12,33008	8854
12,33420	8058
12,33833	8186
12,34245	8541
12,34657	8714
12,35070	8019
12,35482	7375
12,35893	7643
12,36307	8176
12,36718	8647
12,37130	8695
12,37542	6990
12,37955	8341
12,38367	8474
12,38778	7886
12,39192	8613
12,39603	8206
12,40015	8607
12,40428	8656
12,40840	9168
12,41252	8870
12,41665	10562
12,42077	10104
12,42488	10549
12,42902	11383
12,43313	11985
12,43725	12676
12,44138	12827
12,44550	13140
12,44962	13791
12,45375	14525
12,45787	13830
12,46198	14596
12,46610	13875
12,47023	14470
12,47435	15503
12,47847	14811
12,48260	19026
12,48672	25068
12,49083	34464
12,49497	46043
12,49908	69813
12,50320	104017
12,50733	155457
12,51145	222290
12,51557	302435
12,51970	417450
12,52382	548753
12,52793	713862
12,53207	879075
12,53618	1045014
12,54030	1212570
12,54443	1382576
12,54855	1531247
12,55267	1649208
12,55678	1724391
12,56092	1782847
12,56503	1782454
12,56915	1742574
12,57328	1690963
12,57740	1596555
12,58152	1484553
12,58565	1382333
12,58977	1243832
12,59388	1135385
12,59802	1013849
12,60213	894073
12,60625	785564
12,61038	685340
12,61450	602250
12,61862	528605
12,62275	456233
12,62687	405633
12,63098	354337
12,63512	313090
12,63923	275867
12,64335	248381
12,64747	218980
12,65160	201947
12,65572	180053
12,65983	165337
12,66397	151560
12,66808	139054
12,67220	127716
12,67633	114562
12,68045	106376
12,68457	99958
12,68870	95491
12,69282	90825
12,69693	81799
12,70107	77449
12,70518	73845
12,70930	70167
12,71343	65886
12,71755	61454
12,72167	58087
12,72580	54644
12,72992	54925
12,73403	49239
12,73815	49046
12,74228	46583
12,74640	42326
12,75052	41137
12,75465	38124
12,75877	38426
12,76288	37911
12,76702	34997
12,77113	32957
12,77525	31624
12,77938	31177
12,78350	29777
12,78762	29764
12,79175	29528
12,79587	28800
12,79998	27701
12,80412	26662
12,80823	25398
12,81235	24105
12,81648	24888
12,82060	22880
12,82472	22774
12,82883	21399
12,83297	21100
12,83708	19603
12,84120	21612
12,84533	20030
12,84945	19077
12,85357	19891
12,85770	18457
12,86182	18335
12,86593	16907
12,87007	17030
12,87418	15773
12,87830	16426
12,88243	15855
12,88655	16945
12,89067	15683
12,89480	14718
12,89892	15202
12,90303	14674
12,90717	15120
12,91128	15286
12,91540	14632
12,91952	13629
12,92365	13424
12,92777	13721
12,93188	13922
12,93602	12988
12,94013	12426
12,94425	13603
12,94838	12849
12,95250	12375
12,95662	11870
12,96075	13082
12,96487	11334
12,96898	11926
12,97312	12201
12,97723	11939
12,98135	11535
12,98548	12011
12,98960	11392
12,99372	11208
12,99785	12247
13,00197	11135
13,00608	11625
13,01022	11233
13,01433	11798
13,01845	12142
13,02257	11528
13,02670	11203
13,03082	11181
13,03493	11336
13,03907	12053
13,04318	9591
13,04730	11072
13,05143	11041
13,05555	11705
13,05967	9952
13,06380	9978
13,06792	9102
13,07203	9361
13,07617	9921
13,08028	9997
13,08440	9009
13,08853	9857
13,09265	10441
13,09677	9346
13,10090	8595
13,10502	8483
13,10913	9028
13,11325	9232
13,11738	8057
13,12150	8417
13,12562	7879
13,12975	8646
13,13387	8566
13,13798	8125
13,14212	9807
13,14623	7865
13,15035	8616
13,15448	7814
13,15860	8343
13,16272	8377
13,16685	7691
13,17097	7761
13,17508	7631
13,17922	8177
13,18333	7850
13,18745	8872
13,19158	8578
13,19570	10109
13,19982	9036
13,20393	7812
13,20807	8805
13,21218	7911
13,21630	8003
13,22043	8759
13,22455	7665
13,22867	8469
13,23280	7750
13,23692	8873
13,24103	8106
13,24517	8998
13,24928	7901
13,25340	7644
13,25753	7488
13,26165	7969
13,26577	7716
13,26990	8718
13,27402	7816
13,27813	7842
13,28227	8094
13,28638	7824
13,29050	8462
13,29462	7909
13,29875	7790
13,30287	8790
13,30698	8823
13,31112	8996
13,31523	8473
13,31935	9276
13,32348	11258
13,32760	9535
13,33172	9581
13,33585	9824
13,33997	9480
13,34408	8709
13,34822	9697
13,35233	9698
13,35645	9009
13,36058	9168
13,36470	9183
13,36882	7828
13,37295	9643
13,37707	8780
13,38118	8955
13,38530	7550
13,38943	8572
13,39355	8342
13,39767	7305
13,40180	7688
13,40592	7216
13,41003	7641
13,41417	8245
13,41828	8799
13,42240	6825
13,42653	7884
13,43065	7409
13,43477	7291
13,43890	7800
13,44302	8068
13,44713	8025
13,45127	7611
13,45538	7307
13,45950	7340
13,46363	7356
13,46775	7112
13,47187	7405
13,47598	6600
13,48012	6487
13,48423	7393
13,48835	8315
13,49248	7019
13,49660	7348
13,50072	7151
13,50485	7021
13,50897	7329
13,51308	6845
13,51722	7580
13,52133	6975
13,52545	7337
13,52958	7604
13,53370	5970
13,53782	6987
13,54195	7252
13,54607	6638
13,55018	6814
13,55432	7370
13,55843	8156
13,56255	7877
13,56667	8490
13,57080	11185
13,57492	13839
13,57903	18543
13,58317	25982
13,58728	39644
13,59140	54825
13,59553	79656
13,59965	116500
13,60377	158062
13,60790	215141
13,61202	280477
13,61613	355283
13,62027	431156
13,62438	515323
13,62850	604105
13,63263	668251
13,63675	739774
13,64087	788394
13,64500	821334
13,64912	833796
13,65323	823376
13,65735	802751
13,66148	758413
13,66560	724996
13,66972	673119
13,67385	618193
13,67797	561375
13,68208	506266
13,68622	447679
13,69033	398123
13,69445	347742
13,69858	308187
13,70270	273412
13,70682	240415
13,71095	212052
13,71507	190723
13,71918	166620
13,72332	148561
13,72743	133197
13,73155	119723
13,73568	105255
13,73980	99578
13,74392	86395
13,74803	82537
13,75217	74593
13,75628	68274
13,76040	63773
13,76453	58192
13,76865	53558
13,77277	52316
13,77690	49867
13,78102	47415
13,78513	42376
13,78927	41732
13,79338	38205
13,79750	36706
13,80163	34110
13,80575	33508
13,80987	31746
13,81400	29638
13,81812	29369
13,82223	27690
13,82637	28489
13,83048	26771
13,83460	25985
13,83872	25352
13,84285	26048
13,84697	26063
13,85108	26903
13,85522	25504
13,85933	25993
13,86345	25449
13,86758	24375
13,87170	26560
13,87582	23544
13,87995	24368
13,88407	24561
13,88818	22619
13,89232	21969
13,89643	21490
13,90055	20056
13,90468	19317
13,90880	18168
13,91292	17951
13,91705	16707
13,92117	16584
13,92528	15904
13,92940	15454
13,93353	14640
13,93765	14703
13,94177	12786
13,94590	12737
13,95002	13220
13,95413	12430
13,95827	12574
13,96238	11461
13,96650	11144
13,97063	11953
13,97475	12026
13,97887	11294
13,98300	10596
13,98712	10281
13,99123	10689
13,99537	10691
13,99948	9922
14,00360	10498
14,00773	9671
14,01185	9557
14,01597	9052
14,02008	9079
14,02422	8764
14,02833	9210
14,03245	8675
14,03658	9705
14,04070	9260
14,04482	11052
14,04895	12820
14,05307	14600
14,05718	21616
14,06132	28551
14,06543	43387
14,06955	61220
14,07368	90233
14,07780	127469
14,08192	172455
14,08605	235072
14,09017	303900
14,09428	394018
14,09842	482362
14,10253	573121
14,10665	672154
14,11077	765613
14,11490	829449
14,11902	884636
14,12313	927716
14,12727	944613
14,13138	929041
14,13550	903101
14,13963	859369
14,14375	801434
14,14787	725572
14,15200	659214
14,15612	584852
14,16023	522421
14,16437	469331
14,16848	408322
14,17260	359496
14,17673	314931
14,18085	277120
14,18497	240440
14,18910	210371
14,19322	184604
14,19733	164701
14,20145	144487
14,20558	131095
14,20970	119187
14,21382	106695
14,21795	96312
14,22207	88094
14,22618	78519
14,23032	69155
14,23443	67391
14,23855	62397
14,24268	57164
14,24680	54333
14,25092	48724
14,25505	46888
14,25917	45460
14,26328	41500
14,26742	38672
14,27153	38547
14,27565	36276
14,27978	34206
14,28390	32622
14,28802	30762
14,29213	28053
14,29627	27946
14,30038	27325
14,30450	26803
14,30863	23883
14,31275	25044
14,31687	22322
14,32100	22637
14,32512	21236
14,32923	20326
14,33337	19486
14,33748	19712
14,34160	18248
14,34573	19066
14,34985	18706
14,35397	17194
14,35810	15959
14,36222	15756
14,36633	14984
14,37047	16178
14,37458	14626
14,37870	14427
14,38282	14214
14,38695	14453
14,39107	13861
14,39518	13322
14,39932	11357
14,40343	13652
14,40755	11915
14,41168	12583
14,41580	11771
14,41992	11732
14,42405	13008
14,42817	12905
14,43228	10043
14,43642	11957
14,44053	11236
14,44465	10711
14,44878	10558
14,45290	11056
14,45702	11099
14,46115	10968
14,46527	9974
14,46938	9887
14,47350	9922
14,47763	9763
14,48175	9484
14,48587	9027
14,49000	9609
14,49412	9158
14,49823	9107
14,50237	9921
14,50648	8817
14,51060	9241
14,51473	9129
14,51885	9495
14,52297	9392
14,52710	8909
14,53122	7635
14,53533	8110
14,53947	8760
14,54358	8749
14,54770	8709
14,55183	9667
14,55595	9127
14,56007	8083
14,56418	8634
14,56832	7942
14,57243	8221
14,57655	9030
14,58068	7306
14,58480	7812
14,58892	9234
14,59305	8773
14,59717	8000
14,60128	7907
14,60542	8260
14,60953	8460
14,61365	8107
14,61778	7696
14,62190	7039
14,62602	7671
14,63015	7431
14,63427	7675
14,63838	6886
14,64252	7500
14,64663	7900
14,65075	6304
14,65487	7623
14,65900	6672
14,66312	7325
14,66723	7274
14,67137	7376
14,67548	7560
14,67960	7611
14,68373	7610
14,68785	6769
14,69197	7624
14,69610	6796
14,70022	7254
14,70433	7111
14,70847	6646
14,71258	6269
14,71670	6264
14,72083	7817
14,72495	7701
14,72907	7102
14,73320	7391
14,73732	6249
14,74143	7224
14,74557	7330
14,74968	7236
14,75380	6709
14,75792	6787
14,76205	6409
14,76617	7094
14,77028	5919
14,77442	6303
14,77853	5732
14,78265	6783
14,78678	6724
14,79090	5927
14,79502	5857
14,79915	5977
14,80327	5990
14,80738	6212
14,81152	6006
14,81563	6315
14,81975	6599
14,82388	6014
14,82800	6232
14,83212	5557
14,83625	6295
14,84037	5799
14,84448	6077
14,84860	6344
14,85273	6474
14,85685	6687
14,86097	6394
14,86510	7119
14,86922	6161
14,87333	5955
14,87747	5941
14,88158	5255
14,88570	6006
14,88983	5922
14,89395	6412
14,89807	6015
14,90220	6712
14,90632	6234
14,91043	5921
14,91457	6150
14,91868	6006
14,92280	6444
14,92693	5963
14,93105	6563
14,93517	5606
14,93928	5967
14,94342	6331
14,94753	5921
14,95165	6920
14,95578	7488
14,95990	6479
14,96402	5306
14,96815	6735
14,97227	5751
14,97638	6575
14,98052	6826
14,98463	5975
14,98875	6106
14,99288	5993
14,99700	6019
15,00112	5010
15,00525	5773
15,00937	5774
15,01348	5903
15,01762	6546
15,02173	5576
15,02585	6232
15,02997	6214
15,03410	6175
15,03822	6591
15,04233	6337
15,04647	5425
15,05058	5332
15,05470	5813
15,05883	6600
15,06295	6500
15,06707	6353
15,07120	6352
15,07532	5924
15,07943	6430
15,08357	6540
15,08768	5822
15,09180	6186
15,09593	6496
15,10005	6080
15,10417	6382
15,10830	6579
15,11242	6106
15,11653	5833
15,12065	6128
15,12478	6741
15,12890	5809
15,13302	6088
15,13715	5983
15,14127	5757
15,14538	6046
15,14952	6586
15,15363	6896
15,15775	7776
15,16188	6928
15,16600	8531
15,17012	10439
15,17425	15381
15,17837	22981
15,18248	29903
15,18662	44342
15,19073	66778
15,19485	95476
15,19898	133042
15,20310	188397
15,20722	248719
15,21133	321344
15,21547	405631
15,21958	497119
15,22370	587643
15,22783	668959
15,23195	741029
15,23607	810365
15,24020	852556
15,24432	889608
15,24843	882262
15,25257	874932
15,25668	837025
15,26080	798417
15,26493	729759
15,26905	669015
15,27317	601208
15,27730	536521
15,28142	477588
15,28553	413914
15,28967	366306
15,29378	322254
15,29790	283804
15,30202	243918
15,30615	215420
15,31027	191616
15,31438	171378
15,31852	151521
15,32263	136850
15,32675	122739
15,33088	107769
15,33500	99200
15,33912	88610
15,34325	81090
15,34737	76103
15,35148	72345
15,35562	64574
15,35973	60871
15,36385	54987
15,36798	53446
15,37210	49146
15,37622	43813
15,38035	41100
15,38447	39821
15,38858	37117
15,39270	35855
15,39683	35609
15,40095	32513
15,40507	31271
15,40920	28514
15,41332	26982
15,41743	26604
15,42157	25829
15,42568	23608
15,42980	22590
15,43393	23341
15,43805	21104
15,44217	20871
15,44630	20710
15,45042	20386
15,45453	18513
15,45867	17924
15,46278	17297
15,46690	16964
15,47103	16329
15,47515	15578
15,47927	15158
15,48338	15326
15,48752	14654
15,49163	12446
15,49575	13665
15,49988	12625
15,50400	13615
15,50812	12751
15,51225	12365
15,51637	12569
15,52048	12877
15,52462	12101
15,52873	11386
15,53285	10095
15,53698	11341
15,54110	10337
15,54522	10243
15,54935	10638
15,55347	9991
15,55758	10567
15,56172	10910
15,56583	9310
15,56995	8671
15,57407	8435
15,57820	9786
15,58232	8497
15,58643	9355
15,59057	10671
15,59468	9349
15,59880	8408
15,60293	8416
15,60705	7166
15,61117	7806
15,61530	8172
15,61942	8751
15,62353	8500
15,62767	9299
15,63178	9111
15,63590	11245
15,64003	15990
15,64415	23712
15,64827	32777
15,65240	50641
15,65652	75358
15,66063	120478
15,66475	180541
15,66888	265465
15,67300	374737
15,67712	516912
15,68125	700041
15,68537	904290
15,68948	1149811
15,69362	1434837
15,69773	1719842
15,70185	2009224
15,70598	2307070
15,71010	2574930
15,71422	2801360
15,71835	2971989
15,72247	3069321
15,72658	3077784
15,73072	3003195
15,73483	2853067
15,73895	2663535
15,74308	2423234
15,74720	2188473
15,75132	1936864
15,75543	1696409
15,75957	1481999
15,76368	1276553
15,76780	1117402
15,77193	957004
15,77605	832538
15,78017	727445
15,78430	633945
15,78842	556491
15,79253	491275
15,79667	441062
15,80078	392562
15,80490	346870
15,80903	314485
15,81315	286009
15,81727	262113
15,82140	242277
15,82552	218087
15,82963	202831
15,83377	184122
15,83788	170930
15,84200	155114
15,84612	149132
15,85025	138170
15,85437	127683
15,85848	119926
15,86262	113448
15,86673	105130
15,87085	98839
15,87498	94554
15,87910	87746
15,88322	83459
15,88735	78822
15,89147	76492
15,89558	69599
15,89972	68155
15,90383	65774
15,90795	61959
15,91208	57981
15,91620	57162
15,92032	54987
15,92445	51367
15,92857	51056
15,93268	48602
15,93680	44844
15,94093	42898
15,94505	41341
15,94917	41019
15,95330	40306
15,95742	37822
15,96153	36420
15,96567	35548
15,96978	35737
15,97390	30238
15,97803	32452
15,98215	30997
15,98627	28710
15,99040	28629
15,99452	27913
15,99863	26066
16,00277	24534
16,00688	26196
16,01100	23884
16,01513	23352
16,01925	23596
16,02337	23820
16,02748	22165
16,03162	21244
16,03573	20456
16,03985	20221
16,04398	20022
16,04810	18289
16,05222	18531
16,05635	18377
16,06047	17489
16,06458	17554
16,06872	17973
16,07283	16914
16,07695	17034
16,08108	16507
16,08520	15222
16,08932	15594
16,09345	14848
16,09757	12957
16,10168	14729
16,10582	14116
16,10993	15232
16,11405	12999
16,11817	13991
16,12230	14026
16,12642	12634
16,13053	12006
16,13467	12932
16,13878	11249
16,14290	10387
16,14703	10883
16,15115	12646
16,15527	12461
16,15940	11608
16,16352	10684
16,16763	10792
16,17177	11459
16,17588	11860
16,18000	11668
16,18413	10066
16,18825	10223
16,19237	9008
16,19650	11014
16,20062	9874
16,20473	9816
16,20885	9341
16,21298	9473
16,21710	10263
16,22122	9637
16,22535	9442
16,22947	8022
16,23358	9548
16,23772	8913
16,24183	7588
16,24595	8971
16,25008	8766
16,25420	8585
16,25832	9114
16,26245	9177
16,26657	8877
16,27068	8792
16,27482	9101
16,27893	9276
16,28305	9103
16,28718	8135
16,29130	8072
16,29542	8744
16,29955	8496
16,30367	7743
16,30778	8699
16,31190	9584
16,31603	8426
16,32015	9362
16,32427	8327
16,32840	8514
16,33252	7900
16,33663	8169
16,34077	8928
16,34488	7463
16,34900	7292
16,35313	7717
16,35725	8645
16,36137	7556
16,36550	6970
16,36962	7207
16,37373	7024
16,37787	7730
16,38198	7669
16,38610	8027
16,39023	8585
16,39435	8844
16,39847	8335
16,40258	8869
16,40672	8409
16,41083	8820
16,41495	10857
16,41908	11217
16,42320	11186
16,42732	14228
16,43145	13200
16,43557	12525
16,43968	12703
16,44382	14108
16,44793	13913
16,45205	14492
16,45618	14771
16,46030	14376
16,46442	13692
16,46855	13922
16,47267	14162
16,47678	12588
16,48092	14065
16,48503	12554
16,48915	12367
16,49327	11640
16,49740	10254
16,50152	11807
16,50563	10864
16,50977	9961
16,51388	8729
16,51800	9449
16,52213	8453
16,52625	7656
16,53037	9039
16,53450	8555
16,53862	8099
16,54273	7194
16,54687	8576
16,55098	8081
16,55510	9677
16,55923	12702
16,56335	16661
16,56747	21253
16,57160	32326
16,57572	44274
16,57983	68617
16,58395	95682
16,58808	134415
16,59220	187748
16,59632	250697
16,60045	319140
16,60457	410967
16,60868	499847
16,61282	591552
16,61693	670195
16,62105	767845
16,62518	831692
16,62930	880582
16,63342	902608
16,63755	917593
16,64167	895434
16,64578	866631
16,64992	819767
16,65403	754416
16,65815	692355
16,66228	619879
16,66640	556352
16,67052	491882
16,67463	434825
16,67877	384160
16,68288	337253
16,68700	287189
16,69113	257559
16,69525	225678
16,69937	202657
16,70350	183573
16,70762	156875
16,71173	142147
16,71587	128855
16,71998	113640
16,72410	102782
16,72823	94548
16,73235	87184
16,73647	81596
16,74060	75048
16,74472	65726
16,74883	62455
16,75297	59670
16,75708	54240
16,76120	50420
16,76532	45604
16,76945	45877
16,77357	44077
16,77768	41920
16,78182	39514
16,78593	35224
16,79005	33583
16,79418	31235
16,79830	31347
16,80242	28367
16,80655	29908
16,81067	26647
16,81478	27678
16,81892	25681
16,82303	25632
16,82715	26091
16,83128	28560
16,83540	25517
16,83952	24305
16,84365	23431
16,84777	23072
16,85188	24932
16,85600	22817
16,86013	23175
16,86425	23000
16,86837	20230
16,87250	19387
16,87662	20107
16,88073	16142
16,88487	17733
16,88898	18771
16,89310	16887
16,89723	14619
16,90135	15300
16,90547	15279
16,90960	13692
16,91372	14764
16,91783	13757
16,92197	13454
16,92608	13574
16,93020	13092
16,93433	13433
16,93845	11764
16,94257	12461
16,94668	12240
16,95082	11240
16,95493	11127
16,95905	11471
16,96318	11525
16,96730	10651
16,97142	10277
16,97555	9508
16,97967	10178
16,98378	10179
16,98792	9247
16,99203	10201
16,99615	9510
17,00028	8690
17,00440	8547
17,00852	9418
17,01265	8920
17,01677	9445
17,02088	8201
17,02502	8726
17,02913	8402
17,03325	7321
17,03737	7948
17,04150	8075
17,04562	8433
17,04973	7880
17,05387	7611
17,05798	7771
17,06210	7222
17,06623	8472
17,07035	9758
17,07447	7985
17,07860	6834
17,08272	7570
17,08683	7394
17,09097	8334
17,09508	7932
17,09920	6600
17,10333	7055
17,10745	7249
17,11157	6769
17,11570	7330
17,11982	6857
17,12393	7185
17,12805	7453
17,13218	6893
17,13630	8147
17,14042	7448
17,14455	8266
17,14867	6148
17,15278	6906
17,15692	7695
17,16103	6972
17,16515	5887
17,16928	6136
17,17340	6067
17,17752	6309
17,18165	5750
17,18577	7389
17,18988	5570
17,19402	5996
17,19813	6314
17,20225	6383
17,20638	6216
17,21050	5515
17,21462	6211
17,21873	7510
17,22287	8009
17,22698	8706
17,23110	10671
17,23523	13595
17,23935	19586
17,24347	28887
17,24760	43208
17,25172	63522
17,25583	93250
17,25997	136382
17,26408	190268
17,26820	265178
17,27233	345136
17,27645	444956
17,28057	554869
17,28470	655171
17,28882	765553
17,29293	864925
17,29707	936062
17,30118	995352
17,30530	1030497
17,30942	1043169
17,31355	1024748
17,31767	974473
17,32178	920295
17,32592	844198
17,33003	771966
17,33415	689986
17,33828	625204
17,34240	529169
17,34652	466945
17,35065	408290
17,35477	361730
17,35888	311453
17,36302	272536
17,36713	237894
17,37125	212355
17,37538	184708
17,37950	170295
17,38362	149244
17,38775	133604
17,39187	120588
17,39598	112043
17,40010	99127
17,40423	91125
17,40835	82819
17,41247	77329
17,41660	71884
17,42072	64805
17,42483	63580
17,42897	57867
17,43308	53302
17,43720	50862
17,44133	49399
17,44545	43778
17,44957	41944
17,45370	41677
17,45782	38029
17,46193	35329
17,46607	34768
17,47018	32815
17,47430	29972
17,47843	30111
17,48255	27185
17,48667	25816
17,49078	25402
17,49492	24481
17,49903	23066
17,50315	22788
17,50728	21704
17,51140	21005
17,51552	20671
17,51965	19103
17,52377	17723
17,52788	18809
17,53202	16929
17,53613	17009
17,54025	15708
17,54438	16425
17,54850	16561
17,55262	16326
17,55675	16028
17,56087	13927
17,56498	14617
17,56912	13744
17,57323	13145
17,57735	12392
17,58147	12279
17,58560	12516
17,58972	11507
17,59383	12558
17,59797	11916
17,60208	11299
17,60620	10772
17,61033	10801
17,61445	10941
17,61857	11476
17,62270	10358
17,62682	10406
17,63093	11596
17,63507	9182
17,63918	9141
17,64330	8830
17,64743	9889
17,65155	8614
17,65567	9957
17,65980	9514
17,66392	9002
17,66803	8274
17,67215	9681
17,67628	8118
17,68040	10055
17,68452	7909
17,68865	7798
17,69277	8304
17,69688	8259
17,70102	7591
17,70513	7521
17,70925	8227
17,71338	7695
17,71750	7726
17,72162	6889
17,72575	7797
17,72987	8923
17,73398	7116
17,73812	7957
17,74223	7733
17,74635	7739
17,75048	7996
17,75460	6130
17,75872	6218
17,76283	7028
17,76697	7470
17,77108	7438
17,77520	7009
17,77933	6508
17,78345	7559
17,78757	6973
17,79170	8396
17,79582	6424
17,79993	7322
17,80407	8039
17,80818	6498
17,81230	7634
17,81643	7955
17,82055	8953
17,82467	7205
17,82880	7279
17,83292	8615
17,83703	7658
17,84117	7216
17,84528	6874
17,84940	6491
17,85353	7201
17,85765	7390
17,86177	6578
17,86588	7088
17,87002	6917
17,87413	7373
17,87825	6534
17,88238	6898
17,88650	6539
17,89062	5469
17,89475	6193
17,89887	6950
17,90298	6543
17,90712	6705
17,91123	5957
17,91535	7280
17,91948	6458
17,92360	6353
17,92772	6263
17,93185	6580
17,93597	5981
17,94008	5248
17,94422	5626
17,94833	6174
17,95245	6486
17,95657	6693
17,96070	5786
17,96482	5225
17,96893	6611
17,97307	6391
17,97718	6743
17,98130	7024
17,98543	6283
17,98955	6454
17,99367	6056
17,99780	4906
18,00192	6257
18,00603	6521
18,01017	5603
18,01428	5991
18,01840	5406
18,02253	6482
18,02665	5384
18,03077	6654
18,03490	5863
18,03902	6295
18,04313	5560
18,04725	5569
18,05138	6183
18,05550	5331
18,05962	5180
18,06375	5416
18,06787	6292
18,07198	6268
18,07612	5251
18,08023	5869
18,08435	5584
18,08848	5787
18,09260	6728
18,09672	5436
18,10085	5295
18,10497	6214
18,10908	6043
18,11322	5868
18,11733	7108
18,12145	5520
18,12558	6971
18,12970	7207
18,13382	6678
18,13793	8084
18,14207	10734
18,14618	12078
18,15030	16340
18,15443	25926
18,15855	39077
18,16267	56855
18,16680	82383
18,17092	120090
18,17503	169103
18,17917	229930
18,18328	305287
18,18740	390681
18,19153	491799
18,19565	583059
18,19977	691067
18,20390	785253
18,20802	859303
18,21213	914744
18,21627	958624
18,22038	970833
18,22450	969441
18,22862	940662
18,23275	897474
18,23687	840844
18,24098	777962
18,24512	707728
18,24923	618819
18,25335	551883
18,25748	493843
18,26160	444965
18,26572	382713
18,26985	340143
18,27397	298930
18,27808	264200
18,28222	236495
18,28633	209162
18,29045	185980
18,29458	165019
18,29870	151501
18,30282	136575
18,30695	127097
18,31107	113720
18,31518	103193
18,31930	93925
18,32343	86128
18,32755	81122
18,33167	73757
18,33580	67652
18,33992	63443
18,34403	60964
18,34817	55204
18,35228	50055
18,35640	48946
18,36053	48709
18,36465	44765
18,36877	40632
18,37290	40992
18,37702	34254
18,38113	37338
18,38527	33214
18,38938	32047
18,39350	30545
18,39763	27372
18,40175	27812
18,40587	26743
18,40998	25061
18,41412	24924
18,41823	22826
18,42235	22842
18,42648	22650
18,43060	21464
18,43472	20039
18,43885	19534
18,44297	19017
18,44708	18275
18,45122	19213
18,45533	16709
18,45945	16349
18,46358	15093
18,46770	15892
18,47182	15764
18,47595	14683
18,48007	14054
18,48418	14352
18,48832	14907
18,49243	12967
18,49655	13590
18,50067	12185
18,50480	13036
18,50892	13054
18,51303	10420
18,51717	12044
18,52128	9959
18,52540	11445
18,52953	12369
18,53365	11642
18,53777	11189
18,54190	9784
18,54602	9392
18,55013	9847
18,55427	9596
18,55838	10096
18,56250	9361
18,56663	10316
18,57075	9112
18,57487	9452
18,57900	9015
18,58312	9016
18,58723	9225
18,59135	9271
18,59548	8436
18,59960	7513
18,60372	8600
18,60785	8473
18,61197	9057
18,61608	7814
18,62022	8019
18,62433	8310
18,62845	7548
18,63258	9531
18,63670	8138
18,64082	8994
18,64495	9463
18,64907	8911
18,65318	8369
18,65732	7918
18,66143	7620
18,66555	8173
18,66968	7257
18,67380	8741
18,67792	8657
18,68203	7992
18,68617	7319
18,69028	8686
18,69440	8744
18,69853	7621
18,70265	7476
18,70677	7722
18,71090	6701
18,71502	6898
18,71913	7139
18,72327	6801
18,72738	6906
18,73150	7003
18,73563	6904
18,73975	6911
18,74387	7924
18,74800	6063
18,75212	7480
18,75623	6878
18,76037	6378
18,76448	6160
18,76860	6460
18,77272	6739
18,77685	5665
18,78097	7333
18,78508	7625
18,78922	7141
18,79333	7688
18,79745	9225
18,80158	14680
18,80570	22264
18,80982	32183
18,81395	48024
18,81807	74121
18,82218	112041
18,82632	167403
18,83043	238800
18,83455	330696
18,83868	447804
18,84280	597717
18,84692	768658
18,85105	957445
18,85517	1184847
18,85928	1405990
18,86340	1619570
18,86753	1832836
18,87165	2024073
18,87577	2154011
18,87990	2240600
18,88402	2262718
18,88813	2247499
18,89227	2167875
18,89638	2064851
18,90050	1895879
18,90463	1728824
18,90875	1523264
18,91287	1354332
18,91700	1185809
18,92112	1054979
18,92523	897669
18,92937	788892
18,93348	676874
18,93760	595661
18,94173	524445
18,94585	461578
18,94997	410969
18,95408	369633
18,95822	318025
18,96233	292917
18,96645	263773
18,97058	238672
18,97470	220673
18,97882	198229
18,98295	180455
18,98707	167349
18,99118	157083
18,99532	139870
18,99943	133973
19,00355	122488
19,00768	118246
19,01180	107974
19,01592	99862
19,02005	92563
19,02417	87489
19,02828	86216
19,03242	78414
19,03653	74408
19,04065	72318
19,04477	65164
19,04890	59977
19,05302	60396
19,05713	57180
19,06127	55056
19,06538	51140
19,06950	50102
19,07363	48750
19,07775	47325
19,08187	42348
19,08600	43593
19,09012	38274
19,09423	38713
19,09837	38975
19,10248	36743
19,10660	33554
19,11073	33066
19,11485	31698
19,11897	31822
19,12310	29590
19,12722	28199
19,13133	26593
19,13545	25734
19,13958	24367
19,14370	23433
19,14782	24376
19,15195	22717
19,15607	23943
19,16018	21155
19,16432	21521
19,16843	22531
19,17255	20371
19,17668	18907
19,18080	20576
19,18492	19943
19,18905	17678
19,19317	18254
19,19728	16806
19,20142	16319
19,20553	16509
19,20965	16303
19,21378	16486
19,21790	15407
19,22202	14469
19,22613	13013
19,23027	13837
19,23438	14352
19,23850	13336
19,24263	15094
19,24675	13469
19,25087	13298
19,25500	12737
19,25912	11580
19,26323	13292
19,26737	11976
19,27148	12130
19,27560	11281
19,27973	10247
19,28385	9811
19,28797	10029
19,29210	9673
19,29622	10294
19,30033	11110
19,30447	12927
19,30858	10607
19,31270	13198
19,31682	14769
19,32095	18457
19,32507	24055
19,32918	33837
19,33332	49278
19,33743	68518
19,34155	99459
19,34568	146657
19,34980	199458
19,35392	274650
19,35805	357293
19,36217	443829
19,36628	551162
19,37042	653065
19,37453	764499
19,37865	848717
19,38278	934570
19,38690	984378
19,39102	1021950
19,39515	1040985
19,39927	1029182
19,40338	995556
19,40752	953728
19,41163	884526
19,41575	807443
19,41987	728208
19,42400	651667
19,42812	582312
19,43223	509681
19,43637	454894
19,44048	402673
19,44460	348522
19,44873	308492
19,45285	270818
19,45697	244929
19,46110	217315
19,46522	191771
19,46933	170224
19,47347	153999
19,47758	143130
19,48170	128061
19,48583	115640
19,48995	107260
19,49407	98837
19,49820	92506
19,50232	83727
19,50643	76927
19,51055	73898
19,51468	66982
19,51880	62746
19,52292	60458
19,52705	54048
19,53117	52228
19,53528	50071
19,53942	46454
19,54353	45171
19,54765	42392
19,55178	39813
19,55590	38027
19,56002	38390
19,56415	38700
19,56827	39380
19,57238	44306
19,57652	53500
19,58063	65553
19,58475	83908
19,58888	114108
19,59300	158724
19,59712	219565
19,60123	307128
19,60537	401055
19,60948	543736
19,61360	685820
19,61773	865407
19,62185	1072375
19,62597	1302103
19,63010	1524022
19,63422	1706731
19,63833	1877579
19,64247	2010585
19,64658	2091999
19,65070	2150959
19,65483	2145666
19,65895	2078172
19,66307	1956514
19,66720	1829384
19,67132	1680885
19,67543	1514926
19,67957	1355444
19,68368	1197572
19,68780	1043080
19,69192	911762
19,69605	800177
19,70017	703771
19,70428	618820
19,70842	543975
19,71253	479441
19,71665	422536
19,72078	384600
19,72490	341084
19,72902	304952
19,73315	279327
19,73727	252577
19,74138	226737
19,74552	210372
19,74963	193315
19,75375	180506
19,75788	165890
19,76200	155126
19,76612	146152
19,77025	135120
19,77437	126594
19,77848	117368
19,78260	110080
19,78673	103162
19,79085	97970
19,79497	89766
19,79910	88644
19,80322	81513
19,80733	75656
19,81147	74495
19,81558	69558
19,81970	68624
19,82383	64267
19,82795	61049
19,83207	56830
19,83620	55526
19,84032	51803
19,84443	51258
19,84857	46614
19,85268	45560
19,85680	43059
19,86093	41496
19,86505	39699
19,86917	38283
19,87328	36495
19,87742	36055
19,88153	33583
19,88565	35326
19,88978	31791
19,89390	31864
19,89802	30670
19,90215	29800
19,90627	28584
19,91038	28295
19,91452	27672
19,91863	25968
19,92275	26252
19,92688	24173
19,93100	24448
19,93512	23341
19,93925	22833
19,94337	23700
19,94748	22201
19,95162	20296
19,95573	20533
19,95985	20006
19,96397	19388
19,96810	18983
19,97222	19365
19,97633	17947
19,98047	18665
19,98458	17163
19,98870	17617
19,99283	16793
19,99695	16982
20,00107	16437
20,00520	15858
20,00932	16305
20,01343	15797
20,01757	15852
20,02168	16619
20,02580	14918
20,02993	15132
20,03405	14614
20,03817	14724
20,04230	14430
20,04642	13651
20,05053	14176
20,05465	13232
20,05878	14278
20,06290	12387
20,06702	12922
20,07115	12532
20,07527	12518
20,07938	11693
20,08352	10551
20,08763	11958
20,09175	12265
20,09588	11843
20,10000	11061
20,10412	10917
20,10825	10237
20,11237	10855
20,11648	11060
20,12062	10536
20,12473	9183
20,12885	10480
20,13298	9998
20,13710	11604
20,14122	9965
20,14533	10194
20,14947	9599
20,15358	9577
20,15770	9577
20,16183	10514
20,16595	9323
20,17007	9984
20,17420	9950
20,17832	10131
20,18243	10883
20,18657	9306
20,19068	10263
20,19480	10458
20,19893	10664
20,20305	11509
20,20717	11560
20,21130	13424
20,21542	15161
20,21953	19794
20,22367	28670
20,22778	41664
20,23190	57953
20,23602	86183
20,24015	121469
20,24427	173352
20,24838	231566
20,25252	307193
20,25663	398941
20,26075	494567
20,26488	587427
20,26900	686811
20,27312	779334
20,27725	850070
20,28137	915449
20,28548	945362
20,28962	945359
20,29373	934667
20,29785	908785
20,30198	862687
20,30610	797214
20,31022	731682
20,31435	657910
20,31847	588503
20,32258	519041
20,32670	456201
20,33083	407897
20,33495	363252
20,33907	334657
20,34320	308620
20,34732	296560
20,35143	302631
20,35557	319865
20,35968	353474
20,36380	409437
20,36793	486500
20,37205	605044
20,37617	746034
20,38030	899337
20,38442	1093242
20,38853	1310237
20,39267	1507190
20,39678	1725402
20,40090	1923152
20,40503	2085541
20,40915	2221447
20,41327	2328198
20,41738	2328102
20,42152	2283486
20,42563	2177854
20,42975	2039519
20,43388	1867122
20,43800	1690744
20,44212	1523877
20,44625	1334178
20,45037	1164084
20,45448	1013995
20,45862	884105
20,46273	773961
20,46685	680171
20,47098	596891
20,47510	527390
20,47922	474989
20,48335	425599
20,48747	375883
20,49158	343213
20,49572	305778
20,49983	281174
20,50395	258436
20,50807	236391
20,51220	217558
20,51632	199535
20,52043	186492
20,52457	172327
20,52868	160318
20,53280	148383
20,53693	142548
20,54105	133552
20,54517	123955
20,54930	120508
20,55342	111995
20,55753	106142
20,56167	99091
20,56578	95637
20,56990	89331
20,57403	85583
20,57815	79795
20,58227	78966
20,58640	72847
20,59052	71181
20,59463	67553
20,59875	67016
20,60288	62390
20,60700	57926
20,61112	55750
20,61525	55454
20,61937	51769
20,62348	51242
20,62762	50878
20,63173	47854
20,63585	45398
20,63998	44555
20,64410	42540
20,64822	37613
20,65235	38309
20,65647	36171
20,66058	37344
20,66472	35584
20,66883	35622
20,67295	35216
20,67708	31558
20,68120	31608
20,68532	33393
20,68943	31154
20,69357	29286
20,69768	27448
20,70180	29723
20,70593	28540
20,71005	28188
20,71417	26433
20,71830	26874
20,72242	27205
20,72653	25516
20,73067	26742
20,73478	22968
20,73890	23131
20,74303	22782
20,74715	21429
20,75127	19768
20,75540	20692
20,75952	20687
20,76363	19160
20,76777	19002
20,77188	18880
20,77600	18827
20,78012	17399
20,78425	18828
20,78837	18928
20,79248	20563
20,79662	23462
20,80073	29101
20,80485	38331
20,80898	52155
20,81310	71310
20,81722	99776
20,82135	132440
20,82547	183784
20,82958	238533
20,83372	313198
20,83783	391551
20,84195	481693
20,84608	573184
20,85020	664495
20,85432	749164
20,85845	816122
20,86257	877556
20,86668	903207
20,87080	921802
20,87493	912436
20,87905	885767
20,88317	828796
20,88730	777469
20,89142	712180
20,89553	641536
20,89967	587957
20,90378	517427
20,90790	456879
20,91203	407975
20,91615	361612
20,92027	313942
20,92440	281335
20,92852	247333
20,93263	221105
20,93677	194872
20,94088	181198
20,94500	158242
20,94913	143561
20,95325	131022
20,95737	120885
20,96150	107493
20,96562	99070
20,96973	92710
20,97385	85964
20,97798	81289
20,98210	71884
20,98622	68499
20,99035	62674
20,99447	62184
20,99858	57386
21,00272	52396
21,00683	51496
21,01095	48336
21,01508	46065
21,01920	44614
21,02332	41064
21,02745	39378
21,03157	36706
21,03568	36039
21,03982	34495
21,04393	33961
21,04805	33512
21,05218	29077
21,05630	28888
21,06042	28091
21,06453	28331
21,06867	26372
21,07278	26127
21,07690	25360
21,08103	23594
21,08515	23792
21,08927	23238
21,09340	22798
21,09752	20274
21,10163	20305
21,10577	20451
21,10988	20011
21,11400	20267
21,11813	19638
21,12225	18907
21,12637	19084
21,13050	18705
21,13462	17407
21,13873	16790
21,14287	16868
21,14698	17146
21,15110	17758
21,15522	17889
21,15935	17473
21,16347	17143
21,16758	16155
21,17172	16278
21,17583	16489
21,17995	14983
21,18408	14860
21,18820	14839
21,19232	14410
21,19645	12916
21,20057	14076
21,20468	12493
21,20882	13568
21,21293	13355
21,21705	11490
21,22118	11966
21,22530	12501
21,22942	12211
21,23355	11719
21,23767	12252
21,24178	11490
21,24590	11004
21,25003	12708
21,25415	10599
21,25827	11365
21,26240	11877
21,26652	10367
21,27063	9932
21,27477	10685
21,27888	9851
21,28300	10599
21,28713	10183
21,29125	9765
21,29537	9832
21,29950	9102
21,30362	9326
21,30773	8576
21,31187	9274
21,31598	10478
21,32010	9142
21,32423	9161
21,32835	9243
21,33247	9334
21,33658	9718
21,34072	9305
21,34483	9517
21,34895	8146
21,35308	8924
21,35720	8282
21,36132	8244
21,36545	9580
21,36957	9093
21,37368	9318
21,37782	8095
21,38193	8368
21,38605	9150
21,39018	8120
21,39430	8999
21,39842	8250
21,40255	7388
21,40667	7087
21,41078	6945
21,41492	8291
21,41903	7681
21,42315	8582
21,42727	8665
21,43140	7451
21,43552	7553
21,43963	7736
21,44377	7934
21,44788	7953
21,45200	8430
21,45613	7097
21,46025	7331
21,46437	8042
21,46850	6958
21,47262	7538
21,47673	7812
21,48087	7378
21,48498	7472
21,48910	8080
21,49323	6740
21,49735	8664
21,50147	7989
21,50560	8422
21,50972	7286
21,51383	8192
21,51795	7229
21,52208	7556
21,52620	7796
21,53032	6875
21,53445	7974
21,53857	7971
21,54268	7317
21,54682	6905
21,55093	6756
21,55505	7203
21,55918	6805
21,56330	6080
21,56742	7597
21,57155	7758
21,57567	6056
21,57978	7166
21,58392	6551
21,58803	6679
21,59215	7688
21,59628	6742
21,60040	6983
21,60452	6277
21,60863	6355
21,61277	6424
21,61688	6927
21,62100	6966
21,62513	6753
21,62925	6281
21,63337	8134
21,63750	7593
21,64162	9103
21,64573	9622
21,64987	11011
21,65398	14012
21,65810	18992
21,66223	28192
21,66635	38992
21,67047	55539
21,67460	78973
21,67872	117893
21,68283	158401
21,68697	217283
21,69108	280633
21,69520	353919
21,69932	434229
21,70345	523355
21,70757	603213
21,71168	675828
21,71582	725418
21,71993	769668
21,72405	796564
21,72818	797816
21,73230	807437
21,73642	775000
21,74055	737625
21,74467	695538
21,74878	638812
21,75292	576427
21,75703	518192
21,76115	472384
21,76528	408864
21,76940	362393
21,77352	322099
21,77765	285711
21,78177	252292
21,78588	224119
21,79000	200211
21,79413	178973
21,79825	158734
21,80237	143356
21,80650	129963
21,81062	120439
21,81473	107569
21,81887	100334
21,82298	96367
21,82710	92608
21,83123	94686
21,83535	98760
21,83947	113358
21,84360	128881
21,84772	159617
21,85183	206681
21,85597	271956
21,86008	362836
21,86420	467583
21,86833	603298
21,87245	766353
21,87657	956623
21,88068	1158427
21,88482	1385745
21,88893	1629081
21,89305	1845209
21,89718	2063552
21,90130	2244902
21,90542	2403434
21,90955	2481880
21,91367	2508192
21,91778	2441912
21,92192	2351127
21,92603	2211335
21,93015	2006554
21,93428	1833957
21,93840	1606447
21,94252	1419727
21,94665	1239349
21,95077	1088037
21,95488	961755
21,95902	845581
21,96313	736270
21,96725	660516
21,97137	577619
21,97550	521014
21,97962	460743
21,98373	420658
21,98787	371164
21,99198	339277
21,99610	308453
22,00023	280417
22,00435	264510
22,00847	240501
22,01260	221901
22,01672	205945
22,02083	192403
22,02497	177141
22,02908	167848
22,03320	156893
22,03733	145376
22,04145	138515
22,04557	130239
22,04970	121445
22,05382	118214
22,05793	107731
22,06205	103815
22,06618	96553
22,07030	94440
22,07442	87463
22,07855	84267
22,08267	78834
22,08678	77402
22,09092	74050
22,09503	72049
22,09915	65947
22,10328	65079
22,10740	60644
22,11152	59644
22,11565	53469
22,11977	56667
22,12388	53224
22,12802	50638
22,13213	51382
22,13625	47850
22,14038	47155
22,14450	45627
22,14862	43988
22,15273	41156
22,15687	38789
22,16098	38379
22,16510	37862
22,16923	36027
22,17335	34172
22,17747	35603
22,18160	33286
22,18572	32227
22,18983	32451
22,19397	32422
22,19808	32179
22,20220	29695
22,20633	30548
22,21045	33559
22,21457	34543
22,21870	37316
22,22282	46618
22,22693	60057
22,23107	74616
22,23518	100976
22,23930	134805
22,24342	177849
22,24755	227518
22,25167	302965
22,25578	364569
22,25992	442775
22,26403	520075
22,26815	607365
22,27228	673067
22,27640	737007
22,28052	776742
22,28465	793564
22,28877	801060
22,29288	784519
22,29702	762752
22,30113	731603
22,30525	679672
22,30938	625345
22,31350	564165
22,31762	509076
22,32175	462535
22,32587	414128
22,32998	360977
22,33410	321275
22,33823	287308
22,34235	256236
22,34647	227513
22,35060	203798
22,35472	178911
22,35883	164213
22,36297	153131
22,36708	135983
22,37120	126736
22,37533	113154
22,37945	106075
22,38357	98049
22,38770	88813
22,39182	81858
22,39593	77905
22,40007	72722
22,40418	68860
22,40830	63945
22,41243	60292
22,41655	58094
22,42067	53958
22,42478	53281
22,42892	51031
22,43303	46494
22,43715	42882
22,44128	44471
22,44540	40774
22,44952	39953
22,45365	37269
22,45777	35656
22,46188	34942
22,46602	35211
22,47013	31463
22,47425	31579
22,47838	28656
22,48250	27654
22,48662	26491
22,49075	26563
22,49487	27589
22,49898	24564
22,50312	24570
22,50723	23887
22,51135	23177
22,51548	23328
22,51960	22185
22,52372	23403
22,52783	21912
22,53197	20753
22,53608	21828
22,54020	21362
22,54433	20470
22,54845	22491
22,55257	22834
22,55670	25082
22,56082	30744
22,56493	34732
22,56907	46788
22,57318	59767
22,57730	83305
22,58143	119075
22,58555	159407
22,58967	221051
22,59380	294724
22,59792	375390
22,60203	470441
22,60617	579640
22,61028	686840
22,61440	801308
22,61852	907523
22,62265	994930
22,62677	1061362
22,63088	1102659
22,63502	1112439
22,63913	1107805
22,64325	1070717
22,64738	1016142
22,65150	939972
22,65562	864029
22,65975	788240
22,66387	702349
22,66798	626185
22,67212	547758
22,67623	485547
22,68035	429583
22,68448	388555
22,68860	342892
22,69272	312788
22,69685	274182
22,70097	244488
22,70508	223032
22,70920	201186
22,71333	184656
22,71745	167414
22,72157	155614
22,72570	144390
22,72982	129508
22,73393	121881
22,73807	110543
22,74218	104578
22,74630	95766
22,75043	92051
22,75455	88182
22,75867	82271
22,76280	76369
22,76692	71962
22,77103	68392
22,77517	63917
22,77928	62435
22,78340	57282
22,78753	56852
22,79165	53763
22,79577	50705
22,79988	47389
22,80402	45111
22,80813	46287
22,81225	44201
22,81638	39858
22,82050	39900
22,82462	37115
22,82875	37308
22,83287	36064
22,83698	34992
22,84112	31433
22,84523	31847
22,84935	31438
22,85348	31602
22,85760	29136
22,86172	30494
22,86585	27518
22,86997	26624
22,87408	26611
22,87822	26191
22,88233	25502
22,88645	23957
22,89057	23547
22,89470	22911
22,89882	22835
22,90293	21523
22,90707	20804
22,91118	21421
22,91530	22420
22,91943	21299
22,92355	19211
22,92767	19163
22,93180	19081
22,93592	18797
22,94003	18318
22,94417	17830
22,94828	18356
22,95240	17013
22,95653	16188
22,96065	17937
22,96477	16417
22,96890	17041
22,97302	15932
22,97713	16059
22,98125	15273
22,98538	16868
22,98950	14526
22,99362	13807
22,99775	14784
23,00187	15804
23,00598	13418
23,01012	14506
23,01423	14830
23,01835	14865
23,02248	13782
23,02660	12964
23,03072	12776
23,03485	13688
23,03897	13497
23,04308	12878
23,04722	13140
23,05133	13190
23,05545	12870
23,05958	11910
23,06370	12689
23,06782	12583
23,07193	12716
23,07607	12327
23,08018	11529
23,08430	11756
23,08843	12175
23,09255	11732
23,09667	10664
23,10080	11894
23,10492	11945
23,10903	12896
23,11317	11525
23,11728	11609
23,12140	11089
23,12553	11568
23,12965	11508
23,13377	12351
23,13790	12091
23,14202	10921
23,14613	11373
23,15027	12717
23,15438	9500
23,15850	11184
23,16262	9820
23,16675	11488
23,17087	10032
23,17498	10253
23,17912	10896
23,18323	9733
23,18735	10687
23,19148	10407
23,19560	10665
23,19972	9819
23,20385	10532
23,20797	9832
23,21208	8915
23,21622	10641
23,22033	10332
23,22445	9376
23,22858	8907
23,23270	10787
23,23682	10425
23,24095	10339
23,24507	10952
23,24918	9581
23,25330	10824
23,25743	11876
23,26155	12423
23,26567	11088
23,26980	13177
23,27392	16123
23,27803	21600
23,28217	26498
23,28628	35692
23,29040	52058
23,29453	77541
23,29865	106988
23,30277	153563
23,30690	216550
23,31102	289233
23,31513	385226
23,31927	489974
23,32338	608818
23,32750	741680
23,33163	866399
23,33575	989379
23,33987	1091447
23,34398	1185048
23,34812	1232656
23,35223	1244040
23,35635	1224392
23,36048	1188432
23,36460	1111727
23,36872	1027406
23,37285	941802
23,37697	848054
23,38108	748576
23,38522	666258
23,38933	589351
23,39345	520606
23,39758	462424
23,40170	417719
23,40582	365254
23,40995	320826
23,41407	292940
23,41818	261135
23,42232	238355
23,42643	219050
23,43055	198289
23,43467	179528
23,43880	163849
23,44292	151341
23,44703	140235
23,45117	132169
23,45528	125279
23,45940	113700
23,46353	107346
23,46765	101338
23,47177	94593
23,47590	91518
23,48002	83260
23,48413	79613
23,48827	78534
23,49238	68700
23,49650	69266
23,50063	64923
23,50475	62862
23,50887	61320
23,51300	57932
23,51712	55505
23,52123	54004
23,52535	50998
23,52948	51552
23,53360	46737
23,53772	46514
23,54185	44001
23,54597	43078
23,55008	41573
23,55422	38539
23,55833	38024
23,56245	36437
23,56658	36360
23,57070	33130
23,57482	31423
23,57895	32737
23,58307	30557
23,58718	29546
23,59132	29723
23,59543	29136
23,59955	27318
23,60368	26494
23,60780	25003
23,61192	26727
23,61603	25013
23,62017	25072
23,62428	24655
23,62840	23405
23,63253	22512
23,63665	21552
23,64077	23024
23,64490	22027
23,64902	21096
23,65313	20230
23,65727	19806
23,66138	20621
23,66550	18679
23,66963	18783
23,67375	18542
23,67787	19080
23,68200	18953
23,68612	18266
23,69023	18749
23,69437	17924
23,69848	16252
23,70260	16082
23,70672	15501
23,71085	16893
23,71497	16827
23,71908	17105
23,72322	17386
23,72733	18455
23,73145	21401
23,73558	22972
23,73970	28954
23,74382	38048
23,74795	53195
23,75207	71484
23,75618	100759
23,76032	134985
23,76443	191375
23,76855	251124
23,77268	328586
23,77680	419424
23,78092	508966
23,78505	606770
23,78917	703355
23,79328	789411
23,79740	873512
23,80153	923113
23,80565	957553
23,80977	969484
23,81390	963767
23,81802	930767
23,82213	885868
23,82627	828412
23,83038	752379
23,83450	681223
23,83863	616884
23,84275	556428
23,84687	495153
23,85100	434251
23,85512	388906
23,85923	340488
23,86337	309047
23,86748	274896
23,87160	244278
23,87573	218738
23,87985	196971
23,88397	184159
23,88808	165206
23,89222	148592
23,89633	138091
23,90045	126355
23,90458	116294
23,90870	110777
23,91282	103059
23,91695	94760
23,92107	88368
23,92518	81642
23,92932	78697
23,93343	72522
23,93755	68768
23,94168	64585
23,94580	60897
23,94992	60929
23,95405	55244
23,95817	52183
23,96228	48839
23,96642	49701
23,97053	45742
23,97465	40041
23,97877	41847
23,98290	39845
23,98702	40137
23,99113	38656
23,99527	36712
23,99938	34525
24,00350	33832
24,00763	33690
24,01175	31175
24,01587	31481
24,02000	30411
24,02412	30256
24,02823	28394
24,03237	27267
24,03648	25804
24,04060	26357
24,04473	23035
24,04885	24406
24,05297	24060
24,05710	22971
24,06122	23487
24,06533	20297
24,06945	21969
24,07358	21332
24,07770	21187
24,08182	20073
24,08595	19926
24,09007	19841
24,09418	20691
24,09832	18523
24,10243	19749
24,10655	17271
24,11068	18681
24,11480	16895
24,11892	17324
24,12305	17469
24,12717	15675
24,13128	17868
24,13542	17514
24,13953	15375
24,14365	16613
24,14778	15515
24,15190	15937
24,15602	17120
24,16015	15937
24,16427	14136
24,16838	16575
24,17250	14001
24,17663	15141
24,18075	15777
24,18487	14132
24,18900	13281
24,19312	13283
24,19723	14567
24,20137	13849
24,20548	13338
24,20960	13902
24,21373	13617
24,21785	13607
24,22197	14306
24,22610	13592
24,23022	13775
24,23433	12826
24,23847	14478
24,24258	12926
24,24670	13693
24,25083	14418
24,25495	13162
24,25907	14659
24,26318	14841
24,26732	12931
24,27143	13857
24,27555	13752
24,27968	13655
24,28380	13349
24,28792	14614
24,29205	12892
24,29617	12142
24,30028	13998
24,30442	13012
24,30853	12479
24,31265	11439
24,31678	11623
24,32090	12703
24,32502	12231
24,32915	11905
24,33327	11355
24,33738	12274
24,34152	11830
24,34563	12313
24,34975	11668
24,35387	12859
24,35800	12171
24,36212	11492
24,36623	12473
24,37037	11777
24,37448	11568
24,37860	11551
24,38273	11194
24,38685	11214
24,39097	11659
24,39510	11606
24,39922	10883
24,40333	10820
24,40747	11943
24,41158	11065
24,41570	10265
24,41983	11321
24,42395	10220
24,42807	10058
24,43220	11038
24,43632	9600
24,44043	10254
24,44455	11304
24,44868	11452
24,45280	10552
24,45692	10075
24,46105	10008
24,46517	10273
24,46928	8920
24,47342	8848
24,47753	9516
24,48165	10973
24,48578	10117
24,48990	10333
24,49402	8617
24,49815	10684
24,50227	9252
24,50638	10438
24,51052	10205
24,51463	9256
24,51875	10186
24,52288	9836
24,52700	10162
24,53112	11699
24,53523	12771
24,53937	12512
24,54348	15959
24,54760	18021
24,55173	23198
24,55585	32224
24,55997	43462
24,56410	62108
24,56822	87387
24,57233	122160
24,57647	163324
24,58058	221919
24,58470	289115
24,58883	365877
24,59295	447583
24,59707	540455
24,60120	627289
24,60532	698480
24,60943	765290
24,61357	807362
24,61768	838266
24,62180	842783
24,62592	840618
24,63005	815401
24,63417	769645
24,63828	724592
24,64242	672053
24,64653	612103
24,65065	554137
24,65478	500489
24,65890	446979
24,66302	400077
24,66715	352087
24,67127	311696
24,67538	292728
24,67952	262780
24,68363	239010
24,68775	233905
24,69188	226689
24,69600	230192
24,70012	243965
24,70425	269970
24,70837	315072
24,71248	372713
24,71660	463752
24,72073	558987
24,72485	682262
24,72897	842974
24,73310	1017152
24,73722	1208498
24,74133	1405896
24,74547	1623630
24,74958	1842754
24,75370	2059867
24,75783	2257778
24,76195	2452285
24,76607	2560131
24,77020	2596896
24,77432	2581288
24,77843	2479973
24,78257	2370868
24,78668	2194352
24,79080	1990292
24,79493	1787777
24,79905	1586032
24,80317	1392605
24,80728	1231528
24,81142	1084523
24,81553	965204
24,81965	848636
24,82378	763641
24,82790	681168
24,83202	614373
24,83615	556919
24,84027	504554
24,84438	459883
24,84852	419876
24,85263	389224
24,85675	354350
24,86088	330525
24,86500	300893
24,86912	287170
24,87325	263948
24,87737	248492
24,88148	229314
24,88562	215468
24,88973	203709
24,89385	197161
24,89797	183901
24,90210	177912
24,90622	162503
24,91033	156019
24,91447	147883
24,91858	143189
24,92270	134532
24,92683	129647
24,93095	125306
24,93507	115519
24,93920	114272
24,94332	110184
24,94743	106572
24,95157	102185
24,95568	96518
24,95980	91330
24,96393	89039
24,96805	88424
24,97217	85646
24,97630	80255
24,98042	79603
24,98453	76721
24,98865	74174
24,99278	71325
24,99690	69450
25,00102	64818
25,00515	65887
25,00927	63691
25,01338	58517
25,01752	59044
25,02163	58107
25,02575	55191
25,02988	53460
25,03400	50201
25,03812	50566
25,04225	48474
25,04637	46931
25,05048	44390
25,05462	45836
25,05873	44006
25,06285	43246
25,06698	42605
25,07110	44026
25,07522	45917
25,07933	47897
25,08347	52123
25,08758	60758
25,09170	71118
25,09583	87882
25,09995	113769
25,10407	147671
25,10820	197597
25,11232	253597
25,11643	321151
25,12057	399008
25,12468	491833
25,12880	579881
25,13293	663016
25,13705	747625
25,14117	821284
25,14530	876848
25,14942	914500
25,15353	949196
25,15767	946320
25,16178	950018
25,16590	946096
25,17002	930058
25,17415	908498
25,17827	920165
25,18238	911894
25,18652	930868
25,19063	959627
25,19475	985287
25,19888	1021159
25,20300	1031216
25,20712	1061082
25,21125	1077790
25,21537	1067794
25,21948	1034516
25,22362	990491
25,22773	947508
25,23185	897457
25,23598	832160
25,24010	762733
25,24422	700548
25,24835	633513
25,25247	573390
25,25658	514229
25,26070	463885
25,26483	415289
25,26895	376836
25,27307	340438
25,27720	307756
25,28132	279731
25,28543	252442
25,28957	232711
25,29368	214722
25,29780	196303
25,30193	180334
25,30605	167746
25,31017	154691
25,31430	146068
25,31842	139901
25,32253	130774
25,32667	120945
25,33078	115027
25,33490	107283
25,33903	101611
25,34315	97730
25,34727	93264
25,35138	85613
25,35552	83415
25,35963	80102
25,36375	76488
25,36788	75179
25,37200	74244
25,37612	75646
25,38025	78902
25,38437	84430
25,38848	92025
25,39262	106692
25,39673	130730
25,40085	166333
25,40498	205890
25,40910	262211
25,41322	337991
25,41735	434260
25,42147	537518
25,42558	649888
25,42972	763209
25,43383	868624
25,43795	980050
25,44207	1062492
25,44620	1132080
25,45032	1166917
25,45443	1177266
25,45857	1158363
25,46268	1115086
25,46680	1076775
25,47093	1005988
25,47505	928276
25,47917	845081
25,48330	768077
25,48742	690539
25,49153	618588
25,49567	556848
25,49978	498526
25,50390	446204
25,50803	403829
25,51215	364996
25,51627	330089
25,52040	299117
25,52452	274162
25,52863	252565
25,53275	229962
25,53688	213297
25,54100	198097
25,54512	185817
25,54925	175385
25,55337	161205
25,55748	153159
25,56162	141336
25,56573	135885
25,56985	128420
25,57398	125684
25,57810	116368
25,58222	111795
25,58635	105158
25,59047	100715
25,59458	95638
25,59872	92773
25,60283	90040
25,60695	86928
25,61108	80718
25,61520	76661
25,61932	75098
25,62343	73105
25,62757	70285
25,63168	68149
25,63580	67782
25,63993	63302
25,64405	60872
25,64817	59266
25,65230	60174
25,65642	57734
25,66053	57016
25,66467	53948
25,66878	55328
25,67290	51836
25,67703	50444
25,68115	48956
25,68527	47543
25,68940	46159
25,69352	45099
25,69763	43788
25,70177	42094
25,70588	39841
25,71000	38666
25,71412	39225
25,71825	37403
25,72237	38031
25,72648	33677
25,73062	35214
25,73473	33981
25,73885	33182
25,74298	31995
25,74710	31498
25,75122	32306
25,75535	31857
25,75947	29374
25,76358	28341
25,76772	30433
25,77183	30805
25,77595	28230
25,78008	27512
25,78420	27518
25,78832	27482
25,79245	27764
25,79657	25410
25,80068	25991
25,80482	26798
25,80893	24950
25,81305	23842
25,81717	25158
25,82130	22737
25,82542	24226
25,82953	24171
25,83367	24082
25,83778	24084
25,84190	23250
25,84603	21929
25,85015	21973
25,85427	22644
25,85840	20049
25,86252	20960
25,86663	20655
25,87077	20902
25,87488	19669
25,87900	20888
25,88313	20278
25,88725	20870
25,89137	19801
25,89550	20604
25,89962	20688
25,90373	18936
25,90785	21780
25,91198	19963
25,91610	20315
25,92022	19684
25,92435	21111
25,92847	20255
25,93258	20953
25,93672	21452
25,94083	20099
25,94495	19029
25,94908	19573
25,95320	19482
25,95732	20584
25,96145	20208
25,96557	20103
25,96968	19693
25,97382	19660
25,97793	20506
25,98205	17877
25,98618	18386
25,99030	18478
25,99442	17273
25,99853	18181
26,00267	18322
26,00678	17707
26,01090	17616
26,01503	17865
26,01915	18372
26,02327	19606
26,02740	20148
26,03152	22110
26,03563	26004
26,03977	32383
26,04388	39727
26,04800	52843
26,05213	71539
26,05625	96306
26,06037	131320
26,06450	182406
26,06862	242041
26,07273	318294
26,07687	413689
26,08098	516834
26,08510	639839
26,08922	766385
26,09335	891728
26,09747	1011895
26,10158	1123737
26,10572	1197939
26,10983	1244306
26,11395	1246133
26,11808	1229414
26,12220	1183606
26,12632	1106082
26,13045	1018097
26,13457	940106
26,13868	851496
26,14282	763232
26,14693	676835
26,15105	607198
26,15518	548195
26,15930	487652
26,16342	437637
26,16755	394941
26,17167	359076
26,17578	329885
26,17990	297887
26,18403	273942
26,18815	253096
26,19227	232954
26,19640	215708
26,20052	202825
26,20463	189647
26,20877	180661
26,21288	167038
26,21700	153972
26,22113	145680
26,22525	137823
26,22937	129884
26,23350	121898
26,23762	120267
26,24173	110165
26,24587	107308
26,24998	101441
26,25410	97734
26,25823	92251
26,26235	88041
26,26647	84696
26,27058	85360
26,27472	78300
26,27883	75535
26,28295	74403
26,28708	72587
26,29120	71117
26,29532	66509
26,29945	62825
26,30357	62104
26,30768	58555
26,31182	56582
26,31593	59159
26,32005	54249
26,32418	54059
26,32830	51291
26,33242	49365
26,33655	50162
26,34067	47305
26,34478	47176
26,34892	44907
26,35303	42861
26,35715	42898
26,36127	41554
26,36540	41163
26,36952	40718
26,37363	38505
26,37777	35830
26,38188	37492
26,38600	36378
26,39013	33639
26,39425	35854
26,39837	34939
26,40250	35459
26,40662	33220
26,41073	33188
26,41487	34656
26,41898	30907
26,42310	31973
26,42723	31850
26,43135	30681
26,43547	30305
26,43960	31241
26,44372	29995
26,44783	30368
26,45195	28516
26,45608	27622
26,46020	29133
26,46432	29034
26,46845	26602
26,47257	27846
26,47668	26622
26,48082	28684
26,48493	29276
26,48905	31464
26,49318	34659
26,49730	40598
26,50142	50169
26,50555	65213
26,50967	84918
26,51378	113180
26,51792	151635
26,52203	209967
26,52615	286270
26,53028	375185
26,53440	478945
26,53852	611917
26,54263	739194
26,54677	886637
26,55088	1038416
26,55500	1180717
26,55913	1308688
26,56325	1428599
26,56737	1528361
26,57150	1585092
26,57562	1608519
26,57973	1623147
26,58387	1587871
26,58798	1548157
26,59210	1500294
26,59623	1400942
26,60035	1314463
26,60447	1223520
26,60860	1131156
26,61272	1031384
26,61683	942899
26,62097	848909
26,62508	763540
26,62920	681936
26,63332	619492
26,63745	565245
26,64157	492335
26,64568	452676
26,64982	407576
26,65393	367592
26,65805	340681
26,66218	310132
26,66630	279832
26,67042	260913
26,67455	245447
26,67867	225880
26,68278	209732
26,68692	197798
26,69103	184099
26,69515	169950
26,69928	160811
26,70340	154231
26,70752	146446
26,71165	137249
26,71577	131152
26,71988	124192
26,72400	115476
26,72813	113752
26,73225	108703
26,73637	100413
26,74050	95932
26,74462	92611
26,74873	88609
26,75287	84249
26,75698	82570
26,76110	78868
26,76523	75461
26,76935	73782
26,77347	72146
26,77760	70711
26,78172	65100
26,78583	61035
26,78997	60851
26,79408	61050
26,79820	56176
26,80233	56525
26,80645	54805
26,81057	53829
26,81468	51482
26,81882	50092
26,82293	49228
26,82705	45661
26,83118	46819
26,83530	46533
26,83942	42787
26,84355	41711
26,84767	43568
26,85178	41353
26,85592	39937
26,86003	38953
26,86415	39062
26,86828	37678
26,87240	35923
26,87652	37172
26,88065	36212
26,88477	37351
26,88888	36537
26,89302	34250
26,89713	33526
26,90125	34568
26,90537	32753
26,90950	32036
26,91362	31485
26,91773	31492
26,92187	29640
26,92598	33384
26,93010	30550
26,93423	32329
26,93835	30663
26,94247	29417
26,94660	29139
26,95072	28287
26,95483	29492
26,95897	29315
26,96308	28881
26,96720	27748
26,97133	28494
26,97545	26788
26,97957	28756
26,98370	30340
26,98782	29169
26,99193	30196
26,99605	28781
27,00018	26789
27,00430	28300
27,00842	26895
27,01255	25909
27,01667	26950
27,02078	26509
27,02492	25675
27,02903	25681
27,03315	26105
27,03728	25436
27,04140	24865
27,04552	24505
27,04965	24989
27,05377	23424
27,05788	22595
27,06202	23143
27,06613	22403
27,07025	22735
27,07438	22219
27,07850	22011
27,08262	23394
27,08673	22414
27,09087	22132
27,09498	22748
27,09910	21098
27,10323	20887
27,10735	21872
27,11147	19905
27,11560	18056
27,11972	20824
27,12383	21248
27,12797	21041
27,13208	19726
27,13620	18654
27,14033	19442
27,14445	20066
27,14857	18556
27,15270	18415
27,15682	18605
27,16093	19419
27,16507	19233
27,16918	18330
27,17330	18762
27,17742	19353
27,18155	19636
27,18567	20507
27,18978	18764
27,19392	19983
27,19803	19921
27,20215	19589
27,20628	20299
27,21040	19473
27,21452	18149
27,21865	19471
27,22277	20246
27,22688	19469
27,23102	19263
27,23513	20361
27,23925	20507
27,24338	19942
27,24750	18782
27,25162	19559
27,25575	20367
27,25987	21804
27,26398	18351
27,26810	20139
27,27223	17838
27,27635	18530
27,28047	19065
27,28460	19011
27,28872	19964
27,29283	19199
27,29697	17691
27,30108	19511
27,30520	19648
27,30933	18295
27,31345	18074
27,31757	19996
27,32170	19920
27,32582	19679
27,32993	18759
27,33407	19981
27,33818	19856
27,34230	21310
27,34643	22223
27,35055	24848
27,35467	27632
27,35880	32857
27,36292	43461
27,36703	55092
27,37115	70143
27,37528	97716
27,37940	132257
27,38352	180174
27,38765	240878
27,39177	323516
27,39588	418119
27,40002	544950
27,40413	677815
27,40825	842471
27,41238	1024608
27,41650	1214239
27,42062	1414496
27,42475	1614651
27,42887	1848362
27,43298	2045044
27,43712	2223891
27,44123	2339322
27,44535	2420070
27,44948	2423715
27,45360	2382038
27,45772	2282796
27,46183	2139623
27,46597	1946723
27,47008	1766358
27,47420	1580831
27,47833	1407800
27,48245	1264662
27,48657	1127720
27,49070	1005911
27,49482	899351
27,49893	804235
27,50307	719968
27,50718	657741
27,51130	595808
27,51543	542368
27,51955	492837
27,52367	459407
27,52780	428923
27,53192	396277
27,53603	368628
27,54017	346686
27,54428	320651
27,54840	301006
27,55252	284646
27,55665	263205
27,56077	252778
27,56488	239574
27,56902	227461
27,57313	212206
27,57725	207665
27,58138	195774
27,58550	187891
27,58962	176012
27,59375	173053
27,59787	164775
27,60198	154956
27,60612	148908
27,61023	142823
27,61435	140380
27,61848	133498
27,62260	131069
27,62672	125604
27,63085	120242
27,63497	116385
27,63908	113831
27,64320	107862
27,64733	104204
27,65145	100101
27,65557	96437
27,65970	95304
27,66382	90946
27,66793	91384
27,67207	87096
27,67618	82313
27,68030	80927
27,68443	80306
27,68855	78816
27,69267	77124
27,69680	74876
27,70092	71313
27,70503	69518
27,70917	69123
27,71328	67167
27,71740	66908
27,72153	65275
27,72565	63409
27,72977	62406
27,73388	61611
27,73802	58585
27,74213	58099
27,74625	58455
27,75038	56035
27,75450	55089
27,75862	52928
27,76275	53031
27,76687	52578
27,77098	53263
27,77512	52612
27,77923	48706
27,78335	47995
27,78748	49572
27,79160	46947
27,79572	47432
27,79985	46875
27,80397	44064
27,80808	45310
27,81222	44270
27,81633	43437
27,82045	44656
27,82457	43428
27,82870	42841
27,83282	43593
27,83693	41246
27,84107	41093
27,84518	39664
27,84930	41521
27,85343	40400
27,85755	38901
27,86167	38769
27,86580	38078
27,86992	39339
27,87403	37143
27,87817	35356
27,88228	35241
27,88640	33862
27,89053	35237
27,89465	35278
27,89877	32985
27,90290	34941
27,90702	32157
27,91113	34024
27,91525	33698
27,91938	32684
27,92350	32356
27,92762	33293
27,93175	31398
27,93587	32365
27,93998	31797
27,94412	31203
27,94823	30488
27,95235	30766
27,95648	29007
27,96060	29558
27,96472	30429
27,96885	30777
27,97297	30328
27,97708	28543
27,98122	27174
27,98533	28190
27,98945	28871
27,99358	31695
27,99770	28962
28,00182	28051
28,00593	30960
28,01007	33176
28,01418	32313
28,01830	36296
28,02243	41130
28,02655	51040
28,03067	59920
28,03480	78986
28,03892	102473
28,04303	133314
28,04717	179941
28,05128	232253
28,05540	296797
28,05953	376905
28,06365	475183
28,06777	570348
28,07190	679808
28,07602	786005
28,08013	906260
28,08427	1002706
28,08838	1076715
28,09250	1114427
28,09662	1133392
28,10075	1131921
28,10487	1091937
28,10898	1056214
28,11312	986481
28,11723	909678
28,12135	838305
28,12548	756767
28,12960	689954
28,13372	619259
28,13785	561857
28,14197	507985
28,14608	460940
28,15022	413550
28,15433	381600
28,15845	346835
28,16258	320921
28,16670	298157
28,17082	278135
28,17495	257607
28,17907	243216
28,18318	222470
28,18730	204775
28,19143	193162
28,19555	182193
28,19967	170976
28,20380	169870
28,20792	160653
28,21203	150847
28,21617	141530
28,22028	138309
28,22440	132406
28,22853	124590
28,23265	120708
28,23677	114955
28,24090	111767
28,24502	106087
28,24913	100505
28,25327	97863
28,25738	98556
28,26150	92064
28,26563	93733
28,26975	94452
28,27387	91831
28,27798	90684
28,28212	96770
28,28623	99142
28,29035	99072
28,29448	98782
28,29860	103579
28,30272	106350
28,30685	108460
28,31097	112040
28,31508	109917
28,31922	110810
28,32333	113019
28,32745	107590
28,33158	106164
28,33570	109254
28,33982	101209
28,34395	97821
28,34807	94669
28,35218	92715
28,35632	86112
28,36043	84906
28,36455	76192
28,36867	74311
28,37280	69369
28,37692	64374
28,38103	63728
28,38517	60451
28,38928	58405
28,39340	55621
28,39753	54857
28,40165	51063
28,40577	53465
28,40990	51746
28,41402	47820
28,41813	49832
28,42227	47720
28,42638	45718
28,43050	44288
28,43463	41732
28,43875	40600
28,44287	41679
28,44700	40012
28,45112	38021
28,45523	39026
28,45935	41031
28,46348	38503
28,46760	36615
28,47172	38975
28,47585	36416
28,47997	36108
28,48408	33502
28,48822	35602
28,49233	34030
28,49645	32849
28,50058	34470
28,50470	34362
28,50882	33607
28,51295	32949
28,51707	31394
28,52118	30582
28,52532	29621
28,52943	29868
28,53355	30491
28,53768	30454
28,54180	31217
28,54592	30916
28,55003	28308
28,55417	28390
28,55828	30255
28,56240	30924
28,56653	28288
28,57065	28312
28,57477	27863
28,57890	28504
28,58302	27395
28,58713	29246
28,59127	27917
28,59538	26293
28,59950	27512
28,60363	27158
28,60775	25507
28,61187	27948
28,61600	27905
28,62012	27014
28,62423	25284
28,62837	27443
28,63248	26465
28,63660	26605
28,64072	26374
28,64485	25860
28,64897	24361
28,65308	26608
28,65722	26385
28,66133	26359
28,66545	25196
28,66958	26271
28,67370	26168
28,67782	23323
28,68195	26749
28,68607	25192
28,69018	25845
28,69432	25865
28,69843	25823
28,70255	26191
28,70668	27199
28,71080	23297
28,71492	26022
28,71905	24705
28,72317	24079
28,72728	25713
28,73140	25186
28,73553	23023
28,73965	24069
28,74377	24835
28,74790	24997
28,75202	22837
28,75613	22791
28,76027	25757
28,76438	23227
28,76850	24854
28,77263	22920
28,77675	23593
28,78087	23078
28,78500	24386
28,78912	24231
28,79323	23240
28,79737	22724
28,80148	21859
28,80560	21824
28,80973	22098
28,81385	21989
28,81797	21207
28,82208	22377
28,82622	22674
28,83033	21843
28,83445	24738
28,83858	22318
28,84270	21313
28,84682	24425
28,85095	22697
28,85507	22829
28,85918	22914
28,86332	23140
28,86743	21305
28,87155	21574
28,87568	23106
28,87980	22410
28,88392	22304
28,88805	21944
28,89217	23040
28,89628	19456
28,90042	21960
28,90453	22035
28,90865	22632
28,91277	20032
28,91690	21538
28,92102	23004
28,92513	22274
28,92927	20334
28,93338	21649
28,93750	22578
28,94163	22297
28,94575	21254
28,94987	21427
28,95400	21462
28,95812	24710
28,96223	21490
28,96637	22445
28,97048	21953
28,97460	21487
28,97873	20814
28,98285	22516
28,98697	20186
28,99110	22877
28,99522	21029
28,99933	21282
29,00345	21997
29,00758	23477
29,01170	20789
29,01582	21824
29,01995	21560
29,02407	20819
29,02818	22958
29,03232	21220
29,03643	20973
29,04055	21462
29,04468	22091
29,04880	20853
29,05292	21964
29,05705	21208
29,06117	21528
29,06528	20645
29,06942	20615
29,07353	22463
29,07765	22180
29,08178	19505
29,08590	22492
29,09002	20844
29,09415	19994
29,09827	19701
29,10238	21874
29,10650	21703
29,11063	21791
29,11475	22607
29,11887	22288
29,12300	20945
29,12712	20636
29,13123	21352
29,13537	21279
29,13948	20110
29,14360	20173
29,14773	22585
29,15185	23162
29,15597	19862
29,16010	20867
29,16422	21845
29,16833	22704
29,17247	21609
29,17658	21979
29,18070	20758
29,18483	22082
29,18895	21694
29,19307	20060
29,19718	21079
29,20132	21713
29,20543	20361
29,20955	20782
29,21368	21444
29,21780	21913
29,22192	20552
29,22605	21771
29,23017	21019
29,23428	20603
29,23842	20302
29,24253	20962
29,24665	23745
29,25078	20300
29,25490	20938
29,25902	21274
29,26315	20389
29,26727	21764
29,27138	20998
29,27552	19702
29,27963	22110
29,28375	19289
29,28787	19569
29,29200	21074
29,29612	19011
29,30023	21832
29,30437	21126
29,30848	20239
29,31260	21014
29,31673	19226
29,32085	21544
29,32497	21323
29,32910	20058
29,33322	20235
29,33733	21396
29,34147	21321
29,34558	22172
29,34970	20972
29,35383	22080
29,35795	20469
29,36207	19999
29,36620	20348
29,37032	21164
29,37443	20005
29,37855	21370
29,38268	21607
29,38680	20854
29,39092	21571
29,39505	21231
29,39917	21171
29,40328	22894
29,40742	20730
29,41153	20698
29,41565	22215
29,41978	19669
29,42390	19773
29,42802	21232
29,43215	20524
29,43627	21490
29,44038	22994
29,44452	21673
29,44863	21777
29,45275	20106
29,45688	20820
29,46100	22306
29,46512	22414
29,46923	21337
29,47337	21589
29,47748	22559
29,48160	20706
29,48573	20964
29,48985	20337
29,49397	21459
29,49810	19012
29,50222	19501
29,50633	20848
29,51047	21353
29,51458	21357
29,51870	21373
29,52283	22998
29,52695	21666
29,53107	22334
29,53520	23108
29,53932	20770
29,54343	20968
29,54757	22412
29,55168	21789
29,55580	22853
29,55992	21310
29,56405	21610
29,56817	22157
29,57228	21782
29,57642	21050
29,58053	22299
29,58465	19786
29,58878	21692
29,59290	22294
29,59702	20394
29,60115	21898
29,60527	21618
29,60938	21572
29,61352	22125
29,61763	20687
29,62175	21284
29,62588	19161
29,63000	22139
29,63412	21701
29,63825	20694
29,64237	20189
29,64648	19998
29,65060	19905
29,65473	22081
29,65885	22033
29,66297	21786
29,66710	21383
29,67122	24562
29,67533	21638
29,67947	22457
29,68358	20853
29,68770	20603
29,69183	20416
29,69595	21999
29,70007	22419
29,70420	20643
29,70832	20945
29,71243	22147
29,71657	20959
29,72068	22406
29,72480	21623
29,72893	21546
29,73305	19191
29,73717	21515
29,74128	21893
29,74542	23102
29,74953	24316
29,75365	23022
29,75778	21366
29,76190	23766
29,76602	23477
29,77015	25849
29,77427	29782
29,77838	31378
29,78252	37584
29,78663	45055
29,79075	59057
29,79488	73374
29,79900	93613
29,80312	122107
29,80725	157163
29,81137	197913
29,81548	244461
29,81962	314986
29,82373	372892
29,82785	433556
29,83197	489700
29,83610	548129
29,84022	583655
29,84433	614140
29,84847	630913
29,85258	638592
29,85670	637155
29,86083	618711
29,86495	581451
29,86907	555015
29,87320	514091
29,87732	476726
29,88143	434051
29,88557	393453
29,88968	364139
29,89380	327513
29,89793	299052
29,90205	269835
29,90617	241083
29,91030	226514
29,91442	208864
29,91853	184824
29,92265	173053
29,92678	159952
29,93090	145110
29,93502	136119
29,93915	128056
29,94327	119178
29,94738	112993
29,95152	105694
29,95563	102742
29,95975	94624
29,96388	91420
29,96800	87041
29,97212	85419
29,97625	79233
29,98037	75932
29,98448	75703
29,98862	74957
29,99273	67996
29,99685	66140
30,00098	62665
30,00510	59717
30,00922	58746
30,01333	56382
30,01747	56713
30,02158	54923
30,02570	52632
30,02983	53956
30,03395	52790
30,03807	48765
30,04220	49142
30,04632	49436
30,05043	46145
30,05457	47252
30,05868	44035
30,06280	45915
30,06693	44746
30,07105	43178
30,07517	43542
30,07930	40989
30,08342	43169
30,08753	43221
30,09167	39247
30,09578	38779
30,09990	39021
30,10402	39558
30,10815	38449
30,11227	37693
30,11638	37412
30,12052	36410
30,12463	35493
30,12875	35206
30,13288	34856
30,13700	35936
30,14112	33623
30,14525	35048
30,14937	33890
30,15348	33894
30,15762	33026
30,16173	33595
30,16585	33620
30,16998	33118
30,17410	31088
30,17822	30376
30,18235	32271
30,18647	31159
30,19058	31670
30,19470	31631
30,19883	31220
30,20295	29780
30,20707	29705
30,21120	29845
30,21532	29399
30,21943	29399
30,22357	29385
30,22768	30286
30,23180	29872
30,23593	30363
30,24005	30157
30,24417	28909
30,24830	30209
30,25242	29164
30,25653	29829
30,26067	28906
30,26478	29261
30,26890	30562
30,27303	28307
30,27715	28699
30,28127	27922
30,28538	28725
30,28952	28030
30,29363	29103
30,29775	31048
30,30188	29669
30,30600	28853
30,31012	28790
30,31425	28336
30,31837	29530
30,32248	29000
30,32662	26949
30,33073	26994
30,33485	28478
30,33898	28494
30,34310	30292
30,34722	29006
30,35135	28666
30,35547	28704
30,35958	28976
30,36372	27883
30,36783	27764
30,37195	28779
30,37607	29181
30,38020	28274
30,38432	27043
30,38843	28587
30,39257	27005
30,39668	25415
30,40080	28895
30,40493	27478
30,40905	27382
30,41317	25601
30,41730	28240
30,42142	28826
30,42553	27572
30,42967	28746
30,43378	28136
30,43790	27416
30,44203	27203
30,44615	24858
30,45027	26929
30,45440	27281
30,45852	26896
30,46263	28145
30,46675	27363
30,47088	26419
30,47500	27581
30,47912	27588
30,48325	26772
30,48737	27110
30,49148	27771
30,49562	26046
30,49973	27052
30,50385	28352
30,50798	26340
30,51210	26501
30,51622	28196
30,52035	27542
30,52447	28103
30,52858	28098
30,53272	29984
30,53683	26671
30,54095	25804
30,54508	26740
30,54920	27153
30,55332	28916
30,55743	28233
30,56157	27946
30,56568	27317
30,56980	27539
30,57393	25573
