D:\MassHunter\GCMS\1\data\Amal\Constant flow\100C\100C_1ml-min_7C-min_3.D Wed Sep 18 17:43:43 2024
Start of data points
5,64107,115868
5,64518,111194
5,64932,110796
5,65343,107201
5,65755,107607
5,66168,104697
5,66580,101513
5,66992,104625
5,67405,99781
5,67817,101289
5,68228,98303
5,68642,99317
5,69053,96869
5,69465,95819
5,69878,97174
5,70290,97604
5,70702,93484
5,71115,94386
5,71527,96184
5,71938,94736
5,72350,94346
5,72763,92219
5,73175,93932
5,73587,93060
5,74000,89161
5,74412,88961
5,74823,86497
5,75237,86106
5,75648,86833
5,76060,84068
5,76473,85323
5,76885,83330
5,77297,83031
5,77710,82198
5,78122,84627
5,78533,82009
5,78947,81753
5,79358,79360
5,79770,81093
5,80183,77811
5,80595,80182
5,81007,76852
5,81418,79008
5,81832,77708
5,82243,77085
5,82655,76423
5,83068,78174
5,83480,78022
5,83892,78131
5,84305,74507
5,84717,75573
5,85128,75977
5,85542,75275
5,85953,72198
5,86365,74465
5,86778,74080
5,87190,74924
5,87602,73355
5,88015,74088
5,88427,72300
5,88838,72668
5,89252,73001
5,89663,71592
5,90075,72339
5,90487,71053
5,90900,71997
5,91312,71853
5,91723,72767
5,92137,72011
5,92548,70839
5,92960,70234
5,93373,71932
5,93785,71094
5,94197,69285
5,94610,69627
5,95022,68720
5,95433,67866
5,95847,68192
5,96258,69158
5,96670,67703
5,97083,69549
5,97495,70937
5,97907,68008
5,98320,67781
5,98732,68474
5,99143,68574
5,99555,68957
5,99968,66581
6,00380,66497
6,00792,66993
6,01205,64912
6,01617,65699
6,02028,66041
6,02442,64521
6,02853,66127
6,03265,66496
6,03678,63518
6,04090,63376
6,04502,63849
6,04915,65942
6,05327,64842
6,05738,67203
6,06152,67441
6,06563,62785
6,06975,61952
6,07388,64204
6,07800,65122
6,08212,62594
6,08623,63716
6,09037,62459
6,09448,63061
6,09860,61017
6,10273,61554
6,10685,59641
6,11097,63130
6,11510,60420
6,11922,60653
6,12333,59878
6,12747,59539
6,13158,59780
6,13570,59912
6,13983,61166
6,14395,59835
6,14807,63962
6,15220,59944
6,15632,63600
6,16043,60524
6,16457,61950
6,16868,66337
6,17280,64880
6,17692,64163
6,18105,65315
6,18517,66688
6,18928,65575
6,19342,66162
6,19753,64870
6,20165,65004
6,20578,66835
6,20990,65571
6,21402,66547
6,21815,68572
6,22227,67274
6,22638,69154
6,23052,69338
6,23463,69063
6,23875,71873
6,24288,69739
6,24700,72394
6,25112,69442
6,25525,72099
6,25937,69754
6,26348,71243
6,26762,72697
6,27173,69687
6,27585,70292
6,27997,71343
6,28410,73244
6,28822,70130
6,29233,69834
6,29647,68273
6,30058,68103
6,30470,69611
6,30883,65763
6,31295,65927
6,31707,64134
6,32120,62876
6,32532,62599
6,32943,62714
6,33357,61290
6,33768,61526
6,34180,61758
6,34593,59117
6,35005,58648
6,35417,58086
6,35830,57216
6,36242,58937
6,36653,58424
6,37065,55878
6,37478,55979
6,37890,55360
6,38302,52630
6,38715,55159
6,39127,53831
6,39538,54466
6,39952,51570
6,40363,53626
6,40775,54723
6,41188,51073
6,41600,51819
6,42012,52762
6,42425,51089
6,42837,52758
6,43248,49979
6,43662,51991
6,44073,50039
6,44485,50617
6,44898,49659
6,45310,49809
6,45722,49790
6,46133,50152
6,46547,49479
6,46958,46421
6,47370,47649
6,47783,49341
6,48195,45813
6,48607,46105
6,49020,46378
6,49432,49764
6,49843,55477
6,50257,67786
6,50668,84716
6,51080,128393
6,51493,190179
6,51905,274561
6,52317,389903
6,52730,526532
6,53142,666775
6,53553,795262
6,53967,909390
6,54378,996034
6,54790,1041607
6,55202,1058753
6,55615,1055063
6,56027,1035302
6,56438,996133
6,56852,969708
6,57263,911454
6,57675,879383
6,58088,824816
6,58500,777794
6,58912,734609
6,59325,686667
6,59737,649387
6,60148,614097
6,60562,576797
6,60973,539822
6,61385,507792
6,61798,476213
6,62210,439929
6,62622,410579
6,63035,386190
6,63447,358457
6,63858,328086
6,64270,297674
6,64683,280882
6,65095,253401
6,65507,231967
6,65920,215120
6,66332,189778
6,66743,178323
6,67157,163235
6,67568,151234
6,67980,140252
6,68393,126602
6,68805,119075
6,69217,107799
6,69630,101965
6,70042,93331
6,70453,89704
6,70867,82080
6,71278,79795
6,71690,75051
6,72103,70471
6,72515,67008
6,72927,64673
6,73338,62820
6,73752,60033
6,74163,58058
6,74575,56317
6,74988,54385
6,75400,53959
6,75812,51778
6,76225,50449
6,76637,48699
6,77048,48237
6,77462,46779
6,77873,46332
6,78285,47236
6,78698,44984
6,79110,46386
6,79522,42889
6,79935,43543
6,80347,43390
6,80758,43087
6,81172,40864
6,81583,40690
6,81995,40601
6,82407,40110
6,82820,40145
6,83232,40351
6,83643,40080
6,84057,40095
6,84468,40895
6,84880,37700
6,85293,39039
6,85705,36069
6,86117,38047
6,86530,40188
6,86942,38446
6,87353,37399
6,87767,39355
6,88178,35120
6,88590,36295
6,89003,36347
6,89415,36129
6,89827,35011
6,90240,35353
6,90652,34749
6,91063,36359
6,91475,34456
6,91888,36089
6,92300,34110
6,92712,33749
6,93125,35972
6,93537,34853
6,93948,33411
6,94362,34268
6,94773,33564
6,95185,34802
6,95598,33449
6,96010,33030
6,96422,33984
6,96835,34524
6,97247,33673
6,97658,34079
6,98072,33830
6,98483,33229
6,98895,32359
6,99308,33686
6,99720,31331
7,00132,32143
7,00543,32280
7,00957,33592
7,01368,32876
7,01780,32783
7,02193,31670
7,02605,33165
7,03017,31578
7,03430,31541
7,03842,31697
7,04253,32206
7,04667,32646
7,05078,31678
7,05490,32352
7,05903,33548
7,06315,33164
7,06727,31787
7,07140,32190
7,07552,30391
7,07963,30844
7,08377,30772
7,08788,33372
7,09200,31757
7,09612,32743
7,10025,32944
7,10437,33494
7,10848,33098
7,11262,33444
7,11673,34006
7,12085,32797
7,12498,32405
7,12910,32186
7,13322,33303
7,13735,33017
7,14147,30374
7,14558,31900
7,14972,30020
7,15383,32641
7,15795,31447
7,16208,30458
7,16620,30970
7,17032,31999
7,17445,31867
7,17857,30284
7,18268,31040
7,18680,31785
7,19093,30194
7,19505,29290
7,19917,30297
7,20330,29667
7,20742,29808
7,21153,28612
7,21567,29205
7,21978,29216
7,22390,28130
7,22803,27697
7,23215,29144
7,23627,29429
7,24040,27765
7,24452,27934
7,24863,29146
7,25277,28158
7,25688,28285
7,26100,27112
7,26513,28554
7,26925,28152
7,27337,27607
7,27748,27461
7,28162,26772
7,28573,26415
7,28985,27279
7,29398,26838
7,29810,27548
7,30222,28057
7,30635,29044
7,31047,26880
7,31458,26582
7,31872,27301
7,32283,29075
7,32695,27293
7,33108,29000
7,33520,27184
7,33932,29866
7,34345,30176
7,34757,27972
7,35168,29992
7,35582,28390
7,35993,27550
7,36405,27604
7,36817,27453
7,37230,28541
7,37642,27504
7,38053,27325
7,38467,25711
7,38878,27391
7,39290,26736
7,39703,27536
7,40115,28781
7,40527,28086
7,40940,25315
7,41352,25068
7,41763,26633
7,42177,28469
7,42588,26751
7,43000,25847
7,43413,27611
7,43825,28104
7,44237,27677
7,44650,27276
7,45062,27697
7,45473,27194
7,45885,28973
7,46298,27511
7,46710,27105
7,47122,27795
7,47535,26959
7,47947,27117
7,48358,27145
7,48772,26909
7,49183,28149
7,49595,25953
7,50008,26020
7,50420,25767
7,50832,27450
7,51245,26320
7,51657,27558
7,52068,27903
7,52482,27490
7,52893,27786
7,53305,29793
7,53718,30390
7,54130,29629
7,54542,28997
7,54953,29657
7,55367,30079
7,55778,30619
7,56190,29012
7,56603,26697
7,57015,29319
7,57427,28841
7,57840,26599
7,58252,26456
7,58663,25710
7,59077,25789
7,59488,26904
7,59900,27018
7,60313,25551
7,60725,26952
7,61137,25917
7,61550,25710
7,61962,25661
7,62373,25191
7,62787,24200
7,63198,25614
7,63610,23411
7,64022,23450
7,64435,24788
7,64847,24959
7,65258,25283
7,65672,24319
7,66083,24023
7,66495,23654
7,66908,25038
7,67320,23028
7,67732,24013
7,68145,23809
7,68557,24724
7,68968,24150
7,69382,23066
7,69793,22431
7,70205,23641
7,70618,23581
7,71030,23295
7,71442,22465
7,71855,23322
7,72267,23116
7,72678,24430
7,73090,23041
7,73503,23324
7,73915,22073
7,74327,21975
7,74740,23208
7,75152,23538
7,75563,22959
7,75977,23068
7,76388,23030
7,76800,22955
7,77213,21581
7,77625,22856
7,78037,21973
7,78450,22601
7,78862,23088
7,79273,21681
7,79687,24086
7,80098,24417
7,80510,21880
7,80923,22780
7,81335,23463
7,81747,23582
7,82158,20613
7,82572,21900
7,82983,22681
7,83395,22196
7,83808,21303
7,84220,20949
7,84632,21181
7,85045,21719
7,85457,20342
7,85868,22901
7,86282,21610
7,86693,21324
7,87105,21653
7,87518,21227
7,87930,20774
7,88342,20180
7,88755,21951
7,89167,21579
7,89578,22206
7,89992,20559
7,90403,20047
7,90815,21408
7,91228,20885
7,91640,20617
7,92052,20939
7,92463,21699
7,92877,20932
7,93288,20389
7,93700,21183
7,94113,20586
7,94525,20933
7,94937,21288
7,95350,20708
7,95762,21184
7,96173,19610
7,96587,20998
7,96998,19532
7,97410,22193
7,97823,21162
7,98235,22028
7,98647,21133
7,99060,19988
7,99472,21223
7,99883,21947
8,00297,22901
8,00708,22273
8,01120,22134
8,01532,22700
8,01945,22439
8,02357,22262
8,02768,21090
8,03182,21415
8,03593,21826
8,04005,22035
8,04418,21856
8,04830,20739
8,05242,22682
8,05655,20784
8,06067,21717
8,06478,20429
8,06892,20267
8,07303,20554
8,07715,19080
8,08128,20543
8,08540,20725
8,08952,21554
8,09365,20925
8,09777,22111
8,10188,19183
8,10600,19434
8,11013,19868
8,11425,19069
8,11837,19630
8,12250,20136
8,12662,18922
8,13073,20563
8,13487,19315
8,13898,20349
8,14310,19385
8,14723,19218
8,15135,20004
8,15547,18763
8,15960,17942
8,16372,18175
8,16783,19658
8,17197,19164
8,17608,18297
8,18020,18657
8,18433,19187
8,18845,18638
8,19257,19569
8,19668,19527
8,20082,22893
8,20493,29902
8,20905,35869
8,21318,58952
8,21730,87066
8,22142,145148
8,22555,231683
8,22967,354038
8,23378,499961
8,23792,687685
8,24203,890118
8,24615,1078428
8,25028,1260563
8,25440,1407631
8,25852,1514248
8,26265,1565953
8,26677,1580218
8,27088,1561790
8,27502,1497658
8,27913,1432852
8,28325,1333319
8,28737,1224704
8,29150,1128835
8,29562,1026053
8,29973,919158
8,30387,829637
8,30798,725069
8,31210,649710
8,31623,569706
8,32035,498243
8,32447,434638
8,32860,380679
8,33272,335034
8,33683,288438
8,34097,248348
8,34508,218967
8,34920,192276
8,35333,167254
8,35745,150821
8,36157,132456
8,36570,123761
8,36982,113132
8,37393,103316
8,37805,92004
8,38218,84352
8,38630,77174
8,39042,73757
8,39455,69063
8,39867,64013
8,40278,59728
8,40692,57253
8,41103,53560
8,41515,50848
8,41928,47128
8,42340,46627
8,42752,43772
8,43165,44444
8,43577,42923
8,43988,40484
8,44402,40573
8,44813,37474
8,45225,38234
8,45638,34523
8,46050,34180
8,46462,32851
8,46873,31864
8,47287,31193
8,47698,31308
8,48110,30105
8,48523,30420
8,48935,29035
8,49347,30018
8,49760,29575
8,50172,27170
8,50583,27187
8,50997,28941
8,51408,25469
8,51820,27262
8,52233,26350
8,52645,24577
8,53057,24571
8,53470,26173
8,53882,25067
8,54293,25800
8,54707,24160
8,55118,23563
8,55530,23235
8,55942,23651
8,56355,23765
8,56767,22334
8,57178,22429
8,57592,24279
8,58003,20774
8,58415,22653
8,58828,22548
8,59240,20940
8,59652,20847
8,60065,22675
8,60477,21772
8,60888,21962
8,61302,20645
8,61713,21264
8,62125,21216
8,62538,21117
8,62950,22892
8,63362,21482
8,63775,21657
8,64187,21856
8,64598,22171
8,65010,22339
8,65423,22391
8,65835,22249
8,66247,20635
8,66660,19795
8,67072,21798
8,67483,20648
8,67897,20904
8,68308,19375
8,68720,21823
8,69133,19945
8,69545,19624
8,69957,20011
8,70370,19516
8,70782,19936
8,71193,20629
8,71607,19806
8,72018,18614
8,72430,19135
8,72843,18289
8,73255,17706
8,73667,18435
8,74078,18695
8,74492,18634
8,74903,18272
8,75315,19249
8,75728,17947
8,76140,19355
8,76552,18683
8,76965,18638
8,77377,18073
8,77788,18049
8,78202,16660
8,78613,16734
8,79025,17286
8,79438,17512
8,79850,18432
8,80262,17480
8,80675,18528
8,81087,18466
8,81498,17371
8,81912,16532
8,82323,17348
8,82735,17642
8,83147,16978
8,83560,17571
8,83972,18908
8,84383,18408
8,84797,17648
8,85208,19034
8,85620,18527
8,86033,18364
8,86445,17324
8,86857,19796
8,87270,17252
8,87682,17928
8,88093,18506
8,88507,17212
8,88918,16950
8,89330,17043
8,89743,17271
8,90155,18366
8,90567,16600
8,90980,16022
8,91392,16900
8,91803,16740
8,92215,17198
8,92628,16595
8,93040,17325
8,93452,16522
8,93865,16347
8,94277,16749
8,94688,15405
8,95102,16946
8,95513,17015
8,95925,16040
8,96338,15772
8,96750,17511
8,97162,16706
8,97575,16644
8,97987,16198
8,98398,17108
8,98812,16653
8,99223,17360
8,99635,18371
9,00048,17579
9,00460,16821
9,00872,17099
9,01283,17274
9,01697,15608
9,02108,15514
9,02520,17643
9,02933,17637
9,03345,16808
9,03757,16092
9,04170,19110
9,04582,17628
9,04993,18669
9,05407,17354
9,05818,18462
9,06230,17761
9,06643,17434
9,07055,18401
9,07467,16786
9,07880,16623
9,08292,16207
9,08703,17934
9,09117,16844
9,09528,16598
9,09940,16224
9,10352,17396
9,10765,15610
9,11177,15077
9,11588,15479
9,12002,14176
9,12413,14730
9,12825,14718
9,13238,15188
9,13650,13840
9,14062,15257
9,14475,14503
9,14887,14865
9,15298,15194
9,15712,14974
9,16123,15086
9,16535,13425
9,16948,14380
9,17360,15160
9,17772,14136
9,18185,13997
9,18597,14785
9,19008,14281
9,19420,14943
9,19833,15787
9,20245,15445
9,20657,17255
9,21070,20935
9,21482,29155
9,21893,41309
9,22307,65935
9,22718,106999
9,23130,161131
9,23543,239931
9,23955,331389
9,24367,449712
9,24780,570965
9,25192,691695
9,25603,783121
9,26017,879545
9,26428,918030
9,26840,948658
9,27253,934685
9,27665,894966
9,28077,847851
9,28488,775212
9,28902,704438
9,29313,629021
9,29725,548282
9,30138,476301
9,30550,407635
9,30962,356177
9,31375,303206
9,31787,260882
9,32198,221047
9,32612,191283
9,33023,164139
9,33435,138254
9,33848,124098
9,34260,110102
9,34672,95426
9,35085,85830
9,35497,75417
9,35908,67743
9,36322,64153
9,36733,56763
9,37145,54552
9,37557,50376
9,37970,46815
9,38382,45621
9,38793,44548
9,39207,40856
9,39618,41833
9,40030,39943
9,40443,38700
9,40855,37409
9,41267,36613
9,41680,35833
9,42092,33703
9,42503,32846
9,42917,32107
9,43328,30157
9,43740,29994
9,44153,28562
9,44565,26669
9,44977,26944
9,45390,27050
9,45802,26671
9,46213,23829
9,46625,23779
9,47038,23945
9,47450,23631
9,47862,22924
9,48275,21809
9,48687,21888
9,49098,21510
9,49512,21313
9,49923,20454
9,50335,21128
9,50748,22107
9,51160,18882
9,51572,19182
9,51985,19662
9,52397,18582
9,52808,19110
9,53222,17946
9,53633,18505
9,54045,17727
9,54458,17870
9,54870,17144
9,55282,17913
9,55695,17037
9,56107,16350
9,56518,17436
9,56930,15617
9,57343,16480
9,57755,15683
9,58167,16130
9,58580,15960
9,58992,15410
9,59403,15116
9,59817,15834
9,60228,14712
9,60640,15454
9,61053,15763
9,61465,15732
9,61877,15146
9,62290,16655
9,62702,15234
9,63113,15840
9,63527,16748
9,63938,16553
9,64350,18178
9,64763,19168
9,65175,19707
9,65587,20285
9,65998,18883
9,66412,19397
9,66823,19248
9,67235,19598
9,67648,17686
9,68060,19179
9,68472,17893
9,68885,17694
9,69297,15568
9,69708,15241
9,70122,15205
9,70533,14025
9,70945,15714
9,71358,15763
9,71770,14596
9,72182,15141
9,72595,14151
9,73007,12855
9,73418,13277
9,73832,13841
9,74243,15252
9,74655,14560
9,75067,15274
9,75480,13473
9,75892,12320
9,76303,13257
9,76717,13310
9,77128,13925
9,77540,12916
9,77953,14114
9,78365,13977
9,78777,14072
9,79190,12421
9,79602,13086
9,80013,12809
9,80427,13264
9,80838,12760
9,81250,13552
9,81663,14122
9,82075,12530
9,82487,13810
9,82900,11911
9,83312,13217
9,83723,12954
9,84135,12412
9,84548,13605
9,84960,13963
9,85372,14212
9,85785,12464
9,86197,12263
9,86608,13294
9,87022,14007
9,87433,11407
9,87845,12072
9,88258,13280
9,88670,12468
9,89082,11951
9,89495,12397
9,89907,13167
9,90318,12710
9,90732,12908
9,91143,13234
9,91555,12713
9,91968,12139
9,92380,13327
9,92792,12690
9,93203,12421
9,93617,12765
9,94028,11919
9,94440,13659
9,94853,12150
9,95265,11656
9,95677,13011
9,96090,12477
9,96502,12846
9,96913,12101
9,97327,13063
9,97738,12523
9,98150,13251
9,98563,12577
9,98975,13267
9,99387,12489
9,99800,12487
10,00212,12533
10,00623,12108
10,01037,12776
10,01448,12052
10,01860,12797
10,02272,12582
10,02685,12574
10,03097,12622
10,03508,12339
10,03922,12033
10,04333,11816
10,04745,12161
10,05158,12467
10,05570,12973
10,05982,13702
10,06395,12115
10,06807,13037
10,07218,11531
10,07632,13516
10,08043,13075
10,08455,11622
10,08868,11920
10,09280,12536
10,09692,12347
10,10105,12434
10,10517,13579
10,10928,12981
10,11340,12018
10,11753,13083
10,12165,13016
10,12577,13099
10,12990,13097
10,13402,12468
10,13813,12927
10,14227,11657
10,14638,12184
10,15050,11460
10,15463,11946
10,15875,12493
10,16287,12023
10,16700,12303
10,17112,13450
10,17523,12318
10,17937,13074
10,18348,12751
10,18760,12463
10,19173,11563
10,19585,13911
10,19997,13146
10,20408,12646
10,20822,13512
10,21233,12235
10,21645,13086
10,22058,12568
10,22470,12334
10,22882,12279
10,23295,12094
10,23707,12149
10,24118,12008
10,24532,12418
10,24943,13001
10,25355,13032
10,25768,17400
10,26180,26394
10,26592,40092
10,27005,69870
10,27417,123022
10,27828,207328
10,28242,338248
10,28653,502101
10,29065,729415
10,29477,992977
10,29890,1296978
10,30302,1590003
10,30713,1850008
10,31127,2033250
10,31538,2171021
10,31950,2208613
10,32363,2144725
10,32775,2052771
10,33187,1866783
10,33600,1652211
10,34012,1447770
10,34423,1233386
10,34837,1039480
10,35248,877840
10,35660,722338
10,36073,605798
10,36485,499465
10,36897,416054
10,37310,354425
10,37722,302709
10,38133,261510
10,38545,225032
10,38958,195567
10,39370,170268
10,39782,156548
10,40195,134354
10,40607,124784
10,41018,112316
10,41432,99008
10,41843,92961
10,42255,86738
10,42668,78269
10,43080,74389
10,43492,67213
10,43905,62942
10,44317,59293
10,44728,55054
10,45142,52278
10,45553,49433
10,45965,46743
10,46378,44845
10,46790,44577
10,47202,42195
10,47613,40028
10,48027,37614
10,48438,34830
10,48850,35000
10,49263,34069
10,49675,33886
10,50087,31821
10,50500,29746
10,50912,27418
10,51323,30282
10,51737,27918
10,52148,27953
10,52560,26711
10,52973,25429
10,53385,25565
10,53797,24938
10,54210,24011
10,54622,23716
10,55033,21465
10,55447,21336
10,55858,21155
10,56270,20967
10,56682,20854
10,57095,21276
10,57507,21064
10,57918,19686
10,58332,19540
10,58743,18804
10,59155,18635
10,59568,18515
10,59980,18305
10,60392,17596
10,60805,17273
10,61217,18679
10,61628,17297
10,62042,16908
10,62453,17098
10,62865,17198
10,63278,17343
10,63690,16174
10,64102,16655
10,64515,16315
10,64927,16228
10,65338,15702
10,65750,16394
10,66163,15011
10,66575,13791
10,66987,15709
10,67400,14626
10,67812,15364
10,68223,15127
10,68637,14500
10,69048,13954
10,69460,13405
10,69873,14817
10,70285,16009
10,70697,14542
10,71110,13842
10,71522,13376
10,71933,14677
10,72347,12307
10,72758,13046
10,73170,12561
10,73583,14539
10,73995,13432
10,74407,13512
10,74818,13007
10,75232,12263
10,75643,13101
10,76055,12399
10,76468,11877
10,76880,11431
10,77292,13409
10,77705,12570
10,78117,13870
10,78528,12691
10,78942,14527
10,79353,12174
10,79765,13418
10,80178,14028
10,80590,13326
10,81002,12558
10,81415,13353
10,81827,13282
10,82238,12493
10,82652,12100
10,83063,13620
10,83475,12777
10,83887,13283
10,84300,12475
10,84712,14091
10,85123,13769
10,85537,14414
10,85948,14189
10,86360,13610
10,86773,12656
10,87185,12768
10,87597,13072
10,88010,13660
10,88422,12427
10,88833,14064
10,89247,13397
10,89658,13702
10,90070,12205
10,90483,13376
10,90895,13601
10,91307,14773
10,91720,14442
10,92132,16615
10,92543,18894
10,92955,19040
10,93368,21666
10,93780,20876
10,94192,23009
10,94605,22596
10,95017,21959
10,95428,24013
10,95842,23803
10,96253,22052
10,96665,21757
10,97078,19970
10,97490,19158
10,97902,19653
10,98315,18545
10,98727,17043
10,99138,15865
10,99552,15229
10,99963,14290
11,00375,14356
11,00788,13935
11,01200,13111
11,01612,13248
11,02023,11965
11,02437,13126
11,02848,12166
11,03260,11577
11,03673,11754
11,04085,11259
11,04497,12346
11,04910,12016
11,05322,11855
11,05733,11186
11,06147,10358
11,06558,12027
11,06970,10915
11,07383,10889
11,07795,11600
11,08207,12085
11,08620,11124
11,09032,11494
11,09443,11413
11,09857,10781
11,10268,10149
11,10680,10161
11,11092,11257
11,11505,10570
11,11917,9797
11,12328,10164
11,12742,10617
11,13153,9560
11,13565,10356
11,13978,9529
11,14390,10893
11,14802,9348
11,15215,10775
11,15627,9638
11,16038,10274
11,16452,10653
11,16863,10036
11,17275,10168
11,17688,8813
11,18100,10147
11,18512,10964
11,18925,9368
11,19337,8375
11,19748,10419
11,20162,10578
11,20573,10885
11,20985,10092
11,21397,10880
11,21810,10290
11,22222,10785
11,22633,11947
11,23047,10479
11,23458,10692
11,23870,9228
11,24283,10445
11,24695,10348
11,25107,10916
11,25520,9932
11,25932,9643
11,26343,10871
11,26757,10348
11,27168,11149
11,27580,10322
11,27993,10440
11,28405,9994
11,28817,8635
11,29230,9815
11,29642,8750
11,30053,10689
11,30465,8970
11,30878,10181
11,31290,10478
11,31702,10544
11,32115,10485
11,32527,13845
11,32938,18638
11,33352,29672
11,33763,48009
11,34175,78855
11,34588,133065
11,35000,212502
11,35412,325046
11,35825,463806
11,36237,631746
11,36648,817776
11,37062,968573
11,37473,1099952
11,37885,1196382
11,38298,1213363
11,38710,1208040
11,39122,1137483
11,39533,1033648
11,39947,907882
11,40358,787632
11,40770,669244
11,41183,558894
11,41595,458707
11,42007,378516
11,42420,309918
11,42832,255238
11,43243,219311
11,43657,182983
11,44068,155645
11,44480,133254
11,44893,118004
11,45305,102830
11,45717,91061
11,46130,80277
11,46542,71300
11,46953,66517
11,47367,59880
11,47778,56686
11,48190,49578
11,48602,47321
11,49015,43830
11,49427,39589
11,49838,37150
11,50252,34207
11,50663,34878
11,51075,31937
11,51488,32119
11,51900,30487
11,52312,27620
11,52725,25615
11,53137,26025
11,53548,24587
11,53962,24211
11,54373,22630
11,54785,23529
11,55198,22023
11,55610,20325
11,56022,19103
11,56435,19935
11,56847,19720
11,57258,17900
11,57670,18373
11,58083,16641
11,58495,17414
11,58907,15617
11,59320,15986
11,59732,16268
11,60143,15288
11,60557,15691
11,60968,14475
11,61380,14050
11,61793,14829
11,62205,14927
11,62617,13094
11,63030,13878
11,63442,14088
11,63853,13806
11,64267,14175
11,64678,13102
11,65090,14647
11,65503,13646
11,65915,14141
11,66327,13428
11,66738,13468
11,67152,13135
11,67563,11822
11,67975,11966
11,68388,11685
11,68800,12230
11,69212,12950
11,69625,11764
11,70037,11818
11,70448,12888
11,70862,10162
11,71273,12805
11,71685,11631
11,72098,11573
11,72510,10746
11,72922,11553
11,73335,10075
11,73747,11679
11,74158,10043
11,74572,12074
11,74983,10271
11,75395,10015
11,75807,10042
11,76220,10612
11,76632,8949
11,77043,9791
11,77457,10279
11,77868,10229
11,78280,10097
11,78693,10040
11,79105,9161
11,79517,10157
11,79930,9674
11,80342,9428
11,80753,10592
11,81167,10264
11,81578,9825
11,81990,9599
11,82403,9959
11,82815,10864
11,83227,8122
11,83640,9006
11,84052,9838
11,84463,9570
11,84875,9168
11,85288,9854
11,85700,9525
11,86112,9395
11,86525,8572
11,86937,9219
11,87348,9728
11,87762,9244
11,88173,10638
11,88585,10087
11,88998,11881
11,89410,12195
11,89822,12580
11,90235,13233
11,90647,14240
11,91058,13220
11,91472,14716
11,91883,14403
11,92295,14250
11,92708,14347
11,93120,14424
11,93532,13616
11,93943,13614
11,94357,10284
11,94768,12270
11,95180,11168
11,95593,11767
11,96005,10625
11,96417,9947
11,96830,10168
11,97242,9479
11,97653,10294
11,98067,9523
11,98478,9631
11,98890,9301
11,99303,9765
11,99715,10059
12,00127,10305
12,00540,9967
12,00952,11499
12,01363,12846
12,01777,12387
12,02188,12506
12,02600,14670
12,03012,15857
12,03425,14470
12,03837,14068
12,04248,14185
12,04662,14573
12,05073,13379
12,05485,13465
12,05898,10843
12,06310,11097
12,06722,11806
12,07135,10518
12,07547,10129
12,07958,10272
12,08372,10445
12,08783,10504
12,09195,9294
12,09608,10237
12,10020,9850
12,10432,10009
12,10845,8678
12,11257,9521
12,11668,8875
12,12080,9065
12,12493,9309
12,12905,9913
12,13317,9646
12,13730,9017
12,14142,8585
12,14553,8544
12,14967,7814
12,15378,8746
12,15790,8871
12,16203,8571
12,16615,8709
12,17027,9454
12,17440,8725
12,17852,9098
12,18263,9811
12,18677,9456
12,19088,8937
12,19500,9439
12,19913,9478
12,20325,9291
12,20737,9589
12,21148,10699
12,21562,9285
12,21973,9120
12,22385,9238
12,22798,9968
12,23210,9268
12,23622,9656
12,24035,8836
12,24447,8220
12,24858,7903
12,25272,7711
12,25683,7117
12,26095,7853
12,26508,8848
12,26920,8876
12,27332,9034
12,27745,7657
12,28157,9063
12,28568,7154
12,28982,7975
12,29393,8251
12,29805,7845
12,30217,8684
12,30630,7908
12,31042,8999
12,31453,8662
12,31867,7897
12,32278,8528
12,32690,8973
12,33103,8031
12,33515,8751
12,33927,8409
12,34340,8175
12,34752,8212
12,35163,8831
12,35577,8063
12,35988,7641
12,36400,7822
12,36813,8959
12,37225,8992
12,37637,9776
12,38050,11943
12,38462,16330
12,38873,26514
12,39285,47755
12,39698,84518
12,40110,155833
12,40522,264912
12,40935,433064
12,41347,670855
12,41758,984470
12,42172,1337393
12,42583,1746642
12,42995,2094001
12,43408,2408105
12,43820,2631823
12,44232,2716807
12,44645,2672415
12,45057,2500630
12,45468,2253590
12,45882,1959202
12,46293,1651396
12,46705,1379123
12,47118,1118462
12,47530,920120
12,47942,744763
12,48353,611249
12,48767,501621
12,49178,420121
12,49590,347960
12,50003,300900
12,50415,264465
12,50827,227157
12,51240,193703
12,51652,176107
12,52063,152693
12,52477,137163
12,52888,122054
12,53300,115459
12,53713,101611
12,54125,90519
12,54537,84909
12,54950,79464
12,55362,72959
12,55773,69991
12,56187,65393
12,56598,60363
12,57010,57531
12,57422,55158
12,57835,54383
12,58247,53642
12,58658,50783
12,59072,49499
12,59483,48847
12,59895,46426
12,60308,44623
12,60720,42745
12,61132,43445
12,61545,40813
12,61957,38800
12,62368,36848
12,62782,35137
12,63193,31945
12,63605,31232
12,64018,31444
12,64430,29557
12,64842,27695
12,65255,28424
12,65667,26566
12,66078,22938
12,66490,22234
12,66903,23915
12,67315,22323
12,67727,20211
12,68140,18889
12,68552,18305
12,68963,19072
12,69377,17140
12,69788,18325
12,70200,17341
12,70613,17327
12,71025,16735
12,71437,16627
12,71850,16321
12,72262,16852
12,72673,16117
12,73087,15658
12,73498,15186
12,73910,15546
12,74323,15166
12,74735,14117
12,75147,14063
12,75558,13609
12,75972,13375
12,76383,13207
12,76795,13033
12,77208,13550
12,77620,13869
12,78032,13128
12,78445,12577
12,78857,14060
12,79268,13995
12,79682,13721
12,80093,12258
12,80505,13317
12,80918,13164
12,81330,12832
12,81742,14025
12,82155,13104
12,82567,14129
12,82978,13723
12,83392,12216
12,83803,10958
12,84215,12315
12,84628,11951
12,85040,11390
12,85452,11789
12,85863,10915
12,86277,11239
12,86688,10311
12,87100,10686
12,87513,10486
12,87925,10139
12,88337,10684
12,88750,9800
12,89162,10388
12,89573,9622
12,89987,10243
12,90398,9301
12,90810,10474
12,91223,10629
12,91635,10353
12,92047,10252
12,92460,10219
12,92872,10884
12,93283,10838
12,93697,11813
12,94108,11927
12,94520,12605
12,94932,12387
12,95345,13070
12,95757,13004
12,96168,12992
12,96582,14543
12,96993,12007
12,97405,11621
12,97818,12522
12,98230,11092
12,98642,11098
12,99055,9357
12,99467,10973
12,99878,9323
13,00292,9915
13,00703,9674
13,01115,9538
13,01528,9233
13,01940,9363
13,02352,10166
13,02765,9838
13,03177,8648
13,03588,9953
13,04000,8605
13,04413,8610
13,04825,9221
13,05237,9288
13,05650,8286
13,06062,7744
13,06473,8500
13,06887,8662
13,07298,7937
13,07710,7705
13,08123,8677
13,08535,8032
13,08947,7717
13,09360,7972
13,09772,8364
13,10183,7517
13,10597,8222
13,11008,7918
13,11420,9062
13,11833,10047
13,12245,12549
13,12657,19626
13,13068,32454
13,13482,58204
13,13893,97724
13,14305,160657
13,14718,253897
13,15130,379439
13,15542,526630
13,15955,709359
13,16367,895993
13,16778,1051856
13,17192,1171202
13,17603,1227561
13,18015,1238406
13,18428,1187495
13,18840,1081825
13,19252,967623
13,19665,830213
13,20077,699796
13,20488,579663
13,20902,489168
13,21313,403404
13,21725,327592
13,22137,275478
13,22550,231898
13,22962,194755
13,23373,166785
13,23787,144755
13,24198,126603
13,24610,108487
13,25023,97912
13,25435,86273
13,25847,80402
13,26260,77109
13,26672,66121
13,27083,60910
13,27497,55557
13,27908,57470
13,28320,54586
13,28733,51899
13,29145,53128
13,29557,48584
13,29970,49402
13,30382,47927
13,30793,43793
13,31205,41246
13,31618,39034
13,32030,35385
13,32442,33637
13,32855,30381
13,33267,30149
13,33678,25487
13,34092,26386
13,34503,24002
13,34915,22320
13,35328,21813
13,35740,21349
13,36152,19292
13,36565,19380
13,36977,19506
13,37388,17771
13,37802,18175
13,38213,16092
13,38625,16834
13,39038,15732
13,39450,14767
13,39862,14565
13,40273,14074
13,40687,14762
13,41098,14912
13,41510,14035
13,41923,16322
13,42335,20942
13,42747,29185
13,43160,45838
13,43572,80399
13,43983,132787
13,44397,224068
13,44808,345677
13,45220,508462
13,45633,712238
13,46045,907111
13,46457,1093412
13,46870,1266351
13,47282,1371721
13,47693,1410754
13,48107,1382115
13,48518,1311649
13,48930,1170225
13,49342,1014361
13,49755,859556
13,50167,709026
13,50578,579550
13,50992,474605
13,51403,384284
13,51815,312042
13,52228,262876
13,52640,220074
13,53052,186828
13,53465,158124
13,53877,135960
13,54288,118259
13,54702,104365
13,55113,91299
13,55525,86728
13,55938,77577
13,56350,66461
13,56762,62486
13,57175,57553
13,57587,54319
13,57998,49793
13,58410,45479
13,58823,42999
13,59235,39294
13,59647,37877
13,60060,36046
13,60472,33622
13,60883,32305
13,61297,31015
13,61708,28953
13,62120,25703
13,62533,24764
13,62945,24846
13,63357,22596
13,63770,22870
13,64182,21806
13,64593,21508
13,65007,20421
13,65418,20632
13,65830,17406
13,66243,18368
13,66655,17853
13,67067,16524
13,67478,16748
13,67892,16701
13,68303,15424
13,68715,14978
13,69128,16134
13,69540,15564
13,69952,16419
13,70365,13473
13,70777,13281
13,71188,13044
13,71602,13483
13,72013,14669
13,72425,12926
13,72838,13180
13,73250,12973
13,73662,12920
13,74075,11982
13,74487,13776
13,74898,11169
13,75312,11853
13,75723,12296
13,76135,11507
13,76547,12492
13,76960,10932
13,77372,12110
13,77783,10683
13,78197,12765
13,78608,10955
13,79020,11531
13,79433,10237
13,79845,10843
13,80257,10236
13,80670,9535
13,81082,10565
13,81493,10279
13,81907,9579
13,82318,9271
13,82730,8979
13,83143,9468
13,83555,9804
13,83967,8844
13,84380,9592
13,84792,11147
13,85203,10158
13,85615,10053
13,86028,8818
13,86440,10969
13,86852,9049
13,87265,10118
13,87677,10593
13,88088,8442
13,88502,11033
13,88913,11350
13,89325,10666
13,89738,9941
13,90150,10617
13,90562,10484
13,90975,9235
13,91387,9476
13,91798,9396
13,92212,9732
13,92623,10126
13,93035,11596
13,93448,9945
13,93860,8775
13,94272,8558
13,94683,9999
13,95097,8681
13,95508,10253
13,95920,11215
13,96333,9304
13,96745,10273
13,97157,9604
13,97570,9435
13,97982,8622
13,98393,8986
13,98807,8163
13,99218,8318
13,99630,8657
14,00043,8439
14,00455,8235
14,00867,9032
14,01280,7934
14,01692,7956
14,02103,6743
14,02517,8484
14,02928,8584
14,03340,8078
14,03752,7797
14,04165,8501
14,04577,8475
14,04988,8694
14,05402,8608
14,05813,8338
14,06225,8179
14,06638,9057
14,07050,8005
14,07462,9344
14,07875,9378
14,08287,9064
14,08698,9424
14,09112,8176
14,09523,8983
14,09935,9053
14,10348,8382
14,10760,7751
14,11172,7808
14,11585,8318
14,11997,8226
14,12408,7494
14,12820,8239
14,13233,7655
14,13645,8617
14,14057,8447
14,14470,11161
14,14882,13858
14,15293,19650
14,15707,33153
14,16118,57331
14,16530,98955
14,16943,165712
14,17355,268422
14,17767,401944
14,18180,572963
14,18592,771724
14,19003,971326
14,19417,1154083
14,19828,1261073
14,20240,1310281
14,20653,1312783
14,21065,1241217
14,21477,1132214
14,21888,1003304
14,22302,861887
14,22713,727130
14,23125,608195
14,23538,499283
14,23950,415884
14,24362,335578
14,24775,279693
14,25187,236787
14,25598,196625
14,26012,169052
14,26423,144477
14,26835,124007
14,27248,106822
14,27660,100010
14,28072,88164
14,28485,78287
14,28897,71789
14,29308,65672
14,29722,60806
14,30133,53229
14,30545,50692
14,30957,48136
14,31370,41960
14,31782,38732
14,32193,38231
14,32607,35656
14,33018,32773
14,33430,30577
14,33843,30448
14,34255,28569
14,34667,27591
14,35080,26157
14,35492,24629
14,35903,25320
14,36317,24821
14,36728,21107
14,37140,22384
14,37553,20211
14,37965,21146
14,38377,19050
14,38790,17996
14,39202,17820
14,39613,17403
14,40025,14658
14,40438,15237
14,40850,15388
14,41262,14023
14,41675,16527
14,42087,16844
14,42498,20101
14,42912,29677
14,43323,49801
14,43735,88042
14,44148,161736
14,44560,283589
14,44972,486940
14,45385,788608
14,45797,1190736
14,46208,1693794
14,46622,2302537
14,47033,2950584
14,47445,3557091
14,47858,4081770
14,48270,4466735
14,48682,4586732
14,49095,4476226
14,49507,4150019
14,49918,3695690
14,50330,3162032
14,50743,2634152
14,51155,2146105
14,51567,1733213
14,51980,1400425
14,52392,1121355
14,52803,914785
14,53217,754281
14,53628,642329
14,54040,533857
14,54453,455403
14,54865,395490
14,55277,343955
14,55690,301218
14,56102,275346
14,56513,241623
14,56927,215144
14,57338,192857
14,57750,176906
14,58163,160013
14,58575,146655
14,58987,135510
14,59398,124820
14,59812,114379
14,60223,107282
14,60635,99218
14,61048,95992
14,61460,87058
14,61872,82883
14,62285,78555
14,62697,73705
14,63108,68409
14,63522,66521
14,63933,61656
14,64345,58274
14,64758,55462
14,65170,52700
14,65582,51234
14,65995,50901
14,66407,46019
14,66818,44535
14,67232,43065
14,67643,41731
14,68055,41416
14,68467,36465
14,68880,35278
14,69292,35278
14,69703,32377
14,70117,31907
14,70528,31776
14,70940,30722
14,71353,30640
14,71765,29023
14,72177,27354
14,72590,26690
14,73002,26876
14,73413,26032
14,73827,26694
14,74238,24863
14,74650,23639
14,75063,24202
14,75475,20712
14,75887,21220
14,76300,21929
14,76712,19872
14,77123,20258
14,77535,19986
14,77948,20064
14,78360,17582
14,78772,18016
14,79185,18451
14,79597,18305
14,80008,17829
14,80422,16523
14,80833,16573
14,81245,16220
14,81658,17882
14,82070,15739
14,82482,15034
14,82895,14988
14,83307,15742
14,83718,14931
14,84132,14097
14,84543,14520
14,84955,16883
14,85368,15757
14,85780,14328
14,86192,15630
14,86603,16476
14,87017,13986
14,87428,14814
14,87840,14860
14,88253,14423
14,88665,15547
14,89077,11801
14,89490,13894
14,89902,12740
14,90313,13525
14,90727,14784
14,91138,10933
14,91550,12885
14,91963,12087
14,92375,12103
14,92787,13464
14,93200,13228
14,93612,13837
14,94023,11406
14,94437,11712
14,94848,13075
14,95260,12833
14,95672,13088
14,96085,12793
14,96497,14429
14,96908,13612
14,97322,13783
14,97733,13785
14,98145,12549
14,98558,14231
14,98970,12523
14,99382,13165
14,99795,11602
15,00207,12127
15,00618,15714
15,01032,16902
15,01443,21293
15,01855,33719
15,02268,56058
15,02680,99564
15,03092,167689
15,03505,265901
15,03917,400730
15,04328,577138
15,04740,772101
15,05153,982819
15,05565,1163452
15,05977,1298183
15,06390,1362366
15,06802,1373754
15,07213,1317822
15,07627,1198568
15,08038,1056776
15,08450,908254
15,08863,766969
15,09275,648101
15,09687,536320
15,10100,434856
15,10512,369608
15,10923,303539
15,11337,261103
15,11748,224456
15,12160,190051
15,12573,163378
15,12985,144348
15,13397,124300
15,13808,110407
15,14222,101395
15,14633,91582
15,15045,82976
15,15458,72962
15,15870,68479
15,16282,63146
15,16695,60149
15,17107,55770
15,17518,57031
15,17932,51624
15,18343,53673
15,18755,50228
15,19168,48653
15,19580,46580
15,19992,42878
15,20405,42325
15,20817,40834
15,21228,37953
15,21642,36383
15,22053,33618
15,22465,33129
15,22877,31241
15,23290,28592
15,23702,28215
15,24113,29180
15,24527,26798
15,24938,24476
15,25350,22801
15,25763,23140
15,26175,22712
15,26587,20978
15,27000,21854
15,27412,21263
15,27823,18908
15,28237,17636
15,28648,17933
15,29060,17947
15,29473,16555
15,29885,16475
15,30297,15269
15,30710,16923
15,31122,15082
15,31533,15883
15,31945,14342
15,32358,14732
15,32770,14800
15,33182,14351
15,33595,13992
15,34007,13648
15,34418,13542
15,34832,12694
15,35243,13747
15,35655,13768
15,36068,12703
15,36480,12080
15,36892,13113
15,37305,12547
15,37717,13352
15,38128,12837
15,38542,11510
15,38953,12787
15,39365,14222
15,39778,17336
15,40190,24601
15,40602,37983
15,41013,63236
15,41427,111145
15,41838,186667
15,42250,306038
15,42663,465358
15,43075,671885
15,43487,905814
15,43900,1149311
15,44312,1352491
15,44723,1528535
15,45137,1604613
15,45548,1580552
15,45960,1497071
15,46373,1349167
15,46785,1182742
15,47197,1000090
15,47610,834423
15,48022,682004
15,48433,552055
15,48847,453525
15,49258,375345
15,49670,309926
15,50082,259495
15,50495,223008
15,50907,190270
15,51318,160849
15,51732,140723
15,52143,124970
15,52555,109606
15,52968,103141
15,53380,88993
15,53792,83297
15,54205,76953
15,54617,68827
15,55028,63648
15,55442,60215
15,55853,52324
15,56265,49445
15,56678,44240
15,57090,43441
15,57502,40888
15,57915,39776
15,58327,38630
15,58738,34890
15,59150,34297
15,59563,33418
15,59975,30862
15,60387,28315
15,60800,29275
15,61212,26264
15,61623,26783
15,62037,26874
15,62448,26558
15,62860,26050
15,63273,23813
15,63685,25204
15,64097,24281
15,64510,21099
15,64922,20898
15,65333,22259
15,65747,21461
15,66158,19458
15,66570,19007
15,66983,18836
15,67395,18171
15,67807,16541
15,68218,18592
15,68632,17239
15,69043,15563
15,69455,16901
15,69868,15583
15,70280,16115
15,70692,14719
15,71105,16215
15,71517,14716
15,71928,14467
15,72342,14628
15,72753,13870
15,73165,14743
15,73578,13718
15,73990,13377
15,74402,12463
15,74815,13117
15,75227,11708
15,75638,13839
15,76052,12078
15,76463,12151
15,76875,11646
15,77287,10958
15,77700,12576
15,78112,11520
15,78523,11359
15,78937,12372
15,79348,11054
15,79760,10795
15,80173,12354
15,80585,11449
15,80997,11493
15,81410,13501
15,81822,10636
15,82233,10817
15,82647,10643
15,83058,10059
15,83470,10982
15,83883,10066
15,84295,10786
15,84707,10296
15,85120,10153
15,85532,9320
15,85943,9760
15,86355,10475
15,86768,9937
15,87180,10150
15,87592,9841
15,88005,9777
15,88417,9826
15,88828,9601
15,89242,9560
15,89653,10864
15,90065,11170
15,90478,9405
15,90890,11468
15,91302,10991
15,91715,9511
15,92127,10483
15,92538,10066
15,92952,9086
15,93363,9883
15,93775,9480
15,94188,10209
15,94600,8400
15,95012,9423
15,95423,10968
15,95837,10526
15,96248,10931
15,96660,15122
15,97073,20700
15,97485,30433
15,97897,53828
15,98310,94348
15,98722,158294
15,99133,261194
15,99547,400175
15,99958,582470
16,00370,796304
16,00783,1011589
16,01195,1224763
16,01607,1382281
16,02020,1479237
16,02432,1491168
16,02843,1431782
16,03257,1326978
16,03668,1174971
16,04080,1009676
16,04493,851287
16,04905,702336
16,05317,579652
16,05728,476314
16,06142,388025
16,06553,323937
16,06965,273392
16,07378,230890
16,07790,195634
16,08202,170218
16,08615,150920
16,09027,132452
16,09438,116932
16,09852,102017
16,10263,91008
16,10675,83086
16,11088,76332
16,11500,71694
16,11912,66734
16,12325,59850
16,12737,53900
16,13148,52561
16,13562,48833
16,13973,47531
16,14385,43227
16,14797,40944
16,15210,38402
16,15622,38315
16,16033,34610
16,16447,32301
16,16858,31419
16,17270,30985
16,17683,28723
16,18095,29631
16,18507,26764
16,18920,26727
16,19332,25748
16,19743,25471
16,20157,24181
16,20568,24759
16,20980,27897
16,21393,28662
16,21805,31970
16,22217,33950
16,22630,39267
16,23042,40200
16,23453,43811
16,23865,45765
16,24278,44241
16,24690,44548
16,25102,42944
16,25515,40937
16,25927,37203
16,26338,34766
16,26752,31987
16,27163,29456
16,27575,28052
16,27988,27469
16,28400,24416
16,28812,22832
16,29225,22556
16,29637,20768
16,30048,19402
16,30462,19587
16,30873,18251
16,31285,17263
16,31698,16797
16,32110,15933
16,32522,16857
16,32933,17558
16,33347,21746
16,33758,27343
16,34170,42806
16,34583,71880
16,34995,128541
16,35407,224638
16,35820,380642
16,36232,605742
16,36643,914264
16,37057,1303952
16,37468,1774231
16,37880,2274474
16,38293,2741785
16,38705,3129291
16,39117,3423270
16,39530,3525219
16,39942,3403414
16,40353,3179260
16,40767,2806798
16,41178,2418733
16,41590,1987108
16,42002,1628412
16,42415,1324051
16,42827,1077693
16,43238,877588
16,43652,720628
16,44063,606571
16,44475,508689
16,44888,435900
16,45300,379322
16,45712,321970
16,46125,286708
16,46537,248829
16,46948,227118
16,47362,202295
16,47773,185040
16,48185,164464
16,48598,155153
16,49010,138593
16,49422,127084
16,49835,118869
16,50247,109143
16,50658,100781
16,51070,94811
16,51483,88286
16,51895,85142
16,52307,78328
16,52720,72993
16,53132,69615
16,53543,63492
16,53957,63451
16,54368,57725
16,54780,55064
16,55193,53055
16,55605,50452
16,56017,49791
16,56430,48290
16,56842,45551
16,57253,42474
16,57667,41415
16,58078,39291
16,58490,38500
16,58903,37714
16,59315,33093
16,59727,32945
16,60138,33533
16,60552,33193
16,60963,34377
16,61375,31073
16,61788,29005
16,62200,27492
16,62612,27997
16,63025,27004
16,63437,28006
16,63848,27254
16,64262,26124
16,64673,26185
16,65085,28594
16,65498,31355
16,65910,43488
16,66322,66114
16,66735,105743
16,67147,172248
16,67558,271753
16,67972,409595
16,68383,599873
16,68795,817874
16,69207,1044070
16,69620,1272664
16,70032,1463665
16,70443,1601524
16,70857,1618028
16,71268,1601021
16,71680,1467278
16,72093,1318156
16,72505,1150537
16,72917,977129
16,73330,815350
16,73742,674931
16,74153,555929
16,74567,464551
16,74978,389398
16,75390,328946
16,75803,277212
16,76215,238538
16,76627,206699
16,77040,182878
16,77452,159147
16,77863,142448
16,78275,128481
16,78688,114983
16,79100,105295
16,79512,97141
16,79925,88110
16,80337,81598
16,80748,77027
16,81162,75981
16,81573,81821
16,81985,92690
16,82398,122468
16,82810,179445
16,83222,279055
16,83635,437911
16,84047,665916
16,84458,975578
16,84872,1369342
16,85283,1801412
16,85695,2271104
16,86108,2690376
16,86520,3049227
16,86932,3254504
16,87343,3274981
16,87757,3165021
16,88168,2895063
16,88580,2580568
16,88993,2202939
16,89405,1830338
16,89817,1513007
16,90230,1244324
16,90642,1024050
16,91053,839367
16,91467,690043
16,91878,582560
16,92290,504554
16,92703,434266
16,93115,370167
16,93527,328652
16,93940,292973
16,94352,257371
16,94763,232158
16,95177,215076
16,95588,189360
16,96000,173590
16,96412,157724
16,96825,149110
16,97237,134300
16,97648,128231
16,98062,117471
16,98473,110782
16,98885,104232
16,99298,96440
16,99710,89904
17,00122,86242
17,00535,81318
17,00947,76211
17,01358,73153
17,01772,68634
17,02183,67424
17,02595,63316
17,03008,60246
17,03420,55762
17,03832,57208
17,04245,54372
17,04657,48547
17,05068,48504
17,05480,48204
17,05893,45689
17,06305,42430
17,06717,43575
17,07130,40441
17,07542,38959
17,07953,38605
17,08367,36270
17,08778,34875
17,09190,33465
17,09603,31625
17,10015,32686
17,10427,31062
17,10840,30802
17,11252,29998
17,11663,29292
17,12077,28320
17,12488,28313
17,12900,27651
17,13313,27705
17,13725,26369
17,14137,27494
17,14548,23818
17,14962,24811
17,15373,23904
17,15785,23691
17,16198,21571
17,16610,22615
17,17022,24259
17,17435,23914
17,17847,24724
17,18258,29412
17,18672,37872
17,19083,57940
17,19495,94154
17,19908,149082
17,20320,245747
17,20732,381572
17,21145,550878
17,21557,744021
17,21968,969769
17,22382,1184769
17,22793,1338637
17,23205,1440878
17,23617,1476713
17,24030,1435614
17,24442,1370118
17,24853,1312021
17,25267,1274830
17,25678,1305488
17,26090,1430841
17,26503,1651963
17,26915,1967404
17,27327,2341722
17,27740,2776430
17,28152,3200688
17,28563,3550206
17,28977,3747297
17,29388,3757801
17,29800,3567818
17,30213,3191350
17,30625,2770212
17,31037,2343590
17,31450,1930537
17,31862,1588552
17,32273,1301510
17,32685,1067112
17,33098,890337
17,33510,750561
17,33922,634625
17,34335,547442
17,34747,471300
17,35158,410709
17,35572,368826
17,35983,323447
17,36395,294212
17,36808,267960
17,37220,243700
17,37632,219608
17,38045,203521
17,38457,191850
17,38868,170211
17,39282,160693
17,39693,151821
17,40105,139593
17,40518,130859
17,40930,123671
17,41342,113386
17,41753,112467
17,42167,106634
17,42578,98937
17,42990,94805
17,43403,89649
17,43815,86330
17,44227,81293
17,44640,79497
17,45052,77787
17,45463,73014
17,45877,69328
17,46288,67295
17,46700,62552
17,47113,61780
17,47525,57654
17,47937,58582
17,48350,57482
17,48762,53285
17,49173,53639
17,49587,50511
17,49998,49790
17,50410,48733
17,50822,47820
17,51235,47940
17,51647,44298
17,52058,42530
17,52472,41857
17,52883,37267
17,53295,36228
17,53708,38725
17,54120,36535
17,54532,38480
17,54945,39065
17,55357,45970
17,55768,59705
17,56182,86595
17,56593,130101
17,57005,203411
17,57418,305331
17,57830,451680
17,58242,629953
17,58655,836063
17,59067,1044452
17,59478,1215790
17,59892,1336257
17,60303,1391589
17,60715,1372695
17,61127,1319430
17,61540,1190023
17,61952,1042791
17,62363,906749
17,62777,779030
17,63188,646888
17,63600,531395
17,64013,454730
17,64425,380114
17,64837,316250
17,65250,269439
17,65662,235242
17,66073,206002
17,66487,181752
17,66898,160804
17,67310,141313
17,67723,129660
17,68135,118896
17,68547,106995
17,68960,97899
17,69372,89028
17,69783,84314
17,70195,75122
17,70608,74327
17,71020,67272
17,71432,65642
17,71845,61684
17,72257,58229
17,72668,58065
17,73082,53439
17,73493,53777
17,73905,52848
17,74318,48458
17,74730,47201
17,75142,46954
17,75555,46344
17,75967,43602
17,76378,43609
17,76792,40758
17,77203,37876
17,77615,39360
17,78028,36232
17,78440,34827
17,78852,32978
17,79263,31844
17,79677,32120
17,80088,31794
17,80500,31189
17,80913,27996
17,81325,27642
17,81737,27427
17,82150,27018
17,82562,25847
17,82973,25757
17,83387,25884
17,83798,24074
17,84210,23862
17,84623,24245
17,85035,22978
17,85447,24795
17,85860,22468
17,86272,23024
17,86683,21733
17,87097,22138
17,87508,22617
17,87920,22160
17,88332,20743
17,88745,21987
17,89157,18827
17,89568,18518
17,89982,20250
17,90393,18745
17,90805,19462
17,91218,18486
17,91630,19204
17,92042,20240
17,92455,18729
17,92867,18928
17,93278,17929
17,93692,19003
17,94103,17883
17,94515,18163
17,94928,18105
17,95340,18396
17,95752,17934
17,96165,16406
17,96577,17273
17,96988,16937
17,97400,17214
17,97813,16914
17,98225,16236
17,98637,16532
17,99050,18403
17,99462,17428
17,99873,16820
18,00287,16342
18,00698,16222
18,01110,15989
18,01523,16571
18,01935,16295
18,02347,15260
18,02760,15217
18,03172,14939
18,03583,14976
18,03997,16575
18,04408,15927
18,04820,15721
18,05233,14774
18,05645,15018
18,06057,17431
18,06468,18842
18,06882,22490
18,07293,32876
18,07705,42048
18,08118,71937
18,08530,120121
18,08942,197518
18,09355,312203
18,09767,451112
18,10178,628928
18,10592,814943
18,11003,1014104
18,11415,1202058
18,11828,1400043
18,12240,1558529
18,12652,1759767
18,13065,1981345
18,13477,2249345
18,13888,2597719
18,14302,2985600
18,14713,3431112
18,15125,3800350
18,15537,4119936
18,15950,4242714
18,16362,4198038
18,16773,3930847
18,17187,3535167
18,17598,3066256
18,18010,2582635
18,18423,2153227
18,18835,1759746
18,19247,1448351
18,19660,1184319
18,20072,996762
18,20483,846788
18,20897,721200
18,21308,618031
18,21720,543320
18,22133,475035
18,22545,424294
18,22957,373971
18,23370,343083
18,23782,312944
18,24193,279997
18,24605,259026
18,25018,238994
18,25430,220229
18,25842,210563
18,26255,199099
18,26667,186558
18,27078,173463
18,27492,169140
18,27903,163525
18,28315,160363
18,28728,154863
18,29140,148456
18,29552,143622
18,29965,136333
18,30377,132375
18,30788,128655
18,31202,119208
18,31613,113018
18,32025,105550
18,32438,99902
18,32850,93382
18,33262,88951
18,33673,85265
18,34087,79987
18,34498,75848
18,34910,72862
18,35323,68393
18,35735,65623
18,36147,64584
18,36560,59648
18,36972,58273
18,37383,55093
18,37797,53828
18,38208,54368
18,38620,55261
18,39033,55732
18,39445,54324
18,39857,59513
18,40270,76612
18,40682,105178
18,41093,153644
18,41507,231277
18,41918,331460
18,42330,469302
18,42742,626047
18,43155,796347
18,43567,966874
18,43978,1111013
18,44392,1191256
18,44803,1216106
18,45215,1191060
18,45628,1110573
18,46040,998985
18,46452,879017
18,46865,754850
18,47277,641062
18,47688,532937
18,48102,445812
18,48513,375107
18,48925,317704
18,49338,273666
18,49750,241313
18,50162,207037
18,50575,181799
18,50987,160930
18,51398,143590
18,51810,131072
18,52223,118167
18,52635,105813
18,53047,97674
18,53460,94536
18,53872,88542
18,54283,82304
18,54697,80453
18,55108,82844
18,55520,88956
18,55933,108694
18,56345,138761
18,56757,196901
18,57170,291609
18,57582,438023
18,57993,627146
18,58407,841107
18,58818,1099485
18,59230,1348582
18,59643,1565540
18,60055,1707820
18,60467,1776216
18,60878,1769109
18,61292,1661584
18,61703,1527319
18,62115,1330071
18,62528,1146797
18,62940,950325
18,63352,814457
18,63765,679413
18,64177,567329
18,64588,484700
18,65002,414412
18,65413,353411
18,65825,309014
18,66238,273045
18,66650,247417
18,67062,220978
18,67475,200656
18,67887,184022
18,68298,166728
18,68712,152152
18,69123,140570
18,69535,129752
18,69947,121508
18,70360,110539
18,70772,107218
18,71183,100772
18,71597,96283
18,72008,91161
18,72420,83674
18,72833,77340
18,73245,75504
18,73657,73771
18,74070,71178
18,74482,65832
18,74893,64921
18,75307,63681
18,75718,62049
18,76130,59479
18,76543,55585
18,76955,54724
18,77367,51679
18,77780,50371
18,78192,47954
18,78603,48401
18,79015,47513
18,79428,45322
18,79840,42696
18,80252,41087
18,80665,41931
18,81077,39837
18,81488,40318
18,81902,40517
18,82313,38017
18,82725,36054
18,83138,37468
18,83550,37326
18,83962,37035
18,84375,34277
18,84787,32906
18,85198,33364
18,85612,33152
18,86023,30666
18,86435,30271
18,86848,32474
18,87260,31694
18,87672,29750
18,88083,31442
18,88497,30340
18,88908,28514
18,89320,30725
18,89733,28212
18,90145,28004
18,90557,28009
18,90970,28721
18,91382,27699
18,91793,26581
18,92207,26720
18,92618,25228
18,93030,31275
18,93443,38791
18,93855,49000
18,94267,72620
18,94680,117442
18,95092,188994
18,95503,306940
18,95917,482322
18,96328,708370
18,96740,984375
18,97152,1289285
18,97565,1589756
18,97977,1833590
18,98388,1979031
18,98802,2022786
18,99213,1950779
18,99625,1783664
19,00038,1589142
19,00450,1356501
19,00862,1147822
19,01275,950359
19,01687,801884
19,02098,675045
19,02512,566459
19,02923,480631
19,03335,412698
19,03748,356632
19,04160,317402
19,04572,280603
19,04985,249517
19,05397,223224
19,05808,206768
19,06220,189788
19,06633,171846
19,07045,158600
19,07457,151023
19,07870,138439
19,08282,128502
19,08693,119260
19,09107,111362
19,09518,107808
19,09930,103405
19,10343,97547
19,10755,92003
19,11167,88408
19,11580,86944
19,11992,82264
19,12403,77540
19,12817,72765
19,13228,71358
19,13640,68414
19,14053,67940
19,14465,65281
19,14877,61006
19,15288,56797
19,15702,56630
19,16113,56367
19,16525,53251
19,16938,50897
19,17350,49395
19,17762,48999
19,18175,45418
19,18587,44994
19,18998,43278
19,19412,42835
19,19823,43698
19,20235,42177
19,20648,40532
19,21060,38185
19,21472,37566
19,21885,37973
19,22297,40851
19,22708,36834
19,23122,36032
19,23533,35945
19,23945,38271
19,24358,37751
19,24770,42099
19,25182,47361
19,25593,63313
19,26007,90985
19,26418,135009
19,26830,208452
19,27243,323663
19,27655,487161
19,28067,680323
19,28480,902355
19,28892,1120426
19,29303,1315007
19,29717,1452396
19,30128,1521511
19,30540,1510962
19,30953,1424493
19,31365,1294964
19,31777,1132775
19,32190,975418
19,32602,829643
19,33013,700942
19,33427,588505
19,33838,503172
19,34250,426825
19,34662,362498
19,35075,315274
19,35487,273416
19,35898,240855
19,36312,210575
19,36723,193638
19,37135,175745
19,37548,159838
19,37960,146138
19,38372,132823
19,38785,122876
19,39197,112510
19,39608,108967
19,40022,103216
19,40433,92464
19,40845,90835
19,41258,84925
19,41670,80751
19,42082,77541
19,42495,72036
19,42907,70615
19,43318,64720
19,43730,62100
19,44143,59464
19,44555,60165
19,44967,54832
19,45380,54536
19,45792,53304
19,46203,50184
19,46617,49698
19,47028,48684
19,47440,47339
19,47853,43668
19,48265,43952
19,48677,42771
19,49090,40977
19,49502,39189
19,49913,40706
19,50327,39488
19,50738,36741
19,51150,36518
19,51563,37142
19,51975,35362
19,52387,34844
19,52798,34424
19,53212,33644
19,53623,31239
19,54035,31418
19,54448,31891
19,54860,32661
19,55272,31947
19,55685,31532
19,56097,29966
19,56508,29271
19,56922,29886
19,57333,28577
19,57745,29440
19,58158,28125
19,58570,27914
19,58982,26598
19,59395,27537
19,59807,27582
19,60218,27704
19,60632,26288
19,61043,25927
19,61455,28129
19,61867,27656
19,62280,28855
19,62692,28452
19,63103,28025
19,63517,28173
19,63928,26468
19,64340,28731
19,64753,28373
19,65165,29216
19,65577,27064
19,65990,26227
19,66402,26329
19,66813,27548
19,67227,26040
19,67638,23557
19,68050,25867
19,68463,24138
19,68875,24550
19,69287,24753
19,69700,23950
19,70112,23386
19,70523,24197
19,70935,23759
19,71348,23900
19,71760,23712
19,72172,23712
19,72585,24756
19,72997,27544
19,73408,31219
19,73822,43413
19,74233,62487
19,74645,102667
19,75058,179683
19,75470,305589
19,75882,511099
19,76295,814578
19,76707,1238062
19,77118,1740455
19,77532,2341491
19,77943,3032803
19,78355,3715166
19,78768,4326243
19,79180,4856251
19,79592,5224716
19,80003,5336831
19,80417,5217042
19,80828,4809665
19,81240,4271657
19,81653,3658231
19,82065,3105383
19,82477,2557887
19,82890,2110732
19,83302,1755255
19,83713,1469829
19,84127,1255920
19,84538,1075899
19,84950,925481
19,85363,821605
19,85775,715365
19,86187,641161
19,86600,571311
19,87012,518579
19,87423,468997
19,87837,432386
19,88248,393004
19,88660,363183
19,89072,329287
19,89485,307740
19,89897,288989
19,90308,271476
19,90722,258464
19,91133,237189
19,91545,223784
19,91958,212800
19,92370,196533
19,92782,186911
19,93195,177505
19,93607,172546
19,94018,162033
19,94432,153038
19,94843,148886
19,95255,144574
19,95668,139127
19,96080,136023
19,96492,128631
19,96905,121133
19,97317,117460
19,97728,111701
19,98140,109275
19,98553,107036
19,98965,102575
19,99377,98350
19,99790,96979
20,00202,95246
20,00613,92148
20,01027,86671
20,01438,87635
20,01850,81864
20,02263,81811
20,02675,81235
20,03087,78994
20,03500,78170
20,03912,81880
20,04323,88026
20,04737,103492
20,05148,136994
20,05560,190905
20,05973,277475
20,06385,391822
20,06797,532574
20,07208,715397
20,07622,914813
20,08033,1100116
20,08445,1265769
20,08858,1351873
20,09270,1412347
20,09682,1371365
20,10095,1302189
20,10507,1183941
20,10918,1083301
20,11332,973331
20,11743,914540
20,12155,885083
20,12568,908628
20,12980,988714
20,13392,1082876
20,13805,1194670
20,14217,1307557
20,14628,1403275
20,15042,1434225
20,15453,1427292
20,15865,1378282
20,16277,1281877
20,16690,1163200
20,17102,1046415
20,17513,943175
20,17927,874245
20,18338,847509
20,18750,865166
20,19163,960852
20,19575,1116654
20,19987,1295330
20,20400,1528322
20,20812,1744748
20,21223,1916615
20,21637,2024245
20,22048,2047402
20,22460,2008213
20,22873,1866863
20,23285,1674868
20,23697,1476283
20,24110,1272123
20,24522,1091964
20,24933,935433
20,25345,802537
20,25758,699697
20,26170,614395
20,26582,540729
20,26995,473207
20,27407,434594
20,27818,384441
20,28232,350605
20,28643,325569
20,29055,293475
20,29468,273716
20,29880,255482
20,30292,236098
20,30705,225242
20,31117,208195
20,31528,197945
20,31942,182703
20,32353,174180
20,32765,168642
20,33178,158709
20,33590,152165
20,34002,145308
20,34413,137268
20,34827,131272
20,35238,127270
20,35650,122334
20,36063,116037
20,36475,110499
20,36887,109250
20,37300,103618
20,37712,102489
20,38123,97537
20,38537,97069
20,38948,90000
20,39360,89609
20,39773,82926
20,40185,87180
20,40597,83662
20,41010,79753
20,41422,76440
20,41833,74386
20,42247,74232
20,42658,72594
20,43070,72455
20,43482,69565
20,43895,70022
20,44307,68089
20,44718,68281
20,45132,67646
20,45543,66040
20,45955,65587
20,46368,63871
20,46780,61567
20,47192,63390
20,47605,58379
20,48017,60890
20,48428,57194
20,48842,56286
20,49253,56842
20,49665,53896
20,50078,54085
20,50490,58179
20,50902,60948
20,51315,72608
20,51727,89078
20,52138,122612
20,52550,180488
20,52963,270076
20,53375,403476
20,53787,594890
20,54200,830111
20,54612,1119585
20,55023,1404880
20,55437,1685243
20,55848,1905408
20,56260,2019633
20,56673,2024821
20,57085,1950343
20,57497,1773574
20,57910,1567625
20,58322,1356123
20,58733,1159971
20,59147,984075
20,59558,847381
20,59970,720951
20,60383,616290
20,60795,543641
20,61207,474727
20,61618,422407
20,62032,379147
20,62443,346024
20,62855,316968
20,63268,286321
20,63680,266927
20,64092,249422
20,64505,231099
20,64917,211403
20,65328,202270
20,65742,189890
20,66153,179859
20,66565,168702
20,66978,164660
20,67390,155334
20,67802,148061
20,68215,142356
20,68627,137346
20,69038,130418
20,69452,125694
20,69863,122971
20,70275,116364
20,70687,114862
20,71100,110686
20,71512,108003
20,71923,107438
20,72337,97761
20,72748,97098
20,73160,97125
20,73573,90559
20,73985,88558
20,74397,86355
20,74810,86954
20,75222,82034
20,75633,82773
20,76047,81510
20,76458,78422
20,76870,77998
20,77283,80303
20,77695,75814
20,78107,75943
20,78520,75953
20,78932,71961
20,79343,71121
20,79757,70359
20,80168,70294
20,80580,70072
20,80992,68720
20,81405,69594
20,81817,70043
20,82228,71435
20,82642,81186
20,83053,96942
20,83465,127496
20,83878,179618
20,84290,264099
20,84702,390266
20,85115,550482
20,85527,757656
20,85938,991829
20,86352,1240734
20,86763,1441943
20,87175,1568591
20,87588,1617993
20,88000,1579706
20,88412,1496139
20,88825,1368057
20,89237,1217151
20,89648,1061800
20,90060,911000
20,90473,784274
20,90885,677406
20,91297,610121
20,91710,550024
20,92122,526860
20,92533,533903
20,92947,579459
20,93358,661046
20,93770,770712
20,94183,888589
20,94595,1034067
20,95007,1147990
20,95420,1222865
20,95832,1256237
20,96243,1242857
20,96657,1191399
20,97068,1107492
20,97480,989259
20,97893,879305
20,98305,775878
20,98717,670504
20,99128,579193
20,99542,503523
20,99953,442473
21,00365,393804
21,00778,341704
21,01190,306180
21,01602,276413
21,02015,254943
21,02427,228784
21,02838,213410
21,03252,194447
21,03663,183057
21,04075,168991
21,04488,157906
21,04900,151415
21,05312,144631
21,05725,133150
21,06137,130763
21,06548,120967
21,06962,118220
21,07373,114937
21,07785,109021
21,08197,102191
21,08610,98575
21,09022,94936
21,09433,95366
21,09847,89803
21,10258,89124
21,10670,85992
21,11083,83070
21,11495,86288
21,11907,81569
21,12320,79936
21,12732,76579
21,13143,76220
21,13557,71917
21,13968,73430
21,14380,69429
21,14793,70337
21,15205,68464
21,15617,66627
21,16030,69154
21,16442,68701
21,16853,65494
21,17265,64292
21,17678,65241
21,18090,61711
21,18502,63479
21,18915,63810
21,19327,58476
21,19738,57212
21,20152,58629
21,20563,55248
21,20975,55057
21,21388,56734
21,21800,54780
21,22212,54239
21,22625,53131
21,23037,53921
21,23448,50564
21,23862,51412
21,24273,51637
21,24685,53298
21,25098,54022
21,25510,59134
21,25922,61132
21,26333,70334
21,26747,85538
21,27158,115617
21,27570,160413
21,27983,238245
21,28395,347891
21,28807,513644
21,29220,759320
21,29632,1077351
21,30043,1485781
21,30457,1945087
21,30868,2481446
21,31280,2998798
21,31693,3481947
21,32105,3861310
21,32517,4039061
21,32930,3984094
21,33342,3712688
21,33753,3335008
21,34167,2861274
21,34578,2428588
21,34990,2049341
21,35402,1713998
21,35815,1458132
21,36227,1247788
21,36638,1073209
21,37052,951878
21,37463,832036
21,37875,736389
21,38288,665555
21,38700,609843
21,39112,540145
21,39525,498026
21,39937,454517
21,40348,428818
21,40762,393144
21,41173,367425
21,41585,344903
21,41998,328601
21,42410,303685
21,42822,290497
21,43235,274601
21,43647,259621
21,44058,246596
21,44470,236358
21,44883,225356
21,45295,218908
21,45707,209231
21,46120,200828
21,46532,191228
21,46943,187137
21,47357,176155
21,47768,170736
21,48180,165075
21,48593,162615
21,49005,151648
21,49417,151000
21,49830,149105
21,50242,140578
21,50653,138019
21,51067,137914
21,51478,134265
21,51890,131138
21,52303,123383
21,52715,122514
21,53127,119137
21,53538,113997
21,53952,113249
21,54363,109290
21,54775,109278
21,55188,106374
21,55600,103371
21,56012,104615
21,56425,100416
21,56837,96497
21,57248,96677
21,57662,95266
21,58073,94868
21,58485,92098
21,58898,89587
21,59310,92143
21,59722,87552
21,60135,87673
21,60547,84411
21,60958,84394
21,61372,89597
21,61783,82703
21,62195,83447
21,62607,78431
21,63020,79819
21,63432,78920
21,63843,78270
21,64257,78072
21,64668,75318
21,65080,76096
21,65493,75750
21,65905,75946
21,66317,76216
21,66730,80934
21,67142,87735
21,67553,97243
21,67967,119686
21,68378,154937
21,68790,210407
21,69203,297017
21,69615,418577
21,70027,588864
21,70440,809186
21,70852,1050245
21,71263,1312877
21,71675,1547701
21,72088,1719275
21,72500,1806065
21,72912,1794123
21,73325,1722279
21,73737,1604387
21,74148,1441926
21,74562,1283922
21,74973,1113041
21,75385,977990
21,75798,837242
21,76210,735890
21,76622,648937
21,77035,570507
21,77447,505951
21,77858,465553
21,78272,425029
21,78683,381795
21,79095,345078
21,79508,323288
21,79920,306360
21,80332,284527
21,80743,263112
21,81157,254339
21,81568,238524
21,81980,216778
21,82393,212054
21,82805,198845
21,83217,191330
21,83630,185080
21,84042,176063
21,84453,166069
21,84867,160160
21,85278,152303
21,85690,151447
21,86103,144873
21,86515,143136
21,86927,135339
21,87340,134953
21,87752,130040
21,88163,124509
21,88577,120028
21,88988,118531
21,89400,115745
21,89812,112581
21,90225,110733
21,90637,106712
21,91048,101740
21,91462,102160
21,91873,101575
21,92285,99854
21,92698,95366
21,93110,97914
21,93522,93687
21,93935,93553
21,94347,91125
21,94758,89975
21,95172,88462
21,95583,85897
21,95995,87887
21,96408,84144
21,96820,83432
21,97232,81376
21,97645,80732
21,98057,79918
21,98468,78162
21,98880,77642
21,99293,72792
21,99705,75473
22,00117,74360
22,00530,73331
22,00942,72702
22,01353,73183
22,01767,74411
22,02178,75538
22,02590,72851
22,03003,73338
22,03415,74528
22,03827,73962
22,04240,72709
22,04652,73827
22,05063,73341
22,05477,70790
22,05888,73204
22,06300,71443
22,06713,67426
22,07125,68076
22,07537,68299
22,07948,67046
22,08362,68711
22,08773,69984
22,09185,73415
22,09598,79159
22,10010,85780
22,10422,91598
22,10835,102164
22,11247,108853
22,11658,119010
22,12072,121961
22,12483,131357
22,12895,128908
22,13308,128938
22,13720,126561
22,14132,120855
22,14545,118258
22,14957,111796
22,15368,105460
22,15782,94960
22,16193,92611
22,16605,88524
22,17017,81289
22,17430,79853
22,17842,73331
22,18253,70553
22,18667,67937
22,19078,63884
22,19490,62431
22,19903,62027
22,20315,63422
22,20727,61558
22,21140,58735
22,21552,56094
22,21963,54836
22,22377,55333
22,22788,57261
22,23200,56765
22,23613,53288
22,24025,53690
22,24437,55274
22,24850,54798
22,25262,53781
22,25673,53335
22,26085,55605
22,26498,55351
22,26910,54680
22,27322,54925
22,27735,51623
22,28147,52035
22,28558,51531
22,28972,52388
22,29383,53096
22,29795,53242
22,30208,53895
22,30620,55913
22,31032,52523
22,31445,53736
22,31857,52884
22,32268,48902
22,32682,50858
22,33093,52146
22,33505,45614
22,33918,47989
22,34330,49078
22,34742,51650
22,35153,49197
22,35567,46963
22,35978,48577
22,36390,49229
22,36803,46495
22,37215,42222
22,37627,45586
22,38040,46056
22,38452,44582
22,38863,47866
22,39277,44248
22,39688,44995
22,40100,46919
22,40513,45431
22,40925,46632
22,41337,46602
22,41750,46851
22,42162,46470
22,42573,47472
22,42987,45984
22,43398,45354
22,43810,45495
22,44223,44634
22,44635,44972
22,45047,44422
22,45458,46132
22,45872,42851
22,46283,46079
22,46695,46435
22,47108,45340
22,47520,46245
22,47932,45105
22,48345,43708
22,48757,45382
22,49168,48040
22,49582,41880
22,49993,47573
22,50405,42668
22,50818,44492
22,51230,43063
22,51642,44544
22,52055,42866
22,52467,42211
22,52878,41914
22,53292,43249
22,53703,43910
22,54115,42537
22,54527,42371
22,54940,46207
22,55352,41859
22,55763,43504
22,56177,43296
22,56588,44804
22,57000,42451
22,57413,46502
22,57825,44731
22,58237,44195
22,58650,45848
22,59062,44205
22,59473,45672
22,59887,43404
22,60298,40577
22,60710,43759
22,61123,41076
22,61535,43200
22,61947,41857
22,62360,43005
22,62772,43874
22,63183,43002
22,63595,39689
22,64008,40788
22,64420,43531
22,64832,44092
22,65245,43078
22,65657,42353
22,66068,44186
22,66482,43783
22,66893,41943
22,67305,39699
22,67718,41598
22,68130,44236
22,68542,41955
22,68955,40255
22,69367,43507
22,69778,43762
22,70192,43539
22,70603,43061
22,71015,41106
22,71428,41409
22,71840,39658
22,72252,41138
22,72663,39989
22,73077,40793
22,73488,41190
22,73900,40686
22,74313,40453
22,74725,40789
22,75137,40116
22,75550,41242
22,75962,38968
22,76373,40284
22,76787,41014
22,77198,41677
22,77610,41705
22,78023,40836
22,78435,40329
22,78847,39043
22,79260,39688
22,79672,36881
22,80083,41215
22,80497,40551
22,80908,41441
22,81320,40721
22,81732,41467
22,82145,41795
22,82557,40336
22,82968,41152
22,83382,42067
22,83793,39847
22,84205,41267
22,84618,41892
22,85030,43782
22,85442,43576
22,85855,46182
22,86267,48445
22,86678,54301
22,87092,65516
22,87503,80309
22,87915,104926
22,88328,141510
22,88740,191967
22,89152,259553
22,89565,334483
22,89977,428230
22,90388,532669
22,90800,617669
22,91213,694467
22,91625,749895
22,92037,783796
22,92450,785636
22,92862,775505
22,93273,739256
22,93687,688016
22,94098,640873
22,94510,586458
22,94923,526565
22,95335,471810
22,95747,426062
22,96160,379927
22,96572,341363
22,96983,303359
22,97397,271944
22,97808,250823
22,98220,228021
22,98633,208705
22,99045,196797
22,99457,178952
22,99868,167871
23,00282,156883
23,00693,150115
23,01105,137374
23,01518,133617
23,01930,127575
23,02342,118637
23,02755,115482
23,03167,109489
23,03578,106925
23,03992,99013
23,04403,97127
23,04815,94785
23,05228,92399
23,05640,87724
23,06052,87385
23,06465,84498
23,06877,78174
23,07288,81689
23,07702,77627
23,08113,78448
23,08525,72863
23,08937,72839
23,09350,73619
23,09762,71540
23,10173,67510
23,10587,66611
23,10998,66333
23,11410,64780
23,11823,63541
23,12235,65789
23,12647,63486
23,13060,61944
23,13472,60349
23,13883,59878
23,14297,58550
23,14708,58918
23,15120,58688
23,15533,57838
23,15945,57260
23,16357,56560
23,16770,56382
23,17182,57604
23,17593,55277
23,18005,55802
23,18418,53473
23,18830,52386
23,19242,55401
23,19655,53169
23,20067,53824
23,20478,52154
23,20892,51632
23,21303,49876
23,21715,50907
23,22128,53118
23,22540,50665
23,22952,51378
23,23365,49684
23,23777,48813
23,24188,50180
23,24602,47668
23,25013,50258
23,25425,48427
23,25838,48358
23,26250,47465
23,26662,48055
23,27073,47636
23,27487,47195
23,27898,49041
23,28310,47183
23,28723,46155
23,29135,45409
23,29547,45843
23,29960,46967
23,30372,45681
23,30783,46643
23,31197,46820
23,31608,44778
23,32020,46602
23,32433,43780
23,32845,45008
23,33257,47437
23,33670,46536
23,34082,44895
23,34493,47454
23,34907,44556
23,35318,45030
23,35730,46612
23,36142,46541
23,36555,44730
23,36967,45373
23,37378,46913
23,37792,45168
23,38203,46822
23,38615,46183
23,39028,46648
23,39440,41638
23,39852,45405
23,40265,42636
23,40677,42361
23,41088,43182
23,41502,45840
23,41913,44984
23,42325,42508
23,42738,40907
23,43150,45153
23,43562,42425
23,43975,41517
23,44387,41766
23,44798,44245
23,45210,41095
23,45623,39866
23,46035,44125
23,46447,41053
23,46860,43672
23,47272,41594
23,47683,40286
23,48097,43380
23,48508,39845
23,48920,40295
23,49333,42482
23,49745,40568
23,50157,41277
23,50570,41447
23,50982,40179
23,51393,42078
23,51807,41033
23,52218,45558
23,52630,43280
23,53043,41763
23,53455,41240
23,53867,40843
23,54278,43626
23,54692,40972
23,55103,40744
23,55515,41156
23,55928,40671
23,56340,41982
23,56752,39536
23,57165,42309
23,57577,40823
23,57988,42591
23,58402,40002
23,58813,40890
23,59225,41695
23,59638,41841
23,60050,42143
23,60462,38616
23,60875,43361
23,61287,42749
23,61698,43010
23,62112,41186
23,62523,42550
23,62935,42051
23,63347,40692
23,63760,41153
23,64172,42869
23,64583,40823
23,64997,41278
23,65408,43924
23,65820,42123
23,66233,39115
23,66645,39993
23,67057,39421
23,67470,41311
23,67882,40803
23,68293,39656
23,68707,38647
23,69118,41727
23,69530,39646
23,69943,41066
23,70355,41760
23,70767,41238
23,71180,40191
23,71592,38884
23,72003,39445
23,72415,42089
23,72828,41189
23,73240,40863
23,73652,38714
23,74065,41763
23,74477,42104
23,74888,42394
23,75302,42701
23,75713,43400
23,76125,39777
23,76538,42183
23,76950,40410
23,77362,40170
23,77775,42601
23,78187,41438
23,78598,41772
23,79012,41578
23,79423,39635
23,79835,38599
23,80248,38941
23,80660,41264
23,81072,39101
23,81483,39531
23,81897,37917
23,82308,39547
23,82720,38927
23,83133,38128
23,83545,40213
23,83957,40955
23,84370,39271
23,84782,37179
23,85193,40933
23,85607,41885
23,86018,40455
23,86430,39162
23,86843,40697
23,87255,40996
23,87667,40524
23,88080,41916
23,88492,43114
23,88903,40840
23,89317,40123
23,89728,41105
23,90140,42377
23,90552,41616
23,90965,40138
23,91377,39027
23,91788,40502
23,92202,40261
23,92613,41900
23,93025,38571
23,93438,39086
23,93850,38688
23,94262,42915
23,94675,38790
23,95087,39321
23,95498,38980
23,95912,40302
23,96323,43455
23,96735,38690
23,97148,42531
23,97560,38184
23,97972,40045
23,98385,38410
23,98797,42009
23,99208,42552
23,99620,43742
24,00033,41423
24,00445,41480
24,00857,43003
24,01270,41961
24,01682,43643
24,02093,41787
24,02507,40689
24,02918,43782
24,03330,42931
24,03743,40595
24,04155,39922
24,04567,40605
24,04980,40730
24,05392,42378
24,05803,42486
24,06217,40136
24,06628,43348
24,07040,40160
24,07453,40095
24,07865,44299
24,08277,43607
24,08690,40576
24,09102,38471
24,09513,40749
24,09925,40219
24,10338,40808
24,10750,38936
24,11162,41745
24,11575,39866
24,11987,40848
24,12398,42160
24,12812,39195
24,13223,36936
24,13635,40637
24,14048,41835
24,14460,38767
24,14872,40246
24,15285,41638
24,15697,41414
24,16108,36819
24,16522,37705
24,16933,37258
24,17345,36994
24,17758,38931
24,18170,38702
24,18582,40076
24,18993,40433
24,19407,38553
24,19818,39039
24,20230,38589
24,20643,39711
24,21055,38490
24,21467,38305
24,21880,37318
24,22292,35878
24,22703,37685
24,23117,36880
24,23528,36361
24,23940,39506
24,24353,37692
24,24765,38406
24,25177,40064
24,25590,38201
24,26002,38821
24,26413,38990
24,26827,40265
24,27238,37123
24,27650,39748
24,28062,38809
24,28475,39003
24,28887,38968
24,29298,38403
24,29712,39502
24,30123,37544
24,30535,40733
24,30948,40069
24,31360,37199
24,31772,39919
24,32185,38594
24,32597,39111
24,33008,42574
24,33422,40337
24,33833,38392
24,34245,40768
24,34658,42116
24,35070,40081
24,35482,40090
24,35895,38404
24,36307,43157
24,36718,41213
24,37130,39981
24,37543,39108
24,37955,42450
24,38367,40877
24,38780,41588
24,39192,39744
24,39603,38894
24,40017,40100
24,40428,38575
24,40840,38972
24,41253,39147
24,41665,36266
24,42077,39482
24,42490,37034
24,42902,36574
24,43313,37228
24,43727,35633
24,44138,38484
24,44550,38239
24,44963,38909
24,45375,39452
24,45787,37582
24,46198,37937
24,46612,39272
24,47023,39025
24,47435,37730
24,47848,37607
24,48260,38835
24,48672,38190
24,49085,36880
24,49497,37656
24,49908,39798
24,50322,37347
24,50733,37266
24,51145,41309
24,51558,37496
24,51970,38852
24,52382,38296
24,52795,40062
24,53207,38509
24,53618,37800
24,54032,39945
24,54443,39590
24,54855,40654
24,55267,37532
24,55680,40511
24,56092,40978
24,56503,39756
24,56917,36564
24,57328,38279
24,57740,39405
24,58153,38181
24,58565,37293
24,58977,38451
24,59390,38064
24,59802,37984
24,60213,36936
24,60627,37939
24,61038,36904
24,61450,35935
24,61863,36734
24,62275,36818
24,62687,39568
24,63100,37777
24,63512,36247
24,63923,37809
24,64335,37613
24,64748,36737
24,65160,35835
24,65572,36561
24,65985,38738
24,66397,40972
24,66808,37590
24,67222,38297
24,67633,39683
24,68045,38990
24,68458,39500
24,68870,37360
24,69282,39270
24,69695,38231
24,70107,40305
24,70518,40610
24,70932,39629
24,71343,36687
24,71755,37795
24,72168,35660
24,72580,37276
24,72992,39047
24,73403,36910
24,73817,38936
24,74228,35370
24,74640,37248
24,75053,36649
24,75465,36225
24,75877,37727
24,76290,36164
24,76702,37341
24,77113,37163
24,77527,38950
24,77938,36600
24,78350,36304
24,78763,37360
24,79175,36914
24,79587,38366
24,80000,38166
24,80412,39753
24,80823,36047
24,81237,38298
24,81648,35449
24,82060,35381
24,82472,37631
24,82885,36833
24,83297,36188
24,83708,38279
24,84122,34868
24,84533,35800
24,84945,38320
24,85358,35661
24,85770,37197
24,86182,40055
24,86595,35402
24,87007,36563
24,87418,37195
24,87832,36588
24,88243,37358
24,88655,37955
24,89068,37722
24,89480,34044
24,89892,35648
24,90305,36590
24,90717,36228
24,91128,34411
24,91540,36901
24,91953,36291
24,92365,37086
24,92777,36267
24,93190,39306
24,93602,35441
24,94013,37372
24,94427,35943
24,94838,35338
24,95250,37152
24,95663,37631
24,96075,37036
24,96487,37657
24,96900,35582
24,97312,37626
24,97723,38780
24,98137,37142
24,98548,36932
24,98960,37650
24,99373,37642
24,99785,37272
25,00197,39899
25,00608,37776
25,01022,39081
25,01433,37902
25,01845,40627
25,02258,39963
25,02670,39365
25,03082,40672
25,03495,39563
25,03907,38830
25,04318,40515
25,04732,41233
25,05143,42845
25,05555,39327
25,05968,40101
25,06380,40448
25,06792,41692
25,07205,36632
25,07617,38906
25,08028,41067
25,08442,39800
25,08853,39751
25,09265,38893
25,09677,37795
25,10090,37075
25,10502,37120
25,10913,38449
25,11327,38153
25,11738,34946
25,12150,37671
25,12563,37947
25,12975,38372
25,13387,36788
25,13800,38301
25,14212,37703
25,14623,36511
25,15037,35396
25,15448,35810
25,15860,36868
25,16273,36257
25,16685,33987
25,17097,33942
25,17510,35415
25,17922,36524
25,18333,37964
25,18745,38048
25,19158,37989
25,19570,36301
25,19982,37733
25,20395,36094
25,20807,37469
25,21218,36299
25,21632,36259
25,22043,36553
25,22455,36143
25,22868,39072
25,23280,36716
25,23692,37359
25,24105,36835
25,24517,37759
25,24928,38465
25,25342,36637
25,25753,36085
25,26165,37813
25,26578,35601
25,26990,34652
25,27402,37530
25,27813,38691
25,28227,35582
25,28638,36364
25,29050,35802
25,29463,36443
25,29875,35099
25,30287,37866
25,30700,36873
25,31112,35960
25,31523,38329
25,31937,39326
25,32348,34763
25,32760,36479
25,33173,34077
25,33585,34895
25,33997,40156
25,34410,36681
25,34822,35945
25,35233,36380
25,35647,36960
25,36058,37547
25,36470,39978
25,36882,38434
25,37295,38464
25,37707,35781
25,38118,38506
25,38532,40231
25,38943,36788
25,39355,39818
25,39768,38913
25,40180,37480
25,40592,37558
25,41005,37475
25,41417,38631
25,41828,36933
25,42242,38058
25,42653,38102
25,43065,37577
25,43478,37379
25,43890,37827
25,44302,35924
25,44715,37411
25,45127,37535
25,45538,38627
25,45950,36570
25,46363,36608
25,46775,36626
25,47187,35115
25,47600,37113
25,48012,35634
25,48423,34136
25,48837,34752
25,49248,35506
25,49660,35794
25,50073,38092
25,50485,36148
25,50897,38073
25,51310,35874
25,51722,39159
25,52133,37000
25,52547,38035
25,52958,38815
25,53370,36734
25,53783,38134
25,54195,39210
25,54607,39580
25,55018,40218
25,55432,39834
25,55843,41677
25,56255,41857
25,56668,42103
25,57080,41927
25,57492,43183
25,57905,42514
25,58317,42650
25,58728,43526
25,59142,40923
25,59553,40632
25,59965,40964
25,60378,40931
25,60790,40964
25,61202,37728
25,61615,39542
25,62027,38752
25,62438,40402
25,62852,37378
25,63263,38364
25,63675,38607
25,64088,38385
25,64500,39579
25,64912,39088
25,65323,36832
25,65737,36653
25,66148,36054
25,66560,35651
25,66973,39316
25,67385,36543
25,67797,38798
25,68210,33969
25,68622,37428
25,69033,37021
25,69447,34851
25,69858,37015
25,70270,36009
25,70683,37775
25,71095,38068
25,71507,37316
25,71920,36308
25,72332,35155
25,72743,34627
25,73157,38039
25,73568,36014
25,73980,37572
25,74392,37550
25,74805,35623
25,75217,35522
25,75628,35973
25,76042,37708
25,76453,40338
25,76865,37125
25,77278,35377
25,77690,36337
25,78102,33536
25,78515,36654
25,78927,36556
25,79338,35301
25,79752,36443
25,80163,36099
25,80575,35497
25,80988,37046
25,81400,36458
25,81812,37064
25,82225,36305
25,82637,37842
25,83048,37186
25,83460,37068
25,83873,35765
25,84285,37131
25,84697,34515
25,85110,34341
25,85522,34612
25,85933,35640
25,86347,36100
25,86758,35360
25,87170,35887
25,87583,34019
25,87995,38603
25,88407,37804
25,88820,33683
25,89232,34528
25,89643,38027
25,90057,33991
25,90468,36457
25,90880,35033
25,91293,35359
25,91705,36336
25,92117,36666
25,92528,36455
25,92942,34124
25,93353,36406
25,93765,37869
25,94178,33738
25,94590,35423
25,95002,35260
25,95415,36459
25,95827,34487
25,96238,35397
25,96652,36555
25,97063,36413
25,97475,38283
25,97888,37353
25,98300,37738
25,98712,35595
25,99125,37284
25,99537,34250
25,99948,36324
26,00362,36854
26,00773,38007
26,01185,38938
26,01597,35593
26,02010,35002
26,02422,36058
26,02833,36744
26,03247,35541
26,03658,35343
26,04070,34751
26,04483,35929
26,04895,35146
26,05307,34411
26,05720,35004
26,06132,34998
26,06543,37136
26,06957,33391
26,07368,34817
26,07780,36640
26,08193,35931
26,08605,34675
26,09017,35748
26,09430,38275
26,09842,35065
26,10253,36088
26,10665,36107
26,11078,35844
26,11490,34724
26,11902,33306
26,12315,35398
26,12727,35741
26,13138,34479
26,13552,33673
26,13963,35272
26,14375,34988
26,14788,34399
26,15200,35167
26,15612,35201
26,16025,33643
26,16437,33641
26,16848,36225
26,17262,33845
26,17673,35958
26,18085,34736
26,18498,35836
26,18910,35123
26,19322,33829
26,19733,35090
26,20147,34405
26,20558,33084
26,20970,35106
26,21383,37038
26,21795,34767
26,22207,35141
26,22620,37037
26,23032,36779
26,23443,35797
26,23857,34334
26,24268,35140
26,24680,35365
26,25093,35641
26,25505,33776
26,25917,34156
26,26330,31891
26,26742,35649
26,27153,34879
26,27567,35336
26,27978,35144
26,28390,33261
26,28802,35311
26,29215,32702
26,29627,37732
26,30038,35537
26,30452,34633
26,30863,35611
26,31275,36564
26,31688,34455
26,32100,34841
26,32512,35200
26,32925,33781
26,33337,35888
26,33748,31408
26,34162,35616
26,34573,36256
26,34985,33846
26,35398,34380
26,35810,36849
26,36222,35070
26,36635,34057
26,37047,36804
26,37458,35691
26,37870,36314
26,38283,34644
26,38695,37628
26,39107,35265
26,39520,35674
26,39932,32827
26,40343,35721
26,40757,34103
26,41168,36208
26,41580,34161
26,41993,35617
26,42405,33739
26,42817,34577
26,43230,35491
26,43642,34858
26,44053,32954
26,44467,35683
26,44878,36609
26,45290,33380
26,45703,32262
26,46115,33748
26,46527,34096
26,46938,34599
26,47352,33552
26,47763,34724
26,48175,34862
26,48588,35870
26,49000,35612
26,49412,36184
26,49825,38280
26,50237,34931
26,50648,33008
26,51062,36053
26,51473,36713
26,51885,32663
26,52298,37456
26,52710,35176
26,53122,34698
26,53535,35251
26,53947,33948
26,54358,36294
26,54772,36593
26,55183,31827
26,55595,35993
26,56007,34422
26,56420,34755
26,56832,37374
26,57243,35403
26,57657,35839
26,58068,35484
26,58480,34616
26,58893,37326
26,59305,34098
26,59717,38273
26,60130,36201
26,60542,34130
26,60953,36294
26,61367,38118
26,61778,38396
26,62190,36527
26,62603,34990
26,63015,35688
26,63427,37175
26,63840,36038
26,64252,34925
26,64663,35615
26,65075,35798
26,65488,35631
26,65900,34918
26,66312,35631
26,66725,34581
26,67137,35222
26,67548,33651
26,67962,37443
26,68373,35257
26,68785,35141
26,69198,32982
26,69610,36560
26,70022,37597
26,70435,36505
26,70847,37032
26,71258,34796
26,71672,35153
26,72083,35737
26,72495,35253
26,72908,35559
26,73320,35363
26,73732,34518
26,74143,35619
26,74557,35710
26,74968,33610
26,75380,34729
26,75793,35046
26,76205,35024
26,76617,34763
26,77030,35902
26,77442,35942
26,77853,36381
26,78267,33677
26,78678,34677
26,79090,37261
26,79503,35180
26,79915,35567
26,80327,35858
26,80740,34530
26,81152,35493
26,81563,34488
26,81977,34548
26,82388,37488
26,82800,36045
26,83212,34912
26,83625,36196
26,84037,35376
26,84448,35455
26,84862,34516
26,85273,33403
26,85685,34553
26,86098,36007
26,86510,36620
26,86922,34786
26,87335,35318
26,87747,34491
26,88158,32782
26,88572,35610
26,88983,34355
26,89395,34462
26,89808,33983
26,90220,34058
26,90632,35954
26,91045,36529
26,91457,35150
26,91868,35399
26,92280,33142
26,92693,33773
26,93105,32796
26,93517,34097
26,93930,33895
26,94342,33708
26,94753,32858
26,95167,32681
26,95578,34122
26,95990,34929
26,96403,34118
26,96815,33295
26,97227,34090
26,97640,35690
26,98052,37680
26,98463,35213
26,98877,35073
26,99288,34008
26,99700,35041
27,00113,35548
27,00525,33308
27,00937,34878
27,01348,34950
27,01762,33884
27,02173,33379
27,02585,34054
27,02998,36310
27,03410,35558
27,03822,34528
27,04235,32420
27,04647,34298
27,05058,35574
27,05472,34075
27,05883,34972
27,06295,35377
27,06708,35790
27,07120,33018
27,07532,35034
27,07945,34244
27,08357,35752
27,08768,35275
27,09182,34189
27,09593,35364
27,10005,33150
27,10417,33224
27,10830,36494
27,11242,35642
27,11653,35232
27,12067,34075
27,12478,36142
27,12890,36947
27,13303,35145
27,13715,33417
27,14127,34377
27,14540,36343
27,14952,35881
27,15363,33476
27,15777,34705
27,16188,36970
27,16600,32773
27,17013,35295
27,17425,34749
27,17837,34458
27,18250,34633
27,18662,33624
27,19073,32257
27,19485,33882
27,19898,34201
27,20310,36000
27,20722,36373
27,21135,35716
27,21547,33521
27,21958,33184
27,22372,33486
27,22783,36502
27,23195,33859
27,23608,33899
27,24020,35783
27,24432,33683
27,24845,33858
27,25257,35242
27,25668,33629
27,26082,33846
27,26493,33675
27,26905,33185
27,27318,33447
27,27730,33488
27,28142,32794
27,28555,32547
27,28967,32141
27,29378,33540
27,29790,33801
27,30203,32211
27,30615,33665
27,31027,33165
27,31440,32501
27,31852,32216
27,32263,33902
27,32677,33846
27,33088,34585
27,33500,34795
27,33913,33937
27,34325,30786
27,34737,34255
27,35150,33202
27,35562,32986
27,35973,35831
27,36387,33414
27,36798,33435
27,37210,31261
27,37623,32405
27,38035,37654
27,38447,33484
27,38858,33502
27,39272,32236
27,39683,35150
27,40095,34118
27,40508,32672
27,40920,32981
27,41332,34022
27,41745,34515
27,42157,32169
27,42568,34932
27,42982,36588
27,43393,35910
27,43805,35088
27,44218,36452
27,44630,35016
27,45042,36649
27,45455,37621
27,45867,32406
27,46278,33883
27,46692,32908
27,47103,36022
27,47515,36961
27,47927,37981
27,48340,35739
27,48752,34656
27,49163,35793
27,49577,36003
27,49988,34747
27,50400,34152
27,50813,34122
27,51225,32730
27,51637,33439
27,52050,34016
27,52462,36668
27,52873,34362
27,53287,35308
27,53698,34078
27,54110,35512
27,54523,33793
27,54935,36031
27,55347,33143
27,55760,34397
27,56172,35027
27,56583,35710
27,56995,35738
27,57408,31591
27,57820,31885
27,58232,34350
27,58645,33035
27,59057,34317
27,59468,33243
27,59882,32611
27,60293,33554
27,60705,34500
27,61118,33806
27,61530,32719
27,61942,32317
27,62355,36859
27,62767,31835
27,63178,33226
27,63592,32235
27,64003,34372
27,64415,31643
27,64828,33426
27,65240,33192
27,65652,34915
27,66063,34976
27,66477,33138
27,66888,34198
27,67300,31533
27,67713,34398
27,68125,34099
27,68537,32491
27,68950,33005
27,69362,33452
27,69773,31722
27,70187,33307
27,70598,34268
27,71010,34490
27,71423,32919
27,71835,36461
27,72247,34577
27,72660,34609
27,73072,33484
27,73483,33835
27,73897,30896
27,74308,35640
27,74720,33247
27,75132,32645
27,75545,33234
27,75957,33743
27,76368,33083
27,76782,34626
27,77193,32264
27,77605,32985
27,78018,33577
27,78430,34398
27,78842,33113
27,79255,33284
27,79667,34042
27,80078,32402
27,80492,33542
27,80903,34149
27,81315,33868
27,81728,32759
27,82140,33487
27,82552,32882
27,82965,34269
27,83377,34220
27,83788,33073
27,84200,33897
27,84613,34377
27,85025,33399
27,85437,33742
27,85850,33171
27,86262,34334
27,86673,32168
27,87087,34663
27,87498,33747
27,87910,35320
27,88323,33939
27,88735,34566
27,89147,33395
27,89560,35531
27,89972,33421
27,90383,34183
27,90797,33408
27,91208,32926
27,91620,33440
27,92033,33559
27,92445,35335
27,92857,33734
27,93268,34565
27,93682,35558
27,94093,35417
27,94505,32456
27,94918,33605
27,95330,33961
27,95742,33812
27,96155,35370
27,96567,32944
27,96978,35985
27,97392,32997
27,97803,34719
27,98215,35133
27,98628,32504
27,99040,32837
27,99452,34406
27,99865,34273
28,00277,33279
28,00688,31241
28,01102,32146
28,01513,33135
28,01925,34690
28,02337,31986
28,02750,35112
28,03162,35337
28,03573,31679
28,03987,32719
28,04398,32991
28,04810,32033
28,05223,31603
28,05635,32185
28,06047,31414
28,06460,31876
28,06872,33354
28,07283,33267
28,07697,37697
28,08108,31827
28,08520,33587
28,08933,31835
28,09345,32416
28,09757,33026
28,10170,33352
28,10582,34307
28,10993,33849
28,11405,33540
28,11818,32906
28,12230,32056
28,12642,32039
28,13055,31853
28,13467,30542
28,13878,32895
28,14292,32540
28,14703,31865
28,15115,33876
28,15528,32897
28,15940,30821
28,16352,35386
28,16765,33057
28,17177,33176
28,17588,33249
28,18002,33610
28,18413,31889
28,18825,33855
28,19238,33651
28,19650,32927
28,20062,32531
28,20473,32331
28,20887,30581
28,21298,32836
28,21710,34009
28,22123,33906
28,22535,31628
28,22947,31778
28,23360,32033
28,23772,33094
28,24183,32407
28,24597,33361
28,25008,31517
28,25420,34193
28,25833,31946
28,26245,33957
28,26657,35405
28,27070,32319
28,27482,30337
28,27893,32790
28,28307,31393
28,28718,33647
28,29130,33455
28,29542,31727
28,29955,31796
28,30367,32423
28,30778,29797
28,31192,32057
28,31603,32727
28,32015,32464
28,32428,33492
28,32840,32534
28,33252,32669
28,33665,32446
28,34077,33782
28,34488,34073
28,34902,33754
28,35313,33253
28,35725,33926
28,36138,34160
28,36550,32751
28,36962,35332
28,37375,34429
28,37787,33314
28,38198,32548
28,38610,34134
28,39023,31622
28,39435,32542
28,39847,31139
28,40260,32131
28,40672,33828
28,41083,33278
28,41497,32402
28,41908,33788
28,42320,31022
28,42733,32724
28,43145,33400
28,43557,34478
28,43970,32391
28,44382,31623
28,44793,30866
28,45207,34050
28,45618,33258
28,46030,32802
28,46443,31779
28,46855,31958
28,47267,32877
28,47678,35149
28,48092,31972
28,48503,31678
28,48915,33300
28,49328,32861
28,49740,33916
28,50152,31552
28,50565,32890
28,50977,32779
28,51388,31077
28,51802,32521
28,52213,32206
28,52625,32431
28,53038,31544
28,53450,31158
28,53862,31475
28,54275,31785
28,54687,32953
28,55098,31895
28,55512,31839
28,55923,33413
28,56335,32295
28,56747,32024
28,57160,32676
28,57572,32164
28,57983,30465
28,58397,31474
28,58808,33416
28,59220,32848
28,59633,31328
28,60045,33404
28,60457,30490
28,60870,30601
28,61282,29690
28,61693,32339
28,62107,32135
28,62518,33592
28,62930,32666
28,63343,33211
28,63755,30337
28,64167,33429
28,64580,31422
28,64992,32525
28,65403,31682
28,65815,33361
28,66228,31098
28,66640,32969
28,67052,33115
28,67465,32630
28,67877,31475
28,68288,31990
28,68702,31763
28,69113,30984
28,69525,31330
28,69938,33028
28,70350,32872
28,70762,30747
28,71175,34045
28,71587,32426
28,71998,31176
28,72412,33089
28,72823,32908
28,73235,33185
28,73648,31689
28,74060,31192
28,74472,33599
28,74885,29806
28,75297,30275
28,75708,32378
28,76120,34427
28,76533,34234
28,76945,32397
28,77357,32430
28,77770,32146
28,78182,31744
28,78593,31113
28,79007,30773
28,79418,31335
28,79830,31381
28,80243,29588
28,80655,32931
28,81067,33102
28,81480,32100
28,81892,33093
28,82303,30421
28,82717,29751
28,83128,33515
28,83540,33866
28,83953,29826
28,84365,30475
28,84777,33216
28,85188,33478
28,85602,31756
28,86013,34165
28,86425,30352
28,86838,33931
28,87250,31671
28,87662,35181
28,88075,32787
28,88487,32140
28,88898,33365
28,89312,31365
28,89723,31978
28,90135,32693
28,90548,32823
28,90960,32448
28,91372,31368
28,91785,30673
28,92197,33332
28,92608,31265
28,93022,32366
28,93433,31288
28,93845,33564
28,94257,31053
28,94670,32584
28,95082,32609
28,95493,33462
28,95907,30938
28,96318,32417
28,96730,30899
28,97143,32657
28,97555,31245
28,97967,31329
28,98380,33457
28,98792,32838
28,99203,32612
28,99617,31657
29,00028,32184
29,00440,32943
29,00853,31549
29,01265,33097
29,01677,29661
29,02090,32495
29,02502,33965
29,02913,32000
29,03325,30196
29,03738,31685
29,04150,32642
29,04562,32536
29,04975,30376
29,05387,33205
29,05798,30914
29,06212,31660
29,06623,30161
29,07035,33327
29,07448,31570
29,07860,30375
29,08272,32005
29,08685,31675
29,09097,31855
29,09508,31315
29,09922,32805
29,10333,32629
29,10745,31071
29,11158,31502
29,11570,30917
29,11982,31143
29,12393,32745
29,12807,30175
29,13218,31899
29,13630,31565
29,14043,34989
29,14455,32787
29,14867,31235
29,15280,33724
29,15692,30285
29,16103,32077
29,16517,29746
29,16928,35056
29,17340,32369
29,17753,32820
29,18165,35266
29,18577,31415
29,18990,34338
29,19402,30474
29,19813,33800
29,20227,32220
29,20638,33325
29,21050,31883
29,21462,32902
29,21875,32380
29,22287,32403
29,22698,33394
29,23112,30980
29,23523,32180
29,23935,34318
29,24348,32344
29,24760,32689
29,25172,31229
29,25585,34317
29,25997,31465
29,26408,30545
29,26822,31779
29,27233,34571
29,27645,32009
29,28058,31924
29,28470,32012
29,28882,33725
29,29295,32468
29,29707,32370
29,30118,32889
29,30530,34190
29,30943,31565
29,31355,33555
29,31767,32967
29,32180,32628
29,32592,33710
29,33003,32876
29,33417,32168
29,33828,34906
29,34240,33203
29,34653,36025
29,35065,35503
29,35477,33038
29,35890,33280
29,36302,31417
29,36713,34270
29,37127,33522
29,37538,32593
29,37950,32700
29,38363,35262
29,38775,35966
29,39187,33199
29,39598,33203
29,40012,35273
29,40423,33171
29,40835,33531
29,41248,35492
29,41660,33959
29,42072,32809
29,42485,33951
29,42897,31488
29,43308,31640
29,43722,31787
29,44133,32374
29,44545,32183
29,44958,32445
29,45370,32776
29,45782,32103
29,46195,32357
29,46607,31848
29,47018,32542
29,47432,31807
29,47843,34557
29,48255,33522
29,48667,33160
29,49080,31687
29,49492,31461
29,49903,35170
29,50317,35149
29,50728,31655
29,51140,34075
29,51553,33325
29,51965,32782
29,52377,32549
29,52790,32798
29,53202,34214
29,53613,35266
29,54027,33210
29,54438,34056
29,54850,32030
29,55263,35077
29,55675,34017
29,56087,32059
29,56500,32005
29,56912,30273
29,57323,31405
29,57735,32449
29,58148,33405
29,58560,33564
29,58972,30973
29,59385,32777
29,59797,33359
