D:\MassHunter\GCMS\1\data\Amal\Constant flow\130C\130C_1ml-min_5C-min_1.D Mon Jul 29 14:57:51 2024
Start of data points
5,59122,38604
5,59567,38731
5,60010,38499
5,60455,38241
5,60898,38425
5,61343,37744
5,61787,36715
5,62232,38460
5,62675,38488
5,63120,36246
5,63563,37183
5,64008,35420
5,64453,35790
5,64897,38154
5,65342,37452
5,65785,36625
5,66230,36367
5,66673,36988
5,67118,37112
5,67562,36515
5,68007,34294
5,68450,35277
5,68895,36162
5,69338,36113
5,69783,37595
5,70227,35753
5,70672,36252
5,71115,35745
5,71560,35956
5,72003,36021
5,72448,36690
5,72892,36170
5,73337,36612
5,73780,37116
5,74225,36360
5,74668,35122
5,75113,35391
5,75557,34120
5,76002,35208
5,76447,35136
5,76890,33714
5,77335,34044
5,77778,33874
5,78223,35403
5,78667,34429
5,79112,33404
5,79555,34737
5,80000,34992
5,80443,34772
5,80888,33313
5,81332,34941
5,81777,34016
5,82220,32025
5,82665,33873
5,83108,31342
5,83553,34061
5,83997,33095
5,84442,33466
5,84885,32170
5,85330,31460
5,85773,31601
5,86218,32578
5,86662,31930
5,87107,33145
5,87550,32365
5,87995,32708
5,88440,32103
5,88883,33000
5,89328,31572
5,89772,31275
5,90217,31347
5,90660,30570
5,91105,31656
5,91548,30048
5,91993,30685
5,92437,30704
5,92882,30680
5,93325,30129
5,93770,30385
5,94213,29208
5,94658,30825
5,95102,31243
5,95547,30917
5,95990,29820
5,96435,32558
5,96878,31646
5,97323,30375
5,97767,30570
5,98212,30804
5,98655,30104
5,99100,30239
5,99543,31206
5,99988,31715
6,00433,31662
6,00877,30931
6,01322,30684
6,01765,29288
6,02210,29358
6,02653,29251
6,03098,28925
6,03542,30046
6,03987,30677
6,04430,27952
6,04875,29895
6,05318,29007
6,05763,28890
6,06207,29351
6,06652,29323
6,07095,28840
6,07540,27552
6,07983,28021
6,08428,29149
6,08872,28732
6,09317,28354
6,09760,28408
6,10205,28106
6,10648,29296
6,11093,27574
6,11537,28656
6,11982,28204
6,12427,28529
6,12870,27559
6,13315,29170
6,13758,27030
6,14203,28504
6,14647,28382
6,15092,28549
6,15535,27491
6,15980,28061
6,16423,29866
6,16868,27114
6,17312,28375
6,17757,28743
6,18200,28477
6,18645,26875
6,19088,27624
6,19533,28670
6,19977,26775
6,20422,27013
6,20865,26886
6,21310,26470
6,21753,26688
6,22198,27513
6,22642,26096
6,23087,26403
6,23530,25131
6,23975,27026
6,24420,24633
6,24863,25300
6,25308,26654
6,25752,27327
6,26197,28587
6,26640,31276
6,27085,40544
6,27528,56018
6,27973,83388
6,28417,121868
6,28862,169171
6,29305,225519
6,29750,281612
6,30193,324943
6,30638,344663
6,31082,367949
6,31527,368668
6,31970,371446
6,32415,366771
6,32858,355196
6,33303,334741
6,33747,324938
6,34192,310749
6,34635,292637
6,35080,278694
6,35523,272159
6,35968,257509
6,36412,247795
6,36857,235288
6,37302,223217
6,37745,214265
6,38190,197786
6,38633,191930
6,39078,175864
6,39522,168087
6,39967,158455
6,40410,150548
6,40855,142149
6,41298,131507
6,41743,125298
6,42187,118084
6,42632,113974
6,43075,109677
6,43520,100414
6,43963,95227
6,44408,88358
6,44852,81933
6,45297,77768
6,45740,72477
6,46185,67920
6,46628,61801
6,47073,57255
6,47517,55816
6,47962,50791
6,48405,47094
6,48850,44375
6,49295,40072
6,49738,38139
6,50183,37087
6,50627,35635
6,51072,36108
6,51515,32017
6,51960,30987
6,52403,29868
6,52848,28958
6,53292,28136
6,53737,26549
6,54180,26249
6,54625,25340
6,55068,26469
6,55513,23983
6,55957,23909
6,56402,25102
6,56845,23780
6,57290,22207
6,57733,22859
6,58178,21445
6,58622,22542
6,59067,21392
6,59510,21724
6,59955,21276
6,60398,21123
6,60843,21767
6,61288,21333
6,61732,20859
6,62177,20218
6,62620,20526
6,63065,19354
6,63508,21500
6,63953,21278
6,64397,20363
6,64842,20943
6,65285,20703
6,65730,20893
6,66173,21016
6,66618,21333
6,67062,19986
6,67507,20052
6,67950,20241
6,68395,19072
6,68838,21281
6,69283,19996
6,69727,19036
6,70172,19694
6,70615,20304
6,71060,18587
6,71503,18507
6,71948,19935
6,72392,21027
6,72837,19944
6,73282,18579
6,73725,19772
6,74170,19277
6,74613,20190
6,75058,19238
6,75502,18995
6,75947,19501
6,76390,19549
6,76835,18446
6,77278,17971
6,77723,19320
6,78167,17996
6,78612,18188
6,79055,19889
6,79500,19176
6,79943,17661
6,80388,19333
6,80832,18339
6,81277,17952
6,81720,18463
6,82165,18191
6,82608,20067
6,83053,19725
6,83497,18116
6,83942,18586
6,84385,18400
6,84830,19410
6,85275,18152
6,85718,17533
6,86163,17441
6,86607,19390
6,87052,18247
6,87495,17644
6,87940,17737
6,88383,17722
6,88828,18288
6,89272,17474
6,89717,16612
6,90160,16976
6,90605,17295
6,91048,16487
6,91493,17635
6,91937,17531
6,92382,18255
6,92825,18175
6,93270,19013
6,93713,17655
6,94158,18364
6,94602,17052
6,95047,16646
6,95490,18398
6,95935,17961
6,96378,19798
6,96823,18716
6,97268,24554
6,97712,30521
6,98157,41306
6,98600,58994
6,99045,83319
6,99488,114951
6,99933,147148
7,00377,176462
7,00822,202810
7,01265,227341
7,01710,233284
7,02153,239500
7,02598,246671
7,03042,238211
7,03487,229657
7,03930,222240
7,04375,215048
7,04818,203684
7,05263,190974
7,05707,187961
7,06152,176018
7,06595,165320
7,07040,155736
7,07483,147862
7,07928,137000
7,08372,129762
7,08817,120809
7,09260,114036
7,09705,110025
7,10150,99686
7,10593,93326
7,11038,86918
7,11482,82686
7,11927,78155
7,12370,73116
7,12815,68229
7,13258,59630
7,13703,57969
7,14147,54482
7,14592,50226
7,15035,45416
7,15480,42426
7,15923,38319
7,16368,34743
7,16812,33482
7,17257,32279
7,17700,29544
7,18145,28249
7,18588,26203
7,19033,25226
7,19477,25295
7,19922,22676
7,20365,21974
7,20810,21971
7,21253,20011
7,21698,20559
7,22143,21079
7,22587,19484
7,23032,19573
7,23475,18615
7,23920,18135
7,24363,17120
7,24808,17784
7,25252,17050
7,25697,17242
7,26140,17625
7,26585,16602
7,27028,16687
7,27473,16758
7,27917,17155
7,28362,15593
7,28805,17272
7,29250,16165
7,29693,17293
7,30138,16581
7,30582,16955
7,31027,15598
7,31470,17229
7,31915,16807
7,32358,17827
7,32803,16567
7,33247,17823
7,33692,16691
7,34137,18654
7,34580,17645
7,35025,16637
7,35468,17748
7,35913,16215
7,36357,17877
7,36802,16935
7,37245,15724
7,37690,17220
7,38133,17399
7,38578,16945
7,39022,15788
7,39467,16082
7,39910,15857
7,40355,16555
7,40798,17025
7,41243,16573
7,41687,15781
7,42132,14832
7,42575,16274
7,43020,16361
7,43463,15253
7,43908,15798
7,44352,15162
7,44797,14422
7,45240,15352
7,45685,15932
7,46130,16253
7,46573,14997
7,47018,14999
7,47462,14632
7,47907,15525
7,48350,14574
7,48795,14266
7,49238,14454
7,49683,13606
7,50127,14170
7,50572,14377
7,51015,13364
7,51460,14453
7,51903,14283
7,52348,14189
7,52792,13959
7,53237,14388
7,53680,13481
7,54125,13809
7,54568,12171
7,55013,13935
7,55457,13088
7,55902,14732
7,56345,13768
7,56790,14977
7,57233,14346
7,57678,14396
7,58123,14195
7,58567,14075
7,59012,14446
7,59455,13711
7,59900,14499
7,60343,13542
7,60788,13645
7,61232,13509
7,61677,13076
7,62120,13409
7,62565,13947
7,63008,13703
7,63453,13266
7,63897,13618
7,64342,13765
7,64785,14479
7,65230,13683
7,65673,13134
7,66118,13978
7,66562,13998
7,67007,13788
7,67450,13394
7,67895,13265
7,68338,12441
7,68783,14666
7,69227,12439
7,69672,14443
7,70117,14014
7,70560,13179
7,71005,13649
7,71448,13027
7,71893,13807
7,72337,13510
7,72782,13719
7,73225,14346
7,73670,13014
7,74113,13267
7,74558,12917
7,75002,12441
7,75447,13745
7,75890,12978
7,76335,13135
7,76778,13753
7,77223,14192
7,77667,13988
7,78112,13807
7,78555,12121
7,79000,12671
7,79443,12568
7,79888,12859
7,80332,14470
7,80777,15342
7,81220,17902
7,81665,27011
7,82108,40272
7,82553,62140
7,82998,96864
7,83442,145248
7,83887,208209
7,84330,277810
7,84775,352842
7,85218,428788
7,85663,489684
7,86107,533127
7,86552,566909
7,86995,578554
7,87440,575485
7,87883,571863
7,88328,541374
7,88772,525895
7,89217,494576
7,89660,464160
7,90105,434384
7,90548,404847
7,90993,376217
7,91437,352613
7,91882,325931
7,92325,303819
7,92770,280349
7,93213,257597
7,93658,236161
7,94102,215292
7,94547,196613
7,94992,175456
7,95435,159497
7,95880,145989
7,96323,128723
7,96768,116420
7,97212,105072
7,97657,91732
7,98100,81965
7,98545,72386
7,98988,64044
7,99433,55435
7,99877,48406
8,00322,45599
8,00765,42224
8,01210,37599
8,01653,35746
8,02098,33054
8,02542,30452
8,02987,26898
8,03430,25390
8,03875,24733
8,04318,23817
8,04763,21893
8,05207,21208
8,05652,19971
8,06095,20647
8,06540,19094
8,06985,19848
8,07428,18113
8,07873,17060
8,08317,17961
8,08762,16554
8,09205,15800
8,09650,15747
8,10093,15227
8,10538,15676
8,10982,16245
8,11427,15029
8,11870,15310
8,12315,13637
8,12758,14088
8,13203,14189
8,13647,14196
8,14092,13737
8,14535,13356
8,14980,14626
8,15423,14630
8,15868,13496
8,16312,14089
8,16757,12352
8,17200,13750
8,17645,13062
8,18088,13300
8,18533,13190
8,18978,12114
8,19422,13034
8,19867,12461
8,20310,12158
8,20755,12506
8,21198,12517
8,21643,13011
8,22087,12081
8,22532,12857
8,22975,13180
8,23420,12666
8,23863,13336
8,24308,13558
8,24752,12433
8,25197,13083
8,25640,12579
8,26085,12582
8,26528,12987
8,26973,12993
8,27417,12638
8,27862,11656
8,28305,11942
8,28750,10826
8,29193,11924
8,29638,11710
8,30082,11954
8,30527,12223
8,30972,11993
8,31415,12041
8,31860,11665
8,32303,12369
8,32748,11688
8,33192,11966
8,33637,11799
8,34080,11543
8,34525,11174
8,34968,11884
8,35413,11764
8,35857,12241
8,36302,11469
8,36745,11392
8,37190,11712
8,37633,11556
8,38078,11601
8,38522,10241
8,38967,11769
8,39410,12095
8,39855,11353
8,40298,11516
8,40743,11469
8,41187,10621
8,41632,11272
8,42075,11342
8,42520,12213
8,42965,11231
8,43408,11775
8,43853,11681
8,44297,10889
8,44742,10518
8,45185,12069
8,45630,11798
8,46073,11062
8,46518,12421
8,46962,11283
8,47407,11736
8,47850,11623
8,48295,12060
8,48738,11927
8,49183,10719
8,49627,11465
8,50072,11859
8,50515,11433
8,50960,11833
8,51403,11271
8,51848,10457
8,52292,11535
8,52737,10969
8,53180,11607
8,53625,10965
8,54068,10940
8,54513,10848
8,54957,11536
8,55402,11559
8,55847,12591
8,56290,10659
8,56735,10786
8,57178,11044
8,57623,11796
8,58067,11460
8,58512,10505
8,58955,11528
8,59400,11393
8,59843,11140
8,60288,11564
8,60732,12299
8,61177,11738
8,61620,13735
8,62065,14082
8,62508,14169
8,62953,14216
8,63397,14415
8,63842,13173
8,64285,13216
8,64730,14294
8,65173,14616
8,65618,13383
8,66062,13811
8,66507,13292
8,66950,14089
8,67395,13658
8,67840,13282
8,68283,13209
8,68728,13548
8,69172,12644
8,69617,12454
8,70060,13724
8,70505,13099
8,70948,12061
8,71393,12629
8,71837,11310
8,72282,11561
8,72725,11237
8,73170,11478
8,73613,12520
8,74058,12201
8,74502,12206
8,74947,11053
8,75390,11353
8,75835,10958
8,76278,11177
8,76723,11739
8,77167,11283
8,77612,10721
8,78055,12831
8,78500,14667
8,78943,19367
8,79388,27202
8,79833,39652
8,80277,56584
8,80722,86604
8,81165,117656
8,81610,158324
8,82053,203517
8,82498,242494
8,82942,279632
8,83387,310270
8,83830,333314
8,84275,337067
8,84718,342939
8,85163,335255
8,85607,324872
8,86052,314666
8,86495,296388
8,86940,277725
8,87383,257530
8,87828,237205
8,88272,216705
8,88717,198180
8,89160,180974
8,89605,165538
8,90048,144794
8,90493,130424
8,90937,113527
8,91382,103962
8,91827,91480
8,92270,80393
8,92715,69264
8,93158,59620
8,93603,53451
8,94047,46069
8,94492,41182
8,94935,35583
8,95380,33746
8,95823,30134
8,96268,26809
8,96712,24251
8,97157,23027
8,97600,22496
8,98045,19450
8,98488,18478
8,98933,17218
8,99377,15795
8,99822,17413
9,00265,15527
9,00710,14745
9,01153,14189
9,01598,14960
9,02042,14039
9,02487,13765
9,02930,12387
9,03375,13737
9,03820,12866
9,04263,12612
9,04708,11191
9,05152,12196
9,05597,11617
9,06040,11602
9,06485,11478
9,06928,10033
9,07373,10738
9,07817,10957
9,08262,10585
9,08705,9684
9,09150,10834
9,09593,10755
9,10038,10407
9,10482,10124
9,10927,10849
9,11370,10289
9,11815,11220
9,12258,10219
9,12703,10522
9,13147,10332
9,13592,10503
9,14035,10705
9,14480,10144
9,14923,11178
9,15368,9485
9,15813,10192
9,16257,9867
9,16702,10137
9,17145,10180
9,17590,10573
9,18033,9898
9,18478,9991
9,18922,10973
9,19367,11490
9,19810,9530
9,20255,9956
9,20698,10535
9,21143,9942
9,21587,10372
9,22032,9565
9,22475,9841
9,22920,10126
9,23363,9971
9,23808,10282
9,24252,9940
9,24697,9529
9,25140,9741
9,25585,9287
9,26028,10031
9,26473,8928
9,26917,9174
9,27362,9171
9,27805,9345
9,28250,9888
9,28695,10085
9,29138,10228
9,29583,9477
9,30027,10069
9,30472,10050
9,30915,9878
9,31360,8563
9,31803,10862
9,32248,10396
9,32692,9433
9,33137,10076
9,33580,10285
9,34025,10463
9,34468,10565
9,34913,10908
9,35357,11934
9,35802,10859
9,36245,10635
9,36690,11013
9,37133,10686
9,37578,10783
9,38022,10360
9,38467,10588
9,38910,9954
9,39355,11883
9,39798,10319
9,40243,11024
9,40688,10565
9,41132,10553
9,41577,9230
9,42020,9373
9,42465,10442
9,42908,8812
9,43353,9668
9,43797,9811
9,44242,9355
9,44685,9081
9,45130,9614
9,45573,8391
9,46018,9302
9,46462,9474
9,46907,9614
9,47350,8466
9,47795,9241
9,48238,8559
9,48683,8984
9,49127,9649
9,49572,10146
9,50015,9344
9,50460,9208
9,50903,9479
9,51348,9521
9,51792,8804
9,52237,8817
9,52682,9564
9,53125,9362
9,53570,8849
9,54013,8852
9,54458,9063
9,54902,9620
9,55347,9168
9,55790,8954
9,56235,9205
9,56678,9217
9,57123,9317
9,57567,8625
9,58012,9894
9,58455,8681
9,58900,9684
9,59343,10135
9,59788,10182
9,60232,10067
9,60677,11303
9,61120,10212
9,61565,10421
9,62008,9664
9,62453,10719
9,62897,10611
9,63342,10819
9,63785,9502
9,64230,9893
9,64675,10620
9,65118,10207
9,65563,10850
9,66007,8693
9,66452,10447
9,66895,9462
9,67340,9838
9,67783,9565
9,68228,8922
9,68672,9267
9,69117,9504
9,69560,9832
9,70005,9518
9,70448,9991
9,70893,9214
9,71337,8680
9,71782,9061
9,72225,10410
9,72670,9380
9,73113,9504
9,73558,9121
9,74002,9700
9,74447,8111
9,74890,8253
9,75335,9045
9,75778,8570
9,76223,9799
9,76668,8601
9,77112,10006
9,77557,9672
9,78000,8533
9,78445,8799
9,78888,8708
9,79333,9716
9,79777,8161
9,80222,9067
9,80665,9045
9,81110,9297
9,81553,8258
9,81998,9142
9,82442,8503
9,82887,9136
9,83330,9299
9,83775,8978
9,84218,9083
9,84663,9525
9,85107,11020
9,85552,12089
9,85995,15286
9,86440,24192
9,86883,37637
9,87328,63384
9,87772,102434
9,88217,157555
9,88662,225927
9,89105,316676
9,89550,408657
9,89993,510808
9,90438,610282
9,90882,691957
9,91327,756739
9,91770,808843
9,92215,832219
9,92658,827098
9,93103,797340
9,93547,757117
9,93992,714395
9,94435,652531
9,94880,598326
9,95323,533014
9,95768,478041
9,96212,414705
9,96657,366160
9,97100,308349
9,97545,265608
9,97988,232073
9,98433,198023
9,98877,162855
9,99322,140411
9,99765,122344
10,00210,104449
10,00653,89308
10,01098,75783
10,01543,66481
10,01987,58178
10,02432,53941
10,02875,46569
10,03320,41321
10,03763,37596
10,04208,35265
10,04652,32296
10,05097,30383
10,05540,28406
10,05985,25099
10,06428,24236
10,06873,22703
10,07317,21945
10,07762,19513
10,08205,18155
10,08650,17633
10,09093,18477
10,09538,16433
10,09982,17115
10,10427,15466
10,10870,15546
10,11315,15183
10,11758,13045
10,12203,13977
10,12647,14133
10,13092,12511
10,13537,13864
10,13980,11926
10,14425,11296
10,14868,12300
10,15313,11557
10,15757,10250
10,16202,11295
10,16645,11180
10,17090,10922
10,17533,10324
10,17978,9802
10,18422,10734
10,18867,10835
10,19310,10659
10,19755,9988
10,20198,11333
10,20643,10342
10,21087,11190
10,21532,12077
10,21975,10939
10,22420,11675
10,22863,11974
10,23308,11790
10,23752,11168
10,24197,11998
10,24640,12365
10,25085,10873
10,25530,10800
10,25973,11181
10,26418,10689
10,26862,10923
10,27307,10247
10,27750,9434
10,28195,10064
10,28638,10495
10,29083,10110
10,29527,9629
10,29972,10299
10,30415,9982
10,30860,9223
10,31303,9478
10,31748,9381
10,32192,9939
10,32637,7860
10,33080,9089
10,33525,8458
10,33968,9212
10,34413,8871
10,34857,8630
10,35302,8615
10,35745,8907
10,36190,8438
10,36633,8365
10,37078,8926
10,37523,7997
10,37967,8907
10,38412,9161
10,38855,8982
10,39300,8749
10,39743,8551
10,40188,8134
10,40632,7429
10,41077,8723
10,41520,8417
10,41965,8527
10,42408,8507
10,42853,7823
10,43297,9215
10,43742,8351
10,44185,8509
10,44630,8341
10,45073,9737
10,45518,9711
10,45962,10059
10,46407,10289
10,46850,11399
10,47295,9268
10,47738,10693
10,48183,11585
10,48627,11183
10,49072,10118
10,49517,9425
10,49960,9847
10,50405,9976
10,50848,9704
10,51293,9646
10,51737,9023
10,52182,9136
10,52625,9109
10,53070,9065
10,53513,8555
10,53958,8883
10,54402,8926
10,54847,8236
10,55290,8642
10,55735,8046
10,56178,8849
10,56623,8681
10,57067,8084
10,57512,8250
10,57955,7926
10,58400,8895
10,58843,8462
10,59288,8431
10,59732,8261
10,60177,7908
10,60620,7860
10,61065,8191
10,61510,8358
10,61953,8980
10,62398,8340
10,62842,8258
10,63287,8225
10,63730,8277
10,64175,8233
10,64618,8184
10,65063,8935
10,65507,7583
10,65952,7687
10,66395,7526
10,66840,8066
10,67283,8427
10,67728,9628
10,68172,10133
10,68617,13451
10,69060,17882
10,69505,28263
10,69948,44223
10,70393,61766
10,70837,92522
10,71282,130261
10,71725,173236
10,72170,222513
10,72613,269726
10,73058,315466
10,73503,352941
10,73947,374246
10,74392,390355
10,74835,397426
10,75280,390198
10,75723,367341
10,76168,348869
10,76612,321320
10,77057,295686
10,77500,262478
10,77945,228203
10,78388,202292
10,78833,171521
10,79277,147830
10,79722,129245
10,80165,104455
10,80610,92876
10,81053,76030
10,81498,64345
10,81942,53753
10,82387,49572
10,82830,42565
10,83275,36514
10,83718,31921
10,84163,27470
10,84607,25784
10,85052,22597
10,85495,21587
10,85940,19822
10,86385,18796
10,86828,18274
10,87273,16016
10,87717,15189
10,88162,13547
10,88605,13944
10,89050,12924
10,89493,12930
10,89938,13364
10,90382,11053
10,90827,12110
10,91270,10936
10,91715,10893
10,92158,10026
10,92603,10799
10,93047,10029
10,93492,9433
10,93935,10077
10,94380,9288
10,94823,10059
10,95268,8882
10,95712,9215
10,96157,8492
10,96600,8200
10,97045,8244
10,97488,8461
10,97933,8660
10,98378,9304
10,98822,9349
10,99267,8619
10,99710,9325
11,00155,10677
11,00598,10985
11,01043,14279
11,01487,19255
11,01932,29723
11,02375,44375
11,02820,70239
11,03263,102859
11,03708,143356
11,04152,197263
11,04597,258021
11,05040,312609
11,05485,362025
11,05928,405234
11,06373,443030
11,06817,467534
11,07262,458782
11,07705,449581
11,08150,435773
11,08593,408337
11,09038,364980
11,09482,323450
11,09927,287515
11,10372,246369
11,10815,210867
11,11260,180593
11,11703,149693
11,12148,125998
11,12592,105711
11,13037,89293
11,13480,75063
11,13925,62875
11,14368,52789
11,14813,46106
11,15257,39276
11,15702,35702
11,16145,32154
11,16590,29016
11,17033,26800
11,17478,23584
11,17922,21717
11,18367,19616
11,18810,19131
11,19255,18974
11,19698,15887
11,20143,16008
11,20587,14388
11,21032,13841
11,21475,12396
11,21920,12788
11,22365,13399
11,22808,12279
11,23253,11743
11,23697,11061
11,24142,10884
11,24585,10601
11,25030,11119
11,25473,10013
11,25918,8896
11,26362,9700
11,26807,9077
11,27250,9350
11,27695,8694
11,28138,9480
11,28583,8809
11,29027,9041
11,29472,9127
11,29915,8827
11,30360,9391
11,30803,9391
11,31248,8856
11,31692,8416
11,32137,9034
11,32580,8701
11,33025,8641
11,33468,8475
11,33913,8214
11,34358,8943
11,34802,9230
11,35247,8907
11,35690,8447
11,36135,8359
11,36578,8649
11,37023,7893
11,37467,7683
11,37912,8810
11,38355,8493
11,38800,7988
11,39243,7703
11,39688,7409
11,40132,8369
11,40577,7671
11,41020,8336
11,41465,8271
11,41908,7585
11,42353,7094
11,42797,7665
11,43242,7148
11,43685,7496
11,44130,8101
11,44573,7549
11,45018,6776
11,45462,7993
11,45907,6886
11,46352,8453
11,46795,8087
11,47240,7598
11,47683,7810
11,48128,7440
11,48572,7418
11,49017,7749
11,49460,8147
11,49905,7536
11,50348,7410
11,50793,7942
11,51237,7587
11,51682,7096
11,52125,8203
11,52570,7680
11,53013,7309
11,53458,7776
11,53902,6023
11,54347,7800
11,54790,8089
11,55235,8290
11,55678,8198
11,56123,7495
11,56567,7304
11,57012,7559
11,57455,7531
11,57900,7379
11,58343,7269
11,58788,7238
11,59233,7767
11,59677,7676
11,60122,8209
11,60565,7950
11,61010,7792
11,61453,6949
11,61898,6930
11,62342,8443
11,62787,7287
11,63230,7953
11,63675,7276
11,64118,6887
11,64563,7497
11,65007,7998
11,65452,7917
11,65895,8460
11,66340,7158
11,66783,7557
11,67228,7581
11,67672,8138
11,68117,7015
11,68560,7038
11,69005,7524
11,69448,6796
11,69893,7645
11,70337,7339
11,70782,7359
11,71227,7335
11,71670,6353
11,72115,8187
11,72558,6772
11,73003,7091
11,73447,7144
11,73892,7046
11,74335,7397
11,74780,7016
11,75223,7509
11,75668,7074
11,76112,7225
11,76557,7868
11,77000,7880
11,77445,7373
11,77888,7269
11,78333,7945
11,78777,7156
11,79222,7661
11,79665,7078
11,80110,7045
11,80553,7702
11,80998,7117
11,81442,6725
11,81887,7024
11,82330,7794
11,82775,7322
11,83220,7299
11,83663,7324
11,84108,7707
11,84552,7903
11,84997,7551
11,85440,7052
11,85885,7280
11,86328,7889
11,86773,8580
11,87217,9316
11,87662,15257
11,88105,23079
11,88550,33057
11,88993,52018
11,89438,76453
11,89882,113042
11,90327,157437
11,90770,205028
11,91215,265727
11,91658,316708
11,92103,370056
11,92547,416274
11,92992,439880
11,93435,454176
11,93880,457671
11,94323,439478
11,94768,411068
11,95213,378710
11,95657,333478
11,96102,293322
11,96545,249973
11,96990,213660
11,97433,180092
11,97878,150356
11,98322,124187
11,98767,102397
11,99210,87704
11,99655,72192
12,00098,59671
12,00543,49197
12,00987,43947
12,01432,38732
12,01875,33698
12,02320,30575
12,02763,27879
12,03208,24743
12,03652,23539
12,04097,22189
12,04540,20294
12,04985,17855
12,05428,17818
12,05873,16000
12,06317,14547
12,06762,14852
12,07207,14124
12,07650,12828
12,08095,12647
12,08538,11914
12,08983,11045
12,09427,10318
12,09872,11319
12,10315,10041
12,10760,10311
12,11203,10190
12,11648,10573
12,12092,8969
12,12537,9050
12,12980,9964
12,13425,8670
12,13868,8715
12,14313,8830
12,14757,8861
12,15202,8032
12,15645,8905
12,16090,8045
12,16533,7958
12,16978,7696
12,17422,8272
12,17867,7859
12,18310,8102
12,18755,9820
12,19200,11817
12,19643,13510
12,20088,20339
12,20532,32799
12,20977,52697
12,21420,89948
12,21865,140856
12,22308,217386
12,22753,322610
12,23197,448588
12,23642,611731
12,24085,780790
12,24530,963886
12,24973,1155581
12,25418,1323711
12,25862,1454873
12,26307,1576003
12,26750,1609331
12,27195,1596233
12,27638,1520928
12,28083,1382246
12,28527,1213255
12,28972,1049569
12,29415,880432
12,29860,722170
12,30303,589586
12,30748,471427
12,31192,383307
12,31637,314301
12,32082,252748
12,32525,207298
12,32970,174526
12,33413,147637
12,33858,125053
12,34302,108661
12,34747,93882
12,35190,80431
12,35635,71688
12,36078,64873
12,36523,58346
12,36967,52358
12,37412,47770
12,37855,44939
12,38300,41705
12,38743,36410
12,39188,33469
12,39632,32124
12,40077,31484
12,40520,28580
12,40965,28617
12,41408,26225
12,41853,25366
12,42297,25419
12,42742,21734
12,43185,22576
12,43630,19996
12,44075,19628
12,44518,19406
12,44963,17946
12,45407,16900
12,45852,15951
12,46295,15503
12,46740,15393
12,47183,15575
12,47628,14584
12,48072,13639
12,48517,14286
12,48960,13876
12,49405,13209
12,49848,12715
12,50293,12712
12,50737,11166
12,51182,10920
12,51625,11984
12,52070,11712
12,52513,11189
12,52958,11397
12,53402,10932
12,53847,9669
12,54290,10170
12,54735,9756
12,55178,10679
12,55623,10413
12,56068,9862
12,56512,9191
12,56957,9737
12,57400,8633
12,57845,9365
12,58288,9799
12,58733,9709
12,59177,9638
12,59622,8911
12,60065,9330
12,60510,8119
12,60953,9133
12,61398,8716
12,61842,8597
12,62287,8119
12,62730,8536
12,63175,8168
12,63618,8610
12,64063,8046
12,64507,7937
12,64952,8656
12,65395,8910
12,65840,8440
12,66283,7957
12,66728,8266
12,67172,8677
12,67617,7986
12,68062,9144
12,68505,8211
12,68950,8355
12,69393,8348
12,69838,8220
12,70282,8301
12,70727,8361
12,71170,8388
12,71615,7684
12,72058,7644
12,72503,7951
12,72947,8015
12,73392,8062
12,73835,8842
12,74280,8289
12,74723,8050
12,75168,7193
12,75612,7794
12,76057,7564
12,76500,8346
12,76945,7752
12,77388,7588
12,77833,8534
12,78277,8080
12,78722,7085
12,79165,7375
12,79610,7765
12,80055,7924
12,80498,7751
12,80943,7460
12,81387,6871
12,81832,7395
12,82275,7147
12,82720,6849
12,83163,7086
12,83608,7939
12,84052,7552
12,84497,7732
12,84940,7517
12,85385,8529
12,85828,8749
12,86273,8451
12,86717,7344
12,87162,8264
12,87605,8896
12,88050,8333
12,88493,7526
12,88938,6936
12,89382,6797
12,89827,8127
12,90270,7593
12,90715,6611
12,91158,6568
12,91603,8368
12,92048,9481
12,92492,10323
12,92937,13561
12,93380,21985
12,93825,36597
12,94268,54401
12,94713,84520
12,95157,120203
12,95602,171212
12,96045,227275
12,96490,292310
12,96933,351854
12,97378,409020
12,97822,451253
12,98267,476433
12,98710,497579
12,99155,482526
12,99598,459847
13,00043,427431
13,00487,381874
13,00932,334715
13,01375,287347
13,01820,245991
13,02263,199712
13,02708,166110
13,03152,140003
13,03597,113770
13,04040,96365
13,04485,81825
13,04930,69705
13,05373,56770
13,05818,49734
13,06262,47196
13,06707,39899
13,07150,35157
13,07595,32865
13,08038,29776
13,08483,27164
13,08927,27090
13,09372,25501
13,09815,24151
13,10260,21214
13,10703,19936
13,11148,19583
13,11592,16446
13,12037,16679
13,12480,14469
13,12925,15442
13,13368,16331
13,13813,14409
13,14257,14288
13,14702,14531
13,15145,13298
13,15590,13312
13,16033,11707
13,16478,11675
13,16923,12130
13,17367,11389
13,17812,10325
13,18255,9435
13,18700,9783
13,19143,9762
13,19588,8533
13,20032,9008
13,20477,8588
13,20920,9693
13,21365,8163
13,21808,9137
13,22253,8056
13,22697,8149
13,23142,8544
13,23585,7302
13,24030,8051
13,24473,8751
13,24918,7388
13,25362,8237
13,25807,7093
13,26250,7766
13,26695,7700
13,27138,7641
13,27583,6869
13,28027,7041
13,28472,7550
13,28917,6695
13,29360,6505
13,29805,8032
13,30248,6861
13,30693,6880
13,31137,7444
13,31582,6789
13,32025,6827
13,32470,6477
13,32913,7311
13,33358,7192
13,33802,8089
13,34247,6670
13,34690,7182
13,35135,7750
13,35578,6770
13,36023,5999
13,36467,7492
13,36912,7598
13,37355,6463
13,37800,6754
13,38243,7191
13,38688,6665
13,39132,6439
13,39577,6058
13,40020,8426
13,40465,8551
13,40910,9858
13,41353,12501
13,41798,20777
13,42242,31247
13,42687,48536
13,43130,78258
13,43575,118220
13,44018,165923
13,44463,228122
13,44907,301026
13,45352,369821
13,45795,449136
13,46240,507938
13,46683,545089
13,47128,566335
13,47572,569294
13,48017,540435
13,48460,499180
13,48905,441444
13,49348,380993
13,49793,322029
13,50237,269679
13,50682,216719
13,51125,181250
13,51570,147693
13,52013,116198
13,52458,96552
13,52903,80885
13,53347,67849
13,53792,57393
13,54235,49094
13,54680,43510
13,55123,37668
13,55568,33115
13,56012,29579
13,56457,27291
13,56900,24743
13,57345,23917
13,57788,21755
13,58233,19891
13,58677,18935
13,59122,17066
13,59565,16307
13,60010,15603
13,60453,15085
13,60898,14026
13,61342,13633
13,61787,13809
13,62230,11431
13,62675,12442
13,63118,10999
13,63563,12215
13,64007,10607
13,64452,11171
13,64897,9487
13,65340,9444
13,65785,9499
13,66228,9526
13,66673,9729
13,67117,10050
13,67562,9644
13,68005,9132
13,68450,9194
13,68893,9453
13,69338,9331
13,69782,8282
13,70227,7917
13,70670,8496
13,71115,9467
13,71558,9079
13,72003,7789
13,72447,8413
13,72892,7907
13,73335,7827
13,73780,7867
13,74223,8032
13,74668,7485
13,75112,7897
13,75557,7915
13,76000,8146
13,76445,8199
13,76888,7938
13,77333,8509
13,77778,7277
13,78222,7084
13,78667,8029
13,79110,7293
13,79555,7977
13,79998,7743
13,80443,8424
13,80887,7552
13,81332,7871
13,81775,7141
13,82220,7382
13,82663,7161
13,83108,6998
13,83552,7819
13,83997,7347
13,84440,6735
13,84885,7232
13,85328,7667
13,85773,8220
13,86217,8031
13,86662,7583
13,87105,6998
13,87550,6924
13,87993,7807
13,88438,6536
13,88882,7181
13,89327,7971
13,89772,6350
13,90215,7476
13,90660,6721
13,91103,6862
13,91548,6473
13,91992,6562
13,92437,6721
13,92880,6699
13,93325,6731
13,93768,7635
13,94213,6615
13,94657,7607
13,95102,6922
13,95545,6314
13,95990,6846
13,96433,6627
13,96878,7413
13,97322,7101
13,97767,6982
13,98210,6849
13,98655,6408
13,99098,7043
13,99543,7792
13,99987,7010
14,00432,7423
14,00875,6174
14,01320,7335
14,01765,7461
14,02208,7229
14,02653,6697
14,03097,6813
14,03542,7057
14,03985,7525
14,04430,7568
14,04873,6938
14,05318,6983
14,05762,7013
14,06207,7241
14,06650,7039
14,07095,6555
14,07538,7715
14,07983,6867
14,08427,7484
14,08872,7378
14,09315,7261
14,09760,6740
14,10203,6509
14,10648,6842
14,11092,7071
14,11537,7084
14,11980,7194
14,12425,7480
14,12868,7417
14,13313,8000
14,13758,10295
14,14202,12456
14,14647,18783
14,15090,29641
14,15535,45347
14,15978,70549
14,16423,109624
14,16867,153838
14,17312,216741
14,17755,285148
14,18200,358098
14,18643,428812
14,19088,475365
14,19532,523951
14,19977,536125
14,20420,545344
14,20865,528993
14,21308,483002
14,21753,423798
14,22197,366134
14,22642,315674
14,23085,263526
14,23530,214528
14,23973,177340
14,24418,143897
14,24862,118382
14,25307,97377
14,25752,81511
14,26195,67406
14,26640,57444
14,27083,49402
14,27528,43673
14,27972,36227
14,28417,31729
14,28860,30923
14,29305,25405
14,29748,25234
14,30193,22938
14,30637,20932
14,31082,18544
14,31525,18875
14,31970,17000
14,32413,16418
14,32858,15978
14,33302,14710
14,33747,14773
14,34190,13756
14,34635,12887
14,35078,11825
14,35523,11951
14,35967,10172
14,36412,10406
14,36855,11324
14,37300,9880
14,37745,10310
14,38188,10360
14,38633,10282
14,39077,10202
14,39522,10855
14,39965,11809
14,40410,12206
14,40853,12781
14,41298,13212
14,41742,15240
14,42187,14885
14,42630,16183
14,43075,15915
14,43518,15921
14,43963,17269
14,44407,17367
14,44852,14367
14,45295,14393
14,45740,14934
14,46183,13116
14,46628,12944
14,47072,11244
14,47517,11541
14,47960,10070
14,48405,9914
14,48848,8884
14,49293,10772
14,49737,8655
14,50182,8107
14,50627,7975
14,51070,7741
14,51515,7231
14,51958,8042
14,52403,7688
14,52847,8195
14,53292,8775
14,53735,7945
14,54180,6886
14,54623,6233
14,55068,7652
14,55512,7164
14,55957,7619
14,56400,7249
14,56845,8000
14,57288,7395
14,57733,7225
14,58177,7153
14,58622,7074
14,59065,7840
14,59510,7543
14,59953,6667
14,60398,7568
14,60842,8549
14,61287,8425
14,61730,10423
14,62175,15387
14,62620,25649
14,63063,40458
14,63508,64912
14,63952,105712
14,64397,164292
14,64840,244228
14,65285,344039
14,65728,465004
14,66173,603271
14,66617,750927
14,67062,907610
14,67505,1039457
14,67950,1160318
14,68393,1227309
14,68838,1243619
14,69282,1217712
14,69727,1125196
14,70170,1015139
14,70615,872036
14,71058,723936
14,71503,590710
14,71947,478171
14,72392,382965
14,72835,309339
14,73280,247851
14,73723,198232
14,74168,165525
14,74613,137477
14,75057,112529
14,75502,101201
14,75945,86480
14,76390,75306
14,76833,65530
14,77278,58446
14,77722,54877
14,78167,48726
14,78610,44672
14,79055,40585
14,79498,38499
14,79943,33519
14,80387,32446
14,80832,30470
14,81275,27267
14,81720,26720
14,82163,22436
14,82608,23786
14,83052,22134
14,83497,21127
14,83940,19450
14,84385,18223
14,84828,17764
14,85273,16658
14,85717,16012
14,86162,15487
14,86607,14827
14,87050,15390
14,87495,13911
14,87938,14047
14,88383,12665
14,88827,13096
14,89272,11968
14,89715,12555
14,90160,11761
14,90603,11767
14,91048,11147
14,91492,11299
14,91937,11140
14,92380,11043
14,92825,10826
14,93268,10669
14,93713,9704
14,94157,10274
14,94602,10706
14,95045,9648
14,95490,9216
14,95933,10197
14,96378,8829
14,96822,9123
14,97267,8972
14,97710,9272
14,98155,8366
14,98600,8339
14,99043,8306
14,99488,8553
14,99932,8658
15,00377,8479
15,00820,9819
15,01265,8488
15,01708,8665
15,02153,8174
15,02597,8848
15,03042,9630
15,03485,10372
15,03930,13856
15,04373,20995
15,04818,33508
15,05262,51158
15,05707,81335
15,06150,118151
15,06595,168193
15,07038,236541
15,07483,298009
15,07927,374165
15,08372,449804
15,08815,511917
15,09260,560814
15,09703,577649
15,10148,571383
15,10593,546376
15,11037,510625
15,11482,452548
15,11925,391218
15,12370,327501
15,12813,268454
15,13258,222145
15,13702,178745
15,14147,145747
15,14590,120628
15,15035,99657
15,15478,84716
15,15923,70054
15,16367,57891
15,16812,53783
15,17255,45815
15,17700,40744
15,18143,35290
15,18588,32456
15,19032,31030
15,19477,26814
15,19920,25138
15,20365,22468
15,20808,21857
15,21253,19468
15,21697,18411
15,22142,18090
15,22585,17356
15,23030,16187
15,23475,15552
15,23918,16451
15,24363,20081
15,24807,26284
15,25252,36457
15,25695,57319
15,26140,85350
15,26583,135151
15,27028,199244
15,27472,285964
15,27917,397949
15,28360,518813
15,28805,660982
15,29248,798906
15,29693,942049
15,30137,1049131
15,30582,1134666
15,31025,1157268
15,31470,1139998
15,31913,1064303
15,32358,959570
15,32802,835433
15,33247,706575
15,33690,581094
15,34135,471722
15,34578,379698
15,35023,306999
15,35468,247812
15,35912,203174
15,36357,169337
15,36800,142511
15,37245,122054
15,37688,105799
15,38133,89317
15,38577,78788
15,39022,71122
15,39465,64626
15,39910,56107
15,40353,48712
15,40798,47518
15,41242,43748
15,41687,36973
15,42130,35806
15,42575,32435
15,43018,32146
15,43463,28463
15,43907,27002
15,44352,26527
15,44795,23800
15,45240,22986
15,45683,21698
15,46128,20553
15,46572,19403
15,47017,18708
15,47462,16836
15,47905,17905
15,48350,16682
15,48793,15982
15,49238,14604
15,49682,14787
15,50127,14584
15,50570,13849
15,51015,14524
15,51458,13250
15,51903,12722
15,52347,12780
15,52792,12396
15,53235,10734
15,53680,11327
15,54123,12447
15,54568,10834
15,55012,11062
15,55457,11450
15,55900,11481
15,56345,10171
15,56788,10616
15,57233,10624
15,57677,9601
15,58122,10111
15,58565,9577
15,59010,8865
15,59455,10092
15,59898,8863
15,60343,7877
15,60787,8557
15,61232,7734
15,61675,8260
15,62120,8124
15,62563,8654
15,63008,9117
15,63452,8860
15,63897,7583
15,64340,8486
15,64785,8679
15,65228,8833
15,65673,6851
15,66117,8032
15,66562,8114
15,67005,8037
15,67450,7514
15,67893,7156
15,68338,7285
15,68782,6791
15,69227,7332
15,69670,8806
15,70115,7730
15,70558,9035
15,71003,9177
15,71448,9006
15,71892,9321
15,72337,11284
15,72780,9863
15,73225,10448
15,73668,12450
15,74113,14077
15,74557,20629
15,75002,32246
15,75445,49925
15,75890,74246
15,76333,114641
15,76778,162560
15,77222,225246
15,77667,302332
15,78110,374102
15,78555,438474
15,78998,489438
15,79443,532331
15,79887,538484
15,80332,525690
15,80775,486833
15,81220,445608
15,81663,389831
15,82108,324848
15,82552,277720
15,82997,222172
15,83442,181138
15,83885,150918
15,84330,121947
15,84773,102306
15,85218,86558
15,85662,72330
15,86107,65195
15,86550,55318
15,86995,49932
15,87438,43811
15,87883,39917
15,88327,35989
15,88772,30927
15,89215,29517
15,89660,26474
15,90103,24481
15,90548,23864
15,90992,20470
15,91437,19443
15,91880,18566
15,92325,16529
15,92768,15706
15,93213,14542
15,93657,14189
15,94102,13155
15,94545,13181
15,94990,12968
15,95435,13519
15,95878,11262
15,96323,9412
15,96767,10791
15,97212,9900
15,97655,11131
15,98100,11027
15,98543,11451
15,98988,9521
15,99432,9140
15,99877,9551
16,00320,9353
16,00765,9310
16,01208,9387
16,01653,8896
16,02097,8681
16,02542,8730
16,02985,8834
16,03430,9390
16,03873,8840
16,04318,9168
16,04762,9094
16,05207,10028
16,05650,7425
16,06095,9585
16,06538,8343
16,06983,7164
16,07427,8304
16,07872,8719
16,08317,8091
16,08760,7801
16,09205,8225
16,09648,7793
16,10093,9157
16,10537,7147
16,10982,8295
16,11425,7811
16,11870,8600
16,12313,7549
16,12758,9140
16,13202,9052
16,13647,8518
16,14090,7459
16,14535,9142
16,14978,8373
16,15423,8222
16,15867,7853
16,16312,8477
16,16755,7449
16,17200,8160
16,17643,7047
16,18088,9244
16,18532,7491
16,18977,7381
16,19420,8295
16,19865,8342
16,20310,7728
16,20753,8581
16,21198,9124
16,21642,13005
16,22087,16045
16,22530,25125
16,22975,36084
16,23418,56967
16,23863,86989
16,24307,130716
16,24752,178927
16,25195,240678
16,25640,311464
16,26083,370225
16,26528,431947
16,26972,473063
16,27417,499787
16,27860,512735
16,28305,488138
16,28748,457824
16,29193,408109
16,29637,363501
16,30082,303310
16,30525,252160
16,30970,207017
16,31413,171944
16,31858,138860
16,32303,111804
16,32747,95062
16,33192,77895
16,33635,67806
16,34080,56377
16,34523,50634
16,34968,43311
16,35412,40261
16,35857,34242
16,36300,32084
16,36745,29490
16,37188,26153
16,37633,23496
16,38077,22418
16,38522,20254
16,38965,18749
16,39410,18865
16,39853,17702
16,40298,15691
16,40742,14905
16,41187,13828
16,41630,14169
16,42075,13318
16,42518,12547
16,42963,11707
16,43407,12001
16,43852,11234
16,44297,11293
16,44740,11844
16,45185,10891
16,45628,10061
16,46073,11453
16,46517,11921
16,46962,11177
16,47405,10859
16,47850,10593
16,48293,9585
16,48738,9601
16,49182,9504
16,49627,9849
16,50070,9999
16,50515,10966
16,50958,9623
16,51403,9619
16,51847,8661
16,52292,9240
16,52735,8711
16,53180,8621
16,53623,8972
16,54068,7620
16,54512,8241
16,54957,7653
16,55400,7656
16,55845,8414
16,56290,7711
16,56733,8591
16,57178,7819
16,57622,7850
16,58067,7401
16,58510,8896
16,58955,7397
16,59398,7423
16,59843,7351
16,60287,7221
16,60732,7620
16,61175,7181
16,61620,8300
16,62063,7616
16,62508,6986
16,62952,7162
16,63397,7222
16,63840,7586
16,64285,7069
16,64728,6973
16,65173,7272
16,65617,6694
16,66062,7380
16,66505,8256
16,66950,7079
16,67393,7316
16,67838,7117
16,68283,7094
16,68727,7255
16,69172,7501
16,69615,7102
16,70060,7214
16,70503,7793
16,70948,8247
16,71392,7709
16,71837,7509
16,72280,6592
16,72725,8476
16,73168,7735
16,73613,8147
16,74057,7136
16,74502,7437
16,74945,7022
16,75390,7452
16,75833,7359
16,76278,7798
16,76722,6371
16,77167,7848
16,77610,6784
16,78055,7546
16,78498,6674
16,78943,7509
16,79387,6800
16,79832,7832
16,80275,7778
16,80720,7032
16,81165,7133
16,81608,6652
16,82053,6688
16,82497,7583
16,82942,7818
16,83385,7055
16,83830,6962
16,84273,6884
16,84718,7850
16,85162,6942
16,85607,6815
16,86050,6760
16,86495,7445
16,86938,6857
16,87383,6696
16,87827,7242
16,88272,6960
16,88715,7703
16,89160,7586
16,89603,7801
16,90048,8828
16,90492,12366
16,90937,17663
16,91380,24835
16,91825,40040
16,92268,62598
16,92713,93065
16,93158,134188
16,93602,186604
16,94047,241089
16,94490,303808
16,94935,367333
16,95378,413022
16,95823,448666
16,96267,453926
16,96712,457516
16,97155,432891
16,97600,399829
16,98043,356235
16,98488,308463
16,98932,271277
16,99377,241057
16,99820,226495
17,00265,225202
17,00708,247716
17,01153,286467
17,01597,352272
17,02042,447102
17,02485,552450
17,02930,673272
17,03373,817520
17,03818,977019
17,04262,1125553
17,04707,1238863
17,05152,1329504
17,05595,1348090
17,06040,1329895
17,06483,1229273
17,06928,1081511
17,07372,922030
17,07817,768201
17,08260,614661
17,08705,503138
17,09148,401246
17,09593,326414
17,10037,267185
17,10482,223262
17,10925,185519
17,11370,157255
17,11813,139692
17,12258,123503
17,12702,108533
17,13147,94904
17,13590,82652
17,14035,77365
17,14478,68131
17,14923,62364
17,15367,58114
17,15812,53562
17,16255,47834
17,16700,42992
17,17145,43452
17,17588,40820
17,18033,35893
17,18477,33070
17,18922,33297
17,19365,30092
17,19810,29831
17,20253,27026
17,20698,25749
17,21142,23999
17,21587,23044
17,22030,23727
17,22475,21404
17,22918,21265
17,23363,20536
17,23807,20450
17,24252,17778
17,24695,18421
17,25140,17074
17,25583,15933
17,26028,15920
17,26472,15139
17,26917,16375
17,27360,15991
17,27805,14859
17,28248,15755
17,28693,13697
17,29138,14552
17,29582,12903
17,30027,13572
17,30470,13157
17,30915,13110
17,31358,12082
17,31803,12428
17,32247,11649
17,32692,11125
17,33135,11088
17,33580,12794
17,34023,13254
17,34468,16878
17,34912,20363
17,35357,29498
17,35800,43385
17,36245,62600
17,36688,92225
17,37133,129417
17,37577,175824
17,38022,237136
17,38465,294431
17,38910,357003
17,39353,395646
17,39798,435058
17,40242,443380
17,40687,445245
17,41132,423699
17,41575,388984
17,42020,343796
17,42463,297898
17,42908,253428
17,43352,208178
17,43797,172956
17,44240,141726
17,44685,118026
17,45128,99149
17,45573,80618
17,46017,68904
17,46462,60003
17,46905,51576
17,47350,44038
17,47793,41167
17,48238,37072
17,48682,32398
17,49127,30416
17,49570,28020
17,50015,24540
17,50458,24597
17,50903,21909
17,51347,20381
17,51792,19811
17,52235,19347
17,52680,19195
17,53123,16670
17,53568,16469
17,54013,15697
17,54457,15115
17,54902,16105
17,55345,14369
17,55790,13857
17,56233,13078
17,56678,13419
17,57122,13272
17,57567,13235
17,58010,15652
17,58455,18061
17,58898,21246
17,59343,32175
17,59787,45142
17,60232,66841
17,60675,102725
17,61120,143385
17,61563,202955
17,62008,271620
17,62452,344623
17,62897,426799
17,63340,496074
17,63785,554345
17,64228,585070
17,64673,606222
17,65117,590092
17,65562,554448
17,66007,494687
17,66450,431930
17,66895,366572
17,67338,303297
17,67783,248768
17,68227,204998
17,68672,167022
17,69115,138986
17,69560,114641
17,70003,97604
17,70448,82202
17,70892,69831
17,71337,63723
17,71780,54884
17,72225,47557
17,72668,42888
17,73113,39995
17,73557,35607
17,74002,33998
17,74445,31293
17,74890,31801
17,75333,28424
17,75778,24999
17,76222,25884
17,76667,22132
17,77110,23226
17,77555,21225
17,78000,20153
17,78443,18656
17,78888,17426
17,79332,17704
17,79777,17339
17,80220,15878
17,80665,16075
17,81108,15234
17,81553,15357
17,81997,13680
17,82442,13885
17,82885,12345
17,83330,11955
17,83773,11147
17,84218,11854
17,84662,11650
17,85107,12152
17,85550,10468
17,85995,11101
17,86438,11683
17,86883,11220
17,87327,9444
17,87772,10900
17,88215,11163
17,88660,9578
17,89103,9363
17,89548,9069
17,89993,9937
17,90437,9009
17,90882,10593
17,91325,9768
17,91770,9619
17,92213,8914
17,92658,8103
17,93102,9272
17,93547,9521
17,93990,10153
17,94435,10304
17,94878,8281
17,95323,8250
17,95767,8939
17,96212,8554
17,96655,10048
17,97100,8424
17,97543,10213
17,97988,8538
17,98432,8468
17,98877,9139
17,99320,7638
17,99765,9279
18,00208,8492
18,00653,8129
18,01097,8795
18,01542,8510
18,01987,8074
18,02430,8366
18,02875,8779
18,03318,8424
18,03763,8033
18,04207,7304
18,04652,8017
18,05095,8195
18,05540,7533
18,05983,8137
18,06428,9029
18,06872,7792
18,07317,7684
18,07760,7830
18,08205,8315
18,08648,8567
18,09093,7275
18,09537,8995
18,09982,7698
18,10425,7968
18,10870,9275
18,11313,8460
18,11758,9095
18,12202,9212
18,12647,11663
18,13090,16218
18,13535,23347
18,13980,37488
18,14423,56626
18,14868,90789
18,15312,134840
18,15757,194754
18,16200,259783
18,16645,349186
18,17088,434733
18,17533,513646
18,17977,597413
18,18422,649899
18,18865,672724
18,19310,666088
18,19753,633832
18,20198,570886
18,20642,500595
18,21087,426519
18,21530,350011
18,21975,287867
18,22418,234845
18,22863,195209
18,23307,159014
18,23752,132495
18,24195,109060
18,24640,93196
18,25083,85476
18,25528,73576
18,25972,62622
18,26417,56867
18,26862,51154
18,27305,43675
18,27750,41061
18,28193,37148
18,28638,34147
18,29082,32077
18,29527,28455
18,29970,27978
18,30415,26021
18,30858,25170
18,31303,25008
18,31747,21814
18,32192,21269
18,32635,21864
18,33080,20047
18,33523,19925
18,33968,19307
18,34412,17670
18,34857,18732
18,35300,16160
18,35745,18027
18,36188,16758
18,36633,15858
18,37077,16123
18,37522,14775
18,37965,15678
18,38410,14408
18,38855,13606
18,39298,12941
18,39743,12903
18,40187,11923
18,40632,12713
18,41075,12056
18,41520,12332
18,41963,12237
18,42408,11668
18,42852,9979
18,43297,12329
18,43740,10646
18,44185,11337
18,44628,10554
18,45073,11862
18,45517,10716
18,45962,11005
18,46405,10662
18,46850,10292
18,47293,10399
18,47738,10609
18,48182,10035
18,48627,11139
18,49070,10234
18,49515,9808
18,49958,10412
18,50403,9864
18,50848,8585
18,51292,10690
18,51737,10491
18,52180,12442
18,52625,16376
18,53068,19063
18,53513,26970
18,53957,40597
18,54402,62782
18,54845,92963
18,55290,134381
18,55733,187397
18,56178,248588
18,56622,315831
18,57067,381945
18,57510,449133
18,57955,482960
18,58398,511882
18,58843,517883
18,59287,510122
18,59732,463285
18,60175,421905
18,60620,365787
18,61063,307813
18,61508,261885
18,61952,209131
18,62397,174988
18,62842,142045
18,63285,118570
18,63730,98299
18,64173,84598
18,64618,73575
18,65062,63872
18,65507,54502
18,65950,50411
18,66395,44818
18,66838,39906
18,67283,37289
18,67727,32626
18,68172,30620
18,68615,27629
18,69060,27722
18,69503,25813
18,69948,23275
18,70392,23458
18,70837,20652
18,71280,19310
18,71725,19427
18,72168,19004
18,72613,17100
18,73057,17869
18,73502,15136
18,73945,16111
18,74390,15182
18,74835,14739
18,75278,14137
18,75723,15029
18,76167,13899
18,76612,13829
18,77055,13262
18,77500,13804
18,77943,12936
18,78388,12317
18,78832,12932
18,79277,12558
18,79720,12156
18,80165,12171
18,80608,11236
18,81053,11308
18,81497,11695
18,81942,11408
18,82385,9850
18,82830,9867
18,83273,10750
18,83718,11083
18,84162,10788
18,84607,10744
18,85050,10254
18,85495,9912
18,85938,10124
18,86383,11012
18,86828,9173
18,87272,10833
18,87717,9355
18,88160,11058
18,88605,9855
18,89048,9346
18,89493,8494
18,89937,9758
18,90382,10576
18,90825,9262
18,91270,9476
18,91713,9596
18,92158,9554
18,92602,9227
18,93047,9055
18,93490,8965
18,93935,8787
18,94378,8733
18,94823,8813
18,95267,8713
18,95712,9260
18,96155,9537
18,96600,8615
18,97043,9513
18,97488,9016
18,97932,10070
18,98377,9785
18,98820,9780
18,99265,10417
18,99710,9306
19,00153,8995
19,00598,8718
19,01042,8688
19,01487,9804
19,01930,8696
19,02375,9369
19,02818,9333
19,03263,8372
19,03707,8153
19,04152,8771
19,04595,8812
19,05040,10132
19,05483,9961
19,05928,8959
19,06372,9395
19,06817,9797
19,07260,9648
19,07705,9216
19,08148,8408
19,08593,9174
19,09037,8237
19,09482,9361
19,09925,8520
19,10370,8801
19,10813,9280
19,11258,9953
19,11703,8365
19,12147,9176
19,12592,9965
19,13035,10060
19,13480,9593
19,13923,10765
19,14368,10708
19,14812,10405
19,15257,11369
19,15700,9753
19,16145,10216
19,16588,10030
19,17033,10549
19,17477,12035
19,17922,11226
19,18365,15416
19,18810,17173
19,19253,25855
19,19698,36531
19,20142,54733
19,20587,80669
19,21030,122503
19,21475,165434
19,21918,222439
19,22363,287380
19,22807,352359
19,23252,411040
19,23697,451645
19,24140,487099
19,24585,498643
19,25028,499012
19,25473,482176
19,25917,475804
19,26362,473212
19,26805,480063
19,27250,503075
19,27693,545584
19,28138,630503
19,28582,716875
19,29027,826160
19,29470,959329
19,29915,1078272
19,30358,1208929
19,30803,1319297
19,31247,1386917
19,31692,1402307
19,32135,1343862
19,32580,1217871
19,33023,1063586
19,33468,905042
19,33912,736298
19,34357,603812
19,34800,491646
19,35245,400017
19,35690,325933
19,36133,275468
19,36578,230794
19,37022,194270
19,37467,168260
19,37910,148103
19,38355,130153
19,38798,117031
19,39243,108200
19,39687,96570
19,40132,88788
19,40575,80963
19,41020,74919
19,41463,69276
19,41908,64553
19,42352,57941
19,42797,54872
19,43240,51125
19,43685,48535
19,44128,46209
19,44573,42721
19,45017,41021
19,45462,38859
19,45905,38584
19,46350,37877
19,46793,33026
19,47238,32211
19,47683,31382
19,48127,32020
19,48572,29277
19,49015,27580
19,49460,26976
19,49903,27108
19,50348,26287
19,50792,25253
19,51237,22949
19,51680,23256
19,52125,22889
19,52568,21234
19,53013,22241
19,53457,22022
19,53902,22224
19,54345,20434
19,54790,20101
19,55233,20254
19,55678,19478
19,56122,18716
19,56567,17412
19,57010,18119
19,57455,17413
19,57898,17144
19,58343,18470
19,58787,18015
19,59232,17893
19,59677,20262
19,60120,21238
19,60565,25336
19,61008,29735
19,61453,41015
19,61897,56544
19,62342,82111
19,62785,116971
19,63230,163011
19,63673,215026
19,64118,278948
19,64562,344013
19,65007,399785
19,65450,448544
19,65895,479760
19,66338,487148
19,66783,473674
19,67227,455768
19,67672,424559
19,68115,388850
19,68560,353317
19,69003,329884
19,69448,316348
19,69892,320859
19,70337,333957
19,70780,361428
19,71225,403214
19,71668,436340
19,72113,466894
19,72558,482909
19,73002,480850
19,73447,468909
19,73890,441680
19,74335,399433
19,74778,357795
19,75223,312967
19,75667,272014
19,76112,227547
19,76555,188832
19,77000,158853
19,77443,136963
19,77888,115186
19,78332,98281
19,78777,84606
19,79220,75100
19,79665,67046
19,80108,60376
19,80553,57117
19,80997,54235
19,81442,52551
19,81885,54835
19,82330,64363
19,82773,82652
19,83218,100142
19,83662,129927
19,84107,180686
19,84552,236795
19,84995,302983
19,85440,382429
19,85883,457827
19,86328,536755
19,86772,593099
19,87217,623791
19,87660,624164
19,88105,597640
19,88548,558416
19,88993,508643
19,89437,447122
19,89882,376400
19,90325,313291
19,90770,260723
19,91213,220197
19,91658,186327
19,92102,156318
19,92547,131947
19,92990,114193
19,93435,99590
19,93878,89111
19,94323,78805
19,94767,70365
19,95212,64190
19,95655,59243
19,96100,55910
19,96545,49257
19,96988,46539
19,97433,44591
19,97877,41778
19,98322,39503
19,98765,37783
19,99210,34716
19,99653,31384
20,00098,31501
20,00542,32605
20,00987,29926
20,01430,28016
20,01875,25990
20,02318,24763
20,02763,24355
20,03207,23823
20,03652,22855
20,04095,21721
20,04540,21387
20,04983,20459
20,05428,19203
20,05872,19853
20,06317,18371
20,06760,18221
20,07205,18358
20,07648,18452
20,08093,17667
20,08538,16540
20,08982,15434
20,09427,17912
20,09870,17224
20,10315,17710
20,10758,16218
20,11203,16802
20,11647,15121
20,12092,15537
20,12535,16109
20,12980,14654
20,13423,15616
20,13868,16276
20,14312,13130
20,14757,14019
20,15200,14622
20,15645,13056
20,16088,14249
20,16533,13429
20,16977,13124
20,17422,13007
20,17865,12592
20,18310,11756
20,18753,13619
20,19198,12858
20,19642,12940
20,20087,12684
20,20532,13119
20,20975,12244
20,21420,11970
20,21863,13008
20,22308,12877
20,22752,11943
20,23197,11480
20,23640,13324
20,24085,10781
20,24528,12208
20,24973,13699
20,25417,12815
20,25862,11838
20,26305,13051
20,26750,12002
20,27193,12955
20,27638,12966
20,28082,12932
20,28527,10500
20,28970,11943
20,29415,12742
20,29858,11717
20,30303,12831
20,30747,14278
20,31192,15881
20,31635,17287
20,32080,22323
20,32523,31808
20,32968,46475
20,33413,68448
20,33857,99720
20,34302,144950
20,34745,200141
20,35190,275069
20,35633,354925
20,36078,444008
20,36522,531742
20,36967,609766
20,37410,657294
20,37855,685368
20,38298,676056
20,38743,641027
20,39187,572132
20,39632,502514
20,40075,427041
20,40520,351574
20,40963,294925
20,41408,240892
20,41852,203584
20,42297,172644
20,42740,144516
20,43185,124783
20,43628,109322
20,44073,98342
20,44517,86917
20,44962,79884
20,45407,71524
20,45850,65969
20,46295,59317
20,46738,54764
20,47183,52357
20,47627,48812
20,48072,44086
20,48515,42420
20,48960,39100
20,49403,37311
20,49848,35282
20,50292,34509
20,50737,32972
20,51180,30898
20,51625,31379
20,52068,28506
20,52513,26356
20,52957,26941
20,53402,26535
20,53845,25501
20,54290,23138
20,54733,24669
20,55178,23360
20,55622,21303
20,56067,21335
20,56510,21097
20,56955,19998
20,57400,19972
20,57843,20056
20,58288,19106
20,58732,17004
20,59177,17893
20,59620,18194
20,60065,18961
20,60508,16940
20,60953,16233
20,61397,17336
20,61842,17158
20,62285,17785
20,62730,16473
20,63173,16478
20,63618,16342
20,64062,17302
20,64507,16665
20,64950,17834
20,65395,18777
20,65838,18682
20,66283,18083
20,66727,19171
20,67172,15303
20,67615,17207
20,68060,17395
20,68503,16102
20,68948,14533
20,69393,13999
20,69837,15238
20,70282,16406
20,70725,17758
20,71170,21927
20,71613,25699
20,72058,34961
20,72502,49630
20,72947,73123
20,73390,108563
20,73835,151455
20,74278,209667
20,74723,277945
20,75167,352964
20,75612,417863
20,76055,480118
20,76500,519081
20,76943,540090
20,77388,543670
20,77832,523819
20,78277,490666
20,78720,454617
20,79165,422412
20,79608,394652
20,80053,385988
20,80497,393487
20,80942,408246
20,81387,420473
20,81830,443054
20,82275,459416
20,82718,469808
20,83163,473354
20,83607,450398
20,84052,423987
20,84495,390127
20,84940,349071
20,85383,303819
20,85828,263063
20,86272,221462
20,86717,195016
20,87160,159093
20,87605,139101
20,88048,118687
20,88493,102368
20,88937,90113
20,89382,78252
20,89825,71691
20,90270,63657
20,90713,56972
20,91158,54114
20,91602,47671
20,92047,45764
20,92490,43238
20,92935,38941
20,93380,38617
20,93823,37138
20,94268,33897
20,94712,31798
20,95157,30283
20,95600,28828
20,96045,27300
20,96488,27195
20,96933,25437
20,97377,27048
20,97822,26269
20,98265,22949
20,98710,22414
20,99153,21210
20,99598,21129
21,00042,21719
21,00487,20689
21,00930,21712
21,01375,20591
21,01818,20341
21,02263,20299
21,02707,18946
21,03152,18923
21,03595,19362
21,04040,17087
21,04483,18004
21,04928,18644
21,05372,18333
21,05817,16717
21,06262,17645
21,06705,16257
21,07150,17254
21,07593,16131
21,08038,16852
21,08482,16811
21,08927,16182
21,09370,15214
21,09815,15883
21,10258,15159
21,10703,15231
21,11147,15689
21,11592,14026
21,12035,13174
21,12480,14973
21,12923,14403
21,13368,13473
21,13812,14199
21,14257,13815
21,14700,14350
21,15145,14994
21,15588,13470
21,16033,13578
21,16477,13710
21,16922,14305
21,17365,12522
21,17810,12121
21,18255,13712
21,18698,14015
21,19143,13463
21,19587,14124
21,20032,14167
21,20475,12755
21,20920,14023
21,21363,14370
21,21808,13386
21,22252,13112
21,22697,13336
21,23140,13854
21,23585,13391
21,24028,13954
21,24473,13734
21,24917,13461
21,25362,13649
21,25805,12721
21,26250,12960
21,26693,13097
21,27138,12220
21,27582,13369
21,28027,12844
21,28470,13057
21,28915,12047
21,29358,13176
21,29803,12952
21,30248,11922
21,30692,12414
21,31137,13538
21,31580,12573
21,32025,13462
21,32468,13693
21,32913,14764
21,33357,14322
21,33802,12526
21,34245,12812
21,34690,14658
21,35133,13505
21,35578,15129
21,36022,16505
21,36467,18685
21,36910,23242
21,37355,29904
21,37798,44807
21,38243,61815
21,38687,91027
21,39132,129697
21,39575,182274
21,40020,254901
21,40463,335199
21,40908,433409
21,41352,542603
21,41797,669833
21,42242,806191
21,42685,942129
21,43130,1082113
21,43573,1199700
21,44018,1275666
21,44462,1308451
21,44907,1259833
21,45350,1171925
21,45795,1049951
21,46238,887836
21,46683,739007
21,47127,607079
21,47572,496444
21,48015,403694
21,48460,335747
21,48903,284724
21,49348,238813
21,49792,208242
21,50237,182991
21,50680,159280
21,51125,144635
21,51568,129355
21,52013,116079
21,52457,107111
21,52902,96573
21,53345,89019
21,53790,84464
21,54235,78924
21,54678,73356
21,55123,68794
21,55567,64718
21,56012,61029
21,56455,58012
21,56900,54797
21,57343,52149
21,57788,51889
21,58232,46283
21,58677,46633
21,59120,44606
21,59565,42018
21,60008,42421
21,60453,39939
21,60897,39022
21,61342,37778
21,61785,34720
21,62230,34276
21,62673,32431
21,63118,31460
21,63562,33319
21,64007,30746
21,64450,30716
21,64895,32318
21,65338,30148
21,65783,28289
21,66228,27140
21,66672,26954
21,67117,26989
21,67560,25360
21,68005,26298
21,68448,25273
21,68893,25098
21,69337,23806
21,69782,25607
21,70225,23797
21,70670,23642
21,71113,23235
21,71558,21999
21,72002,22670
21,72447,19770
21,72890,21064
21,73335,19946
21,73778,21758
21,74223,21353
21,74667,19637
21,75112,19469
21,75555,20390
21,76000,20356
21,76443,18539
21,76888,19468
21,77332,19040
21,77777,18653
21,78220,19015
21,78665,18698
21,79110,17372
21,79553,17557
21,79998,17128
21,80442,19771
21,80887,16714
21,81330,18148
21,81775,18372
21,82218,18330
21,82663,18003
21,83107,16813
21,83552,16702
21,83995,17563
21,84440,17002
21,84883,16293
21,85328,16752
21,85772,16927
21,86217,16249
21,86660,18148
21,87105,15255
21,87548,15887
21,87993,15627
21,88437,17177
21,88882,17182
21,89325,15983
21,89770,17396
21,90213,16998
21,90658,19094
21,91103,21779
21,91547,25955
21,91992,33823
21,92435,45421
21,92880,65034
21,93323,92803
21,93768,132042
21,94212,183996
21,94657,250548
21,95100,322760
21,95545,404204
21,95988,478625
21,96433,545276
21,96877,593925
21,97322,617227
21,97765,614536
21,98210,585712
21,98653,542054
21,99098,476190
21,99542,418558
21,99987,353303
22,00430,296866
22,00875,256006
22,01318,215786
22,01763,185872
22,02207,152977
22,02652,134235
22,03097,120427
22,03540,106223
22,03985,91836
22,04428,83618
22,04873,76369
22,05317,70071
22,05762,63802
22,06205,56801
22,06650,56488
22,07093,52044
22,07538,49812
22,07982,45937
22,08427,42484
22,08870,44518
22,09315,40172
22,09758,37750
22,10203,36019
22,10647,33254
22,11092,33161
22,11535,32996
22,11980,30644
22,12423,32702
22,12868,28855
22,13312,28587
22,13757,28242
22,14200,27064
22,14645,26732
22,15090,24476
22,15533,26969
22,15978,25779
22,16422,23834
22,16867,24726
22,17310,24635
22,17755,22549
22,18198,23077
22,18643,24283
22,19087,20571
22,19532,20900
22,19975,20821
22,20420,21164
22,20863,21132
22,21308,20911
22,21752,20948
22,22197,20365
22,22640,19939
22,23085,19787
22,23528,20152
22,23973,20252
22,24417,19282
22,24862,18575
22,25305,20018
22,25750,17906
22,26193,19744
22,26638,18970
22,27083,19679
22,27527,20092
22,27972,19775
22,28415,20818
22,28860,21325
22,29303,21094
22,29748,21723
22,30192,20832
22,30637,20730
22,31080,21417
22,31525,19309
22,31968,19047
22,32413,19417
22,32857,17281
22,33302,17729
22,33745,17695
22,34190,17622
22,34633,17751
22,35078,16357
22,35522,15805
22,35967,17547
22,36410,15820
22,36855,15977
22,37298,17536
22,37743,16681
22,38187,18567
22,38632,17637
22,39077,16675
22,39520,15254
22,39965,17244
22,40408,16156
22,40853,16138
22,41297,16612
22,41742,17797
22,42185,15634
22,42630,16691
22,43073,17320
22,43518,16797
22,43962,16267
22,44407,16443
22,44850,15711
22,45295,15712
22,45738,14979
22,46183,16078
22,46627,15699
22,47072,16671
22,47515,15850
22,47960,15115
22,48403,16357
22,48848,15135
22,49292,16700
22,49737,15104
22,50180,15313
22,50625,16557
22,51068,14543
22,51513,15143
22,51958,14905
22,52402,15877
22,52847,15674
22,53290,16127
22,53735,15649
22,54178,16821
22,54623,13860
22,55067,15223
22,55512,16359
22,55955,16509
22,56400,15037
22,56843,16417
22,57288,15996
22,57732,17517
22,58177,17574
22,58620,15746
22,59065,15704
22,59508,15949
22,59953,15743
22,60397,15902
22,60842,16652
22,61285,16182
22,61730,17605
22,62173,17374
22,62618,16889
22,63062,16666
22,63507,15894
22,63952,17720
22,64395,14958
22,64840,16656
22,65283,14525
22,65728,15803
22,66172,14447
22,66617,15665
22,67060,15329
22,67505,15404
22,67948,14953
22,68393,16195
22,68837,16086
22,69282,15422
22,69725,16357
22,70170,14612
22,70613,14923
22,71058,15496
22,71502,15938
22,71947,14372
22,72390,15712
22,72835,15773
22,73278,13786
22,73723,16159
22,74167,15468
22,74612,15623
22,75055,15802
22,75500,15816
22,75945,15288
22,76388,15411
22,76833,15363
22,77277,14884
22,77722,16096
22,78165,14208
22,78610,14690
22,79053,14486
22,79498,15485
22,79942,15786
22,80387,15512
22,80830,15780
22,81275,16862
22,81718,15357
22,82163,16122
22,82607,15474
22,83052,15175
22,83495,17280
22,83940,16438
22,84383,16331
22,84828,16599
22,85272,16314
22,85717,15353
22,86160,16037
22,86605,17226
22,87048,17539
22,87493,17094
22,87938,14468
22,88382,16452
22,88827,15990
22,89270,16514
22,89715,16752
22,90158,16593
22,90603,17502
22,91047,18385
22,91492,16419
22,91935,17444
22,92380,16965
22,92823,16784
22,93268,17168
22,93712,16357
22,94157,18827
22,94600,16689
22,95045,19534
22,95488,18926
22,95933,18719
22,96377,18417
22,96822,18290
22,97265,16749
22,97710,16452
22,98153,18597
22,98598,17112
22,99042,16556
22,99487,15977
22,99932,17281
23,00375,17464
23,00820,15408
23,01263,17097
23,01708,15433
23,02152,16653
23,02597,14634
23,03040,15275
23,03485,14013
23,03928,16396
23,04373,16413
23,04817,14851
23,05262,17220
23,05705,16329
23,06150,14262
23,06593,16761
23,07038,15653
23,07482,15078
23,07927,14941
23,08370,14480
23,08815,15190
23,09258,15116
23,09703,13914
23,10147,15841
23,10592,16122
23,11035,15755
23,11480,14724
23,11925,17070
23,12368,16989
23,12813,15642
23,13257,15939
23,13702,15612
23,14145,16836
23,14590,17428
23,15033,16219
23,15478,16450
23,15922,16550
23,16367,17641
23,16810,16433
23,17255,17074
23,17698,16490
23,18143,17046
23,18587,16784
23,19032,17093
23,19475,17002
23,19920,16283
23,20363,15680
23,20808,15711
23,21252,17886
23,21697,16365
23,22140,17934
23,22585,15964
23,23028,17286
23,23473,16567
23,23917,15530
23,24362,16031
23,24807,16324
23,25250,15790
23,25695,16502
23,26138,13824
23,26583,15819
23,27027,16373
23,27472,17033
23,27915,16243
23,28360,15473
23,28803,17090
23,29248,16669
23,29692,16838
23,30137,18166
23,30580,16843
23,31025,17830
23,31468,16349
23,31913,18150
23,32357,16283
23,32802,18934
23,33245,18489
23,33690,16237
23,34133,17176
23,34578,16368
23,35022,16888
23,35467,17381
23,35910,18037
23,36355,20335
23,36800,23077
23,37243,26918
23,37688,34480
23,38132,44548
23,38577,58952
23,39020,85484
23,39465,116462
23,39908,156844
23,40353,200213
23,40797,248157
23,41242,289609
23,41685,329471
23,42130,354681
23,42573,368952
23,43018,368028
23,43462,347492
23,43907,321446
23,44350,295305
23,44795,257668
23,45238,223973
23,45683,192979
23,46127,163083
23,46572,136249
23,47015,115543
23,47460,103934
23,47903,90442
23,48348,77301
23,48793,71867
23,49237,61023
23,49682,56789
23,50125,52216
23,50570,47873
23,51013,44968
23,51458,41299
23,51902,37787
23,52347,36518
23,52790,35792
23,53235,32923
23,53678,33852
23,54123,30259
23,54567,31713
23,55012,30421
23,55455,28971
23,55900,29250
23,56343,28203
23,56788,25921
23,57232,27163
23,57677,25953
23,58120,26947
23,58565,25526
23,59008,24941
23,59453,24474
23,59897,23974
23,60342,24944
23,60787,22205
23,61230,23428
23,61675,22659
23,62118,22520
23,62563,22320
23,63007,22777
23,63452,22179
23,63895,21781
23,64340,21994
23,64783,22782
23,65228,21198
23,65672,23305
23,66117,21909
23,66560,20182
23,67005,21540
23,67448,20637
23,67893,20769
23,68337,20496
23,68782,20042
23,69225,19773
23,69670,20484
23,70113,18599
23,70558,21822
23,71002,21111
23,71447,21707
23,71890,20281
23,72335,18615
23,72780,20176
23,73223,19830
23,73668,19719
23,74112,19906
23,74557,21295
23,75000,19411
23,75445,18498
23,75888,20634
23,76333,21404
23,76777,20555
23,77222,20676
23,77665,19597
23,78110,19835
23,78553,18100
23,78998,21297
23,79442,19690
23,79887,19996
23,80330,19740
23,80775,19051
23,81218,19355
23,81663,18800
23,82107,21167
23,82552,19835
23,82995,18902
23,83440,18001
23,83883,20399
23,84328,19234
