D:\MassHunter\GCMS\1\data\Amal\Constant flow\110C\110C_1ml-min_9C-min_3.D Tue Sep 17 14:43:12 2024
Start of data points
5,29088	180610
5,29500	173837
5,29913	179481
5,30325	170346
5,30737	160563
5,31150	159712
5,31562	157785
5,31973	156202
5,32387	152081
5,32798	151621
5,33210	147510
5,33623	146972
5,34035	146746
5,34447	142538
5,34860	140892
5,35272	137829
5,35683	133082
5,36097	134201
5,36508	134006
5,36920	130410
5,37332	133184
5,37745	132924
5,38157	129273
5,38568	125426
5,38982	126548
5,39393	126303
5,39805	122753
5,40218	121815
5,40630	119776
5,41042	119016
5,41455	117637
5,41867	115994
5,42278	118113
5,42692	113755
5,43103	117128
5,43515	112958
5,43928	113178
5,44340	114448
5,44752	108754
5,45165	109651
5,45577	111381
5,45988	107600
5,46400	105071
5,46813	110109
5,47225	106232
5,47637	108236
5,48050	105967
5,48462	103189
5,48873	106567
5,49287	107475
5,49698	104913
5,50110	104481
5,50523	102532
5,50935	108549
5,51347	106061
5,51760	106502
5,52172	104904
5,52583	106831
5,52997	110355
5,53408	110781
5,53820	108309
5,54233	109546
5,54645	109374
5,55057	106688
5,55468	107777
5,55882	109647
5,56293	110511
5,56705	107397
5,57118	106258
5,57530	110536
5,57942	110469
5,58355	112885
5,58767	112745
5,59178	114015
5,59592	112519
5,60003	111142
5,60415	110730
5,60828	110587
5,61240	112384
5,61652	111126
5,62065	108751
5,62477	105532
5,62888	105569
5,63302	106150
5,63713	107293
5,64125	103338
5,64537	104038
5,64950	102909
5,65362	106566
5,65773	101346
5,66187	102748
5,66598	100618
5,67010	99349
5,67423	96702
5,67835	94792
5,68247	94451
5,68660	100914
5,69072	105854
5,69483	127294
5,69897	167940
5,70308	241847
5,70720	363559
5,71133	526305
5,71545	711281
5,71957	911340
5,72370	1054181
5,72782	1157587
5,73193	1208869
5,73605	1229663
5,74018	1213737
5,74430	1166232
5,74842	1125710
5,75255	1069928
5,75667	1010066
5,76078	956479
5,76492	905489
5,76903	853086
5,77315	807766
5,77728	765825
5,78140	725971
5,78552	685597
5,78965	650368
5,79377	618727
5,79788	590359
5,80202	556121
5,80613	526659
5,81025	491606
5,81438	468488
5,81850	441756
5,82262	413681
5,82673	393941
5,83087	365853
5,83498	342744
5,83910	316135
5,84323	296145
5,84735	268020
5,85147	250989
5,85560	235527
5,85972	218762
5,86383	202709
5,86797	188855
5,87208	171845
5,87620	164371
5,88033	152099
5,88445	146834
5,88857	136101
5,89270	128653
5,89682	122921
5,90093	116294
5,90507	111996
5,90918	106596
5,91330	102840
5,91743	100039
5,92155	94494
5,92567	92534
5,92978	88638
5,93392	86824
5,93803	85020
5,94215	81615
5,94628	80849
5,95040	79010
5,95452	76788
5,95865	79529
5,96277	75939
5,96688	74182
5,97102	76477
5,97513	73827
5,97925	69881
5,98338	71080
5,98750	69671
5,99162	69169
5,99575	67861
5,99987	67820
6,00398	68656
6,00812	68571
6,01223	67965
6,01635	67714
6,02047	66360
6,02460	67075
6,02872	66898
6,03283	65716
6,03697	65514
6,04108	65097
6,04520	65685
6,04933	65088
6,05345	64438
6,05757	64361
6,06170	61673
6,06582	62008
6,06993	60380
6,07407	62721
6,07818	62747
6,08230	62201
6,08643	59411
6,09055	60432
6,09467	59920
6,09880	59955
6,10292	60169
6,10703	59968
6,11115	62957
6,11528	59140
6,11940	59565
6,12352	58226
6,12765	59046
6,13177	59047
6,13588	58163
6,14002	58555
6,14413	62146
6,14825	61161
6,15238	60252
6,15650	60412
6,16062	59576
6,16475	59013
6,16887	57474
6,17298	57697
6,17712	56948
6,18123	56802
6,18535	57025
6,18948	57659
6,19360	57311
6,19772	56786
6,20183	57962
6,20597	53285
6,21008	56533
6,21420	55651
6,21833	55163
6,22245	54950
6,22657	56003
6,23070	54389
6,23482	54002
6,23893	54002
6,24307	54016
6,24718	54902
6,25130	54090
6,25543	52735
6,25955	53394
6,26367	54727
6,26780	51373
6,27192	54763
6,27603	52875
6,28017	54462
6,28428	52303
6,28840	52441
6,29252	52294
6,29665	50042
6,30077	51532
6,30488	50536
6,30902	48815
6,31313	51556
6,31725	50860
6,32138	50192
6,32550	47833
6,32962	50326
6,33375	48613
6,33787	48301
6,34198	47125
6,34612	47839
6,35023	46813
6,35435	45099
6,35848	46655
6,36260	46808
6,36672	46995
6,37085	47001
6,37497	46231
6,37908	45020
6,38320	46045
6,38733	45284
6,39145	45491
6,39557	46237
6,39970	44660
6,40382	45320
6,40793	42283
6,41207	43199
6,41618	44032
6,42030	40855
6,42443	43609
6,42855	42472
6,43267	42451
6,43680	42678
6,44092	43566
6,44503	45500
6,44917	43725
6,45328	43054
6,45740	44134
6,46153	45772
6,46565	45792
6,46977	45659
6,47388	43140
6,47802	44090
6,48213	45061
6,48625	42777
6,49038	42517
6,49450	43562
6,49862	43543
6,50275	41764
6,50687	41683
6,51098	39703
6,51512	41195
6,51923	40504
6,52335	40696
6,52748	39609
6,53160	39342
6,53572	40647
6,53985	38192
6,54397	40379
6,54808	38393
6,55222	40145
6,55633	39275
6,56045	39573
6,56457	37353
6,56870	38785
6,57282	40670
6,57693	38471
6,58107	38169
6,58518	37844
6,58930	40781
6,59343	38001
6,59755	38099
6,60167	37327
6,60580	37805
6,60992	39751
6,61403	37183
6,61817	39086
6,62228	37792
6,62640	36995
6,63053	38792
6,63465	36359
6,63877	39030
6,64290	38896
6,64702	38057
6,65113	36778
6,65525	37803
6,65938	34391
6,66350	37492
6,66762	38002
6,67175	37968
6,67587	36651
6,67998	36567
6,68412	37612
6,68823	35006
6,69235	35643
6,69648	34142
6,70060	35777
6,70472	35874
6,70885	34040
6,71297	36429
6,71708	35742
6,72122	34860
6,72533	35065
6,72945	34508
6,73358	33066
6,73770	35168
6,74182	35669
6,74593	34167
6,75007	33792
6,75418	33624
6,75830	36323
6,76243	34229
6,76655	34479
6,77067	35351
6,77480	34419
6,77892	33042
6,78303	34034
6,78717	35261
6,79128	35469
6,79540	34783
6,79953	34874
6,80365	34211
6,80777	36614
6,81190	34719
6,81602	35403
6,82013	39458
6,82427	48031
6,82838	61627
6,83250	93208
6,83662	159132
6,84075	270201
6,84487	430400
6,84898	648748
6,85312	903564
6,85723	1173944
6,86135	1410885
6,86548	1592802
6,86960	1708778
6,87372	1774983
6,87785	1765724
6,88197	1724559
6,88608	1644764
6,89022	1548742
6,89433	1460945
6,89845	1357234
6,90258	1247562
6,90670	1155633
6,91082	1066843
6,91495	974853
6,91907	890120
6,92318	800442
6,92730	711289
6,93143	651608
6,93555	573483
6,93967	506049
6,94380	450905
6,94792	391250
6,95203	341399
6,95617	299041
6,96028	260718
6,96440	234020
6,96853	207447
6,97265	181000
6,97677	159805
6,98090	142614
6,98502	129169
6,98913	115648
6,99327	107865
6,99738	96393
7,00150	88495
7,00563	81406
7,00975	74418
7,01387	70826
7,01798	66342
7,02212	63874
7,02623	62127
7,03035	59618
7,03448	53748
7,03860	53283
7,04272	51837
7,04685	48543
7,05097	47524
7,05508	46387
7,05922	46888
7,06333	45194
7,06745	44633
7,07158	42734
7,07570	42616
7,07982	42549
7,08395	43314
7,08807	40269
7,09218	40864
7,09632	41204
7,10043	38820
7,10455	38400
7,10867	37123
7,11280	38603
7,11692	37879
7,12103	37774
7,12517	37938
7,12928	36039
7,13340	35417
7,13753	35949
7,14165	34872
7,14577	34362
7,14990	36076
7,15402	33606
7,15813	34862
7,16227	35879
7,16638	34511
7,17050	34419
7,17463	33373
7,17875	34201
7,18287	33128
7,18700	35470
7,19112	35183
7,19523	33329
7,19935	33053
7,20348	32983
7,20760	32146
7,21172	32193
7,21585	32187
7,21997	33053
7,22408	31987
7,22822	32774
7,23233	32281
7,23645	33670
7,24058	33448
7,24470	32831
7,24882	30672
7,25295	30422
7,25707	31527
7,26118	32274
7,26532	31528
7,26943	32278
7,27355	31322
7,27768	32722
7,28180	31605
7,28592	32084
7,29003	31207
7,29417	32300
7,29828	30079
7,30240	29294
7,30653	29606
7,31065	30144
7,31477	28171
7,31890	29965
7,32302	28717
7,32713	29819
7,33127	28907
7,33538	28449
7,33950	27476
7,34363	28666
7,34775	28391
7,35187	28318
7,35600	30081
7,36012	28501
7,36423	27388
7,36837	28116
7,37248	27442
7,37660	25807
7,38072	28370
7,38485	28173
7,38897	28691
7,39308	29130
7,39722	28644
7,40133	28299
7,40545	27509
7,40958	28302
7,41370	28838
7,41782	28456
7,42195	26092
7,42607	26952
7,43018	28126
7,43432	26861
7,43843	25511
7,44255	29436
7,44668	25476
7,45080	26942
7,45492	26016
7,45905	26087
7,46317	24778
7,46728	26337
7,47142	25083
7,47553	27106
7,47965	26370
7,48377	25096
7,48790	25470
7,49202	25017
7,49613	25325
7,50027	25578
7,50438	26278
7,50850	25288
7,51263	27928
7,51675	30936
7,52087	35730
7,52500	49133
7,52912	77680
7,53323	125998
7,53737	201926
7,54148	318236
7,54560	454553
7,54973	616035
7,55385	776804
7,55797	913977
7,56210	1021254
7,56622	1075976
7,57033	1089556
7,57445	1083418
7,57858	1040822
7,58270	975822
7,58682	896444
7,59095	821829
7,59507	750834
7,59918	663012
7,60332	593592
7,60743	515153
7,61155	457296
7,61568	392255
7,61980	337752
7,62392	289176
7,62805	245904
7,63217	210301
7,63628	180986
7,64042	155561
7,64453	136698
7,64865	119805
7,65278	105874
7,65690	94598
7,66102	83593
7,66513	74611
7,66927	69218
7,67338	64545
7,67750	57816
7,68163	55233
7,68575	50492
7,68987	49974
7,69400	47010
7,69812	45040
7,70223	40019
7,70637	39810
7,71048	40205
7,71460	41189
7,71873	36743
7,72285	37105
7,72697	35986
7,73110	34871
7,73522	32100
7,73933	32850
7,74347	31215
7,74758	31405
7,75170	31245
7,75582	29822
7,75995	29501
7,76407	28786
7,76818	30576
7,77232	29097
7,77643	30432
7,78055	31760
7,78468	30005
7,78880	28775
7,79292	31787
7,79705	32745
7,80117	31635
7,80528	34186
7,80942	34226
7,81353	35707
7,81765	34258
7,82178	34054
7,82590	35343
7,83002	33906
7,83415	35266
7,83827	36002
7,84238	34999
7,84650	32896
7,85063	32773
7,85475	31156
7,85887	29857
7,86300	30404
7,86712	29734
7,87123	26840
7,87537	29039
7,87948	26351
7,88360	25380
7,88773	26157
7,89185	25666
7,89597	24985
7,90010	24669
7,90422	23484
7,90833	24756
7,91247	23990
7,91658	22661
7,92070	24836
7,92483	23625
7,92895	22702
7,93307	23760
7,93718	24613
7,94132	22110
7,94543	23704
7,94955	22642
7,95368	22948
7,95780	22598
7,96192	22667
7,96605	22537
7,97017	20287
7,97428	21887
7,97842	21465
7,98253	21125
7,98665	22237
7,99078	22311
7,99490	22979
7,99902	23490
8,00315	20852
8,00727	20707
8,01138	21975
8,01552	22311
8,01963	22073
8,02375	22272
8,02787	23137
8,03200	21423
8,03612	21868
8,04023	20447
8,04437	20933
8,04848	22174
8,05260	20342
8,05673	21711
8,06085	20288
8,06497	21373
8,06910	20611
8,07322	22752
8,07733	21577
8,08147	21149
8,08558	21870
8,08970	21205
8,09383	19257
8,09795	20808
8,10207	22818
8,10620	20120
8,11032	20633
8,11443	21949
8,11855	21608
8,12268	20445
8,12680	21236
8,13092	19783
8,13505	20571
8,13917	20127
8,14328	20633
8,14742	21165
8,15153	21141
8,15565	20639
8,15978	21433
8,16390	19764
8,16802	20277
8,17215	22083
8,17627	22028
8,18038	21233
8,18452	22623
8,18863	21862
8,19275	21345
8,19688	21101
8,20100	21894
8,20512	20784
8,20923	20846
8,21337	21173
8,21748	20434
8,22160	20303
8,22573	20608
8,22985	19137
8,23397	20242
8,23810	21284
8,24222	21518
8,24633	18319
8,25047	20590
8,25458	19713
8,25870	22478
8,26283	28198
8,26695	39136
8,27107	66981
8,27520	118427
8,27932	217860
8,28343	382362
8,28757	627267
8,29168	941897
8,29580	1330147
8,29992	1738058
8,30405	2124078
8,30817	2389934
8,31228	2572997
8,31642	2625104
8,32053	2578378
8,32465	2468781
8,32878	2280458
8,33290	2051796
8,33702	1812144
8,34115	1574269
8,34527	1336486
8,34938	1118280
8,35352	935781
8,35763	756951
8,36175	622297
8,36588	510360
8,37000	421063
8,37412	344641
8,37825	290095
8,38237	240185
8,38648	208180
8,39060	177272
8,39473	159527
8,39885	136166
8,40297	123182
8,40710	109100
8,41122	96220
8,41533	89556
8,41947	80016
8,42358	77482
8,42770	70000
8,43183	65183
8,43595	59850
8,44007	58925
8,44420	56177
8,44832	50064
8,45243	49566
8,45657	47430
8,46068	45480
8,46480	43532
8,46893	40642
8,47305	39728
8,47717	37627
8,48128	39159
8,48542	38534
8,48953	37864
8,49365	35817
8,49778	36472
8,50190	32829
8,50602	34743
8,51015	31954
8,51427	33104
8,51838	30166
8,52252	31118
8,52663	30512
8,53075	29088
8,53488	27497
8,53900	28459
8,54312	28266
8,54725	27080
8,55137	26067
8,55548	26810
8,55962	26288
8,56373	26163
8,56785	28077
8,57197	25938
8,57610	25435
8,58022	24888
8,58433	24644
8,58847	26481
8,59258	23194
8,59670	24880
8,60083	23325
8,60495	22415
8,60907	23111
8,61320	24124
8,61732	23910
8,62143	23257
8,62557	21466
8,62968	23104
8,63380	22684
8,63793	21184
8,64205	22417
8,64617	21391
8,65030	21066
8,65442	20585
8,65853	19795
8,66265	20578
8,66678	21778
8,67090	20975
8,67502	20346
8,67915	20226
8,68327	20572
8,68738	21205
8,69152	19451
8,69563	20978
8,69975	21143
8,70388	19921
8,70800	18762
8,71212	18806
8,71625	19571
8,72037	18370
8,72448	19169
8,72862	19081
8,73273	21336
8,73685	19272
8,74098	20341
8,74510	18691
8,74922	19351
8,75333	18312
8,75747	18726
8,76158	20416
8,76570	19577
8,76983	18542
8,77395	20848
8,77807	20175
8,78220	20623
8,78632	20378
8,79043	22212
8,79457	20958
8,79868	21710
8,80280	20144
8,80693	20192
8,81105	20784
8,81517	21111
8,81930	18639
8,82342	19352
8,82753	20689
8,83167	18008
8,83578	19199
8,83990	21354
8,84402	20667
8,84815	18357
8,85227	17682
8,85638	18756
8,86052	18962
8,86463	17729
8,86875	17953
8,87288	17891
8,87700	19411
8,88112	18060
8,88525	20816
8,88937	21060
8,89348	22129
8,89762	24307
8,90173	26055
8,90585	26533
8,90998	28095
8,91410	28544
8,91822	28333
8,92235	29030
8,92647	30133
8,93058	28550
8,93470	28737
8,93883	27538
8,94295	27170
8,94707	26444
8,95120	25863
8,95532	24680
8,95943	24448
8,96357	23941
8,96768	21359
8,97180	21081
8,97593	21160
8,98005	21443
8,98417	20575
8,98830	19220
8,99242	18708
8,99653	18882
9,00067	17162
9,00478	17581
9,00890	16630
9,01303	17133
9,01715	16094
9,02127	17532
9,02540	15591
9,02952	18549
9,03363	18436
9,03775	20688
9,04188	27366
9,04600	39898
9,05012	68014
9,05425	118580
9,05837	206739
9,06248	339950
9,06662	526757
9,07073	748720
9,07485	999731
9,07898	1230764
9,08310	1414382
9,08722	1521289
9,09135	1573265
9,09547	1512817
9,09958	1404272
9,10372	1255839
9,10783	1086592
9,11195	911772
9,11608	757766
9,12020	613931
9,12432	492530
9,12843	398500
9,13257	312853
9,13668	259640
9,14080	209038
9,14493	173725
9,14905	147051
9,15317	123015
9,15730	106891
9,16142	94112
9,16553	82290
9,16967	74289
9,17378	69671
9,17790	60708
9,18203	58689
9,18615	52758
9,19027	49110
9,19440	46801
9,19852	45231
9,20263	37971
9,20677	38263
9,21088	36173
9,21500	35036
9,21912	33553
9,22325	32229
9,22737	32604
9,23148	29694
9,23562	29813
9,23973	30228
9,24385	27529
9,24798	28300
9,25210	26636
9,25622	27070
9,26035	24886
9,26447	24021
9,26858	23799
9,27272	22964
9,27683	24044
9,28095	21625
9,28508	22462
9,28920	20813
9,29332	20815
9,29745	21895
9,30157	20578
9,30568	20858
9,30980	19657
9,31393	20174
9,31805	18990
9,32217	19470
9,32630	19276
9,33042	19621
9,33453	19991
9,33867	20715
9,34278	18512
9,34690	18477
9,35103	17513
9,35515	18538
9,35927	17220
9,36340	18826
9,36752	17648
9,37163	17318
9,37577	16290
9,37988	17922
9,38400	16706
9,38813	17108
9,39225	17082
9,39637	16623
9,40048	16684
9,40462	17157
9,40873	15465
9,41285	17400
9,41698	15200
9,42110	16520
9,42522	16965
9,42935	16516
9,43347	17011
9,43758	17412
9,44172	17339
9,44583	17055
9,44995	17448
9,45408	17864
9,45820	20192
9,46232	19749
9,46645	20746
9,47057	22791
9,47468	23086
9,47882	22485
9,48293	22861
9,48705	22713
9,49117	23085
9,49530	21461
9,49942	21822
9,50353	20165
9,50767	18507
9,51178	18308
9,51590	18512
9,52003	17413
9,52415	16266
9,52827	16832
9,53240	17190
9,53652	15848
9,54063	14557
9,54477	15642
9,54888	15945
9,55300	15407
9,55713	15137
9,56125	14647
9,56537	15313
9,56950	14860
9,57362	15234
9,57773	16483
9,58185	15509
9,58598	14571
9,59010	13787
9,59422	14856
9,59835	13928
9,60247	16215
9,60658	16152
9,61072	15608
9,61483	15046
9,61895	14555
9,62308	16090
9,62720	14952
9,63132	15843
9,63545	14612
9,63957	15455
9,64368	17079
9,64782	17565
9,65193	16792
9,65605	18643
9,66018	18881
9,66430	19614
9,66842	19828
9,67253	21426
9,67667	21316
9,68078	20111
9,68490	22881
9,68903	21517
9,69315	21565
9,69727	19248
9,70140	20080
9,70552	19745
9,70963	18657
9,71377	17492
9,71788	16905
9,72200	17903
9,72613	15501
9,73025	15978
9,73437	15786
9,73850	15035
9,74262	16547
9,74673	14459
9,75087	15343
9,75498	14587
9,75910	14630
9,76322	13534
9,76735	16358
9,77147	15287
9,77558	14301
9,77972	14895
9,78383	14179
9,78795	13980
9,79208	13676
9,79620	15256
9,80032	14583
9,80445	13430
9,80857	13946
9,81268	13599
9,81682	16766
9,82093	19574
9,82505	27773
9,82918	47578
9,83330	92583
9,83742	178633
9,84155	339071
9,84567	607304
9,84978	972601
9,85390	1464269
9,85803	2020051
9,86215	2557975
9,86627	3040364
9,87040	3389406
9,87452	3516302
9,87863	3467516
9,88277	3221873
9,88688	2820827
9,89100	2352990
9,89513	1910443
9,89925	1500305
9,90337	1182929
9,90750	910638
9,91162	714444
9,91573	563071
9,91987	443862
9,92398	370294
9,92810	305829
9,93223	252059
9,93635	218678
9,94047	192558
9,94458	164795
9,94872	148649
9,95283	135707
9,95695	121742
9,96108	111825
9,96520	105626
9,96932	99114
9,97345	89805
9,97757	85765
9,98168	82256
9,98582	75332
9,98993	69582
9,99405	64802
9,99818	58307
10,00230	58610
10,00642	53167
10,01055	49389
10,01467	45247
10,01878	40735
10,02292	43269
10,02703	40090
10,03115	38068
10,03527	37634
10,03940	36873
10,04352	35212
10,04763	32771
10,05177	31898
10,05588	33182
10,06000	28604
10,06413	28449
10,06825	28692
10,07237	28811
10,07650	26324
10,08062	25753
10,08473	24868
10,08887	26879
10,09298	24373
10,09710	25990
10,10123	24594
10,10535	24442
10,10947	26429
10,11360	25178
10,11772	26638
10,12183	26836
10,12595	28166
10,13008	29708
10,13420	29695
10,13832	29870
10,14245	31851
10,14657	30072
10,15068	27518
10,15482	27776
10,15893	26771
10,16305	24541
10,16718	25129
10,17130	23262
10,17542	23317
10,17955	21443
10,18367	21166
10,18778	20083
10,19192	19529
10,19603	18534
10,20015	18301
10,20428	17978
10,20840	15283
10,21252	17225
10,21663	17582
10,22077	17268
10,22488	17395
10,22900	17358
10,23313	17823
10,23725	18197
10,24137	20056
10,24550	21969
10,24962	22397
10,25373	22595
10,25787	23094
10,26198	21755
10,26610	21761
10,27023	21182
10,27435	21607
10,27847	19501
10,28260	18377
10,28672	19492
10,29083	17252
10,29497	16677
10,29908	16443
10,30320	16838
10,30732	17755
10,31145	16017
10,31557	14608
10,31968	15311
10,32382	15204
10,32793	16624
10,33205	14254
10,33618	15055
10,34030	16616
10,34442	15086
10,34855	13476
10,35267	15847
10,35678	14407
10,36092	15204
10,36503	14078
10,36915	14885
10,37328	15293
10,37740	15052
10,38152	15163
10,38565	15427
10,38977	17757
10,39388	23838
10,39800	33396
10,40213	57601
10,40625	102575
10,41037	186295
10,41450	324545
10,41862	508424
10,42273	763797
10,42687	1043329
10,43098	1316859
10,43510	1521138
10,43923	1637601
10,44335	1659451
10,44747	1603130
10,45160	1446464
10,45572	1244288
10,45983	1038597
10,46397	853002
10,46808	676416
10,47220	535177
10,47633	431080
10,48045	345208
10,48457	280563
10,48870	234492
10,49282	194838
10,49693	166150
10,50105	142044
10,50518	119065
10,50930	106974
10,51342	92611
10,51755	82980
10,52167	70598
10,52578	65901
10,52992	59842
10,53403	54292
10,53815	51579
10,54228	48383
10,54640	42957
10,55052	39809
10,55465	39578
10,55877	37924
10,56288	36759
10,56702	33461
10,57113	33026
10,57525	32367
10,57938	33416
10,58350	29407
10,58762	29354
10,59173	30485
10,59587	28299
10,59998	30363
10,60410	35656
10,60823	48911
10,61235	78956
10,61647	143877
10,62060	252681
10,62472	411515
10,62883	658297
10,63297	943887
10,63708	1258562
10,64120	1549676
10,64533	1785928
10,64945	1899166
10,65357	1880488
10,65770	1755957
10,66182	1550182
10,66593	1304757
10,67007	1055959
10,67418	827956
10,67830	652004
10,68242	500633
10,68655	395345
10,69067	306103
10,69478	250364
10,69892	203954
10,70303	170706
10,70715	144973
10,71128	123372
10,71540	108332
10,71952	95634
10,72365	83190
10,72777	79225
10,73188	69508
10,73602	63133
10,74013	59895
10,74425	52083
10,74838	52387
10,75250	48040
10,75662	45621
10,76075	43172
10,76487	41913
10,76898	38061
10,77310	37393
10,77723	35725
10,78135	33118
10,78547	33152
10,78960	31644
10,79372	30099
10,79783	28105
10,80197	26020
10,80608	24965
10,81020	25635
10,81433	23898
10,81845	24842
10,82257	24741
10,82670	25274
10,83082	24998
10,83493	22310
10,83907	21576
10,84318	21629
10,84730	20507
10,85143	21601
10,85555	20909
10,85967	18692
10,86378	20894
10,86792	19822
10,87203	20759
10,87615	19150
10,88028	17812
10,88440	19231
10,88852	17270
10,89265	17420
10,89677	17142
10,90088	17393
10,90502	18913
10,90913	17124
10,91325	17037
10,91738	17101
10,92150	17577
10,92562	16562
10,92975	15255
10,93387	16480
10,93798	16970
10,94212	16775
10,94623	15456
10,95035	15505
10,95447	15898
10,95860	14640
10,96272	15994
10,96683	14112
10,97097	15172
10,97508	15499
10,97920	15192
10,98333	14460
10,98745	16079
10,99157	15224
10,99570	14285
10,99982	14707
11,00393	14339
11,00807	14486
11,01218	14870
11,01630	15115
11,02043	15537
11,02455	14734
11,02867	14237
11,03280	14788
11,03692	14983
11,04103	13898
11,04515	15365
11,04928	16596
11,05340	16473
11,05752	14327
11,06165	14787
11,06577	15149
11,06988	14907
11,07402	14982
11,07813	15445
11,08225	15916
11,08638	16818
11,09050	15971
11,09462	15991
11,09875	16245
11,10287	15012
11,10698	16404
11,11112	15065
11,11523	15645
11,11935	13292
11,12348	15254
11,12760	15173
11,13172	13819
11,13583	14028
11,13997	14252
11,14408	14859
11,14820	14849
11,15233	13228
11,15645	14534
11,16057	15149
11,16470	14847
11,16882	22251
11,17293	33089
11,17707	54166
11,18118	99329
11,18530	186851
11,18943	324057
11,19355	529823
11,19767	805194
11,20180	1112218
11,20592	1399610
11,21003	1661802
11,21417	1796251
11,21828	1800889
11,22240	1703872
11,22652	1517056
11,23065	1294611
11,23477	1058548
11,23888	841995
11,24302	659087
11,24713	516433
11,25125	405595
11,25538	321189
11,25950	257061
11,26362	215286
11,26775	174489
11,27187	153254
11,27598	127765
11,28012	110060
11,28423	96870
11,28835	87765
11,29248	80508
11,29660	68839
11,30072	62860
11,30485	58640
11,30897	52028
11,31308	50070
11,31720	48895
11,32133	45356
11,32545	44043
11,32957	42505
11,33370	38088
11,33782	37656
11,34193	35815
11,34607	32509
11,35018	33706
11,35430	31767
11,35843	34376
11,36255	36511
11,36667	50128
11,37080	86302
11,37492	161559
11,37903	303159
11,38317	578886
11,38728	1004015
11,39140	1619174
11,39553	2428797
11,39965	3353361
11,40377	4329126
11,40788	5163821
11,41202	5867355
11,41613	6163615
11,42025	5983178
11,42438	5404131
11,42850	4574536
11,43262	3694737
11,43675	2893843
11,44087	2211667
11,44498	1664926
11,44912	1272322
11,45323	992469
11,45735	782666
11,46148	636623
11,46560	522139
11,46972	437321
11,47385	373977
11,47797	325070
11,48208	280815
11,48622	244071
11,49033	219050
11,49445	194636
11,49857	174306
11,50270	161274
11,50682	145172
11,51093	134640
11,51507	122438
11,51918	116181
11,52330	105892
11,52743	99148
11,53155	91393
11,53567	86708
11,53980	83821
11,54392	78064
11,54803	72267
11,55217	70712
11,55628	64667
11,56040	64275
11,56453	58226
11,56865	57512
11,57277	56152
11,57690	53729
11,58102	50975
11,58513	47804
11,58925	43855
11,59338	44863
11,59750	42796
11,60162	41735
11,60575	41554
11,60987	36824
11,61398	39074
11,61812	34380
11,62223	34695
11,62635	33559
11,63048	34286
11,63460	32534
11,63872	30911
11,64285	31203
11,64697	30617
11,65108	31563
11,65522	29892
11,65933	29128
11,66345	25859
11,66758	25871
11,67170	27032
11,67582	26613
11,67993	26914
11,68407	24208
11,68818	25125
11,69230	26250
11,69643	26129
11,70055	24324
11,70467	26269
11,70880	26441
11,71292	25917
11,71703	26193
11,72117	27895
11,72528	26069
11,72940	23625
11,73353	24172
11,73765	22239
11,74177	23409
11,74590	19927
11,75002	20836
11,75413	20180
11,75827	19471
11,76238	20434
11,76650	20920
11,77062	19606
11,77475	19831
11,77887	20191
11,78298	20292
11,78712	21236
11,79123	22795
11,79535	21595
11,79948	22233
11,80360	22403
11,80772	22112
11,81185	20765
11,81597	19944
11,82008	20489
11,82422	24948
11,82833	33835
11,83245	54720
11,83658	99377
11,84070	181176
11,84482	323020
11,84895	526607
11,85307	806831
11,85718	1132227
11,86130	1441487
11,86543	1703619
11,86955	1842445
11,87367	1873189
11,87780	1773378
11,88192	1584098
11,88603	1343419
11,89017	1103471
11,89428	869336
11,89840	672501
11,90253	529567
11,90665	419794
11,91077	332739
11,91490	271746
11,91902	226491
11,92313	184465
11,92727	158071
11,93138	138310
11,93550	122076
11,93963	106051
11,94375	94552
11,94787	87911
11,95198	81369
11,95612	76582
11,96023	75631
11,96435	70287
11,96848	67326
11,97260	65216
11,97672	62006
11,98085	59161
11,98497	55410
11,98908	54835
11,99322	51516
11,99733	48912
12,00145	50361
12,00558	51445
12,00970	52110
12,01382	53416
12,01795	50859
12,02207	52292
12,02618	48083
12,03032	46012
12,03443	44869
12,03855	38145
12,04267	39635
12,04680	33606
12,05092	33362
12,05503	30493
12,05917	30139
12,06328	26354
12,06740	27128
12,07153	25027
12,07565	25661
12,07977	25843
12,08390	22964
12,08802	24654
12,09213	22084
12,09627	23937
12,10038	24993
12,10450	29393
12,10863	37150
12,11275	55507
12,11687	96871
12,12100	175674
12,12512	318377
12,12923	537722
12,13335	836182
12,13748	1200034
12,14160	1573508
12,14572	1893071
12,14985	2102217
12,15397	2148620
12,15808	2012861
12,16222	1795809
12,16633	1522151
12,17045	1235852
12,17458	973401
12,17870	749069
12,18282	578624
12,18695	447621
12,19107	352523
12,19518	290174
12,19932	238913
12,20343	198381
12,20755	170897
12,21168	145436
12,21580	130559
12,21992	112956
12,22405	100567
12,22817	94052
12,23228	81993
12,23640	76014
12,24053	69889
12,24465	66281
12,24877	59472
12,25290	58035
12,25702	53915
12,26113	53179
12,26527	46310
12,26938	45480
12,27350	41386
12,27763	42357
12,28175	38856
12,28587	37209
12,29000	37187
12,29412	34250
12,29823	32750
12,30237	33996
12,30648	31639
12,31060	30697
12,31473	31181
12,31885	29326
12,32297	28214
12,32708	30446
12,33122	26799
12,33533	27356
12,33945	28384
12,34358	28228
12,34770	27395
12,35182	27469
12,35595	26589
12,36007	26002
12,36418	25192
12,36832	26134
12,37243	23237
12,37655	23170
12,38068	23593
12,38480	21913
12,38892	24090
12,39305	20550
12,39717	21632
12,40128	22145
12,40542	20849
12,40953	20651
12,41365	19774
12,41777	19252
12,42190	20252
12,42602	20858
12,43013	20152
12,43427	19910
12,43838	19928
12,44250	18777
12,44663	19239
12,45075	20651
12,45487	17550
12,45900	19230
12,46312	16899
12,46723	18121
12,47137	18041
12,47548	18418
12,47960	19525
12,48373	18323
12,48785	15386
12,49197	18665
12,49610	18036
12,50022	17731
12,50433	17195
12,50845	17549
12,51258	17556
12,51670	17791
12,52082	17199
12,52495	17550
12,52907	15948
12,53318	17153
12,53732	16379
12,54143	16321
12,54555	17511
12,54968	17435
12,55380	19872
12,55792	26625
12,56205	42873
12,56617	72905
12,57028	137311
12,57442	251816
12,57853	431185
12,58265	697327
12,58678	1017493
12,59090	1379946
12,59502	1703775
12,59913	1921361
12,60327	2018417
12,60738	1964095
12,61150	1793003
12,61563	1559617
12,61975	1274291
12,62387	1034256
12,62800	808061
12,63212	632285
12,63623	494857
12,64037	390588
12,64448	315059
12,64860	258669
12,65273	217962
12,65685	184844
12,66097	155709
12,66510	136099
12,66922	119919
12,67333	106827
12,67747	94983
12,68158	86590
12,68570	80707
12,68982	74009
12,69395	64208
12,69807	61905
12,70218	58075
12,70632	55260
12,71043	53088
12,71455	47974
12,71868	46977
12,72280	41774
12,72692	42039
12,73105	38289
12,73517	38959
12,73928	37395
12,74342	35908
12,74753	35528
12,75165	32754
12,75578	34041
12,75990	32985
12,76402	32377
12,76815	27926
12,77227	30135
12,77638	27806
12,78050	27506
12,78463	26067
12,78875	26593
12,79287	25623
12,79700	25431
12,80112	25267
12,80523	25724
12,80937	25591
12,81348	25191
12,81760	26712
12,82173	28961
12,82585	37449
12,82997	61420
12,83410	115143
12,83822	216562
12,84233	401644
12,84647	698121
12,85058	1141430
12,85470	1725501
12,85883	2426798
12,86295	3190767
12,86707	3884575
12,87118	4424212
12,87532	4642663
12,87943	4485032
12,88355	4074923
12,88768	3468883
12,89180	2775155
12,89592	2194878
12,90005	1684575
12,90417	1284191
12,90828	1008709
12,91242	792159
12,91653	638978
12,92065	520378
12,92478	428268
12,92890	372403
12,93302	313436
12,93715	273008
12,94127	239662
12,94538	214453
12,94952	190885
12,95363	171004
12,95775	157928
12,96187	145287
12,96600	129390
12,97012	120252
12,97423	111313
12,97837	104798
12,98248	96717
12,98660	93605
12,99073	83979
12,99485	84611
12,99897	77249
13,00310	74810
13,00722	70473
13,01133	68020
13,01547	63761
13,01958	59704
13,02370	58086
13,02783	57304
13,03195	55432
13,03607	53736
13,04020	50857
13,04432	48850
13,04843	47325
13,05255	45973
13,05668	43480
13,06080	44259
13,06492	42242
13,06905	41595
13,07317	41206
13,07728	51272
13,08142	63753
13,08553	97808
13,08965	162119
13,09378	275766
13,09790	458930
13,10202	732143
13,10615	1052603
13,11027	1411253
13,11438	1764926
13,11852	2033349
13,12263	2150458
13,12675	2126886
13,13088	1968022
13,13500	1724595
13,13912	1442865
13,14323	1153294
13,14737	910261
13,15148	722668
13,15560	566199
13,15973	452444
13,16385	366699
13,16797	299228
13,17210	256022
13,17622	216364
13,18033	191636
13,18447	162117
13,18858	147229
13,19270	131952
13,19683	118402
13,20095	111156
13,20507	109018
13,20920	116608
13,21332	143166
13,21743	208936
13,22157	335254
13,22568	566729
13,22980	931804
13,23392	1460217
13,23805	2120397
13,24217	2818743
13,24628	3509949
13,25042	4048801
13,25453	4321280
13,25865	4291888
13,26278	3975039
13,26690	3452298
13,27102	2870955
13,27515	2292021
13,27927	1794947
13,28338	1386692
13,28752	1088303
13,29163	858168
13,29575	682365
13,29988	571255
13,30400	469771
13,30812	394700
13,31225	347475
13,31637	301799
13,32048	267393
13,32460	237917
13,32873	212090
13,33285	192303
13,33697	171260
13,34110	158830
13,34522	147060
13,34933	138997
13,35347	128271
13,35758	121587
13,36170	112490
13,36583	103725
13,36995	99388
13,37407	92683
13,37820	87354
13,38232	84322
13,38643	79985
13,39057	73514
13,39468	73504
13,39880	72901
13,40293	65763
13,40705	65863
13,41117	59838
13,41528	60200
13,41942	56578
13,42353	56215
13,42765	53311
13,43178	52011
13,43590	50109
13,44002	50332
13,44415	48191
13,44827	45688
13,45238	44433
13,45652	43921
13,46063	43849
13,46475	43356
13,46888	41167
13,47300	39432
13,47712	39077
13,48125	41817
13,48537	45053
13,48948	58435
13,49362	85415
13,49773	146652
13,50185	260727
13,50597	439631
13,51010	697191
13,51422	1017683
13,51833	1374190
13,52247	1717321
13,52658	2026726
13,53070	2252380
13,53483	2392503
13,53895	2574375
13,54307	2819451
13,54720	3173454
13,55132	3678264
13,55543	4202715
13,55957	4684719
13,56368	4919963
13,56780	4897142
13,57193	4523844
13,57605	3973072
13,58017	3262912
13,58430	2576394
13,58842	2030739
13,59253	1561707
13,59665	1225577
13,60078	973258
13,60490	794340
13,60902	648120
13,61315	547842
13,61727	474541
13,62138	409815
13,62552	359352
13,62963	320604
13,63375	283434
13,63788	254458
13,64200	229113
13,64612	213236
13,65025	195690
13,65437	178572
13,65848	170488
13,66262	154857
13,66673	149724
13,67085	139204
13,67498	132607
13,67910	127481
13,68322	120961
13,68733	114966
13,69147	110101
13,69558	105645
13,69970	100208
13,70383	97807
13,70795	91341
13,71207	87413
13,71620	83092
13,72032	79648
13,72443	78974
13,72857	76616
13,73268	72499
13,73680	70948
13,74093	69239
13,74505	67805
13,74917	62054
13,75330	63044
13,75742	61827
13,76153	55684
13,76567	58864
13,76978	53431
13,77390	54852
13,77803	55106
13,78215	61391
13,78627	66578
13,79038	88869
13,79452	139280
13,79863	230039
13,80275	390458
13,80688	614072
13,81100	884101
13,81512	1212657
13,81925	1513855
13,82337	1735819
13,82748	1847976
13,83162	1858079
13,83573	1700750
13,83985	1517645
13,84398	1281186
13,84810	1040658
13,85222	829171
13,85635	662210
13,86047	530768
13,86458	421396
13,86872	350208
13,87283	288192
13,87695	244012
13,88107	207907
13,88520	180066
13,88932	161519
13,89343	142162
13,89757	129415
13,90168	118372
13,90580	108859
13,90993	101991
13,91405	97099
13,91817	90610
13,92230	84847
13,92642	80769
13,93053	78106
13,93467	75280
13,93878	71624
13,94290	66964
13,94703	66431
13,95115	62129
13,95527	56162
13,95940	56017
13,96352	56821
13,96763	53129
13,97175	50180
13,97588	50512
13,98000	48251
13,98412	48002
13,98825	43975
13,99237	44543
13,99648	43941
14,00062	43959
14,00473	43396
14,00885	42759
14,01298	39150
14,01710	40679
14,02122	41589
14,02535	39210
14,02947	39669
14,03358	39213
14,03772	40413
14,04183	38504
14,04595	38258
14,05008	38480
14,05420	38542
14,05832	36157
14,06243	36232
14,06657	34021
14,07068	33829
14,07480	34524
14,07893	32298
14,08305	32989
14,08717	31739
14,09130	33078
14,09542	29918
14,09953	31553
14,10367	30989
14,10778	30285
14,11190	27737
14,11603	30677
14,12015	30134
14,12427	27437
14,12840	28698
14,13252	28674
14,13663	27569
14,14077	27554
14,14488	27456
14,14900	27204
14,15312	26568
14,15725	26872
14,16137	27297
14,16548	27251
14,16962	26079
14,17373	28265
14,17785	29843
14,18198	34673
14,18610	47723
14,19022	76350
14,19435	144105
14,19847	284330
14,20258	526647
14,20672	951640
14,21083	1572595
14,21495	2416509
14,21908	3420905
14,22320	4528610
14,22732	5546406
14,23145	6278254
14,23557	6612459
14,23968	6442859
14,24380	5833854
14,24793	4950515
14,25205	4024437
14,25617	3149225
14,26030	2449447
14,26442	1895058
14,26853	1498349
14,27267	1191123
14,27678	958792
14,28090	805388
14,28503	675680
14,28915	577801
14,29327	499590
14,29740	441165
14,30152	390829
14,30563	350977
14,30977	312360
14,31388	287557
14,31800	264245
14,32213	238284
14,32625	217978
14,33037	203310
14,33448	189312
14,33862	177273
14,34273	166893
14,34685	158423
14,35098	149862
14,35510	138041
14,35922	130383
14,36335	127918
14,36747	118112
14,37158	111732
14,37572	105339
14,37983	99660
14,38395	98532
14,38808	93889
14,39220	90272
14,39632	89511
14,40045	87240
14,40457	81215
14,40868	79317
14,41282	78454
14,41693	78701
14,42105	78831
14,42517	83741
14,42930	86567
14,43342	89415
14,43753	98725
14,44167	107579
14,44578	116252
14,44990	149008
14,45403	196818
14,45815	284669
14,46227	427139
14,46640	634918
14,47052	872880
14,47463	1156098
14,47877	1410456
14,48288	1570433
14,48700	1632888
14,49113	1595303
14,49525	1454935
14,49937	1260493
14,50350	1052153
14,50762	862147
14,51173	691581
14,51585	543277
14,51998	442863
14,52410	359928
14,52822	301352
14,53235	251362
14,53647	222066
14,54058	196196
14,54472	180888
14,54883	180107
14,55295	200064
14,55708	258387
14,56120	371239
14,56532	565621
14,56945	842357
14,57357	1185568
14,57768	1584439
14,58182	1948472
14,58593	2204654
14,59005	2311734
14,59418	2261433
14,59830	2076192
14,60242	1793870
14,60653	1502093
14,61067	1215070
14,61478	979422
14,61890	789379
14,62303	639974
14,62715	524909
14,63127	434178
14,63540	373053
14,63952	317643
14,64363	279024
14,64777	244063
14,65188	222611
14,65600	203702
14,66013	183519
14,66425	167386
14,66837	155435
14,67250	142964
14,67662	132950
14,68073	124258
14,68487	119104
14,68898	114136
14,69310	110393
14,69722	101671
14,70135	95620
14,70547	93612
14,70958	88340
14,71372	81851
14,71783	82402
14,72195	78290
14,72608	73620
14,73020	74112
14,73432	72658
14,73845	69951
14,74257	68664
14,74668	66234
14,75082	65654
14,75493	61984
14,75905	63617
14,76318	62374
14,76730	59871
14,77142	58671
14,77555	57601
14,77967	57769
14,78378	53904
14,78790	54385
14,79203	53581
14,79615	51909
14,80027	49931
14,80440	52774
14,80852	51870
14,81263	50688
14,81677	49439
14,82088	49120
14,82500	53561
14,82913	61718
14,83325	81788
14,83737	126458
14,84150	209391
14,84562	366055
14,84973	626494
14,85387	979851
14,85798	1415322
14,86210	1856345
14,86623	2248955
14,87035	2485927
14,87447	2551818
14,87858	2400434
14,88272	2125718
14,88683	1799686
14,89095	1463043
14,89508	1165328
14,89920	929110
14,90332	745661
14,90745	613761
14,91157	501256
14,91568	423199
14,91982	365532
14,92393	314048
14,92805	281864
14,93218	249039
14,93630	221388
14,94042	198758
14,94455	186358
14,94867	171045
14,95278	159570
14,95692	145553
14,96103	140841
14,96515	127900
14,96927	124987
14,97340	114821
14,97752	112777
14,98163	107206
14,98577	108391
14,98988	101362
14,99400	97914
14,99813	94547
15,00225	91037
15,00637	89746
15,01050	84323
15,01462	83897
15,01873	78740
15,02287	76003
15,02698	76859
15,03110	72712
15,03523	70261
15,03935	69072
15,04347	67055
15,04760	68306
15,05172	65038
15,05583	64075
15,05995	63467
15,06408	63535
15,06820	59624
15,07232	58794
15,07645	54245
15,08057	56417
15,08468	55119
15,08882	60923
15,09293	65751
15,09705	87181
15,10118	131495
15,10530	212743
15,10942	349347
15,11355	557005
15,11767	839774
15,12178	1161390
15,12592	1498866
15,13003	1794009
15,13415	1936727
15,13828	1980806
15,14240	1859252
15,14652	1664706
15,15063	1409564
15,15477	1162285
15,15888	937207
15,16300	750945
15,16713	615517
15,17125	504226
15,17537	417699
15,17950	350623
15,18362	301214
15,18773	260087
15,19187	231572
15,19598	208117
15,20010	181628
15,20423	167714
15,20835	155146
15,21247	141975
15,21660	132845
15,22072	125355
15,22483	119538
15,22897	111080
15,23308	107568
15,23720	100347
15,24132	96337
15,24545	93478
15,24957	90305
15,25368	83702
15,25782	83157
15,26193	77905
15,26605	77953
15,27018	72484
15,27430	70602
15,27842	73051
15,28255	69555
15,28667	67524
15,29078	64530
15,29492	65626
15,29903	61297
15,30315	63469
15,30728	59784
15,31140	59231
15,31552	59601
15,31965	56228
15,32377	57866
15,32788	58153
15,33200	57156
15,33613	54584
15,34025	55552
15,34437	51192
15,34850	51991
15,35262	51765
15,35673	51076
15,36087	50917
15,36498	51394
15,36910	49954
15,37323	48089
15,37735	48890
15,38147	50588
15,38560	49962
15,38972	47105
15,39383	48613
15,39797	47725
15,40208	47743
15,40620	48083
15,41033	46694
15,41445	45645
15,41857	46020
15,42270	47770
15,42682	44916
15,43093	47964
15,43505	47562
15,43918	47459
15,44330	50553
15,44742	54192
15,45155	64322
15,45567	89948
15,45978	141059
15,46392	240102
15,46803	410839
15,47215	695150
15,47628	1122610
15,48040	1712835
15,48452	2449075
15,48865	3336487
15,49277	4226166
15,49688	5030445
15,50102	5630751
15,50513	5917623
15,50925	5899235
15,51338	5565187
15,51750	5027584
15,52162	4440642
15,52573	3820634
15,52987	3220065
15,53398	2703042
15,53810	2227966
15,54223	1835236
15,54635	1495045
15,55047	1239339
15,55460	1032611
15,55872	871462
15,56283	751136
15,56697	648340
15,57108	571267
15,57520	502798
15,57933	453006
15,58345	412807
15,58757	376831
15,59170	345486
15,59582	316315
15,59993	295062
15,60407	275322
15,60818	259364
15,61230	240313
15,61642	229692
15,62055	217584
15,62467	204340
15,62878	191747
15,63292	183469
15,63703	175190
15,64115	168621
15,64528	164339
15,64940	157540
15,65352	150511
15,65765	142292
15,66177	138044
15,66588	134281
15,67002	132456
15,67413	128775
15,67825	124060
15,68238	123706
15,68650	120932
15,69062	121590
15,69475	119710
15,69887	116573
15,70298	118178
15,70710	116313
15,71123	122784
15,71535	137412
15,71947	163304
15,72360	216556
15,72772	323492
15,73183	476352
15,73597	705390
15,74008	976783
15,74420	1278396
15,74833	1542098
15,75245	1721825
15,75657	1780345
15,76070	1742621
15,76482	1590375
15,76893	1409295
15,77307	1215266
15,77718	1047279
15,78130	936184
15,78543	902288
15,78955	962211
15,79367	1086660
15,79778	1283109
15,80192	1544211
15,80603	1781689
15,81015	2043705
15,81428	2264577
15,81840	2476396
15,82252	2636371
15,82665	2835962
15,83077	2991104
15,83488	3055058
15,83902	2995242
15,84313	2876487
15,84725	2614511
15,85138	2298950
15,85550	1949084
15,85962	1633004
15,86375	1346795
15,86787	1133457
15,87198	946967
15,87612	814481
15,88023	691507
15,88435	605962
15,88847	529838
15,89260	477591
15,89672	425596
15,90083	381330
15,90497	355784
15,90908	321863
15,91320	297459
15,91733	280159
15,92145	265361
15,92557	243325
15,92970	233614
15,93382	222689
15,93793	203787
15,94207	196796
15,94618	186407
15,95030	181490
15,95443	174247
15,95855	164717
15,96267	158480
15,96680	152809
15,97092	145999
15,97503	138312
15,97915	137499
15,98328	126723
15,98740	126246
15,99152	119065
15,99565	120852
15,99977	117011
16,00388	115764
16,00802	110484
16,01213	109692
16,01625	103716
16,02038	102611
16,02450	98344
16,02862	98767
16,03275	94680
16,03687	91191
16,04098	97071
16,04512	92119
16,04923	91342
16,05335	90918
16,05748	101718
16,06160	119666
16,06572	149252
16,06983	216944
16,07397	334849
16,07808	504806
16,08220	753248
16,08633	1084818
16,09045	1462200
16,09457	1829743
16,09870	2145592
16,10282	2363196
16,10693	2394357
16,11107	2274389
16,11518	2042080
16,11930	1762366
16,12343	1473698
16,12755	1216620
16,13167	1012966
16,13580	840707
16,13992	710949
16,14403	614911
16,14817	536356
16,15228	467038
16,15640	415985
16,16052	369615
16,16465	334686
16,16877	307496
16,17288	287716
16,17702	261239
16,18113	243920
16,18525	234912
16,18938	220706
16,19350	211116
16,19762	202741
16,20175	192025
16,20587	190110
16,20998	178574
16,21412	175081
16,21823	166706
16,22235	165377
16,22648	158167
16,23060	150102
16,23472	146079
16,23885	140292
16,24297	132936
16,24708	133558
16,25120	124897
16,25533	120018
16,25945	115259
16,26357	111632
16,26770	111504
16,27182	107819
16,27593	108431
16,28007	101506
16,28418	100242
16,28830	99877
16,29243	100852
16,29655	100029
16,30067	96155
16,30480	95543
16,30892	93970
16,31303	94337
16,31717	91059
16,32128	91042
16,32540	88798
16,32953	90601
16,33365	95354
16,33777	108209
16,34188	139199
16,34602	193428
16,35013	289220
16,35425	430890
16,35838	644498
16,36250	906127
16,36662	1204924
16,37075	1505390
16,37487	1739696
16,37898	1877611
16,38312	1890147
16,38723	1799065
16,39135	1619982
16,39548	1418164
16,39960	1212746
16,40372	1018132
16,40785	855318
16,41197	720702
16,41608	612247
16,42022	525943
16,42433	461035
16,42845	407827
16,43257	371262
16,43670	348460
16,44082	350454
16,44493	370668
16,44907	442408
16,45318	542121
16,45730	682567
16,46143	857844
16,46555	1043040
16,46967	1225100
16,47380	1351078
16,47792	1408260
16,48203	1399452
16,48617	1332890
16,49028	1233425
16,49440	1099337
16,49853	945066
16,50265	814319
16,50677	694043
16,51090	586994
16,51502	499356
16,51913	435292
16,52325	377270
16,52738	336464
16,53150	302563
16,53562	266254
16,53975	245448
16,54387	228001
16,54798	212412
16,55212	197567
16,55623	184065
16,56035	171360
16,56448	161199
16,56860	159494
16,57272	148274
16,57685	145081
16,58097	133215
16,58508	130046
16,58922	125659
16,59333	119673
16,59745	120677
16,60158	115188
16,60570	113021
16,60982	107263
16,61393	108956
16,61807	102671
16,62218	101417
16,62630	99388
16,63043	94675
16,63455	98421
16,63867	94283
16,64280	95252
16,64692	94091
16,65103	91640
16,65517	85824
16,65928	88869
16,66340	86196
16,66753	86465
16,67165	85506
16,67577	86230
16,67990	91635
16,68402	99474
16,68813	122913
16,69227	160809
16,69638	235981
16,70050	351834
16,70462	524695
16,70875	790523
16,71287	1152516
16,71698	1611945
16,72112	2163837
16,72523	2740446
16,72935	3283847
16,73348	3803421
16,73760	4156891
16,74172	4277939
16,74585	4109799
16,74997	3757192
16,75408	3288907
16,75822	2773090
16,76233	2309280
16,76645	1912766
16,77058	1595381
16,77470	1338237
16,77882	1153947
16,78295	997138
16,78707	877189
16,79118	768680
16,79530	691013
16,79943	622910
16,80355	556380
16,80767	506048
16,81180	476410
16,81592	440336
16,82003	404682
16,82417	379438
16,82828	352591
16,83240	337189
16,83653	320512
16,84065	300858
16,84477	284117
16,84890	271768
16,85302	257977
16,85713	248866
16,86127	238310
16,86538	227465
16,86950	209929
16,87363	204108
16,87775	201540
16,88187	192575
16,88598	190881
16,89012	178486
16,89423	174275
16,89835	167263
16,90248	165650
16,90660	163154
16,91072	156588
16,91485	150422
16,91897	149584
16,92308	140742
16,92722	140455
16,93133	141245
16,93545	134579
16,93958	131260
16,94370	128402
16,94782	128968
16,95195	123796
16,95607	122842
16,96018	121413
16,96432	117242
16,96843	115665
16,97255	111843
16,97667	115041
16,98080	109866
16,98492	109323
16,98903	104875
16,99317	105057
16,99728	106982
17,00140	104508
17,00553	101872
17,00965	103849
17,01377	102076
17,01790	98438
17,02202	96595
17,02613	94514
17,03027	94436
17,03438	92967
17,03850	96433
17,04263	96718
17,04675	102116
17,05087	112936
17,05500	131973
17,05912	163524
17,06323	224706
17,06737	316387
17,07148	462550
17,07560	656171
17,07972	893557
17,08385	1153689
17,08797	1437018
17,09208	1657772
17,09622	1826016
17,10033	1901006
17,10445	1889141
17,10858	1784290
17,11270	1619689
17,11682	1442045
17,12095	1251437
17,12507	1082573
17,12918	937114
17,13332	811345
17,13743	708174
17,14155	624113
17,14568	553129
17,14980	492734
17,15392	446577
17,15805	406426
17,16217	372774
17,16628	344072
17,17040	319601
17,17453	292618
17,17865	278673
17,18277	259663
17,18690	245742
17,19102	233137
17,19513	220249
17,19927	211539
17,20338	201356
17,20750	193089
17,21163	185776
17,21575	179252
17,21987	175460
17,22400	165309
17,22812	161547
17,23223	155134
17,23637	150807
17,24048	145569
17,24460	142025
17,24873	136612
17,25285	136125
17,25697	129886
17,26108	129360
17,26522	126842
17,26933	120646
17,27345	116144
17,27758	117133
17,28170	116809
17,28582	111525
17,28995	109250
17,29407	107812
17,29818	104881
17,30232	105381
17,30643	102359
17,31055	102128
17,31468	99846
17,31880	96216
17,32292	96506
17,32705	96465
17,33117	92102
17,33528	93468
17,33942	91921
17,34353	89805
17,34765	88135
17,35177	91012
17,35590	85276
17,36002	87048
17,36413	88869
17,36827	88098
17,37238	88067
17,37650	83809
17,38063	81904
17,38475	83938
17,38887	80450
17,39300	83561
17,39712	77391
17,40123	82093
17,40537	79327
17,40948	79070
17,41360	80336
17,41773	80021
17,42185	80991
17,42597	84288
17,43010	78953
17,43422	79451
17,43833	79176
17,44245	77826
17,44658	77838
17,45070	77778
17,45482	76510
17,45895	76092
17,46307	76487
17,46718	72708
17,47132	73909
17,47543	70253
17,47955	70400
17,48368	69558
17,48780	70025
17,49192	68371
17,49605	68048
17,50017	67892
17,50428	67174
17,50842	67100
17,51253	67038
17,51665	66263
17,52078	68779
17,52490	69396
17,52902	74742
17,53313	78873
17,53727	81676
17,54138	87604
17,54550	97828
17,54963	107588
17,55375	118858
17,55787	126855
17,56200	136102
17,56612	142684
17,57023	144462
17,57437	148268
17,57848	138384
17,58260	134812
17,58673	129018
17,59085	123337
17,59497	111714
17,59910	106090
17,60322	99666
17,60733	94196
17,61147	87253
17,61558	86260
17,61970	82259
17,62382	77932
17,62795	76289
17,63207	73310
17,63618	71953
17,64032	67377
17,64443	68376
17,64855	67801
17,65268	66793
17,65680	65751
17,66092	68026
17,66505	67394
17,66917	66227
17,67328	63495
17,67742	64679
17,68153	65071
17,68565	65339
17,68978	61735
17,69390	62974
17,69802	61432
17,70215	60460
17,70627	60515
17,71038	60937
17,71450	60354
17,71863	57720
17,72275	56926
17,72687	59539
17,73100	57936
17,73512	58012
17,73923	59741
17,74337	60619
17,74748	57310
17,75160	55994
17,75573	57717
17,75985	59348
17,76397	58081
17,76810	56270
17,77222	56487
17,77633	56997
17,78047	56887
17,78458	58174
17,78870	56853
17,79283	56468
17,79695	57295
17,80107	57433
17,80518	54302
17,80932	53653
17,81343	55147
17,81755	54671
17,82168	55747
17,82580	55974
17,82992	56318
17,83405	56025
17,83817	57123
17,84228	57404
17,84642	53869
17,85053	53946
17,85465	55106
17,85878	54662
17,86290	54221
17,86702	56385
17,87115	51957
17,87527	54218
17,87938	55932
17,88352	53694
17,88763	55486
17,89175	51329
17,89587	53326
17,90000	55649
17,90412	54634
17,90823	54043
17,91237	53177
17,91648	51117
17,92060	50816
17,92473	53402
17,92885	50639
17,93297	52287
17,93710	49241
17,94122	48917
17,94533	51230
17,94947	51466
17,95358	51293
17,95770	52459
17,96183	52112
17,96595	52763
17,97007	52949
17,97420	54898
17,97832	52559
17,98243	53390
17,98655	53410
17,99068	51161
17,99480	51459
17,99892	51706
18,00305	51033
18,00717	51395
18,01128	53217
18,01542	53001
18,01953	52946
18,02365	51683
18,02778	51707
18,03190	50240
18,03602	48515
18,04015	49531
18,04427	49808
18,04838	51541
18,05252	51373
18,05663	50522
18,06075	49879
18,06488	46921
18,06900	49459
18,07312	50078
18,07723	50597
18,08137	48867
18,08548	49223
18,08960	48537
18,09373	51058
18,09785	52518
18,10197	52209
18,10610	51803
18,11022	51827
18,11433	51527
18,11847	51934
18,12258	49653
18,12670	50363
18,13083	53655
18,13495	52532
18,13907	50774
18,14320	51847
18,14732	51837
18,15143	59786
18,15557	63463
18,15968	74850
18,16380	94569
18,16792	123033
18,17205	165856
18,17617	221414
18,18028	301235
18,18442	388443
18,18853	488215
18,19265	598847
18,19678	689409
18,20090	767005
18,20502	826265
18,20915	847111
18,21327	850521
18,21738	818118
18,22152	767452
18,22563	723614
18,22975	653032
18,23388	589711
18,23800	529046
18,24212	474097
18,24625	416369
18,25037	376103
18,25448	337324
18,25860	307602
18,26273	276193
18,26685	248277
18,27097	226841
18,27510	213630
18,27922	197581
18,28333	182323
18,28747	169749
18,29158	161254
18,29570	149431
18,29983	142558
18,30395	137135
18,30807	127363
18,31220	127588
18,31632	120904
18,32043	117301
18,32457	112911
18,32868	109225
18,33280	104414
18,33693	102413
18,34105	98736
18,34517	94721
18,34928	94603
18,35342	91919
18,35753	89964
18,36165	85827
18,36578	86553
18,36990	83127
18,37402	81862
18,37815	77600
18,38227	77790
18,38638	78329
18,39052	77504
18,39463	74316
18,39875	75803
18,40288	75072
18,40700	74299
18,41112	70379
18,41525	68671
18,41937	69303
18,42348	70463
18,42762	65914
18,43173	66904
18,43585	67229
18,43997	69175
18,44410	66740
18,44822	67807
18,45233	67871
18,45647	65860
18,46058	64914
18,46470	63567
18,46883	62658
18,47295	62737
18,47707	60163
18,48120	62461
18,48532	60798
18,48943	62622
18,49357	59997
18,49768	60121
18,50180	59410
18,50593	58394
18,51005	57979
18,51417	58646
18,51830	57807
18,52242	54863
18,52653	56143
18,53065	54509
18,53478	54697
18,53890	57158
18,54302	55758
18,54715	52994
18,55127	53424
18,55538	55435
18,55952	53025
18,56363	55058
18,56775	53160
18,57188	55977
18,57600	51074
18,58012	53375
18,58425	52284
18,58837	52651
18,59248	53314
18,59662	53376
18,60073	51438
18,60485	52697
18,60898	51324
18,61310	55300
18,61722	52238
18,62133	52701
18,62547	51768
18,62958	52112
18,63370	53369
18,63783	51900
18,64195	52753
18,64607	50407
18,65020	52591
18,65432	51019
18,65843	53360
18,66257	51983
18,66668	51772
18,67080	50181
18,67493	51052
18,67905	54783
18,68317	48483
18,68730	50662
18,69142	49848
18,69553	49709
18,69967	50418
18,70378	52198
18,70790	50597
18,71203	49429
18,71615	53972
18,72027	49617
18,72438	55126
18,72852	50489
18,73263	49504
18,73675	51245
18,74088	50040
18,74500	50717
18,74912	50959
18,75325	50259
18,75737	49516
18,76148	50051
18,76562	46599
18,76973	48810
18,77385	49842
18,77798	50028
18,78210	48176
18,78622	48427
18,79035	48120
18,79447	48826
18,79858	47241
18,80272	48268
18,80683	47385
18,81095	49655
18,81507	49228
18,81920	48406
18,82332	47674
18,82743	50763
18,83157	47290
18,83568	48671
18,83980	48360
18,84393	48940
18,84805	50257
18,85217	48243
18,85630	51274
18,86042	47581
18,86453	49282
18,86867	50219
18,87278	48373
18,87690	49561
18,88103	49854
18,88515	49126
18,88927	48617
18,89340	49869
18,89752	50118
18,90163	49152
18,90575	48222
18,90988	50454
18,91400	49568
18,91812	47197
18,92225	47700
18,92637	49786
18,93048	49797
18,93462	49883
18,93873	48954
18,94285	47854
18,94698	47448
18,95110	47887
18,95522	49170
18,95935	49215
18,96347	47951
18,96758	47456
18,97172	49051
18,97583	46604
18,97995	45597
18,98408	46082
18,98820	46971
18,99232	48278
18,99643	46168
19,00057	45955
19,00468	46924
19,00880	44502
19,01293	48732
19,01705	45841
19,02117	47059
19,02530	47359
19,02942	47441
19,03353	48210
19,03767	48157
19,04178	48154
19,04590	46602
19,05003	45950
19,05415	50459
19,05827	48574
19,06240	47223
19,06652	46247
19,07063	46601
19,07477	43926
19,07888	46888
19,08300	46530
19,08712	47386
19,09125	44749
19,09537	47904
19,09948	45940
19,10362	47204
19,10773	46927
19,11185	47588
19,11598	45413
19,12010	43756
19,12422	45971
19,12835	47653
19,13247	47160
19,13658	46613
19,14072	45923
19,14483	45502
19,14895	45500
19,15308	47024
19,15720	47040
19,16132	45099
19,16545	48021
19,16957	48969
19,17368	47383
19,17780	46372
19,18193	46552
19,18605	48300
19,19017	48460
19,19430	45506
19,19842	45231
19,20253	49422
19,20667	44577
19,21078	47077
19,21490	48160
19,21903	48516
19,22315	48326
19,22727	46332
19,23140	49847
19,23552	47957
19,23963	47926
19,24377	50686
19,24788	48544
19,25200	48181
19,25613	47665
19,26025	46517
19,26437	48227
19,26848	47868
19,27262	47202
19,27673	50199
19,28085	47450
19,28498	47780
19,28910	49604
19,29322	50012
19,29735	49353
19,30147	48509
19,30558	50728
19,30972	49610
19,31383	48645
19,31795	49120
19,32208	49074
19,32620	47631
19,33032	49785
19,33445	49581
19,33857	46934
19,34268	47761
19,34682	48502
19,35093	46800
19,35505	44683
19,35917	46516
19,36330	46940
19,36742	47238
19,37153	47027
19,37567	44476
19,37978	44829
19,38390	47379
19,38803	43831
19,39215	46573
19,39627	44872
19,40040	44398
19,40452	44131
19,40863	45802
19,41277	42893
19,41688	43580
19,42100	43828
19,42513	43906
19,42925	46624
19,43337	44113
19,43750	46150
19,44162	45590
19,44573	45337
19,44985	46840
19,45398	45271
19,45810	46123
19,46222	45410
19,46635	43629
19,47047	47781
19,47458	44301
19,47872	45888
19,48283	44056
19,48695	43314
19,49108	44420
19,49520	45149
19,49932	44954
19,50345	44088
19,50757	44714
19,51168	42869
19,51582	43285
19,51993	43583
19,52405	43193
19,52818	44522
19,53230	46263
19,53642	42305
19,54053	41865
19,54467	45217
19,54878	44256
19,55290	41535
19,55703	45360
19,56115	43690
19,56527	43420
19,56940	44890
19,57352	44326
19,57763	44001
19,58177	42999
19,58588	44302
19,59000	43946
19,59413	43491
19,59825	43500
19,60237	41961
19,60650	43169
19,61062	43449
19,61473	45965
19,61887	43588
19,62298	43114
19,62710	43183
19,63122	42822
19,63535	46284
19,63947	45099
19,64358	46972
19,64772	46288
19,65183	44904
19,65595	43961
19,66008	43962
19,66420	44735
19,66832	44761
19,67245	44824
19,67657	46947
19,68068	44552
19,68482	44144
19,68893	45035
19,69305	44511
19,69718	41039
19,70130	47564
19,70542	43169
19,70955	43507
19,71367	46081
19,71778	45628
19,72190	44797
19,72603	44384
19,73015	46433
19,73427	44159
19,73840	44592
19,74252	44256
19,74663	47929
19,75077	43335
19,75488	44696
19,75900	42717
19,76313	42696
19,76725	42592
19,77137	45159
19,77550	43828
19,77962	42026
19,78373	42661
19,78787	44603
19,79198	42772
19,79610	42438
19,80023	42382
19,80435	41884
19,80847	43136
19,81258	43263
19,81672	43304
19,82083	41626
19,82495	42169
19,82908	43208
19,83320	42510
19,83732	42477
19,84145	43335
19,84557	43824
19,84968	43255
19,85382	43549
19,85793	42583
19,86205	43698
19,86618	43615
19,87030	41760
19,87442	43334
19,87855	41897
19,88267	40948
19,88678	41842
19,89092	43996
19,89503	41968
19,89915	43800
19,90327	45402
19,90740	42801
19,91152	44855
19,91563	42777
19,91977	41898
19,92388	41193
19,92800	42033
19,93213	43128
19,93625	43572
19,94037	42545
19,94450	41063
19,94862	42555
19,95273	41881
19,95687	40205
19,96098	42045
19,96510	44102
19,96923	41803
19,97335	42228
19,97747	42020
19,98160	42303
19,98572	42899
19,98983	42485
19,99395	42381
19,99808	41878
20,00220	41350
20,00632	44797
20,01045	40171
20,01457	43234
20,01868	40453
20,02282	42235
20,02693	40115
20,03105	40750
20,03518	42281
20,03930	41647
20,04342	41771
20,04755	40671
20,05167	40919
20,05578	41394
20,05992	40687
20,06403	40597
20,06815	42014
20,07228	41775
20,07640	39009
20,08052	42425
20,08463	43390
20,08877	42899
20,09288	41663
20,09700	41741
20,10113	44340
20,10525	43019
20,10937	42047
20,11350	42393
20,11762	43804
20,12173	43929
20,12587	45189
20,12998	41151
20,13410	42020
20,13823	40770
20,14235	43365
20,14647	43196
20,15060	43409
20,15472	42996
20,15883	43395
20,16297	44635
20,16708	41586
20,17120	40531
20,17532	41293
20,17945	41932
20,18357	39623
20,18768	42351
20,19182	43008
20,19593	40082
20,20005	40230
20,20418	39594
20,20830	42317
20,21242	41162
20,21655	41016
20,22067	40845
20,22478	41559
20,22892	40679
20,23303	41905
20,23715	40592
20,24128	43342
20,24540	41016
20,24952	41167
20,25365	42938
20,25777	42050
20,26188	44101
20,26602	43993
20,27013	43139
20,27425	47309
20,27837	46841
20,28250	44170
20,28662	46931
20,29073	43942
20,29487	46118
20,29898	43934
20,30310	47031
20,30723	44253
20,31135	43187
20,31547	45256
20,31960	44488
20,32372	40592
20,32783	44442
20,33197	42686
20,33608	45186
20,34020	41737
20,34433	42518
20,34845	42435
20,35257	42809
20,35670	42336
20,36082	44691
20,36493	42587
20,36905	43648
20,37318	43272
20,37730	42808
20,38142	42689
20,38555	40780
20,38967	42018
20,39378	41333
20,39792	43695
20,40203	39888
20,40615	41691
20,41028	42218
20,41440	43433
20,41852	41176
20,42265	43686
20,42677	42578
20,43088	42001
20,43502	43174
20,43913	40770
20,44325	40905
20,44738	39925
20,45150	41945
20,45562	41505
20,45973	42323
20,46387	40755
20,46798	40540
20,47210	41056
20,47623	40769
20,48035	43421
20,48447	42159
20,48860	41398
20,49272	42728
20,49683	41801
20,50097	41801
20,50508	41556
20,50920	41126
20,51333	41578
20,51745	42276
20,52157	42717
20,52570	38207
20,52982	41758
20,53393	43027
20,53807	44712
20,54218	41293
20,54630	41156
20,55042	40093
20,55455	41918
20,55867	39288
20,56278	42483
20,56692	41579
20,57103	40655
20,57515	39170
20,57928	41884
20,58340	40823
20,58752	41370
20,59165	39878
20,59577	39988
20,59988	40928
20,60402	40718
20,60813	41856
20,61225	38620
20,61638	41160
20,62050	42346
20,62462	40962
20,62875	38527
20,63287	41621
20,63698	42263
20,64110	40433
20,64523	40178
20,64935	40968
20,65347	45958
20,65760	43893
20,66172	43078
20,66583	42646
20,66997	45177
20,67408	45760
20,67820	45188
20,68233	46234
20,68645	44225
20,69057	46328
20,69470	45367
20,69882	46225
20,70293	46336
20,70707	43612
20,71118	46347
20,71530	46791
20,71943	44519
20,72355	44017
20,72767	42266
20,73178	44373
20,73592	43869
20,74003	42523
20,74415	44025
20,74828	42996
20,75240	40938
20,75652	42551
20,76065	41842
20,76477	43520
20,76888	39394
20,77302	42425
20,77713	41436
20,78125	38705
20,78538	42464
20,78950	41129
20,79362	40080
20,79775	41636
20,80187	41516
20,80598	40071
20,81012	42818
20,81423	41289
20,81835	40760
20,82247	43204
20,82660	42699
20,83072	40521
20,83483	38833
20,83897	39502
20,84308	40336
20,84720	42029
20,85133	40120
20,85545	40858
20,85957	40043
20,86370	39892
20,86782	42181
20,87193	41261
20,87607	40266
20,88018	40661
20,88430	40928
20,88843	42581
20,89255	42133
20,89667	42391
20,90080	42322
20,90492	40363
20,90903	38752
20,91315	38880
20,91728	39566
20,92140	41389
20,92552	42336
20,92965	41306
20,93377	41398
20,93788	40615
20,94202	39190
20,94613	41221
20,95025	37435
20,95438	42132
20,95850	38169
20,96262	38668
20,96675	42398
20,97087	38547
20,97498	39946
20,97912	40147
20,98323	39460
20,98735	39031
20,99148	40026
20,99560	41669
20,99972	39410
21,00383	42632
21,00797	41549
21,01208	40047
21,01620	40494
21,02033	40986
21,02445	39016
21,02857	40663
21,03270	41302
21,03682	43214
21,04093	40491
21,04507	42405
21,04918	43002
21,05330	43479
21,05743	39665
21,06155	41423
21,06567	40450
21,06980	42375
21,07392	40732
21,07803	40109
21,08217	38463
21,08628	40369
21,09040	39173
21,09452	41114
21,09865	39335
21,10277	39377
21,10688	39451
21,11102	40958
21,11513	37106
21,11925	41125
21,12338	40499
21,12750	41272
21,13162	39440
21,13575	40953
21,13987	40313
21,14398	38825
21,14812	39641
21,15223	42291
21,15635	39490
21,16048	41006
21,16460	41419
21,16872	41574
21,17285	36816
21,17697	39450
21,18108	38745
21,18520	40218
21,18933	39666
21,19345	40350
21,19757	40808
21,20170	37840
21,20582	41154
21,20993	39306
21,21407	38059
21,21818	39983
21,22230	40155
21,22643	38606
21,23055	39189
21,23467	38719
21,23880	39259
21,24292	39666
21,24703	40208
21,25117	38265
21,25528	38577
21,25940	40061
21,26353	38095
21,26765	38824
21,27177	39827
21,27588	37406
21,28002	41402
21,28413	38832
21,28825	36608
21,29238	36303
21,29650	39299
21,30062	39833
21,30475	40159
21,30887	39547
21,31298	39411
21,31712	37341
21,32123	37300
21,32535	38220
21,32948	40143
21,33360	38545
21,33772	40272
21,34185	39962
21,34597	38148
21,35008	39609
21,35422	39157
21,35833	39411
21,36245	39685
21,36657	40761
21,37070	37423
21,37482	37320
21,37893	36805
21,38307	38222
21,38718	37618
21,39130	38670
21,39543	37776
21,39955	39939
21,40367	39336
21,40780	37570
21,41192	39033
21,41603	38733
21,42017	37598
21,42428	39582
21,42840	36761
21,43253	39063
21,43665	40090
21,44077	37802
21,44490	38473
21,44902	35743
21,45313	38545
21,45725	37374
21,46138	38950
21,46550	37129
21,46962	37626
21,47375	37513
21,47787	39150
21,48198	40087
21,48612	38328
21,49023	37581
21,49435	38955
21,49848	38206
21,50260	37063
21,50672	38856
21,51085	38279
21,51497	38718
21,51908	38545
21,52322	39442
21,52733	38962
21,53145	39151
21,53558	38115
21,53970	38744
21,54382	39443
21,54793	39983
21,55207	38707
21,55618	38368
21,56030	38007
21,56443	37573
21,56855	39410
21,57267	36936
21,57680	39624
21,58092	37876
21,58503	37397
21,58917	37625
21,59328	38499
21,59740	37149
21,60153	39440
21,60565	38269
21,60977	39933
21,61390	38018
21,61802	37625
21,62213	39364
21,62627	38478
21,63038	38762
21,63450	38043
21,63862	38323
21,64275	38101
21,64687	37980
21,65098	38180
21,65512	37775
21,65923	37243
21,66335	38914
21,66748	38400
21,67160	37306
21,67572	39969
21,67985	40054
21,68397	40474
21,68808	41181
21,69222	40258
21,69633	37976
21,70045	40053
21,70458	38190
21,70870	43284
21,71282	40772
21,71695	39096
21,72107	40268
21,72518	40289
21,72930	39963
21,73343	41384
21,73755	40740
21,74167	40620
21,74580	39233
21,74992	39440
21,75403	40880
21,75817	40561
21,76228	40992
21,76640	40578
21,77053	39242
21,77465	40934
21,77877	42022
21,78290	41775
21,78702	41320
21,79113	40883
21,79527	39780
21,79938	40294
21,80350	41371
21,80763	39964
21,81175	38094
21,81587	40748
21,81998	38328
21,82412	38090
21,82823	39602
21,83235	39234
21,83648	40582
21,84060	37009
21,84472	39037
21,84885	40695
21,85297	39790
21,85708	39976
21,86122	39888
21,86533	39300
21,86945	38474
21,87358	38487
21,87770	39506
21,88182	39222
21,88595	40303
21,89007	38835
21,89418	38579
21,89832	39396
21,90243	37784
21,90655	39212
21,91067	39025
21,91480	37335
21,91892	37867
21,92303	39391
21,92717	39723
21,93128	38087
21,93540	37433
21,93953	40129
21,94365	40374
21,94777	39544
21,95190	34738
21,95602	38494
21,96013	40320
21,96427	37952
21,96838	37600
21,97250	37001
21,97663	38839
21,98075	38124
21,98487	37230
21,98900	38064
21,99312	41343
21,99723	39586
22,00137	37460
22,00548	38810
22,00960	38631
22,01372	36103
22,01785	37812
22,02197	39603
22,02608	38831
22,03022	39297
22,03433	37469
22,03845	38113
22,04258	37597
22,04670	40520
22,05082	39637
22,05495	40436
22,05907	37946
22,06318	36280
22,06732	40133
22,07143	40446
22,07555	36824
22,07968	36426
22,08380	38997
22,08792	37894
22,09205	40839
22,09617	39095
22,10028	37429
22,10440	39328
22,10853	39421
22,11265	39710
22,11677	37833
22,12090	39307
22,12502	40334
22,12913	38808
22,13327	39660
22,13738	37366
22,14150	39523
22,14563	38833
22,14975	38743
22,15387	37350
22,15800	37215
22,16212	38313
22,16623	37831
22,17037	36415
22,17448	39750
22,17860	38699
22,18273	39170
22,18685	39413
22,19097	39809
22,19508	36989
22,19922	39245
22,20333	38501
22,20745	39237
22,21158	40600
22,21570	38004
22,21982	38540
22,22395	37504
22,22807	39598
22,23218	38591
22,23632	38661
22,24043	39306
22,24455	40109
22,24868	38777
22,25280	39301
22,25692	38198
22,26105	38208
22,26517	41281
