D:\MassHunter\GCMS\1\data\Amal\Constant flow\120C\120C_1ml-min_8C-min_3.D Mon Sep 16 18:57:06 2024
Start of data points
5,29083,187608
5,29495,183972
5,29907,180898
5,30320,179498
5,30732,181127
5,31143,179310
5,31557,176260
5,31968,176026
5,32380,176909
5,32793,174998
5,33205,173657
5,33617,170658
5,34030,169728
5,34442,167262
5,34853,168064
5,35267,166642
5,35678,164253
5,36090,163471
5,36503,161523
5,36915,162283
5,37327,160477
5,37740,161646
5,38152,171753
5,38563,195125
5,38975,233401
5,39388,305135
5,39800,416294
5,40212,553443
5,40625,682459
5,41037,802687
5,41448,886654
5,41862,932146
5,42273,950661
5,42685,935515
5,43098,905303
5,43510,875970
5,43922,841521
5,44335,813541
5,44747,784283
5,45158,750224
5,45572,720690
5,45983,695267
5,46395,658530
5,46808,631591
5,47220,600998
5,47632,581852
5,48043,561407
5,48457,542130
5,48868,523394
5,49280,505534
5,49693,478456
5,50105,466595
5,50517,446618
5,50930,423646
5,51342,408588
5,51753,392658
5,52167,377721
5,52578,366174
5,52990,352333
5,53403,337333
5,53815,323808
5,54227,313928
5,54640,296079
5,55052,287453
5,55463,272111
5,55877,258137
5,56288,244264
5,56700,233731
5,57112,221762
5,57525,212172
5,57937,200065
5,58348,192457
5,58762,187139
5,59173,179045
5,59585,169184
5,59998,164018
5,60410,159998
5,60822,154792
5,61235,151538
5,61647,146244
5,62058,143234
5,62472,137484
5,62883,135940
5,63295,131395
5,63708,129733
5,64120,129752
5,64532,125995
5,64945,124479
5,65357,115995
5,65768,118047
5,66180,119557
5,66593,113950
5,67005,113025
5,67417,111883
5,67830,108011
5,68242,110974
5,68653,111384
5,69067,110301
5,69478,107254
5,69890,108104
5,70303,107924
5,70715,107118
5,71127,108932
5,71540,102500
5,71952,103891
5,72363,103056
5,72777,100712
5,73188,101555
5,73600,101189
5,74013,101657
5,74425,99551
5,74837,98595
5,75248,96067
5,75662,98241
5,76073,99512
5,76485,98387
5,76898,93383
5,77310,96474
5,77722,98089
5,78135,97561
5,78547,99385
5,78958,96896
5,79372,98040
5,79783,97947
5,80195,96277
5,80608,92974
5,81020,93977
5,81432,94015
5,81845,94672
5,82257,94678
5,82668,93224
5,83082,94323
5,83493,95458
5,83905,92187
5,84317,91429
5,84730,93320
5,85142,92676
5,85553,92926
5,85967,93960
5,86378,94235
5,86790,93683
5,87203,94568
5,87615,90814
5,88027,90524
5,88440,90817
5,88852,91215
5,89263,90083
5,89677,89326
5,90088,90621
5,90500,91183
5,90913,89974
5,91325,89770
5,91737,91303
5,92150,88970
5,92562,88021
5,92973,87552
5,93385,84059
5,93798,86203
5,94210,85896
5,94622,86808
5,95035,88173
5,95447,86162
5,95858,85445
5,96272,86470
5,96683,84080
5,97095,83526
5,97508,84421
5,97920,85126
5,98332,82398
5,98745,83062
5,99157,81926
5,99568,83172
5,99982,81283
6,00393,84007
6,00805,84640
6,01218,82010
6,01630,80598
6,02042,82319
6,02453,81739
6,02867,80097
6,03278,81906
6,03690,79644
6,04103,79871
6,04515,77708
6,04927,81689
6,05340,81130
6,05752,78282
6,06163,80931
6,06577,78709
6,06988,78985
6,07400,79037
6,07813,81487
6,08225,82001
6,08637,81022
6,09050,82137
6,09462,82003
6,09873,81108
6,10287,83013
6,10698,79656
6,11110,79825
6,11523,81641
6,11935,75699
6,12347,80649
6,12758,78859
6,13172,78072
6,13583,79517
6,13995,75562
6,14408,76756
6,14820,74398
6,15232,75806
6,15645,76911
6,16057,78006
6,16468,74780
6,16882,73695
6,17293,75729
6,17705,76943
6,18118,74407
6,18530,75621
6,18942,74199
6,19355,74196
6,19767,73311
6,20178,71200
6,20592,71561
6,21003,67578
6,21415,68669
6,21827,66010
6,22240,62412
6,22652,65738
6,23063,62779
6,23477,63160
6,23888,61545
6,24300,63023
6,24713,61229
6,25125,62089
6,25537,59940
6,25950,61762
6,26362,60692
6,26773,61422
6,27187,61828
6,27598,62248
6,28010,59867
6,28423,61331
6,28835,61345
6,29247,60112
6,29660,59797
6,30072,60002
6,30483,62344
6,30895,60579
6,31308,60632
6,31720,58644
6,32132,61792
6,32545,59032
6,32957,61405
6,33368,60924
6,33782,60507
6,34193,58648
6,34605,58824
6,35018,57070
6,35430,61250
6,35842,67309
6,36255,81073
6,36667,109313
6,37078,158640
6,37492,246159
6,37903,367140
6,38315,529824
6,38728,712138
6,39140,879104
6,39552,1039097
6,39963,1153793
6,40377,1207754
6,40788,1232494
6,41200,1219454
6,41613,1189431
6,42025,1148355
6,42437,1095639
6,42850,1031584
6,43262,982905
6,43673,927339
6,44087,878769
6,44498,829304
6,44910,770167
6,45323,735963
6,45735,681449
6,46147,640289
6,46560,599163
6,46972,555875
6,47383,524686
6,47797,496144
6,48208,461761
6,48620,424832
6,49032,393539
6,49445,358499
6,49857,332864
6,50268,306807
6,50682,276231
6,51093,252364
6,51505,233858
6,51918,206706
6,52330,193469
6,52742,172339
6,53155,159226
6,53567,146920
6,53978,131027
6,54392,128985
6,54803,119472
6,55215,111304
6,55628,104027
6,56040,96113
6,56452,93407
6,56865,88447
6,57277,84103
6,57688,82348
6,58100,78527
6,58513,76069
6,58925,72486
6,59337,70546
6,59750,67598
6,60162,67036
6,60573,62182
6,60987,63305
6,61398,61482
6,61810,62122
6,62223,60736
6,62635,56002
6,63047,56756
6,63460,57425
6,63872,55941
6,64283,56727
6,64697,55181
6,65108,54780
6,65520,53019
6,65933,51354
6,66345,54037
6,66757,52208
6,67168,52830
6,67582,50974
6,67993,50732
6,68405,52060
6,68818,53316
6,69230,51318
6,69642,51257
6,70055,53081
6,70467,50262
6,70878,49905
6,71292,49755
6,71703,48959
6,72115,49183
6,72528,47765
6,72940,47446
6,73352,48387
6,73765,47404
6,74177,46967
6,74588,45631
6,75002,46022
6,75413,47132
6,75825,46325
6,76237,45821
6,76650,47563
6,77062,45739
6,77473,45777
6,77887,46538
6,78298,47321
6,78710,45157
6,79123,45979
6,79535,45402
6,79947,43362
6,80360,45018
6,80772,44072
6,81183,42234
6,81597,44067
6,82008,43148
6,82420,44034
6,82833,41500
6,83245,41212
6,83657,41658
6,84070,41454
6,84482,41614
6,84893,40253
6,85305,42892
6,85718,39553
6,86130,41118
6,86542,40310
6,86955,40084
6,87367,41179
6,87778,39687
6,88192,40270
6,88603,42173
6,89015,40196
6,89428,40314
6,89840,38543
6,90252,38628
6,90665,39181
6,91077,40532
6,91488,39932
6,91902,39867
6,92313,39737
6,92725,38546
6,93138,38407
6,93550,38123
6,93962,39855
6,94373,39892
6,94787,38920
6,95198,40886
6,95610,38428
6,96023,41069
6,96435,40187
6,96847,38763
6,97260,37416
6,97672,40710
6,98083,38945
6,98497,37808
6,98908,38734
6,99320,40061
6,99733,46226
7,00145,55026
7,00557,70926
7,00970,106464
7,01382,161033
7,01793,234389
7,02207,322223
7,02618,428957
7,03030,526249
7,03442,614837
7,03855,673839
7,04267,714726
7,04678,726027
7,05092,730163
7,05503,707036
7,05915,675271
7,06328,654244
7,06740,607736
7,07152,573280
7,07565,540903
7,07977,503520
7,08388,462522
7,08802,431853
7,09213,390817
7,09625,360506
7,10038,330496
7,10450,306988
7,10862,280978
7,11275,254194
7,11687,225781
7,12098,206626
7,12510,187124
7,12923,166585
7,13335,149457
7,13747,134003
7,14160,120118
7,14572,109058
7,14983,100522
7,15397,91309
7,15808,84508
7,16220,77796
7,16633,73932
7,17045,67915
7,17457,61691
7,17870,61541
7,18282,60311
7,18693,55942
7,19107,52721
7,19518,51891
7,19930,47446
7,20343,48186
7,20755,46928
7,21167,44099
7,21578,45782
7,21992,44838
7,22403,41431
7,22815,44652
7,23228,43300
7,23640,41286
7,24052,41262
7,24465,38877
7,24877,40203
7,25288,38528
7,25702,37493
7,26113,39716
7,26525,36213
7,26938,38724
7,27350,39226
7,27762,39399
7,28175,40256
7,28587,40482
7,28998,40073
7,29412,39631
7,29823,40129
7,30235,39182
7,30647,40786
7,31060,39588
7,31472,40739
7,31883,41368
7,32297,39977
7,32708,40709
7,33120,40790
7,33533,40718
7,33945,39650
7,34357,39321
7,34770,37195
7,35182,37638
7,35593,38085
7,36007,35602
7,36418,37108
7,36830,36917
7,37243,35103
7,37655,34561
7,38067,36568
7,38480,35608
7,38892,37361
7,39303,34402
7,39715,34053
7,40128,34305
7,40540,32764
7,40952,32497
7,41365,34930
7,41777,33090
7,42188,32979
7,42602,33018
7,43013,33200
7,43425,33033
7,43838,32807
7,44250,32360
7,44662,31781
7,45075,31785
7,45487,32351
7,45898,31210
7,46312,31295
7,46723,31829
7,47135,30646
7,47548,30914
7,47960,31063
7,48372,30714
7,48783,31089
7,49197,30476
7,49608,30819
7,50020,29392
7,50433,29652
7,50845,28756
7,51257,29693
7,51670,29907
7,52082,31856
7,52493,28059
7,52907,29558
7,53318,29132
7,53730,29697
7,54143,30905
7,54555,29268
7,54967,30314
7,55380,28857
7,55792,29505
7,56203,31538
7,56617,29984
7,57028,27773
7,57440,28495
7,57852,28343
7,58265,28739
7,58677,28397
7,59088,28631
7,59502,29634
7,59913,27809
7,60325,27690
7,60738,28750
7,61150,30120
7,61562,26997
7,61975,30196
7,62387,29663
7,62798,28710
7,63212,28612
7,63623,28993
7,64035,28899
7,64448,29213
7,64860,29213
7,65272,29876
7,65685,29132
7,66097,28386
7,66508,29839
7,66920,27875
7,67333,28988
7,67745,29315
7,68157,29922
7,68570,28643
7,68982,30705
7,69393,28250
7,69807,29051
7,70218,29910
7,70630,31015
7,71043,37095
7,71455,46523
7,71867,73110
7,72280,117870
7,72692,197372
7,73103,319092
7,73517,486085
7,73928,701116
7,74340,959184
7,74753,1213473
7,75165,1421912
7,75577,1586337
7,75990,1688279
7,76402,1725948
7,76813,1719003
7,77225,1675259
7,77638,1580766
7,78050,1473282
7,78462,1359785
7,78875,1258264
7,79287,1148016
7,79698,1044301
7,80112,938475
7,80523,834819
7,80935,725196
7,81348,645024
7,81760,564950
7,82172,491191
7,82585,427837
7,82997,363479
7,83408,314733
7,83822,269101
7,84233,235007
7,84645,203543
7,85058,179689
7,85470,154140
7,85882,139406
7,86293,127142
7,86707,109645
7,87118,102528
7,87530,92022
7,87943,83192
7,88355,77903
7,88767,69869
7,89180,69198
7,89592,64044
7,90003,60154
7,90417,56830
7,90828,55838
7,91240,54950
7,91653,50984
7,92065,50928
7,92477,48854
7,92890,44997
7,93302,45043
7,93713,42304
7,94127,42421
7,94538,43181
7,94950,38589
7,95362,37023
7,95775,37616
7,96187,39990
7,96598,38395
7,97012,35400
7,97423,36040
7,97835,35465
7,98248,36515
7,98660,34093
7,99072,34520
7,99485,33342
7,99897,33438
8,00308,32430
8,00722,32799
8,01133,32131
8,01545,32223
8,01958,31117
8,02370,33805
8,02782,32710
8,03195,28841
8,03607,30341
8,04018,29974
8,04430,28895
8,04843,29929
8,05255,29459
8,05667,29900
8,06080,30949
8,06492,27726
8,06903,28323
8,07317,27875
8,07728,28955
8,08140,28642
8,08553,28051
8,08965,28799
8,09377,27693
8,09790,27368
8,10202,27275
8,10613,27950
8,11027,27286
8,11438,24400
8,11850,28360
8,12263,27132
8,12675,28748
8,13087,26554
8,13498,26865
8,13912,28077
8,14323,28259
8,14735,27543
8,15148,25956
8,15560,25292
8,15972,25628
8,16385,25842
8,16797,24672
8,17208,26247
8,17622,25671
8,18033,25411
8,18445,25700
8,18858,25715
8,19270,26781
8,19682,24381
8,20095,25226
8,20507,25111
8,20918,25611
8,21332,25365
8,21743,24851
8,22155,25180
8,22567,25590
8,22980,24093
8,23392,24109
8,23803,25498
8,24217,24448
8,24628,24004
8,25040,24080
8,25453,25368
8,25865,23367
8,26277,24746
8,26690,25694
8,27102,25203
8,27513,25810
8,27927,26508
8,28338,23192
8,28750,24696
8,29163,25057
8,29575,24486
8,29987,24846
8,30400,24602
8,30812,24250
8,31223,24229
8,31635,25014
8,32048,24037
8,32460,23203
8,32872,23912
8,33285,24608
8,33697,25186
8,34108,24360
8,34522,23770
8,34933,24657
8,35345,23634
8,35758,22762
8,36170,24106
8,36582,22650
8,36995,23816
8,37407,23049
8,37818,23978
8,38232,25271
8,38643,26683
8,39055,27772
8,39468,29077
8,39880,29214
8,40292,29967
8,40703,30130
8,41117,30182
8,41528,31243
8,41940,32059
8,42353,31754
8,42765,29616
8,43177,29518
8,43590,28486
8,44002,30258
8,44413,29128
8,44827,29139
8,45238,29408
8,45650,28772
8,46063,26151
8,46475,25829
8,46887,27101
8,47300,25263
8,47712,27482
8,48123,28810
8,48537,29491
8,48948,38946
8,49360,53033
8,49772,85362
8,50185,132220
8,50597,207857
8,51008,312431
8,51422,437790
8,51833,586552
8,52245,731259
8,52658,861988
8,53070,960572
8,53482,1018188
8,53895,1045839
8,54307,1020964
8,54718,971414
8,55132,901517
8,55543,829962
8,55955,746966
8,56368,663233
8,56780,575314
8,57192,503060
8,57605,431914
8,58017,365703
8,58428,306813
8,58840,256946
8,59253,219542
8,59665,188368
8,60077,161330
8,60490,135325
8,60902,121205
8,61313,104113
8,61727,91722
8,62138,81424
8,62550,75684
8,62963,68871
8,63375,61866
8,63787,58458
8,64200,51576
8,64612,49455
8,65023,47898
8,65437,46937
8,65848,41323
8,66260,42123
8,66673,38061
8,67085,37127
8,67497,38108
8,67908,34536
8,68322,34346
8,68733,33872
8,69145,31693
8,69558,34156
8,69970,30893
8,70382,30458
8,70795,29806
8,71207,29474
8,71618,27915
8,72032,28794
8,72443,28517
8,72855,27285
8,73268,28221
8,73680,26863
8,74092,28143
8,74505,26645
8,74917,26429
8,75328,26218
8,75742,25128
8,76153,24613
8,76565,25947
8,76977,25588
8,77390,24666
8,77802,25489
8,78213,25143
8,78627,23201
8,79038,23031
8,79450,24635
8,79863,23653
8,80275,23322
8,80687,22732
8,81100,21437
8,81512,23187
8,81923,21724
8,82337,20772
8,82748,20993
8,83160,22656
8,83573,21875
8,83985,22072
8,84397,20965
8,84810,21293
8,85222,22594
8,85633,22694
8,86045,22808
8,86458,20779
8,86870,21288
8,87282,21673
8,87695,20974
8,88107,21003
8,88518,22898
8,88932,22546
8,89343,21092
8,89755,21356
8,90168,22299
8,90580,22555
8,90992,24614
8,91405,23324
8,91817,25633
8,92228,25227
8,92642,25456
8,93053,25046
8,93465,26903
8,93878,25833
8,94290,23797
8,94702,23841
8,95113,25688
8,95527,24495
8,95938,23391
8,96350,23838
8,96763,21869
8,97175,21068
8,97587,22387
8,98000,21034
8,98412,21503
8,98823,21264
8,99237,20514
8,99648,21489
9,00060,20417
9,00473,20379
9,00885,20768
9,01297,20882
9,01710,21409
9,02122,20219
9,02533,19381
9,02947,20059
9,03358,21084
9,03770,18666
9,04182,19711
9,04595,21761
9,05007,20485
9,05418,18541
9,05832,20020
9,06243,19658
9,06655,19903
9,07068,18800
9,07480,18175
9,07892,18625
9,08305,20050
9,08717,20007
9,09128,20121
9,09542,18817
9,09953,20228
9,10365,19591
9,10778,18803
9,11190,19642
9,11602,19148
9,12015,18819
9,12427,19281
9,12838,20199
9,13250,21010
9,13663,19691
9,14075,21989
9,14487,21629
9,14900,25319
9,15312,23599
9,15723,24493
9,16137,24751
9,16548,25482
9,16960,25683
9,17373,23504
9,17785,24000
9,18197,23440
9,18610,24015
9,19022,23149
9,19433,24248
9,19847,22432
9,20258,20887
9,20670,21990
9,21083,21257
9,21495,21138
9,21907,20745
9,22318,21181
9,22732,21502
9,23143,21120
9,23555,19471
9,23968,19069
9,24380,18232
9,24792,19788
9,25205,20048
9,25617,19897
9,26028,19026
9,26442,20245
9,26853,18447
9,27265,18749
9,27678,18797
9,28090,18826
9,28502,20370
9,28915,21999
9,29327,28118
9,29738,41318
9,30152,72426
9,30563,129317
9,30975,224051
9,31388,380429
9,31800,606481
9,32212,903277
9,32623,1246339
9,33037,1589922
9,33448,1931690
9,33860,2184295
9,34273,2382355
9,34685,2449230
9,35097,2394222
9,35510,2266000
9,35922,2073158
9,36333,1836579
9,36747,1567686
9,37158,1323119
9,37570,1090929
9,37983,897767
9,38395,733677
9,38807,590591
9,39220,488109
9,39632,403590
9,40043,334334
9,40457,271815
9,40868,236226
9,41280,199795
9,41692,175106
9,42105,153453
9,42517,135777
9,42928,119343
9,43342,113290
9,43753,99787
9,44165,92708
9,44578,87398
9,44990,81813
9,45402,72944
9,45815,73783
9,46227,71568
9,46638,67935
9,47052,64580
9,47463,62228
9,47875,59696
9,48288,57790
9,48700,56475
9,49112,51591
9,49525,51140
9,49937,46996
9,50348,45305
9,50760,42299
9,51173,41121
9,51585,39394
9,51997,35770
9,52410,34947
9,52822,34298
9,53233,34088
9,53647,32463
9,54058,32493
9,54470,32057
9,54883,30195
9,55295,30474
9,55707,28049
9,56120,27919
9,56532,27136
9,56943,28690
9,57357,27696
9,57768,26229
9,58180,27179
9,58593,25513
9,59005,26773
9,59417,26561
9,59828,27487
9,60242,26998
9,60653,26942
9,61065,26714
9,61478,25068
9,61890,25660
9,62302,25785
9,62715,28499
9,63127,26778
9,63538,27611
9,63952,28738
9,64363,30071
9,64775,28959
9,65188,29817
9,65600,27824
9,66012,29152
9,66425,29682
9,66837,29369
9,67248,25871
9,67662,26805
9,68073,25987
9,68485,24167
9,68897,25895
9,69310,23104
9,69722,23296
9,70133,23112
9,70547,24367
9,70958,21260
9,71370,20509
9,71783,22748
9,72195,21458
9,72607,22494
9,73020,22565
9,73432,22893
9,73843,23326
9,74257,23143
9,74668,23848
9,75080,25445
9,75493,23765
9,75905,22812
9,76317,23302
9,76730,21803
9,77142,21576
9,77553,21195
9,77965,21085
9,78378,20128
9,78790,19212
9,79202,21685
9,79615,19362
9,80027,19829
9,80438,19754
9,80852,20270
9,81263,18814
9,81675,20284
9,82088,19459
9,82500,19845
9,82912,20604
9,83325,18439
9,83737,18277
9,84148,18186
9,84562,19991
9,84973,18651
9,85385,18278
9,85798,17727
9,86210,19228
9,86622,19073
9,87033,19114
9,87447,17516
9,87858,16822
9,88270,18705
9,88683,18088
9,89095,19197
9,89507,22638
9,89920,28254
9,90332,40424
9,90743,67338
9,91157,108637
9,91568,178730
9,91980,278881
9,92393,413157
9,92805,569131
9,93217,743675
9,93630,897994
9,94042,1039615
9,94453,1144426
9,94867,1179866
9,95278,1158197
9,95690,1094504
9,96102,1002270
9,96515,887802
9,96927,754909
9,97338,639736
9,97752,538599
9,98163,441989
9,98575,359838
9,98988,293149
9,99400,243015
9,99812,204877
10,00225,173226
10,00637,149401
10,01048,122468
10,01462,109970
10,01873,96894
10,02285,83203
10,02698,76365
10,03110,68185
10,03522,65124
10,03935,59546
10,04347,53774
10,04758,53208
10,05170,46708
10,05583,43418
10,05995,43536
10,06407,39908
10,06820,37950
10,07232,35795
10,07643,34710
10,08057,33820
10,08468,33911
10,08880,33039
10,09293,32138
10,09705,31583
10,10117,29194
10,10530,30582
10,10942,30080
10,11353,31690
10,11767,35838
10,12178,43870
10,12590,67496
10,13003,107071
10,13415,176662
10,13827,281155
10,14238,432839
10,14652,616153
10,15063,832150
10,15475,1027340
10,15888,1184772
10,16300,1314216
10,16712,1363461
10,17125,1357766
10,17537,1261577
10,17948,1125961
10,18362,992686
10,18773,835673
10,19185,680836
10,19598,562617
10,20010,452012
10,20422,362571
10,20835,286704
10,21247,242731
10,21658,198051
10,22072,168016
10,22483,140729
10,22895,124339
10,23307,109444
10,23720,93121
10,24132,82957
10,24543,77007
10,24957,72192
10,25368,64437
10,25780,59740
10,26193,55872
10,26605,51223
10,27017,49463
10,27430,46227
10,27842,42475
10,28253,43732
10,28667,39839
10,29078,39596
10,29490,38356
10,29903,35868
10,30315,33281
10,30727,32812
10,31140,33010
10,31552,33092
10,31963,32253
10,32375,30949
10,32788,29893
10,33200,30126
10,33612,27454
10,34025,26771
10,34437,27151
10,34848,25832
10,35262,24637
10,35673,24606
10,36085,23592
10,36498,25113
10,36910,24515
10,37322,24164
10,37735,23070
10,38147,23454
10,38558,23369
10,38972,20999
10,39383,22166
10,39795,21686
10,40208,20995
10,40620,21133
10,41032,21537
10,41443,20709
10,41857,19728
10,42268,21010
10,42680,21182
10,43093,20519
10,43505,19113
10,43917,18958
10,44330,18852
10,44742,20109
10,45153,20562
10,45567,21264
10,45978,18545
10,46390,19889
10,46803,18558
10,47215,18737
10,47627,17050
10,48040,18817
10,48452,17732
10,48863,19997
10,49277,19818
10,49688,18277
10,50100,18032
10,50512,17791
10,50925,19010
10,51337,17701
10,51748,17338
10,52162,17888
10,52573,18068
10,52985,17883
10,53398,18310
10,53810,17416
10,54222,17626
10,54635,18245
10,55047,17767
10,55458,17378
10,55872,18310
10,56283,18399
10,56695,18734
10,57108,18504
10,57520,17822
10,57932,18160
10,58345,18036
10,58757,19109
10,59168,18246
10,59580,17424
10,59993,18057
10,60405,17940
10,60817,18447
10,61230,18127
10,61642,17457
10,62053,18366
10,62467,18689
10,62878,17172
10,63290,17077
10,63703,17889
10,64115,17523
10,64527,17894
10,64940,17201
10,65352,18799
10,65763,17133
10,66177,18385
10,66588,17632
10,67000,19247
10,67413,18476
10,67825,18562
10,68237,17604
10,68648,16811
10,69062,17565
10,69473,17782
10,69885,16727
10,70298,16519
10,70710,16823
10,71122,16492
10,71535,18029
10,71947,17903
10,72358,19449
10,72772,24163
10,73183,35140
10,73595,56906
10,74008,94329
10,74420,158344
10,74832,257215
10,75245,392768
10,75657,573628
10,76068,766562
10,76482,972126
10,76893,1149267
10,77305,1265169
10,77717,1314191
10,78130,1293116
10,78542,1209749
10,78953,1078066
10,79367,935960
10,79778,787141
10,80190,647474
10,80603,527862
10,81015,426330
10,81427,343543
10,81840,276854
10,82252,227019
10,82663,189121
10,83077,157402
10,83488,134153
10,83900,117313
10,84313,103350
10,84725,87649
10,85137,78765
10,85550,75970
10,85962,65799
10,86373,63492
10,86785,55759
10,87198,53535
10,87610,49808
10,88022,46813
10,88435,44556
10,88847,41739
10,89258,38424
10,89672,38655
10,90083,35930
10,90495,36813
10,90908,35040
10,91320,35687
10,91732,33701
10,92145,33400
10,92557,31856
10,92968,31341
10,93382,35017
10,93793,45412
10,94205,69230
10,94618,115921
10,95030,212781
10,95442,376049
10,95855,641255
10,96267,1048694
10,96678,1568414
10,97090,2185944
10,97503,2865783
10,97915,3547189
10,98327,4132411
10,98740,4474846
10,99152,4590880
10,99563,4423883
10,99977,4022594
11,00388,3498614
11,00800,2904402
11,01213,2323330
11,01625,1852969
11,02037,1464225
11,02450,1142042
11,02862,909374
11,03273,733999
11,03687,594039
11,04098,489910
11,04510,414507
11,04923,349941
11,05335,300689
11,05747,267183
11,06158,242366
11,06572,209845
11,06983,187661
11,07395,176066
11,07808,153344
11,08220,142803
11,08632,129358
11,09045,121623
11,09457,114358
11,09868,100929
11,10282,100646
11,10693,89660
11,11105,84890
11,11518,80368
11,11930,78232
11,12342,70835
11,12755,68295
11,13167,66692
11,13578,62414
11,13992,60442
11,14403,58607
11,14815,56371
11,15227,54058
11,15640,50604
11,16052,47947
11,16463,48664
11,16877,46274
11,17288,46944
11,17700,43756
11,18113,40525
11,18525,39506
11,18937,39532
11,19350,37723
11,19762,37884
11,20173,37042
11,20587,34358
11,20998,34203
11,21410,34517
11,21823,31597
11,22235,31159
11,22647,31910
11,23060,30393
11,23472,28897
11,23883,29783
11,24295,30648
11,24708,29414
11,25120,27769
11,25532,28262
11,25945,27917
11,26357,27207
11,26768,28393
11,27182,26931
11,27593,24293
11,28005,24451
11,28418,25143
11,28830,25994
11,29242,26643
11,29655,25890
11,30067,26664
11,30478,26521
11,30892,26962
11,31303,24625
11,31715,25176
11,32128,25931
11,32540,25428
11,32952,26163
11,33363,24418
11,33777,23948
11,34188,25238
11,34600,22843
11,35013,24112
11,35425,22575
11,35837,21907
11,36250,21020
11,36662,22752
11,37073,20140
11,37487,21884
11,37898,21764
11,38310,21089
11,38723,21104
11,39135,21256
11,39547,21695
11,39960,22092
11,40372,22363
11,40783,23237
11,41197,21898
11,41608,23216
11,42020,21296
11,42432,22133
11,42845,22192
11,43257,21618
11,43668,26407
11,44082,29160
11,44493,42130
11,44905,63695
11,45318,107437
11,45730,178513
11,46142,292116
11,46555,447876
11,46967,636108
11,47378,851760
11,47792,1069835
11,48203,1249028
11,48615,1366262
11,49028,1384059
11,49440,1357627
11,49852,1242820
11,50265,1094399
11,50677,916930
11,51088,764336
11,51500,630362
11,51913,497433
11,52325,401727
11,52737,324537
11,53150,264228
11,53562,220012
11,53973,185397
11,54387,156872
11,54798,135892
11,55210,115569
11,55623,105438
11,56035,94328
11,56447,84953
11,56860,80222
11,57272,74643
11,57683,69178
11,58097,64739
11,58508,65502
11,58920,61839
11,59333,58034
11,59745,55739
11,60157,54368
11,60568,52815
11,60982,52160
11,61393,49529
11,61805,50074
11,62218,50022
11,62630,47341
11,63042,48183
11,63455,49593
11,63867,46259
11,64278,45903
11,64692,44304
11,65103,45841
11,65515,44064
11,65928,40352
11,66340,37719
11,66752,35298
11,67165,33186
11,67577,31153
11,67988,30995
11,68402,29968
11,68813,26394
11,69225,26396
11,69637,26676
11,70050,25573
11,70462,26205
11,70873,25067
11,71287,24802
11,71698,23669
11,72110,23919
11,72523,24831
11,72935,24548
11,73347,24166
11,73760,24375
11,74172,26314
11,74583,29365
11,74997,36251
11,75408,50022
11,75820,82776
11,76233,142442
11,76645,239475
11,77057,393624
11,77470,600500
11,77882,847947
11,78293,1105952
11,78705,1334361
11,79118,1519929
11,79530,1610047
11,79942,1590720
11,80355,1511594
11,80767,1328688
11,81178,1144465
11,81592,939049
11,82003,751603
11,82415,604072
11,82828,483918
11,83240,381343
11,83652,310358
11,84065,255843
11,84477,214079
11,84888,179439
11,85302,156813
11,85713,134840
11,86125,118604
11,86538,105194
11,86950,94522
11,87362,90258
11,87773,79301
11,88187,73943
11,88598,66021
11,89010,63856
11,89423,59867
11,89835,55936
11,90247,51955
11,90660,49212
11,91072,47908
11,91483,43768
11,91897,45626
11,92308,42196
11,92720,41659
11,93133,39670
11,93545,36680
11,93957,36969
11,94370,35792
11,94782,34012
11,95193,32382
11,95607,32171
11,96018,31408
11,96430,30395
11,96842,31116
11,97255,30263
11,97667,27539
11,98078,28641
11,98492,28304
11,98903,26675
11,99315,27191
11,99728,28027
12,00140,28486
12,00552,27147
12,00965,26790
12,01377,27460
12,01788,26935
12,02202,26214
12,02613,25614
12,03025,25358
12,03438,25281
12,03850,24695
12,04262,22590
12,04675,24805
12,05087,24259
12,05498,22802
12,05910,23301
12,06323,20468
12,06735,22256
12,07147,22435
12,07560,21925
12,07972,20837
12,08383,21875
12,08797,21782
12,09208,19698
12,09620,20818
12,10033,20558
12,10445,20821
12,10857,19791
12,11270,21015
12,11682,22605
12,12093,19974
12,12507,19715
12,12918,18698
12,13330,19381
12,13743,20138
12,14155,20019
12,14567,18552
12,14978,17586
12,15392,19464
12,15803,20539
12,16215,20857
12,16628,19393
12,17040,19207
12,17452,19417
12,17865,18313
12,18277,19012
12,18688,19060
12,19102,17189
12,19513,17788
12,19925,17707
12,20338,18767
12,20750,17892
12,21162,18091
12,21575,18136
12,21987,18323
12,22398,16780
12,22812,17737
12,23223,17899
12,23635,20378
12,24047,22248
12,24460,30641
12,24872,45588
12,25283,74495
12,25697,120403
12,26108,204269
12,26520,330507
12,26933,519896
12,27345,734710
12,27757,969313
12,28170,1198600
12,28582,1405175
12,28993,1525811
12,29407,1520589
12,29818,1458746
12,30230,1324685
12,30643,1139032
12,31055,956945
12,31467,781927
12,31880,634307
12,32292,513327
12,32703,404130
12,33115,330762
12,33528,273835
12,33940,224651
12,34352,190178
12,34765,165869
12,35177,139918
12,35588,120409
12,36002,107669
12,36413,99458
12,36825,87648
12,37238,80164
12,37650,72115
12,38062,69918
12,38475,63510
12,38887,59280
12,39298,57775
12,39712,55370
12,40123,51190
12,40535,46861
12,40948,44717
12,41360,43469
12,41772,39901
12,42183,41585
12,42597,36451
12,43008,38888
12,43420,35237
12,43833,35200
12,44245,32762
12,44657,33062
12,45070,31007
12,45482,29509
12,45893,29977
12,46307,29327
12,46718,29660
12,47130,27715
12,47543,27137
12,47955,27493
12,48367,27547
12,48780,25760
12,49192,25561
12,49603,25765
12,50017,23856
12,50428,24561
12,50840,23272
12,51253,25545
12,51665,23906
12,52077,23611
12,52488,24636
12,52902,22986
12,53313,27242
12,53725,30882
12,54138,43309
12,54550,69760
12,54962,124222
12,55375,222519
12,55787,388216
12,56198,647989
12,56612,1017833
12,57023,1488602
12,57435,2035857
12,57848,2600040
12,58260,3097505
12,58672,3464401
12,59085,3579132
12,59497,3523018
12,59908,3260844
12,60322,2860454
12,60733,2395754
12,61145,1941245
12,61557,1547961
12,61970,1216299
12,62382,958094
12,62793,766626
12,63207,622156
12,63618,516241
12,64030,424754
12,64443,361352
12,64855,308389
12,65267,269670
12,65680,238918
12,66092,205123
12,66503,186518
12,66917,168116
12,67328,155897
12,67740,143596
12,68153,131662
12,68565,120945
12,68977,110079
12,69390,104860
12,69802,97642
12,70213,89475
12,70625,85407
12,71038,78307
12,71450,78262
12,71862,71030
12,72275,65125
12,72687,66714
12,73098,64056
12,73512,61306
12,73923,59329
12,74335,56952
12,74748,53004
12,75160,52392
12,75572,52317
12,75985,49407
12,76397,48790
12,76808,47483
12,77222,44383
12,77633,41637
12,78045,43889
12,78458,42778
12,78870,40904
12,79282,38511
12,79693,38126
12,80107,38723
12,80518,35470
12,80930,36142
12,81343,38469
12,81755,41590
12,82167,51032
12,82580,76421
12,82992,116359
12,83403,192641
12,83817,312488
12,84228,479970
12,84640,705848
12,85053,953819
12,85465,1229042
12,85877,1450321
12,86290,1625706
12,86702,1674773
12,87113,1632069
12,87527,1507662
12,87938,1336516
12,88350,1136091
12,88762,941669
12,89175,762439
12,89587,608200
12,89998,496233
12,90412,402290
12,90823,331065
12,91235,273640
12,91648,230589
12,92060,201911
12,92472,177149
12,92885,155527
12,93297,133396
12,93708,124654
12,94122,111379
12,94533,106158
12,94945,94933
12,95358,88311
12,95770,86947
12,96182,90858
12,96595,110904
12,97007,145351
12,97418,219048
12,97830,351877
12,98243,565259
12,98655,881159
12,99067,1314281
12,99480,1826383
12,99892,2359724
13,00303,2840507
13,00717,3215601
13,01128,3386929
13,01540,3392969
13,01953,3127416
13,02365,2786983
13,02777,2354965
13,03190,1924091
13,03602,1550427
13,04013,1238062
13,04427,987053
13,04838,790244
13,05250,642869
13,05663,529505
13,06075,447242
13,06487,380071
13,06898,327270
13,07312,283611
13,07723,252679
13,08135,223084
13,08548,204558
13,08960,184407
13,09372,166724
13,09785,151170
13,10197,141692
13,10608,128790
13,11022,120101
13,11433,113090
13,11845,109061
13,12258,102190
13,12670,95573
13,13082,92046
13,13495,84661
13,13907,82445
13,14318,77664
13,14732,77327
13,15143,70314
13,15555,68280
13,15967,65199
13,16380,60350
13,16792,58569
13,17203,58121
13,17617,58094
13,18028,53864
13,18440,53148
13,18853,52368
13,19265,50775
13,19677,45874
13,20090,46156
13,20502,44361
13,20913,45269
13,21327,42111
13,21738,42501
13,22150,43937
13,22563,40529
13,22975,39506
13,23387,38620
13,23800,38330
13,24212,37747
13,24623,39134
13,25035,35981
13,25448,35188
13,25860,35570
13,26272,36728
13,26685,35381
13,27097,38992
13,27508,46151
13,27922,62733
13,28333,93984
13,28745,152412
13,29158,251357
13,29570,401457
13,29982,601485
13,30395,845496
13,30807,1109845
13,31218,1341647
13,31632,1538301
13,32043,1696842
13,32455,1808384
13,32868,1906637
13,33280,2081266
13,33692,2308359
13,34103,2638735
13,34517,3051426
13,34928,3440784
13,35340,3796915
13,35753,3979918
13,36165,3911634
13,36577,3641463
13,36990,3227243
13,37402,2724144
13,37813,2242576
13,38227,1797192
13,38638,1431881
13,39050,1139030
13,39463,913799
13,39875,754406
13,40287,626556
13,40700,528290
13,41112,457288
13,41523,390406
13,41937,343354
13,42348,306871
13,42760,273114
13,43172,244749
13,43585,224090
13,43997,206327
13,44408,191431
13,44822,175728
13,45233,163685
13,45645,154630
13,46058,143075
13,46470,134502
13,46882,127672
13,47295,125226
13,47707,116071
13,48118,111118
13,48532,107330
13,48943,100538
13,49355,100170
13,49768,93728
13,50180,88373
13,50592,89492
13,51005,83449
13,51417,79708
13,51828,75816
13,52240,75222
13,52653,72870
13,53065,71316
13,53477,67382
13,53890,66038
13,54302,65992
13,54713,64230
13,55127,62827
13,55538,60045
13,55950,59536
13,56363,57420
13,56775,57542
13,57187,55259
13,57600,51300
13,58012,51281
13,58423,49409
13,58837,49719
13,59248,50580
13,59660,48935
13,60073,55521
13,60485,65657
13,60897,86390
13,61308,127279
13,61722,196583
13,62133,317090
13,62545,471554
13,62958,670509
13,63370,906244
13,63782,1135001
13,64195,1325760
13,64607,1438952
13,65018,1466179
13,65432,1400893
13,65843,1277166
13,66255,1118873
13,66668,948963
13,67080,779578
13,67492,647891
13,67905,518458
13,68317,426032
13,68728,345979
13,69142,290281
13,69553,245485
13,69965,213670
13,70377,184668
13,70790,162028
13,71202,140725
13,71613,129113
13,72027,113983
13,72438,110060
13,72850,98833
13,73263,92822
13,73675,89401
13,74087,80883
13,74500,77996
13,74912,75112
13,75323,72433
13,75737,70120
13,76148,66860
13,76560,65352
13,76973,62720
13,77385,57634
13,77797,58387
13,78210,55795
13,78622,52423
13,79033,52990
13,79445,48985
13,79858,48496
13,80270,47694
13,80682,46647
13,81095,45244
13,81507,43353
13,81918,43247
13,82332,43046
13,82743,42681
13,83155,42489
13,83568,39954
13,83980,39203
13,84392,40695
13,84805,40552
13,85217,39389
13,85628,38367
13,86042,38544
13,86453,35677
13,86865,38363
13,87278,36429
13,87690,34873
13,88102,36265
13,88513,33847
13,88927,34411
13,89338,33722
13,89750,32727
13,90163,32810
13,90575,32656
13,90987,32026
13,91400,31865
13,91812,28514
13,92223,29712
13,92637,29576
13,93048,31145
13,93460,29898
13,93873,27081
13,94285,29338
13,94697,29049
13,95110,29093
13,95522,28203
13,95933,28978
13,96347,28447
13,96758,29054
13,97170,29924
13,97582,28399
13,97995,26919
13,98407,25386
13,98818,27771
13,99232,27866
13,99643,27478
14,00055,27804
14,00468,27303
14,00880,27006
14,01292,26663
14,01705,27761
14,02117,26007
14,02528,25261
14,02942,24914
14,03353,26261
14,03765,28716
14,04178,26902
14,04590,29040
14,05002,35791
14,05415,53486
14,05827,85859
14,06238,153055
14,06650,282018
14,07063,510226
14,07475,857378
14,07887,1352807
14,08300,2007848
14,08712,2759254
14,09123,3564392
14,09537,4261099
14,09948,4833738
14,10360,5174344
14,10773,5195763
14,11185,4924188
14,11597,4381640
14,12010,3756098
14,12422,3067153
14,12833,2455022
14,13247,1948074
14,13658,1537153
14,14070,1241710
14,14483,1015855
14,14895,833481
14,15307,703180
14,15720,599681
14,16132,523100
14,16543,453652
14,16955,398218
14,17368,352477
14,17780,324050
14,18192,285945
14,18605,258427
14,19017,241575
14,19428,224199
14,19842,206795
14,20253,192255
14,20665,173992
14,21078,164890
14,21490,157178
14,21902,145571
14,22315,139349
14,22727,128131
14,23138,124235
14,23552,119560
14,23963,112605
14,24375,108255
14,24788,104405
14,25200,97757
14,25612,94798
14,26023,90577
14,26437,88805
14,26848,83946
14,27260,81552
14,27673,82337
14,28085,80923
14,28497,81769
14,28910,80397
14,29322,82463
14,29733,87285
14,30147,88424
14,30558,89367
14,30970,88011
14,31383,87536
14,31795,85561
14,32207,85064
14,32620,83271
14,33032,83170
14,33443,82031
14,33857,90172
14,34268,115909
14,34680,156707
14,35092,230905
14,35505,336572
14,35917,481540
14,36328,671308
14,36742,866060
14,37153,1041800
14,37565,1179806
14,37978,1259542
14,38390,1252632
14,38802,1197831
14,39215,1083272
14,39627,945574
14,40038,799876
14,40452,659176
14,40863,538152
14,41275,443649
14,41688,363288
14,42100,304725
14,42512,258794
14,42925,213359
14,43337,187906
14,43748,167411
14,44160,148254
14,44573,133734
14,44985,131809
14,45397,127134
14,45810,132178
14,46222,156339
14,46633,209788
14,47047,293397
14,47458,436167
14,47870,642722
14,48283,899431
14,48695,1183317
14,49107,1459519
14,49520,1687963
14,49932,1834701
14,50343,1860081
14,50757,1782630
14,51168,1622654
14,51580,1418637
14,51993,1196976
14,52405,990425
14,52817,813675
14,53228,663364
14,53642,546831
14,54053,456848
14,54465,388744
14,54878,329992
14,55290,287596
14,55702,253545
14,56115,224948
14,56527,203093
14,56938,185210
14,57352,168517
14,57763,154839
14,58175,140441
14,58588,135729
14,59000,125460
14,59412,119308
14,59825,110279
14,60237,107377
14,60648,99738
14,61062,92010
14,61473,89259
14,61885,83542
14,62297,84448
14,62710,81156
14,63122,74653
14,63533,71160
14,63947,69010
14,64358,69387
14,64770,65469
14,65183,65075
14,65595,62844
14,66007,60908
14,66420,60066
14,66832,56869
14,67243,57488
14,67657,57466
14,68068,57087
14,68480,54461
14,68893,51923
14,69305,52387
14,69717,51706
14,70130,51238
14,70542,48932
14,70953,47751
14,71365,47343
14,71778,48165
14,72190,45030
14,72602,47526
14,73015,46105
14,73427,43521
14,73838,45433
14,74252,43206
14,74663,42002
14,75075,42887
14,75488,42220
14,75900,41202
14,76312,42705
14,76725,42908
14,77137,44103
14,77548,52916
14,77962,70551
14,78373,104258
14,78785,162640
14,79198,277970
14,79610,453441
14,80022,701250
14,80433,1019851
14,80847,1361735
14,81258,1692855
14,81670,1959432
14,82083,2078901
14,82495,2054261
14,82907,1937746
14,83320,1706481
14,83732,1456275
14,84143,1201902
14,84557,991278
14,84968,804884
14,85380,653299
14,85793,544380
14,86205,461449
14,86617,392850
14,87030,339206
14,87442,293918
14,87853,259582
14,88267,232108
14,88678,207330
14,89090,190877
14,89502,175964
14,89915,161759
14,90327,150233
14,90738,141127
14,91152,131378
14,91563,123036
14,91975,115932
14,92388,111460
14,92800,102336
14,93212,101845
14,93625,96676
14,94037,96117
14,94448,90850
14,94862,87806
14,95273,85220
14,95685,85613
14,96098,83034
14,96510,77845
14,96922,78720
14,97335,71434
14,97747,71186
14,98158,67088
14,98570,68229
14,98983,64199
14,99395,65842
14,99807,61754
15,00220,59296
15,00632,59068
15,01043,60408
15,01457,57150
15,01868,57177
15,02280,53772
15,02693,54405
15,03105,51960
15,03517,52527
15,03930,53565
15,04342,49938
15,04753,48778
15,05167,49468
15,05578,48133
15,05990,52366
15,06403,57365
15,06815,71938
15,07227,100942
15,07638,151731
15,08052,243469
15,08463,373665
15,08875,562030
15,09288,796115
15,09700,1058301
15,10112,1302389
15,10525,1478720
15,10937,1570919
15,11348,1578010
15,11762,1512064
15,12173,1353586
15,12585,1178600
15,12998,980481
15,13410,812940
15,13822,662049
15,14235,552176
15,14647,457984
15,15058,382862
15,15472,326054
15,15883,286690
15,16295,244240
15,16707,213473
15,17120,191289
15,17532,174292
15,17943,158676
15,18357,147374
15,18768,136323
15,19180,122354
15,19593,117700
15,20005,108548
15,20417,105975
15,20830,100448
15,21242,93419
15,21653,90874
15,22067,84999
15,22478,81651
15,22890,79417
15,23303,73150
15,23715,74461
15,24127,70224
15,24540,67956
15,24952,67620
15,25363,65139
15,25775,64360
15,26188,62452
15,26600,61629
15,27012,58162
15,27425,57568
15,27837,56139
15,28248,57792
15,28662,56274
15,29073,53814
15,29485,52760
15,29898,53383
15,30310,52527
15,30722,52330
15,31135,50307
15,31547,50075
15,31958,49842
15,32372,46477
15,32783,47366
15,33195,46116
15,33608,47593
15,34020,45365
15,34432,47639
15,34843,45176
15,35257,43949
15,35668,45200
15,36080,45160
15,36493,42481
15,36905,43538
15,37317,44173
15,37730,41796
15,38142,42265
15,38553,42512
15,38967,41610
15,39378,41807
15,39790,42774
15,40203,40556
15,40615,41691
15,41027,41023
15,41440,40903
15,41852,39354
15,42263,41972
15,42677,39759
15,43088,38678
15,43500,42927
15,43912,40306
15,44325,41354
15,44737,41514
15,45148,39861
15,45562,40784
15,45973,40573
15,46385,43158
15,46798,45232
15,47210,51625
15,47622,63501
15,48035,96574
15,48447,153524
15,48858,256283
15,49272,427042
15,49683,688393
15,50095,1075547
15,50508,1584568
15,50920,2220749
15,51332,2951632
15,51745,3738859
15,52157,4462182
15,52568,5054452
15,52980,5355978
15,53393,5353974
15,53805,5076003
15,54217,4500162
15,54630,3907186
15,55042,3280321
15,55453,2720305
15,55867,2233218
15,56278,1833308
15,56690,1514130
15,57103,1255946
15,57515,1055766
15,57927,898798
15,58340,764117
15,58752,661780
15,59163,587422
15,59577,517562
15,59988,462884
15,60400,423440
15,60813,382392
15,61225,359004
15,61637,322323
15,62048,297244
15,62462,283401
15,62873,261153
15,63285,247551
15,63698,232323
15,64110,216632
15,64522,204110
15,64935,194907
15,65347,183796
15,65758,179170
15,66172,168901
15,66583,163578
15,66995,156097
15,67408,150640
15,67820,144414
15,68232,140372
15,68645,135609
15,69057,130860
15,69468,129511
15,69882,125042
15,70293,119972
15,70705,117427
15,71117,115418
15,71530,109960
15,71942,110590
15,72353,105355
15,72767,103414
15,73178,101458
15,73590,99859
15,74003,96435
15,74415,95307
15,74827,94946
15,75240,98057
15,75652,106321
15,76063,120617
15,76477,150099
15,76888,204931
15,77300,289810
15,77713,415098
15,78125,595914
15,78537,813779
15,78950,1041513
15,79362,1240726
15,79773,1405861
15,80187,1480793
15,80598,1464529
15,81010,1366537
15,81422,1230922
15,81835,1088280
15,82247,947886
15,82658,841295
15,83072,794922
15,83483,801320
15,83895,867986
15,84308,991560
15,84720,1130827
15,85132,1287495
15,85545,1406470
15,85957,1512384
15,86368,1569076
15,86782,1607562
15,87193,1625569
15,87605,1642854
15,88018,1749544
15,88430,1893239
15,88842,2054178
15,89255,2210410
15,89667,2313387
15,90078,2326049
15,90490,2226313
15,90903,2047418
15,91315,1819447
15,91727,1563894
15,92140,1326186
15,92552,1122616
15,92963,947127
15,93377,799764
15,93788,679280
15,94200,594966
15,94613,523514
15,95025,454859
15,95437,416729
15,95850,372152
15,96262,342393
15,96673,314133
15,97087,289385
15,97498,272385
15,97910,248136
15,98323,236976
15,98735,221608
15,99147,207484
15,99558,194448
15,99972,187456
16,00383,178793
16,00795,165633
16,01208,162789
16,01620,150906
16,02032,146965
16,02445,144737
16,02857,135072
16,03268,134870
16,03682,129104
16,04093,123557
16,04505,121831
16,04918,116396
16,05330,113729
16,05742,112746
16,06155,109118
16,06567,102868
16,06978,101433
16,07392,100789
16,07803,98086
16,08215,93344
16,08627,94521
16,09040,96063
16,09452,95845
16,09863,89495
16,10277,88629
16,10688,86939
16,11100,86119
16,11513,83220
16,11925,82483
16,12337,82089
16,12750,81581
16,13162,79223
16,13573,83741
16,13987,82900
16,14398,91095
16,14810,104843
16,15223,137396
16,15635,189680
16,16047,279670
16,16460,429441
16,16872,640217
16,17283,917809
16,17695,1251517
16,18108,1589421
16,18520,1898320
16,18932,2089783
16,19345,2148985
16,19757,2064903
16,20168,1872848
16,20582,1636542
16,20993,1385013
16,21405,1165045
16,21818,959775
16,22230,813439
16,22642,684311
16,23055,590438
16,23467,503790
16,23878,446566
16,24292,400059
16,24703,365404
16,25115,324720
16,25528,296129
16,25940,274917
16,26352,257159
16,26763,243014
16,27177,229784
16,27588,212236
16,28000,198179
16,28413,186832
16,28825,179156
16,29237,171552
16,29650,164558
16,30062,155532
16,30473,149044
16,30887,145388
16,31298,141899
16,31710,136843
16,32123,138529
16,32535,136313
16,32947,127173
16,33360,123773
16,33772,117967
16,34183,117712
16,34597,108675
16,35008,109914
16,35420,106640
16,35832,104787
16,36245,100455
16,36657,99410
16,37068,99045
16,37482,100249
16,37893,96169
16,38305,94443
16,38718,94750
16,39130,93684
16,39542,92748
16,39955,91943
16,40367,86923
16,40778,86418
16,41192,86692
16,41603,85552
16,42015,82940
16,42428,84389
16,42840,83991
16,43252,93346
16,43665,106502
16,44077,142030
16,44488,192930
16,44900,285752
16,45313,423765
16,45725,633742
16,46137,873300
16,46550,1132612
16,46962,1383691
16,47373,1575300
16,47787,1676876
16,48198,1673618
16,48610,1586450
16,49023,1437237
16,49435,1243403
16,49847,1064114
16,50260,897219
16,50672,765667
16,51083,648782
16,51497,549020
16,51908,475603
16,52320,427201
16,52733,383076
16,53145,363521
16,53557,363681
16,53968,386799
16,54382,452071
16,54793,544526
16,55205,679264
16,55618,820533
16,56030,977054
16,56442,1124320
16,56855,1212187
16,57267,1256593
16,57678,1218648
16,58092,1151831
16,58503,1042421
16,58915,920670
16,59328,803557
16,59740,687476
16,60152,590276
16,60565,512515
16,60977,439624
16,61388,379597
16,61802,334813
16,62213,299949
16,62625,266903
16,63037,243068
16,63450,222342
16,63862,203574
16,64273,186900
16,64687,175526
16,65098,165967
16,65510,161486
16,65923,149308
16,66335,148151
16,66747,136875
16,67160,135478
16,67572,129529
16,67983,122074
16,68397,119099
16,68808,116310
16,69220,112076
16,69633,109767
16,70045,106858
16,70457,102772
16,70870,102197
16,71282,98092
16,71693,98473
16,72105,98432
16,72518,94569
16,72930,92268
16,73342,90202
16,73755,88844
16,74167,88583
16,74578,88139
16,74992,85656
16,75403,87664
16,75815,84058
16,76228,82750
16,76640,80359
16,77052,83717
16,77465,79854
16,77877,79932
16,78288,77085
16,78702,77315
16,79113,75162
16,79525,70780
16,79938,73155
16,80350,76502
16,80762,76265
16,81173,81376
16,81587,93588
16,81998,118483
16,82410,162547
16,82823,230091
16,83235,349297
16,83647,522523
16,84060,766876
16,84472,1099951
16,84883,1513339
16,85297,1990150
16,85708,2503393
16,86120,3045578
16,86533,3520228
16,86945,3845135
16,87357,3947752
16,87770,3817263
16,88182,3489535
16,88593,3047837
16,89007,2564665
16,89418,2148440
16,89830,1774223
16,90242,1491442
16,90655,1249050
16,91067,1072798
16,91478,928181
16,91892,816967
16,92303,720718
16,92715,647156
16,93128,585717
16,93540,528598
16,93952,485423
16,94365,440949
16,94777,412484
16,95188,381467
16,95602,359719
16,96013,334951
16,96425,314755
16,96838,297905
16,97250,276429
16,97662,270619
16,98075,257209
16,98487,245952
16,98898,235653
16,99310,225661
16,99723,212877
17,00135,205669
17,00547,198827
17,00960,186854
17,01372,181868
17,01783,177346
17,02197,170893
17,02608,165890
17,03020,163678
17,03433,160985
17,03845,155517
17,04257,149123
17,04670,146855
17,05082,143192
17,05493,138510
17,05907,135689
17,06318,132490
17,06730,130137
17,07143,126186
17,07555,125658
17,07967,121167
17,08378,122394
17,08792,116400
17,09203,116482
17,09615,115433
17,10028,110841
17,10440,110587
17,10852,109296
17,11265,109732
17,11677,107287
17,12088,106143
17,12502,107438
17,12913,104614
17,13325,103419
17,13738,101586
17,14150,98990
17,14562,94983
17,14975,97171
17,15387,96394
17,15798,93903
17,16212,91109
17,16623,94582
17,17035,91508
17,17447,91182
17,17860,91709
17,18272,92100
17,18683,91423
17,19097,90448
17,19508,93858
17,19920,100367
17,20333,117042
17,20745,136572
17,21157,179019
17,21570,245548
17,21982,345423
17,22393,481954
17,22807,667461
17,23218,879831
17,23630,1127782
17,24043,1372795
17,24455,1571544
17,24867,1704570
17,25280,1743761
17,25692,1712050
17,26103,1598958
17,26515,1468288
17,26928,1296084
17,27340,1131939
17,27752,969759
17,28165,845620
17,28577,732784
17,28988,644371
17,29402,567912
17,29813,501055
17,30225,453295
17,30638,413364
17,31050,374484
17,31462,347536
17,31875,320301
17,32287,295861
17,32698,276838
17,33112,262353
17,33523,245470
17,33935,236317
17,34348,221255
17,34760,206634
17,35172,200871
17,35585,190245
17,35997,185704
17,36408,176122
17,36820,170652
17,37233,167073
17,37645,160881
17,38057,153844
17,38470,147374
17,38882,141893
17,39293,138495
17,39707,139029
17,40118,131918
17,40530,129816
17,40943,127713
17,41355,126825
17,41767,121466
17,42180,117322
17,42592,115503
17,43003,117287
17,43417,109031
17,43828,108861
17,44240,109528
17,44653,108189
17,45065,102560
17,45477,99783
17,45888,102480
17,46302,97331
17,46713,100344
17,47125,95719
17,47538,92969
17,47950,94619
17,48362,94227
17,48775,91884
17,49187,90580
17,49598,89129
17,50012,88805
17,50423,84489
17,50835,87473
17,51248,85202
17,51660,83322
17,52072,80501
17,52485,82069
17,52897,84568
17,53308,82349
17,53722,81128
17,54133,83730
17,54545,82242
17,54957,81237
17,55370,82766
17,55782,79875
17,56193,82805
17,56607,84748
17,57018,81915
17,57430,84957
17,57843,83056
17,58255,81549
17,58667,79643
17,59080,83740
17,59492,76428
17,59903,79968
17,60317,76105
17,60728,78621
17,61140,77626
17,61553,74513
17,61965,73504
17,62377,72568
17,62790,71520
17,63202,70745
17,63613,71896
17,64025,71629
17,64438,72320
17,64850,74357
17,65262,69844
17,65675,72663
17,66087,78342
17,66498,85115
17,66912,84761
17,67323,96043
17,67735,104256
17,68148,112305
17,68560,122508
17,68972,126111
17,69385,132415
17,69797,134071
17,70208,131501
17,70622,132038
17,71033,129204
17,71445,120938
17,71858,112750
17,72270,107145
17,72682,102442
17,73093,97635
17,73507,94000
17,73918,87889
17,74330,82724
17,74743,81325
17,75155,79122
17,75567,76547
17,75980,72360
17,76392,70527
17,76803,73903
17,77217,69962
17,77628,70010
17,78040,70732
17,78453,70884
17,78865,70488
17,79277,68019
17,79690,64450
17,80102,66095
17,80513,65553
17,80927,61461
17,81338,65070
17,81750,65445
17,82162,64386
17,82575,63452
17,82987,69174
17,83398,64530
17,83812,65780
17,84223,62802
17,84635,62945
17,85048,64458
17,85460,63161
17,85872,62070
17,86285,62329
17,86697,60801
17,87108,62697
17,87522,60654
17,87933,60307
17,88345,57192
17,88758,62269
17,89170,59157
17,89582,61711
17,89995,60542
17,90407,60229
17,90818,57120
17,91230,61281
17,91643,61574
17,92055,60669
17,92467,59784
17,92880,59760
17,93292,58650
17,93703,58987
17,94117,59388
17,94528,59109
17,94940,59895
17,95353,57620
17,95765,62023
17,96177,60877
17,96590,58467
17,97002,59398
17,97413,59786
17,97827,61416
17,98238,62925
17,98650,60082
17,99063,57638
17,99475,59376
17,99887,55899
18,00298,57662
18,00712,58146
18,01123,57564
18,01535,56450
18,01948,57132
18,02360,57853
18,02772,57537
18,03185,57393
18,03597,56641
18,04008,58580
18,04422,57821
18,04833,57692
18,05245,59035
18,05658,57337
18,06070,57199
18,06482,57704
18,06895,55610
18,07307,56321
18,07718,55449
18,08132,55862
18,08543,53856
18,08955,56450
18,09367,57524
18,09780,54996
18,10192,54723
18,10603,56419
18,11017,57006
18,11428,55681
18,11840,54893
18,12253,54738
18,12665,55089
18,13077,56327
18,13490,56169
18,13902,53111
18,14313,57498
18,14727,57019
18,15138,56966
18,15550,58804
18,15963,57452
18,16375,57379
18,16787,56343
18,17200,54980
18,17612,54711
18,18023,55808
18,18435,55851
18,18848,55709
18,19260,55176
18,19672,54979
18,20085,56208
18,20497,56694
18,20908,53452
18,21322,54239
18,21733,55596
18,22145,53448
18,22558,54227
18,22970,53349
18,23382,55343
18,23795,54791
18,24207,52786
18,24618,57396
18,25032,55142
18,25443,56587
18,25855,54440
18,26268,55851
18,26680,55898
18,27092,53833
18,27503,56548
18,27917,53004
18,28328,54613
18,28740,56705
18,29153,57936
18,29565,55509
18,29977,53932
18,30390,53521
18,30802,53659
18,31213,52878
18,31627,54275
18,32038,53558
18,32450,53286
18,32863,57285
18,33275,54781
18,33687,56885
18,34100,63170
18,34512,66650
18,34923,77901
18,35337,95113
18,35748,116221
18,36160,156908
18,36572,207493
18,36985,273527
18,37397,350279
18,37808,446048
18,38222,533178
18,38633,624255
18,39045,693532
18,39458,746428
18,39870,773258
18,40282,775273
18,40695,747486
18,41107,710587
18,41518,666937
18,41932,599728
18,42343,542447
18,42755,488600
18,43168,439738
18,43580,392299
18,43992,353684
18,44405,316302
18,44817,289582
18,45228,259053
18,45640,237576
18,46053,217575
18,46465,196325
18,46877,185487
18,47290,171223
18,47702,161614
18,48113,153355
18,48527,147864
18,48938,139951
18,49350,134417
18,49763,130460
18,50175,120214
18,50587,113354
18,51000,115633
18,51412,113045
18,51823,107456
18,52237,105814
18,52648,101957
18,53060,99979
18,53473,95794
18,53885,98278
18,54297,89194
18,54708,90664
18,55122,88947
18,55533,89795
18,55945,86677
18,56358,85475
18,56770,84598
18,57182,81235
18,57595,83728
18,58007,78700
18,58418,79742
18,58832,78175
18,59243,75368
18,59655,73481
18,60068,76997
18,60480,71611
18,60892,72656
18,61305,73064
18,61717,73260
18,62128,74101
18,62542,72128
18,62953,70475
18,63365,69789
18,63777,74423
18,64190,67205
18,64602,70441
18,65013,68995
18,65427,66283
18,65838,65019
18,66250,65474
18,66663,64619
18,67075,66209
18,67487,65894
18,67900,66269
18,68312,64242
18,68723,63181
18,69137,63405
18,69548,64479
18,69960,64985
18,70373,60733
18,70785,63167
18,71197,61805
18,71610,61816
18,72022,60968
18,72433,62193
18,72845,62146
18,73258,58970
18,73670,62857
18,74082,58434
18,74495,59065
18,74907,59406
18,75318,58218
18,75732,58245
18,76143,58382
18,76555,58841
18,76968,58714
18,77380,58915
18,77792,57948
18,78205,57977
18,78617,56744
18,79028,56358
18,79442,55432
18,79853,59441
18,80265,58315
18,80678,60163
18,81090,57270
18,81502,58973
18,81913,58278
18,82327,56191
18,82738,54981
18,83150,56964
18,83563,58478
18,83975,54298
18,84387,60690
18,84800,57740
18,85212,56956
18,85623,58636
18,86037,53494
18,86448,59086
18,86860,56150
18,87273,57973
18,87685,55555
18,88097,56790
18,88510,58166
18,88922,56529
18,89333,57451
18,89747,55260
18,90158,56429
18,90570,57461
18,90983,55217
18,91395,55846
18,91807,54242
18,92218,53216
18,92632,56658
18,93043,54822
18,93455,49626
18,93868,54108
18,94280,54382
18,94692,53872
18,95105,53936
18,95517,54682
18,95928,50278
18,96342,54690
18,96753,52865
18,97165,53871
18,97578,54276
18,97990,54673
18,98402,51273
18,98815,52749
18,99227,54396
18,99638,52821
19,00052,53796
19,00463,52995
19,00875,55327
19,01287,53825
19,01700,54494
19,02112,52226
19,02523,55816
19,02937,55153
19,03348,52517
19,03760,56464
19,04173,56626
19,04585,57566
19,04997,54278
19,05410,52746
19,05822,55916
19,06233,54639
19,06647,56774
19,07058,57681
19,07470,54246
19,07883,54165
19,08295,55035
19,08707,55743
19,09120,56313
19,09532,54687
19,09943,54978
19,10355,54297
19,10768,54943
19,11180,53055
19,11592,56902
19,12005,51097
19,12417,54454
19,12828,55321
19,13242,54409
19,13653,55359
19,14065,53963
19,14478,56598
19,14890,53836
19,15302,54953
19,15715,55692
19,16127,53383
19,16538,54167
19,16952,56020
19,17363,51239
19,17775,55220
19,18188,53094
19,18600,55905
19,19012,55118
19,19423,55703
19,19837,53792
19,20248,53714
19,20660,52857
19,21073,49027
19,21485,51312
19,21897,51529
19,22310,53911
19,22722,52475
19,23133,54439
19,23547,53929
19,23958,51692
19,24370,54788
19,24783,51253
19,25195,52692
19,25607,50672
19,26020,50657
19,26432,53699
19,26843,53213
19,27257,52267
19,27668,53861
19,28080,52561
19,28492,52730
19,28905,49735
19,29317,51964
19,29728,51548
19,30142,52352
19,30553,54132
19,30965,52160
19,31378,50897
19,31790,49868
19,32202,51158
19,32615,50918
19,33027,52971
19,33438,51623
19,33852,51914
19,34263,52331
19,34675,53004
19,35088,53929
19,35500,50890
19,35912,52478
19,36325,53301
19,36737,52356
19,37148,53575
19,37560,53860
19,37973,51748
19,38385,53671
19,38797,54029
19,39210,55297
19,39622,54863
19,40033,52517
19,40447,53420
19,40858,51817
19,41270,51143
19,41683,54049
19,42095,55212
19,42507,54120
19,42920,53836
19,43332,54716
19,43743,56873
19,44157,52900
19,44568,54434
19,44980,57694
19,45393,53999
19,45805,57479
19,46217,55602
19,46628,58971
19,47042,59496
19,47453,55887
19,47865,56308
19,48278,55450
19,48690,54423
19,49102,56628
19,49515,54841
19,49927,57565
19,50338,56271
19,50752,53705
19,51163,52902
19,51575,52869
19,51988,53313
19,52400,51772
19,52812,55508
19,53225,55199
19,53637,52235
19,54048,52226
19,54462,52402
19,54873,51911
19,55285,52597
19,55697,53677
19,56110,52212
19,56522,49854
19,56933,52243
19,57347,50917
19,57758,51383
19,58170,52448
19,58583,50693
19,58995,52826
19,59407,48609
19,59820,50020
19,60232,50424
19,60643,52953
19,61057,51162
19,61468,51635
19,61880,50088
19,62293,50264
19,62705,50577
19,63117,51047
19,63530,50675
19,63942,49622
19,64353,49102
19,64765,49326
19,65178,49304
19,65590,50548
19,66002,53364
19,66415,49719
19,66827,50376
19,67238,50945
19,67652,48907
19,68063,51648
19,68475,48233
19,68888,51715
19,69300,51112
19,69712,50733
19,70125,52668
19,70537,49117
19,70948,49779
19,71362,49201
19,71773,52235
19,72185,49899
19,72598,50838
19,73010,48415
19,73422,49532
19,73833,50914
19,74247,52177
19,74658,48717
19,75070,48045
19,75483,51801
19,75895,50932
19,76307,51732
19,76720,48591
19,77132,49864
19,77543,49300
19,77957,48728
19,78368,48606
19,78780,49405
19,79193,49592
19,79605,48951
19,80017,49151
19,80430,46658
19,80842,48982
19,81253,49455
19,81667,50818
19,82078,50092
19,82490,51060
19,82902,50159
19,83315,51148
19,83727,48942
19,84138,51004
19,84552,51045
19,84963,52269
19,85375,50380
19,85788,50117
19,86200,50708
19,86612,51188
19,87025,50617
19,87437,49339
19,87848,47630
19,88262,50445
19,88673,53250
19,89085,51842
19,89498,51955
19,89910,51272
19,90322,49515
19,90735,52780
19,91147,52392
19,91558,50198
19,91970,48945
19,92383,50567
19,92795,46475
19,93207,47729
19,93620,51625
19,94032,51683
19,94443,52208
19,94857,48826
19,95268,52034
19,95680,50466
19,96093,51524
19,96505,50849
19,96917,48534
19,97330,51124
19,97742,49973
19,98153,52426
19,98567,50599
19,98978,50483
19,99390,50947
19,99803,50833
20,00215,49189
20,00627,49164
