D:\MassHunter\GCMS\1\data\Amal\Constant flow\100C\100C_1ml-min_8C-min_2.D Wed Sep 04 18:54:26 2024
Start of data points
5,59092,113633
5,59505,112760
5,59917,111802
5,60328,110074
5,60742,110382
5,61153,111160
5,61565,108493
5,61978,109145
5,62390,107508
5,62802,108914
5,63215,107138
5,63627,103882
5,64038,102814
5,64452,105412
5,64863,103623
5,65275,102846
5,65687,104363
5,66100,101263
5,66512,99935
5,66923,100188
5,67337,99807
5,67748,99533
5,68160,98043
5,68573,96574
5,68985,96812
5,69397,95742
5,69810,93845
5,70222,93960
5,70633,93297
5,71047,90961
5,71458,89744
5,71870,92059
5,72283,90569
5,72695,91348
5,73107,92771
5,73520,89013
5,73932,87904
5,74343,87270
5,74755,89760
5,75168,83820
5,75580,87535
5,75992,87653
5,76405,85455
5,76817,85629
5,77228,82375
5,77642,83172
5,78053,82477
5,78465,83970
5,78878,83312
5,79290,82780
5,79702,82633
5,80115,84445
5,80527,84207
5,80938,84119
5,81352,85420
5,81763,80532
5,82175,84804
5,82588,83021
5,83000,78895
5,83412,82537
5,83825,80414
5,84237,82490
5,84648,81088
5,85060,79519
5,85473,80461
5,85885,79732
5,86297,79721
5,86710,80141
5,87122,79961
5,87533,77479
5,87947,76575
5,88358,79244
5,88770,78665
5,89183,76793
5,89595,78317
5,90007,77012
5,90420,75750
5,90832,78560
5,91243,77480
5,91657,75406
5,92068,72716
5,92480,74392
5,92893,75383
5,93305,74067
5,93717,73303
5,94128,72971
5,94542,73178
5,94953,70899
5,95365,70686
5,95778,73867
5,96190,73060
5,96602,74587
5,97015,70583
5,97427,71830
5,97838,71978
5,98252,74674
5,98663,72292
5,99075,69608
5,99488,72171
5,99900,71884
6,00312,71701
6,00725,70901
6,01137,69915
6,01548,70149
6,01962,72292
6,02373,70665
6,02785,71366
6,03197,72193
6,03610,73631
6,04022,76847
6,04433,74631
6,04847,77614
6,05258,78334
6,05670,78413
6,06083,76731
6,06495,78280
6,06907,80261
6,07320,77922
6,07732,78211
6,08143,78642
6,08557,77663
6,08968,81480
6,09380,80287
6,09793,80291
6,10205,81663
6,10617,82232
6,11030,84774
6,11442,87295
6,11853,83963
6,12265,86673
6,12678,85072
6,13090,84682
6,13502,82717
6,13915,87470
6,14327,84869
6,14738,82870
6,15152,83512
6,15563,81994
6,15975,80723
6,16388,78456
6,16800,79474
6,17212,80244
6,17625,80370
6,18037,79977
6,18448,78109
6,18862,74652
6,19273,74814
6,19685,75612
6,20098,74377
6,20510,72657
6,20922,76179
6,21333,74286
6,21747,72152
6,22158,69930
6,22570,72424
6,22983,69894
6,23395,69034
6,23807,68973
6,24220,67592
6,24632,67648
6,25043,68804
6,25457,64144
6,25868,66547
6,26280,65571
6,26693,64382
6,27105,65461
6,27517,65463
6,27930,63693
6,28342,63508
6,28753,64961
6,29167,64360
6,29578,62699
6,29990,64364
6,30402,60492
6,30815,59203
6,31227,58259
6,31638,60383
6,32052,58418
6,32463,57936
6,32875,64526
6,33288,68467
6,33700,87619
6,34112,120630
6,34525,179915
6,34937,263821
6,35348,390610
6,35762,539219
6,36173,707802
6,36585,858117
6,36998,1007969
6,37410,1101354
6,37822,1166437
6,38235,1205259
6,38647,1197471
6,39058,1186013
6,39470,1139062
6,39883,1094037
6,40295,1034182
6,40707,981510
6,41120,918580
6,41532,870555
6,41943,818670
6,42357,771032
6,42768,721176
6,43180,682540
6,43593,630451
6,44005,579092
6,44417,554027
6,44830,509129
6,45242,473077
6,45653,435263
6,46067,400744
6,46478,364318
6,46890,334218
6,47303,298496
6,47715,275361
6,48127,247173
6,48538,226816
6,48952,201779
6,49363,182767
6,49775,166524
6,50188,157136
6,50600,140777
6,51012,126735
6,51425,119765
6,51837,109721
6,52248,98885
6,52662,97575
6,53073,88019
6,53485,82496
6,53898,80674
6,54310,73718
6,54722,73028
6,55135,69022
6,55547,67571
6,55958,65790
6,56372,62821
6,56783,60129
6,57195,60966
6,57607,61939
6,58020,56708
6,58432,55477
6,58843,57444
6,59257,53999
6,59668,53648
6,60080,52984
6,60493,52368
6,60905,50356
6,61317,50723
6,61730,50369
6,62142,49971
6,62553,47829
6,62967,48566
6,63378,47853
6,63790,46956
6,64203,45590
6,64615,46331
6,65027,46831
6,65440,46333
6,65852,46175
6,66263,45187
6,66675,45612
6,67088,46745
6,67500,42945
6,67912,43713
6,68325,44199
6,68737,43019
6,69148,41753
6,69562,44009
6,69973,44290
6,70385,43240
6,70798,42092
6,71210,43547
6,71622,43326
6,72035,40171
6,72447,41137
6,72858,42588
6,73272,41755
6,73683,41553
6,74095,42907
6,74508,39880
6,74920,40087
6,75332,42496
6,75743,41431
6,76157,40001
6,76568,41436
6,76980,38665
6,77393,41874
6,77805,39942
6,78217,40620
6,78630,39797
6,79042,39406
6,79453,41091
6,79867,40506
6,80278,40882
6,80690,39293
6,81103,37739
6,81515,40741
6,81927,38376
6,82340,38695
6,82752,39882
6,83163,40097
6,83577,40736
6,83988,39229
6,84400,39146
6,84812,39768
6,85225,41053
6,85637,40369
6,86048,39700
6,86462,40444
6,86873,40416
6,87285,39490
6,87698,39588
6,88110,40510
6,88522,38385
6,88935,38544
6,89347,39730
6,89758,39456
6,90172,38778
6,90583,40118
6,90995,37552
6,91408,38504
6,91820,38926
6,92232,37728
6,92645,38627
6,93057,37821
6,93468,37123
6,93880,36447
6,94293,38907
6,94705,39255
6,95117,36360
6,95530,38089
6,95942,36919
6,96353,36854
6,96767,36210
6,97178,37331
6,97590,36594
6,98003,35532
6,98415,36908
6,98827,35860
6,99240,36134
6,99652,36840
7,00063,35534
7,00477,35903
7,00888,34959
7,01300,34063
7,01713,33941
7,02125,34160
7,02537,34145
7,02948,37160
7,03362,34878
7,03773,34052
7,04185,37374
7,04598,34942
7,05010,34195
7,05422,34162
7,05835,35251
7,06247,34728
7,06658,34380
7,07072,35371
7,07483,34639
7,07895,35555
7,08308,36928
7,08720,34761
7,09132,35883
7,09545,37383
7,09957,34567
7,10368,34170
7,10782,35059
7,11193,36710
7,11605,36818
7,12017,34976
7,12430,34238
7,12842,34473
7,13253,33452
7,13667,34713
7,14078,34984
7,14490,32689
7,14903,35133
7,15315,32428
7,15727,34064
7,16140,34906
7,16552,35513
7,16963,34190
7,17377,33805
7,17788,35662
7,18200,34115
7,18613,36056
7,19025,34385
7,19437,33814
7,19850,34294
7,20262,32540
7,20673,32912
7,21085,31808
7,21498,32574
7,21910,33547
7,22322,34208
7,22735,32742
7,23147,34458
7,23558,33031
7,23972,31467
7,24383,31594
7,24795,33588
7,25208,32523
7,25620,31282
7,26032,31949
7,26445,32448
7,26857,32191
7,27268,32163
7,27682,33508
7,28093,33379
7,28505,31862
7,28918,33915
7,29330,34156
7,29742,36069
7,30153,33747
7,30567,34288
7,30978,33138
7,31390,34469
7,31803,34159
7,32215,33788
7,32627,33419
7,33040,32761
7,33452,32628
7,33863,32919
7,34277,32247
7,34688,33340
7,35100,30021
7,35513,32807
7,35925,32445
7,36337,30350
7,36750,30786
7,37162,31232
7,37573,31503
7,37987,29394
7,38398,31628
7,38810,31436
7,39223,30245
7,39635,30348
7,40047,29455
7,40458,29586
7,40872,29106
7,41283,30086
7,41695,30020
7,42108,29732
7,42520,29297
7,42932,28155
7,43345,29140
7,43757,28468
7,44168,27631
7,44582,26993
7,44993,28343
7,45405,26772
7,45818,27934
7,46230,28602
7,46642,28410
7,47055,29331
7,47467,27149
7,47878,27291
7,48292,28065
7,48703,29270
7,49115,29170
7,49527,28610
7,49940,28318
7,50352,28129
7,50763,27396
7,51177,28201
7,51588,27866
7,52000,27191
7,52413,26120
7,52825,26417
7,53237,27792
7,53650,27836
7,54062,28117
7,54473,26948
7,54887,25425
7,55298,25663
7,55710,27196
7,56123,27131
7,56535,26948
7,56947,26280
7,57360,26108
7,57772,28807
7,58183,26580
7,58595,25262
7,59008,24353
7,59420,24989
7,59832,26914
7,60245,24916
7,60657,25782
7,61068,27044
7,61482,26920
7,61893,26672
7,62305,26829
7,62718,27326
7,63130,27029
7,63542,26556
7,63955,26208
7,64367,26345
7,64778,27005
7,65192,26485
7,65603,25464
7,66015,26471
7,66428,26540
7,66840,27952
7,67252,25074
7,67663,26271
7,68077,25210
7,68488,25722
7,68900,25804
7,69313,25694
7,69725,26228
7,70137,25276
7,70550,26677
7,70962,25278
7,71373,25467
7,71787,26799
7,72198,25160
7,72610,26196
7,73023,27400
7,73435,27245
7,73847,25052
7,74260,26801
7,74672,26492
7,75083,26638
7,75497,26613
7,75908,26177
7,76320,24781
7,76732,24577
7,77145,25400
7,77557,25389
7,77968,25609
7,78382,25564
7,78793,26487
7,79205,25316
7,79618,23917
7,80030,25100
7,80442,24600
7,80855,23634
7,81267,25515
7,81678,24430
7,82092,23953
7,82503,23219
7,82915,24179
7,83328,23823
7,83740,24922
7,84152,25221
7,84565,25758
7,84977,24505
7,85388,25750
7,85800,28125
7,86213,32598
7,86625,43829
7,87037,66725
7,87450,106904
7,87862,178384
7,88273,295699
7,88687,447875
7,89098,660059
7,89510,896440
7,89923,1152918
7,90335,1356301
7,90747,1555716
7,91160,1698364
7,91572,1794405
7,91983,1812522
7,92397,1793092
7,92808,1729740
7,93220,1621209
7,93633,1513748
7,94045,1382077
7,94457,1257963
7,94868,1126568
7,95282,1000342
7,95693,888743
7,96105,770981
7,96518,659951
7,96930,569351
7,97342,482665
7,97755,409934
7,98167,347233
7,98578,292008
7,98992,246753
7,99403,214382
7,99815,183644
8,00228,162848
8,00640,140113
8,01052,125969
8,01465,114437
8,01877,96442
8,02288,90360
8,02702,83900
8,03113,74874
8,03525,71047
8,03937,68862
8,04350,63526
8,04762,58870
8,05173,56308
8,05587,54277
8,05998,50968
8,06410,48950
8,06823,46348
8,07235,46874
8,07647,43508
8,08060,43290
8,08472,39999
8,08883,40502
8,09297,38110
8,09708,37835
8,10120,36219
8,10533,36487
8,10945,34372
8,11357,34432
8,11770,33582
8,12182,33311
8,12593,31978
8,13005,31307
8,13418,31237
8,13830,31883
8,14242,31240
8,14655,30705
8,15067,28838
8,15478,30204
8,15892,29263
8,16303,29381
8,16715,28745
8,17128,27791
8,17540,29539
8,17952,27522
8,18365,27787
8,18777,27410
8,19188,26438
8,19602,26777
8,20013,26293
8,20425,27616
8,20838,25903
8,21250,26812
8,21662,25145
8,22073,25089
8,22487,24830
8,22898,24050
8,23310,25964
8,23723,24231
8,24135,25431
8,24547,23934
8,24960,25100
8,25372,26468
8,25783,24689
8,26197,25346
8,26608,26125
8,27020,25947
8,27433,25472
8,27845,25454
8,28257,26553
8,28670,24449
8,29082,25441
8,29493,24394
8,29907,24109
8,30318,27002
8,30730,25787
8,31142,24524
8,31555,24905
8,31967,23904
8,32378,24350
8,32792,24536
8,33203,24481
8,33615,23897
8,34028,24625
8,34440,22504
8,34852,22726
8,35265,23847
8,35677,22270
8,36088,22157
8,36502,22732
8,36913,21301
8,37325,22581
8,37738,20833
8,38150,21294
8,38562,21252
8,38975,20993
8,39387,21627
8,39798,21792
8,40210,21275
8,40623,20724
8,41035,21839
8,41447,20643
8,41860,21974
8,42272,23004
8,42683,20803
8,43097,20829
8,43508,20822
8,43920,21082
8,44333,19905
8,44745,21577
8,45157,20726
8,45570,20692
8,45982,19769
8,46393,20144
8,46807,20763
8,47218,20548
8,47630,19867
8,48043,22085
8,48455,20386
8,48867,21269
8,49278,20016
8,49692,19267
8,50103,19726
8,50515,21579
8,50928,21274
8,51340,22441
8,51752,20952
8,52165,19645
8,52577,21807
8,52988,21192
8,53402,21794
8,53813,19288
8,54225,20068
8,54638,21984
8,55050,21564
8,55462,21106
8,55875,21496
8,56287,20700
8,56698,20451
8,57112,20126
8,57523,19218
8,57935,20745
8,58347,21687
8,58760,20021
8,59172,20856
8,59583,19768
8,59997,19563
8,60408,22137
8,60820,19256
8,61233,19022
8,61645,18555
8,62057,19558
8,62470,19855
8,62882,19209
8,63293,19530
8,63707,20036
8,64118,19462
8,64530,20455
8,64943,20629
8,65355,20436
8,65767,19993
8,66180,20137
8,66592,19844
8,67003,20278
8,67415,20319
8,67828,18782
8,68240,19285
8,68652,20075
8,69065,18337
8,69477,19380
8,69888,19810
8,70302,18546
8,70713,18641
8,71125,18380
8,71538,18425
8,71950,19467
8,72362,18590
8,72775,18587
8,73187,17300
8,73598,20575
8,74012,18872
8,74423,19720
8,74835,20350
8,75248,22798
8,75660,28221
8,76072,39118
8,76483,61278
8,76897,99443
8,77308,158590
8,77720,242450
8,78133,357905
8,78545,500521
8,78957,654956
8,79370,799426
8,79782,932111
8,80193,1027734
8,80607,1085667
8,81018,1109622
8,81430,1069472
8,81843,1019157
8,82255,938085
8,82667,852660
8,83080,753082
8,83492,651508
8,83903,560360
8,84317,472473
8,84728,390708
8,85140,326697
8,85552,273977
8,85965,221968
8,86377,182798
8,86788,156409
8,87202,131058
8,87613,113468
8,88025,97386
8,88438,87708
8,88850,76616
8,89262,67114
8,89675,62136
8,90087,58899
8,90498,51485
8,90912,49391
8,91323,46027
8,91735,43040
8,92148,42785
8,92560,40197
8,92972,36881
8,93385,37401
8,93797,34255
8,94208,34134
8,94622,31938
8,95033,32079
8,95445,31327
8,95857,30707
8,96270,30534
8,96682,31026
8,97093,30258
8,97507,28752
8,97918,29455
8,98330,27667
8,98743,27666
8,99155,27799
8,99567,26100
8,99980,25534
9,00392,25165
9,00803,22980
9,01217,24635
9,01628,23283
9,02040,22421
9,02453,24500
9,02865,21523
9,03277,22726
9,03690,22101
9,04102,22445
9,04513,21793
9,04925,21603
9,05338,21077
9,05750,21813
9,06162,22183
9,06575,20894
9,06987,20381
9,07398,18851
9,07812,19595
9,08223,19623
9,08635,18646
9,09048,19597
9,09460,17449
9,09872,19187
9,10285,18763
9,10697,18813
9,11108,18349
9,11522,18584
9,11933,19830
9,12345,19782
9,12758,20469
9,13170,19822
9,13582,20367
9,13993,21496
9,14407,22639
9,14818,23369
9,15230,22921
9,15643,25165
9,16055,23122
9,16467,22650
9,16880,21413
9,17292,21376
9,17703,20380
9,18117,20071
9,18528,19827
9,18940,17295
9,19353,17902
9,19765,19315
9,20177,15525
9,20590,15792
9,21002,17264
9,21413,16127
9,21827,17485
9,22238,17556
9,22650,15431
9,23062,15533
9,23475,16243
9,23887,15555
9,24298,16292
9,24712,15883
9,25123,15561
9,25535,15741
9,25948,16112
9,26360,15071
9,26772,15009
9,27185,15129
9,27597,17066
9,28008,16028
9,28422,16148
9,28833,15914
9,29245,15335
9,29658,15281
9,30070,17199
9,30482,16160
9,30895,15781
9,31307,14507
9,31718,15132
9,32130,16346
9,32543,16002
9,32955,15396
9,33367,15494
9,33780,15687
9,34192,15093
9,34603,14975
9,35017,14135
9,35428,15521
9,35840,14686
9,36253,14550
9,36665,16011
9,37077,15038
9,37490,14699
9,37902,14629
9,38313,15347
9,38727,14913
9,39138,16476
9,39550,15956
9,39963,15361
9,40375,15276
9,40787,15223
9,41198,15231
9,41612,15788
9,42023,14660
9,42435,15165
9,42848,15451
9,43260,16465
9,43672,14876
9,44085,15641
9,44497,14081
9,44908,15677
9,45322,14843
9,45733,14244
9,46145,16263
9,46558,14852
9,46970,14368
9,47382,14976
9,47795,15285
9,48207,14774
9,48618,14622
9,49032,13997
9,49443,14733
9,49855,15117
9,50267,14658
9,50680,14654
9,51092,15517
9,51503,15238
9,51917,15732
9,52328,15058
9,52740,14414
9,53153,14891
9,53565,16729
9,53977,14638
9,54390,17342
9,54802,16082
9,55213,16409
9,55627,16994
9,56038,15152
9,56450,16045
9,56863,15013
9,57275,14792
9,57687,15458
9,58100,15915
9,58512,15184
9,58923,15150
9,59335,14054
9,59748,14311
9,60160,15398
9,60572,14819
9,60985,14544
9,61397,13155
9,61808,13568
9,62222,13968
9,62633,13957
9,63045,12800
9,63458,14506
9,63870,15614
9,64282,15043
9,64695,15568
9,65107,14221
9,65518,15422
9,65932,15564
9,66343,14340
9,66755,15155
9,67168,15920
9,67580,17060
9,67992,20755
9,68403,29690
9,68817,48186
9,69228,85835
9,69640,157314
9,70053,270415
9,70465,448167
9,70877,710666
9,71290,1024116
9,71702,1406445
9,72113,1795717
9,72527,2144593
9,72938,2425431
9,73350,2564121
9,73763,2592914
9,74175,2526723
9,74587,2351730
9,75000,2083465
9,75412,1809580
9,75823,1532857
9,76237,1262697
9,76648,1019735
9,77060,828607
9,77472,672065
9,77885,525608
9,78297,422380
9,78708,351428
9,79122,281482
9,79533,236313
9,79945,203474
9,80358,173052
9,80770,150135
9,81182,130271
9,81595,117663
9,82007,105132
9,82418,95865
9,82832,85567
9,83243,79896
9,83655,71049
9,84068,66575
9,84480,62032
9,84892,58092
9,85305,55070
9,85717,50981
9,86128,48437
9,86540,45687
9,86953,44919
9,87365,41451
9,87777,40304
9,88190,38474
9,88602,37121
9,89013,36798
9,89427,34013
9,89838,33737
9,90250,32425
9,90663,31044
9,91075,29859
9,91487,29591
9,91900,29127
9,92312,27782
9,92723,26525
9,93137,26571
9,93548,25663
9,93960,23751
9,94373,25033
9,94785,24455
9,95197,23435
9,95608,21661
9,96022,21971
9,96433,21087
9,96845,21541
9,97258,21570
9,97670,22017
9,98082,21629
9,98495,21147
9,98907,20494
9,99318,20386
9,99732,19232
10,00143,20600
10,00555,19346
10,00968,17760
10,01380,17916
10,01792,15979
10,02205,17597
10,02617,17803
10,03028,16463
10,03442,17064
10,03853,17881
10,04265,16117
10,04677,16544
10,05090,16465
10,05502,16965
10,05913,17094
10,06327,17176
10,06738,15318
10,07150,15540
10,07563,16216
10,07975,16805
10,08387,16303
10,08800,15799
10,09212,14353
10,09623,14959
10,10037,14898
10,10448,14350
10,10860,15157
10,11273,16238
10,11685,14763
10,12097,14655
10,12510,15625
10,12922,15717
10,13333,14845
10,13745,13825
10,14158,14571
10,14570,14851
10,14982,15084
10,15395,15348
10,15807,14612
10,16218,14316
10,16632,15784
10,17043,14606
10,17455,15021
10,17868,15298
10,18280,15176
10,18692,15411
10,19105,15175
10,19517,14490
10,19928,14237
10,20342,14232
10,20753,14808
10,21165,12722
10,21578,14173
10,21990,14088
10,22402,13910
10,22813,14991
10,23227,15476
10,23638,14878
10,24050,14532
10,24463,14230
10,24875,13978
10,25287,13584
10,25700,14721
10,26112,15962
10,26523,14013
10,26937,13672
10,27348,13570
10,27760,13031
10,28173,13694
10,28585,13589
10,28997,13423
10,29410,13032
10,29822,14390
10,30233,14453
10,30647,13780
10,31058,14757
10,31470,16777
10,31882,17072
10,32295,17058
10,32707,19050
10,33118,19730
10,33532,20643
10,33943,19814
10,34355,20243
10,34768,19822
10,35180,20794
10,35592,20655
10,36005,20388
10,36417,17637
10,36828,17193
10,37242,17701
10,37653,17132
10,38065,15747
10,38478,14991
10,38890,14683
10,39302,15018
10,39715,13472
10,40127,15424
10,40538,15708
10,40950,14012
10,41363,13418
10,41775,13158
10,42187,13926
10,42600,13185
10,43012,13809
10,43423,11922
10,43837,12534
10,44248,13803
10,44660,11999
10,45073,11039
10,45485,11390
10,45897,11555
10,46310,12451
10,46722,11424
10,47133,11990
10,47547,11880
10,47958,12216
10,48370,11278
10,48783,11236
10,49195,11630
10,49607,12164
10,50018,11878
10,50432,11434
10,50843,12533
10,51255,12742
10,51668,12055
10,52080,11150
10,52492,11626
10,52905,11852
10,53317,10802
10,53728,12243
10,54142,11994
10,54553,12503
10,54965,12971
10,55378,12685
10,55790,11785
10,56202,11360
10,56615,11568
10,57027,10791
10,57438,12306
10,57852,11996
10,58263,10652
10,58675,11475
10,59087,12827
10,59500,11081
10,59912,12454
10,60323,11782
10,60737,12121
10,61148,12047
10,61560,13499
10,61973,16053
10,62385,21812
10,62797,34988
10,63210,59355
10,63622,102841
10,64033,182082
10,64447,297214
10,64858,463855
10,65270,666918
10,65683,885652
10,66095,1100891
10,66507,1278575
10,66920,1396192
10,67332,1423972
10,67743,1389837
10,68157,1277352
10,68568,1136673
10,68980,968933
10,69392,807456
10,69805,644743
10,70217,509820
10,70628,401488
10,71042,315941
10,71453,252746
10,71865,203424
10,72278,170345
10,72690,140313
10,73102,117743
10,73515,98927
10,73927,86125
10,74338,76564
10,74752,69170
10,75163,62399
10,75575,56180
10,75988,50101
10,76400,47306
10,76812,43493
10,77225,41989
10,77637,39475
10,78048,36129
10,78460,33023
10,78873,31105
10,79285,30643
10,79697,28358
10,80110,27602
10,80522,25445
10,80933,26055
10,81347,24595
10,81758,21937
10,82170,22047
10,82583,22082
10,82995,20512
10,83407,20638
10,83820,21125
10,84232,18632
10,84643,19380
10,85057,18517
10,85468,18460
10,85880,18082
10,86293,18282
10,86705,18605
10,87117,16707
10,87528,16808
10,87942,17320
10,88353,16605
10,88765,16211
10,89178,15174
10,89590,16380
10,90002,16102
10,90415,15167
10,90827,15081
10,91238,15259
10,91652,14967
10,92063,13400
10,92475,13800
10,92888,13310
10,93300,13491
10,93712,13046
10,94125,12909
10,94537,12140
10,94948,12747
10,95362,12898
10,95773,13236
10,96185,12291
10,96597,12362
10,97010,12934
10,97422,13036
10,97833,13365
10,98247,12627
10,98658,13023
10,99070,11553
10,99483,13126
10,99895,13300
11,00307,13006
11,00720,11708
11,01132,13260
11,01543,11817
11,01957,12854
11,02368,11215
11,02780,12412
11,03193,11675
11,03605,12691
11,04017,12948
11,04430,12570
11,04842,12024
11,05253,11765
11,05665,11396
11,06078,12450
11,06490,10970
11,06902,11558
11,07315,11470
11,07727,11968
11,08138,10483
11,08552,11796
11,08963,11015
11,09375,11140
11,09788,12566
11,10200,12386
11,10612,12095
11,11025,11427
11,11437,12446
11,11848,14667
11,12262,15032
11,12673,14604
11,13085,17069
11,13498,17379
11,13910,16773
11,14322,17548
11,14733,16995
11,15147,16261
11,15558,15212
11,15970,14635
11,16383,14601
11,16795,12702
11,17207,13093
11,17620,11797
11,18032,12022
11,18443,11446
11,18857,11385
11,19268,11843
11,19680,11269
11,20093,12359
11,20505,10974
11,20917,11050
11,21330,10577
11,21742,11765
11,22153,10422
11,22567,9658
11,22978,10657
11,23390,11152
11,23802,11246
11,24215,10260
11,24627,11709
11,25038,13047
11,25452,11047
11,25863,13066
11,26275,13265
11,26688,14530
11,27100,15505
11,27512,17209
11,27925,17411
11,28337,16433
11,28748,16638
11,29162,16739
11,29573,16689
11,29985,15782
11,30398,14713
11,30810,14725
11,31222,13824
11,31635,14339
11,32047,12857
11,32458,12849
11,32870,11282
11,33283,11122
11,33695,11654
11,34107,11239
11,34520,11148
11,34932,11351
11,35343,11652
11,35757,10828
11,36168,11073
11,36580,11340
11,36993,11371
11,37405,10876
11,37817,10176
11,38230,12570
11,38642,11523
11,39053,12357
11,39467,11046
11,39878,11200
11,40290,12944
11,40703,9854
11,41115,11285
11,41527,10754
11,41938,12524
11,42352,10469
11,42763,10908
11,43175,10055
11,43588,10302
11,44000,10798
11,44412,9724
11,44825,10396
11,45237,9879
11,45648,10339
11,46062,8832
11,46473,9868
11,46885,9749
11,47298,9142
11,47710,9304
11,48122,8768
11,48535,9824
11,48947,9331
11,49358,9382
11,49772,8897
11,50183,9757
11,50595,9468
11,51007,9653
11,51420,8941
11,51832,10019
11,52243,10119
11,52657,9781
11,53068,9914
11,53480,9853
11,53893,10487
11,54305,10722
11,54717,13647
11,55130,21397
11,55542,37701
11,55953,70347
11,56367,139098
11,56778,256497
11,57190,450396
11,57603,746213
11,58015,1135375
11,58427,1580798
11,58840,2064195
11,59252,2540589
11,59663,2886025
11,60075,3066963
11,60488,3088995
11,60900,2875086
11,61312,2559518
11,61725,2169920
11,62137,1765985
11,62548,1409239
11,62962,1091400
11,63373,848414
11,63785,652596
11,64198,516393
11,64610,413596
11,65022,336660
11,65435,276665
11,65847,231202
11,66258,200150
11,66672,169172
11,67083,143876
11,67495,128692
11,67908,114444
11,68320,103805
11,68732,93150
11,69143,83983
11,69557,75333
11,69968,70049
11,70380,67214
11,70793,61797
11,71205,56746
11,71617,52414
11,72030,51272
11,72442,44978
11,72853,43750
11,73267,41532
11,73678,38754
11,74090,36610
11,74503,35820
11,74915,34694
11,75327,32116
11,75740,31973
11,76152,29316
11,76563,28747
11,76977,30102
11,77388,26884
11,77800,28244
11,78212,27221
11,78625,26578
11,79037,29137
11,79448,27312
11,79862,29414
11,80273,28119
11,80685,28495
11,81098,25543
11,81510,24100
11,81922,23879
11,82335,23349
11,82747,21522
11,83158,20080
11,83572,19818
11,83983,20361
11,84395,17616
11,84808,17609
11,85220,17442
11,85632,16965
11,86045,15903
11,86457,15721
11,86868,16827
11,87280,16121
11,87693,15810
11,88105,14913
11,88517,14612
11,88930,15624
11,89342,14738
11,89753,13782
11,90167,13622
11,90578,14026
11,90990,13684
11,91403,12948
11,91815,12871
11,92227,12977
11,92640,13470
11,93052,12205
11,93463,12699
11,93877,11750
11,94288,12174
11,94700,12860
11,95113,12893
11,95525,14047
11,95937,12024
11,96348,12762
11,96762,13079
11,97173,13103
11,97585,12484
11,97998,13567
11,98410,13634
11,98822,12291
11,99235,14192
11,99647,11324
12,00058,12144
12,00472,12170
12,00883,12018
12,01295,11884
12,01708,12821
12,02120,12742
12,02532,13259
12,02945,13779
12,03357,13371
12,03768,15309
12,04182,16469
12,04593,14924
12,05005,15265
12,05417,14408
12,05830,16097
12,06242,15085
12,06653,14425
12,07067,14305
12,07478,14268
12,07890,13643
12,08303,11907
12,08715,12955
12,09127,10628
12,09540,11500
12,09952,11290
12,10363,10139
12,10777,11698
12,11188,10799
12,11600,11120
12,12013,9314
12,12425,10225
12,12837,11015
12,13250,8850
12,13662,10200
12,14073,10611
12,14485,9647
12,14898,10038
12,15310,10278
12,15722,10436
12,16135,9979
12,16547,10660
12,16958,9924
12,17372,10484
12,17783,9499
12,18195,10271
12,18608,10475
12,19020,10163
12,19432,10190
12,19845,12410
12,20257,15234
12,20668,21872
12,21082,39496
12,21493,72469
12,21905,128571
12,22318,221480
12,22730,359755
12,23142,544782
12,23553,759559
12,23967,994099
12,24378,1214393
12,24790,1376101
12,25203,1430856
12,25615,1400463
12,26027,1320226
12,26440,1164431
12,26852,995670
12,27263,813479
12,27677,650505
12,28088,513388
12,28500,405928
12,28913,320830
12,29325,254592
12,29737,207991
12,30150,170667
12,30562,139723
12,30973,121891
12,31387,104087
12,31798,93029
12,32210,84526
12,32623,77181
12,33035,73252
12,33447,68384
12,33858,64969
12,34272,60961
12,34683,58625
12,35095,55675
12,35508,50460
12,35920,47015
12,36332,42825
12,36745,39181
12,37157,36492
12,37568,33026
12,37982,29045
12,38393,28133
12,38805,27093
12,39218,26202
12,39630,22633
12,40042,22585
12,40455,21427
12,40867,20767
12,41278,20353
12,41692,20010
12,42103,19626
12,42515,17824
12,42927,17850
12,43340,17203
12,43752,15646
12,44163,16296
12,44577,16275
12,44988,16941
12,45400,16598
12,45813,19007
12,46225,26644
12,46637,41905
12,47050,73385
12,47462,131549
12,47873,224933
12,48287,378048
12,48698,578336
12,49110,838388
12,49523,1109269
12,49935,1338819
12,50347,1500659
12,50760,1593166
12,51172,1568761
12,51583,1451094
12,51995,1265499
12,52408,1064685
12,52820,857519
12,53232,677445
12,53645,532914
12,54057,409698
12,54468,319577
12,54882,254929
12,55293,204278
12,55705,170973
12,56118,143012
12,56530,120476
12,56942,101625
12,57355,87551
12,57767,76652
12,58178,69797
12,58592,61476
12,59003,56718
12,59415,51792
12,59828,48949
12,60240,41294
12,60652,40384
12,61063,38077
12,61477,35728
12,61888,31679
12,62300,31322
12,62713,30420
12,63125,29211
12,63537,27292
12,63950,24017
12,64362,24835
12,64773,23336
12,65187,23411
12,65598,20978
12,66010,21286
12,66423,19764
12,66835,20128
12,67247,20168
12,67660,17985
12,68072,18142
12,68483,17086
12,68897,17325
12,69308,16062
12,69720,16734
12,70132,15232
12,70545,16395
12,70957,14797
12,71368,14546
12,71782,15311
12,72193,16209
12,72605,14675
12,73018,13700
12,73430,14143
12,73842,13726
12,74255,12979
12,74667,12022
12,75078,12898
12,75492,11817
12,75903,13195
12,76315,12405
12,76728,12788
12,77140,11948
12,77552,12997
12,77965,13422
12,78377,12185
12,78788,12219
12,79200,11969
12,79613,12349
12,80025,11923
12,80437,11954
12,80850,12585
12,81262,11240
12,81673,10080
12,82087,10794
12,82498,10054
12,82910,10345
12,83323,9459
12,83735,9824
12,84147,10377
12,84560,9527
12,84972,10980
12,85383,10623
12,85797,10809
12,86208,9746
12,86620,10254
12,87033,9638
12,87445,9158
12,87857,10290
12,88268,9685
12,88682,10227
12,89093,10975
12,89505,10205
12,89918,12436
12,90330,10416
12,90742,10807
12,91155,10279
12,91567,10713
12,91978,9625
12,92392,12311
12,92803,10535
12,93215,10894
12,93628,11223
12,94040,10136
12,94452,10073
12,94865,9977
12,95277,9990
12,95688,10712
12,96102,9671
12,96513,10241
12,96925,10356
12,97337,9691
12,97750,9264
12,98162,9130
12,98573,9775
12,98987,9816
12,99398,8908
12,99810,9433
13,00223,9751
13,00635,8906
13,01047,8837
13,01460,9546
13,01872,9437
13,02283,9450
13,02697,9646
13,03108,10082
13,03520,10309
13,03933,9507
13,04345,10380
13,04757,9442
13,05170,9121
13,05582,10297
13,05993,9204
13,06405,9211
13,06818,9778
13,07230,8796
13,07642,10199
13,08055,8713
13,08467,8616
13,08878,9693
13,09292,10509
13,09703,12720
13,10115,15222
13,10528,21169
13,10940,36589
13,11352,67708
13,11765,124777
13,12177,219913
13,12588,363352
13,13002,560181
13,13413,798466
13,13825,1049395
13,14238,1259635
13,14650,1428356
13,15062,1495478
13,15473,1471214
13,15887,1358866
13,16298,1212402
13,16710,1025718
13,17123,826258
13,17535,672585
13,17947,514413
13,18360,405176
13,18772,313344
13,19183,248989
13,19597,204448
13,20008,169007
13,20420,137528
13,20833,114662
13,21245,99623
13,21657,87421
13,22070,76839
13,22482,69763
13,22893,63480
13,23307,53806
13,23718,51363
13,24130,46484
13,24542,43148
13,24955,41527
13,25367,38328
13,25778,33111
13,26192,33780
13,26603,31726
13,27015,29877
13,27428,30522
13,27840,28540
13,28252,25800
13,28665,25098
13,29077,25485
13,29488,22862
13,29902,20567
13,30313,19972
13,30725,20158
13,31138,19318
13,31550,18787
13,31962,16535
13,32375,16229
13,32787,17074
13,33198,17995
13,33610,21609
13,34023,29995
13,34435,51948
13,34847,102596
13,35260,196479
13,35672,369527
13,36083,648272
13,36497,1073394
13,36908,1635623
13,37320,2326367
13,37733,3108695
13,38145,3870542
13,38557,4507765
13,38970,4903844
13,39382,4947124
13,39793,4679945
13,40207,4127345
13,40618,3443957
13,41030,2762132
13,41443,2147950
13,41855,1649493
13,42267,1254499
13,42678,964613
13,43092,757791
13,43503,597231
13,43915,488721
13,44328,408976
13,44740,337242
13,45152,288718
13,45565,251124
13,45977,219297
13,46388,193720
13,46802,172238
13,47213,153657
13,47625,137407
13,48038,124222
13,48450,112027
13,48862,104514
13,49275,97676
13,49687,88154
13,50098,78790
13,50512,78907
13,50923,71423
13,51335,67244
13,51747,63118
13,52160,60587
13,52572,58568
13,52983,53080
13,53397,50120
13,53808,45957
13,54220,45119
13,54633,44261
13,55045,38403
13,55457,39368
13,55870,38146
13,56282,35690
13,56693,33444
13,57107,32146
13,57518,33205
13,57930,31119
13,58343,29230
13,58755,27685
13,59167,28639
13,59580,25397
13,59992,25893
13,60403,24659
13,60815,24246
13,61228,24634
13,61640,22934
13,62052,21190
13,62465,22116
13,62877,22010
13,63288,19749
13,63702,21050
13,64113,19105
13,64525,19212
13,64938,18891
13,65350,19761
13,65762,17895
13,66175,18083
13,66587,18394
13,66998,17113
13,67412,17385
13,67823,16668
13,68235,16240
13,68648,16394
13,69060,16260
13,69472,14728
13,69883,16253
13,70297,15593
13,70708,14254
13,71120,14075
13,71533,15969
13,71945,16219
13,72357,14601
13,72770,16557
13,73182,14808
13,73593,15535
13,74007,14345
13,74418,14871
13,74830,14005
13,75243,13815
13,75655,12849
13,76067,13135
13,76480,12749
13,76892,13148
13,77303,13218
13,77717,12890
13,78128,12474
13,78540,13192
13,78952,12766
13,79365,11669
13,79777,13383
13,80188,13627
13,80602,14293
13,81013,15062
13,81425,16120
13,81838,14562
13,82250,16050
13,82662,14526
13,83075,13798
13,83487,14435
13,83898,13123
13,84312,13515
13,84723,13880
13,85135,14114
13,85548,17288
13,85960,23528
13,86372,40520
13,86785,71137
13,87197,128391
13,87608,233623
13,88020,384760
13,88433,586551
13,88845,825762
13,89257,1071182
13,89670,1299688
13,90082,1455412
13,90493,1515819
13,90907,1476534
13,91318,1362360
13,91730,1196898
13,92143,994789
13,92555,806835
13,92967,644557
13,93380,505502
13,93792,395857
13,94203,311312
13,94617,245727
13,95028,200700
13,95440,168294
13,95853,139793
13,96265,116858
13,96677,107358
13,97090,95857
13,97502,87258
13,97913,80991
13,98325,74074
13,98738,71210
13,99150,69417
13,99562,65233
13,99975,64840
14,00387,60552
14,00798,57364
14,01212,55931
14,01623,51731
14,02035,48720
14,02448,46096
14,02860,41656
14,03272,39894
14,03685,34577
14,04097,32768
14,04508,31076
14,04922,29162
14,05333,27877
14,05745,25916
14,06158,24065
14,06570,23633
14,06982,21915
14,07393,21767
14,07807,19473
14,08218,20197
14,08630,22588
14,09043,20168
14,09455,19336
14,09867,22338
14,10280,19771
14,10692,18979
14,11103,18324
14,11517,18490
14,11928,18047
14,12340,17866
14,12753,16932
14,13165,16290
14,13577,15821
14,13990,15263
14,14402,13175
14,14813,13848
14,15227,14423
14,15638,13093
14,16050,14211
14,16462,13561
14,16875,12546
14,17287,13893
14,17698,14412
14,18112,13247
14,18523,15696
14,18935,21276
14,19348,31365
14,19760,55566
14,20172,101235
14,20585,187810
14,20997,315986
14,21408,508628
14,21822,758332
14,22233,1041178
14,22645,1325392
14,23058,1522619
14,23470,1647312
14,23882,1656902
14,24295,1545657
14,24707,1372788
14,25118,1162370
14,25530,943293
14,25943,746100
14,26355,579951
14,26767,456575
14,27180,352398
14,27592,279669
14,28003,224985
14,28417,186673
14,28828,156453
14,29240,129165
14,29653,110804
14,30065,97854
14,30477,84827
14,30890,75008
14,31302,70573
14,31713,61784
14,32127,57674
14,32538,52383
14,32950,49606
14,33363,44462
14,33775,43175
14,34187,37772
14,34598,35296
14,35012,32712
14,35423,31485
14,35835,31475
14,36248,27779
14,36660,27739
14,37072,26313
14,37485,26801
14,37897,25088
14,38308,23325
14,38722,22307
14,39133,21543
14,39545,22130
14,39958,20759
14,40370,20356
14,40782,21200
14,41195,20724
14,41607,19681
14,42018,19012
14,42432,19211
14,42843,19772
14,43255,17774
14,43667,18733
14,44080,17801
14,44492,16572
14,44903,16593
14,45317,15025
14,45728,14686
14,46140,16641
14,46553,14252
14,46965,15366
14,47377,15984
14,47790,14053
14,48202,15136
14,48613,15410
14,49027,15610
14,49438,14401
14,49850,13944
14,50263,12495
14,50675,14442
14,51087,12748
14,51500,12514
14,51912,13659
14,52323,12858
14,52735,12779
14,53148,11642
14,53560,14224
14,53972,14749
14,54385,12349
14,54797,12432
14,55208,13226
14,55622,12683
14,56033,12166
14,56445,11559
14,56858,13933
14,57270,12147
14,57682,12081
14,58095,12151
14,58507,10568
14,58918,10672
14,59332,12231
14,59743,11153
14,60155,10347
14,60568,12420
14,60980,12479
14,61392,9989
14,61803,10869
14,62217,11283
14,62628,11022
14,63040,11011
14,63453,10096
14,63865,11069
14,64277,10565
14,64690,10856
14,65102,10303
14,65513,11485
14,65927,11317
14,66338,10986
14,66750,11302
14,67163,11973
14,67575,11551
14,67987,13867
14,68400,13234
14,68812,14984
14,69223,17999
14,69637,28115
14,70048,44057
14,70460,74843
14,70872,138936
14,71285,240425
14,71697,397711
14,72108,619190
14,72522,864576
14,72933,1138252
14,73345,1379962
14,73758,1541228
14,74170,1571938
14,74582,1544295
14,74995,1416167
14,75407,1227414
14,75818,1023449
14,76232,814885
14,76643,648217
14,77055,506149
14,77468,400706
14,77880,314105
14,78292,251635
14,78705,206505
14,79117,171495
14,79528,141283
14,79940,124034
14,80353,108980
14,80765,95638
14,81177,80672
14,81590,73276
14,82002,66338
14,82413,62396
14,82827,54989
14,83238,51189
14,83650,47842
14,84063,45233
14,84475,41205
14,84887,40031
14,85300,36313
14,85712,36404
14,86123,32988
14,86537,32026
14,86948,29879
14,87360,28003
14,87773,28598
14,88185,25588
14,88597,23952
14,89008,25637
14,89422,24199
14,89833,23591
14,90245,22596
14,90658,19733
14,91070,20458
14,91482,18929
14,91895,19610
14,92307,17949
14,92718,18660
14,93132,17524
14,93543,18970
14,93955,17121
14,94368,17675
14,94780,16699
14,95192,18611
14,95605,19805
14,96017,21374
14,96428,23459
14,96842,26624
14,97253,28777
14,97665,31240
14,98077,33012
14,98490,35118
14,98902,34182
14,99313,33430
14,99727,31662
15,00138,30894
15,00550,32188
15,00963,38691
15,01375,58647
15,01787,99079
15,02200,181854
15,02612,329704
15,03023,570165
15,03437,918879
15,03848,1391786
15,04260,1915509
15,04673,2485008
15,05085,3009855
15,05497,3410627
15,05910,3550830
15,06322,3441551
15,06733,3151708
15,07145,2736520
15,07558,2239409
15,07970,1791782
15,08382,1380909
15,08795,1070430
15,09207,827138
15,09618,645980
15,10032,520144
15,10443,418647
15,10855,346757
15,11268,293839
15,11680,250697
15,12092,215438
15,12505,188164
15,12917,166570
15,13328,146523
15,13742,136040
15,14153,119399
15,14565,111315
15,14978,104759
15,15390,92459
15,15802,86017
15,16213,83469
15,16627,75152
15,17038,70809
15,17450,66413
15,17863,62357
15,18275,55858
15,18687,53486
15,19100,50749
15,19512,49740
15,19923,45095
15,20337,42482
15,20748,41123
15,21160,39813
15,21573,38083
15,21985,36073
15,22397,36331
15,22810,33768
15,23222,32803
15,23633,33388
15,24047,29438
15,24458,30386
15,24870,30119
15,25282,28083
15,25695,27075
15,26107,27139
15,26518,24556
15,26932,24926
15,27343,24254
15,27755,24228
15,28168,24476
15,28580,25076
15,28992,33323
15,29405,40741
15,29817,71430
15,30228,118677
15,30642,209576
15,31053,351415
15,31465,543767
15,31878,802115
15,32290,1071257
15,32702,1338854
15,33115,1533160
15,33527,1624338
15,33938,1634502
15,34350,1527891
15,34763,1368609
15,35175,1178173
15,35587,967740
15,36000,772575
15,36412,611702
15,36823,479188
15,37237,382312
15,37648,308086
15,38060,248215
15,38473,208608
15,38885,176801
15,39297,149232
15,39710,129508
15,40122,113238
15,40533,101957
15,40947,89431
15,41358,81585
15,41770,75204
15,42183,71656
15,42595,65424
15,43007,65684
15,43418,72342
15,43832,90240
15,44243,135548
15,44655,221648
15,45068,376113
15,45480,629173
15,45892,979995
15,46305,1438451
15,46717,1951251
15,47128,2500173
15,47542,2935981
15,47953,3257367
15,48365,3361673
15,48778,3249474
15,49190,2921940
15,49602,2518961
15,50015,2066232
15,50427,1662252
15,50838,1302659
15,51252,1015378
15,51663,802280
15,52075,641757
15,52487,513510
15,52900,420247
15,53312,351869
15,53723,295546
15,54137,256689
15,54548,226838
15,54960,197324
15,55373,178472
15,55785,154715
15,56197,140168
15,56610,131746
15,57022,117453
15,57433,109351
15,57847,100269
15,58258,92039
15,58670,88893
15,59083,83518
15,59495,78225
15,59907,70340
15,60320,68099
15,60732,65427
15,61143,62586
15,61557,59317
15,61968,55773
15,62380,53756
15,62792,50027
15,63205,49088
15,63617,45301
15,64028,44216
15,64442,42535
15,64853,40747
15,65265,40890
15,65678,39903
15,66090,37168
15,66502,35370
15,66915,34265
15,67327,33954
15,67738,32051
15,68152,29530
15,68563,31950
15,68975,30158
15,69388,29326
15,69800,30146
15,70212,29380
15,70625,26111
15,71037,25220
15,71448,26600
15,71860,26142
15,72273,24931
15,72685,23557
15,73097,24282
15,73510,23502
15,73922,22909
15,74333,23422
15,74747,25472
15,75158,28765
15,75570,40953
15,75983,65183
15,76395,112110
15,76807,197340
15,77220,337801
15,77632,527063
15,78043,760694
15,78457,1014780
15,78868,1269848
15,79280,1441410
15,79693,1542243
15,80105,1572963
15,80517,1561368
15,80928,1520411
15,81342,1521880
15,81753,1648518
15,82165,1893920
15,82578,2273208
15,82990,2736220
15,83402,3163291
15,83815,3507223
15,84227,3695652
15,84638,3647220
15,85052,3358455
15,85463,2908331
15,85875,2416211
15,86288,1933033
15,86700,1514302
15,87112,1184210
15,87525,938489
15,87937,736126
15,88348,604146
15,88762,503775
15,89173,418794
15,89585,355610
15,89997,312854
15,90410,275661
15,90822,239111
15,91233,217383
15,91647,195857
15,92058,174546
15,92470,157622
15,92883,147775
15,93295,135205
15,93707,124097
15,94120,118440
15,94532,110131
15,94943,99393
15,95357,96507
15,95768,91330
15,96180,88610
15,96593,80974
15,97005,79866
15,97417,74869
15,97830,71941
15,98242,68628
15,98653,66135
15,99065,63359
15,99478,57680
15,99890,55593
16,00302,54059
16,00715,52297
16,01127,49017
16,01538,49086
16,01952,46612
16,02363,46433
16,02775,46682
16,03188,44796
16,03600,40551
16,04012,42079
16,04425,41436
16,04837,37789
16,05248,40080
16,05662,35158
16,06073,35172
16,06485,33755
16,06898,34816
16,07310,33930
16,07722,32819
16,08133,38793
16,08547,49741
16,08958,70350
16,09370,112596
16,09783,192914
16,10195,316863
16,10607,491517
16,11020,700611
16,11432,955455
16,11843,1190511
16,12257,1374423
16,12668,1459106
16,13080,1470396
16,13493,1371325
16,13905,1219976
16,14317,1041038
16,14730,865621
16,15142,694812
16,15553,553344
16,15967,435200
16,16378,345711
16,16790,285490
16,17202,236746
16,17615,194011
16,18027,163231
16,18438,142400
16,18852,126871
16,19263,110159
16,19675,99312
16,20088,90529
16,20500,80893
16,20912,77612
16,21325,67767
16,21737,68278
16,22148,62406
16,22562,57941
16,22973,56369
16,23385,53455
16,23798,51695
16,24210,48758
16,24622,48363
16,25035,47770
16,25447,45783
16,25858,43600
16,26270,41562
16,26683,40935
16,27095,38819
16,27507,37605
16,27920,35292
16,28332,34389
16,28743,34303
16,29157,33709
16,29568,31364
16,29980,30370
16,30393,30309
16,30805,28135
16,31217,28118
16,31630,29556
16,32042,28405
16,32453,27620
16,32867,27678
16,33278,25788
16,33690,26011
16,34103,25948
16,34515,25049
16,34927,24089
16,35338,25132
16,35752,22988
16,36163,23326
16,36575,23795
16,36988,22564
16,37400,22331
16,37812,21452
16,38225,21411
16,38637,20498
16,39048,19811
16,39462,20916
16,39873,19906
16,40285,19686
16,40698,20752
16,41110,20091
16,41522,19507
16,41935,18790
16,42347,19606
16,42758,19737
16,43172,20972
16,43583,20156
16,43995,19607
16,44407,21074
16,44820,20199
16,45232,18196
16,45643,20801
16,46057,19448
16,46468,18231
16,46880,18167
16,47293,18184
16,47705,19166
16,48117,17739
16,48530,17265
16,48942,17283
16,49353,17911
16,49767,16956
16,50178,17387
16,50590,19907
16,51003,18392
16,51415,17527
16,51827,16861
16,52240,17450
16,52652,18892
16,53063,19404
16,53475,22192
16,53888,26689
16,54300,39305
16,54712,67189
16,55125,119059
16,55537,221643
16,55948,385227
16,56362,642208
16,56773,983027
16,57185,1428986
16,57598,2004393
16,58010,2582437
16,58422,3203799
16,58835,3787485
16,59247,4276819
16,59658,4578404
16,60072,4701109
16,60483,4537395
16,60895,4155253
16,61308,3585252
16,61720,2982295
16,62132,2403909
16,62543,1887910
16,62957,1476095
16,63368,1166406
16,63780,931870
16,64193,763226
16,64605,628280
16,65017,530961
16,65430,446266
16,65842,390476
16,66253,346470
16,66667,304706
16,67078,274058
16,67490,249027
16,67903,221257
16,68315,203375
16,68727,188998
16,69140,172899
16,69552,158786
16,69963,143922
16,70377,136751
16,70788,129212
16,71200,122297
16,71612,111321
16,72025,106103
16,72437,99845
16,72848,93661
16,73262,91830
16,73673,86498
16,74085,84638
16,74498,81101
16,74910,77695
16,75322,77523
16,75735,76861
16,76147,80466
16,76558,80271
16,76972,77248
16,77383,81884
16,77795,78482
16,78208,76599
16,78620,70662
16,79032,68591
16,79445,66556
16,79857,65043
16,80268,58649
16,80680,56354
16,81093,53167
16,81505,53625
16,81917,54647
16,82330,57201
16,82742,67251
16,83153,86203
16,83567,135525
16,83978,213390
16,84390,330452
16,84803,499342
16,85215,704548
16,85627,917830
16,86040,1106652
16,86452,1240178
16,86863,1280828
16,87277,1260407
16,87688,1170364
16,88100,1041824
16,88513,885218
16,88925,730897
16,89337,585364
16,89748,470777
16,90162,386250
16,90573,308446
16,90985,255190
16,91398,213531
16,91810,180974
16,92222,154282
16,92635,134186
16,93047,118532
16,93458,105876
16,93872,98924
16,94283,89152
16,94695,87633
16,95108,89824
16,95520,100404
16,95932,123500
16,96345,178784
16,96757,268520
16,97168,422627
16,97582,637713
16,97993,912466
16,98405,1209432
16,98817,1479117
16,99230,1698548
16,99642,1794772
17,00053,1773473
17,00467,1650790
17,00878,1450895
17,01290,1228626
17,01703,1020265
17,02115,817147
17,02527,667558
17,02940,538110
17,03352,441105
17,03763,360734
17,04177,309124
17,04588,260515
17,05000,230367
17,05413,199922
17,05825,176878
17,06237,157137
17,06650,143799
17,07062,128532
17,07473,122873
17,07885,112521
17,08298,105520
17,08710,95265
17,09122,90545
17,09535,85401
17,09947,80933
17,10358,76792
17,10772,72033
17,11183,70626
17,11595,66253
17,12008,63203
17,12420,60561
17,12832,55866
17,13245,56079
17,13657,53162
17,14068,52069
17,14482,49377
17,14893,49735
17,15305,48873
17,15718,48583
17,16130,44566
17,16542,43209
17,16955,41951
17,17367,41999
17,17778,39420
17,18190,39104
17,18603,37674
17,19015,36912
17,19427,35665
17,19840,36727
17,20252,38245
17,20663,34417
17,21077,35299
17,21488,35772
17,21900,33725
17,22313,35358
17,22725,31741
17,23137,31903
17,23550,32218
17,23962,31466
17,24373,31450
17,24787,30510
17,25198,29122
17,25610,30455
17,26023,28976
17,26435,28955
17,26847,30635
17,27258,34037
17,27672,36202
17,28083,48672
17,28495,70978
17,28908,120830
17,29320,202128
17,29732,331801
17,30145,533343
17,30557,808434
17,30968,1146285
17,31382,1480491
17,31793,1761481
17,32205,1927912
17,32618,1965172
17,33030,1872078
17,33442,1681981
17,33855,1437973
17,34267,1186200
17,34678,955423
17,35092,760046
17,35503,615216
17,35915,495395
17,36327,417968
17,36740,353355
17,37152,299268
17,37563,256901
17,37977,223478
17,38388,202613
17,38800,179073
17,39213,163001
17,39625,147619
17,40037,135156
17,40450,125217
17,40862,116443
17,41273,108372
17,41687,101513
17,42098,94466
17,42510,89355
17,42923,86950
17,43335,81709
17,43747,79142
17,44160,75398
17,44572,75176
17,44983,71346
17,45395,68958
17,45808,64845
17,46220,64688
17,46632,60995
17,47045,60248
17,47457,56868
17,47868,51372
17,48282,50756
17,48693,50294
17,49105,48126
17,49518,48583
17,49930,47576
17,50342,45305
17,50755,44419
17,51167,41230
17,51578,43722
17,51992,43718
17,52403,43322
17,52815,37786
17,53228,38596
17,53640,37336
17,54052,36966
17,54463,35961
17,54877,36693
17,55288,36112
17,55700,40213
17,56113,41666
17,56525,47621
17,56937,60535
17,57350,92505
17,57762,147285
17,58173,242244
17,58587,381569
17,58998,583672
17,59410,839855
17,59823,1101261
17,60235,1334791
17,60647,1508775
17,61060,1573718
17,61472,1526859
17,61883,1404846
17,62297,1232014
17,62708,1025185
17,63120,857542
17,63532,687945
17,63945,555046
17,64357,453817
17,64768,369652
17,65182,306938
17,65593,259564
17,66005,221234
17,66418,190233
17,66830,171030
17,67242,153580
17,67655,136241
17,68067,126188
17,68478,116661
17,68892,104075
17,69303,98334
17,69715,93392
17,70128,85494
17,70540,79895
17,70952,76366
17,71365,74854
17,71777,70068
17,72188,66417
17,72600,64717
17,73013,62403
17,73425,57990
17,73837,57596
17,74250,53874
17,74662,55472
17,75073,51312
17,75487,52348
17,75898,51507
17,76310,49100
17,76723,49348
17,77135,45928
17,77547,42924
17,77960,43405
17,78372,44578
17,78783,41953
17,79197,42635
17,79608,42176
17,80020,40014
17,80433,40487
17,80845,40379
17,81257,38779
17,81668,38954
17,82082,35742
17,82493,37032
17,82905,36705
17,83318,36927
17,83730,37760
17,84142,34398
17,84555,34800
17,84967,35091
17,85378,32959
17,85792,32811
17,86203,33567
17,86615,33937
17,87028,32992
17,87440,32448
17,87852,33023
17,88265,32504
17,88677,32080
17,89088,34225
17,89502,33178
17,89913,32323
17,90325,34611
17,90737,34141
17,91150,30962
17,91562,31994
17,91973,33352
17,92387,30337
17,92798,31547
17,93210,31771
17,93623,32228
17,94035,31316
17,94447,32101
17,94860,30607
17,95272,31952
17,95683,32253
17,96097,30878
17,96508,30400
17,96920,31800
17,97333,31673
17,97745,33519
17,98157,43188
17,98570,60838
17,98982,91639
17,99393,161230
17,99805,281026
18,00218,491818
18,00630,832822
18,01042,1307036
18,01455,1958039
18,01867,2743258
18,02278,3624650
18,02692,4461183
18,03103,5116650
18,03515,5407724
18,03928,5391212
18,04340,4996113
18,04752,4394272
18,05165,3698265
18,05577,3023699
18,05988,2439154
18,06402,1935809
18,06813,1569688
18,07225,1258105
18,07638,1050555
18,08050,876404
18,08462,745633
18,08873,631068
18,09287,548200
18,09698,487111
18,10110,435842
18,10523,396035
18,10935,357837
18,11347,327407
18,11760,299244
18,12172,271082
18,12583,254971
18,12997,238047
18,13408,221220
18,13820,213616
18,14233,195586
18,14645,188163
18,15057,177353
18,15470,168121
18,15882,158210
18,16293,151735
18,16707,145040
18,17118,137259
18,17530,133939
18,17942,130638
18,18355,121806
18,18767,119824
18,19178,113114
18,19592,110382
18,20003,103319
18,20415,99954
18,20828,97531
18,21240,95244
18,21652,93564
18,22065,92434
18,22477,90222
18,22888,85192
18,23302,83340
18,23713,79437
18,24125,80982
18,24538,79768
18,24950,78473
18,25362,77123
18,25775,82723
18,26187,92997
18,26598,115034
18,27010,156860
18,27423,229871
18,27835,340898
18,28247,506462
18,28660,709167
18,29072,944382
18,29483,1165286
18,29897,1347117
18,30308,1441788
18,30720,1440711
18,31133,1371086
18,31545,1233160
18,31957,1066196
18,32370,932930
18,32782,809922
18,33193,765588
18,33607,756185
18,34018,814497
18,34430,932534
18,34843,1105928
18,35255,1260925
18,35667,1368851
18,36078,1470507
18,36492,1493930
18,36903,1460146
18,37315,1397052
18,37728,1337834
18,38140,1345705
18,38552,1423733
18,38965,1568466
18,39377,1776363
18,39788,1946369
18,40202,2086489
18,40613,2133445
18,41025,2082831
18,41438,1941779
18,41850,1701470
18,42262,1458013
18,42675,1223732
18,43087,1015937
18,43498,844981
18,43912,705192
18,44323,596533
18,44735,512143
18,45147,450544
18,45560,395386
18,45972,354094
18,46383,318750
18,46797,286963
18,47208,267444
18,47620,249607
18,48033,228755
18,48445,212196
18,48857,196483
18,49270,185371
18,49682,172048
18,50093,166224
18,50507,154064
18,50918,148320
18,51330,137770
18,51743,138901
18,52155,126802
18,52567,126154
18,52980,116282
18,53392,114556
18,53803,110657
18,54215,106489
18,54628,101917
18,55040,96241
18,55452,93973
18,55865,92144
18,56277,90171
18,56688,89305
18,57102,87238
18,57513,86413
18,57925,81749
18,58338,78970
18,58750,78121
18,59162,78108
18,59575,71741
18,59987,76111
18,60398,73398
18,60812,73222
18,61223,73158
18,61635,68916
18,62048,71028
18,62460,68833
18,62872,64666
18,63283,66313
18,63697,65774
18,64108,64510
18,64520,63803
18,64933,65883
18,65345,70716
18,65757,77932
18,66170,98448
18,66582,141479
18,66993,213868
18,67407,334876
18,67818,510500
18,68230,766682
18,68643,1072366
18,69055,1408850
18,69467,1723524
18,69880,1920055
18,70292,2010599
18,70703,1946903
18,71117,1791110
18,71528,1557960
18,71940,1312744
18,72353,1088877
18,72765,890312
18,73177,743432
18,73588,624613
18,74002,529751
18,74413,456969
18,74825,407324
18,75238,359025
18,75650,328987
18,76062,294412
18,76475,270616
18,76887,245511
18,77298,228011
18,77712,209497
18,78123,198195
18,78535,182467
18,78948,170161
18,79360,162219
18,79772,157342
18,80185,150816
18,80597,144535
18,81008,138626
18,81422,135263
18,81833,130525
18,82245,126298
18,82657,119220
18,83070,112018
18,83482,110226
18,83893,106725
18,84307,103809
18,84718,102571
18,85130,97744
18,85543,95847
18,85955,91804
18,86367,91761
18,86780,91338
18,87192,87533
18,87603,84438
18,88017,85006
18,88428,84078
18,88840,79953
18,89253,80242
18,89665,77976
18,90077,78428
18,90490,75294
18,90902,73534
18,91313,74365
18,91725,72703
18,92138,71169
18,92550,71600
18,92962,70996
18,93375,68637
18,93787,72315
18,94198,82693
18,94612,98321
18,95023,134156
18,95435,199263
18,95848,306193
18,96260,461988
18,96672,681181
18,97085,928415
18,97497,1194023
18,97908,1407836
18,98322,1556327
18,98733,1621249
18,99145,1565462
18,99558,1454659
18,99970,1284166
19,00382,1115798
19,00793,937102
19,01207,774130
19,01618,651996
19,02030,543411
19,02443,466645
19,02855,400901
19,03267,363267
19,03680,347017
19,04092,346695
19,04503,370207
19,04917,443342
19,05328,543694
19,05740,691599
19,06153,843268
19,06565,1015089
19,06977,1165494
19,07390,1247997
19,07802,1267687
19,08213,1221785
19,08627,1133703
19,09038,1009681
19,09450,875206
19,09862,751765
19,10275,620636
19,10687,526075
19,11098,442131
19,11512,375506
19,11923,331257
19,12335,284835
19,12748,254251
19,13160,229150
19,13572,206312
19,13985,190164
19,14397,173558
19,14808,161902
19,15222,157619
19,15633,144292
19,16045,137717
19,16458,130875
19,16870,125198
19,17282,119305
19,17695,112349
19,18107,109613
19,18518,104089
19,18930,100269
19,19343,96911
19,19755,97092
19,20167,93497
19,20580,89257
19,20992,90891
19,21403,85770
19,21817,83935
19,22228,82116
19,22640,83491
19,23053,80248
19,23465,77575
19,23877,77501
19,24290,79201
19,24702,74600
19,25113,73032
19,25527,71532
19,25938,72834
19,26350,72141
19,26763,69780
19,27175,67773
19,27587,67516
19,27998,66156
19,28412,68340
19,28823,65275
19,29235,64401
19,29648,63499
19,30060,63089
19,30472,62226
19,30885,60939
19,31297,60706
19,31708,62104
19,32122,64751
19,32533,70592
19,32945,79978
19,33358,107645
19,33770,146209
19,34182,217119
19,34595,334617
19,35007,511875
19,35418,771293
19,35832,1092762
19,36243,1505906
19,36655,2001487
19,37067,2523816
19,37480,3033620
19,37892,3454516
19,38303,3676405
19,38717,3659082
19,39128,3428665
19,39540,3045869
19,39953,2599594
19,40365,2167834
19,40777,1798565
19,41190,1483465
19,41602,1243913
19,42013,1043116
19,42427,897670
19,42838,776687
19,43250,687204
19,43663,612934
19,44075,546957
19,44487,504559
19,44900,456430
19,45312,423058
19,45723,391532
19,46135,355074
19,46548,336053
19,46960,309838
19,47372,291378
19,47785,274627
19,48197,261676
19,48608,248892
19,49022,233290
19,49433,221696
19,49845,216109
19,50258,205422
19,50670,196637
19,51082,188484
19,51495,179220
19,51907,177819
19,52318,169883
19,52732,159453
19,53143,156535
19,53555,152145
19,53968,143331
19,54380,143037
19,54792,138023
19,55203,132876
19,55617,133874
19,56028,128776
19,56440,125560
19,56853,121231
19,57265,119347
19,57677,117167
19,58090,117224
19,58502,116530
19,58913,113992
19,59327,109680
19,59738,107508
19,60150,108709
19,60563,104329
19,60975,101781
19,61387,99197
19,61800,98862
19,62212,97432
19,62623,94724
19,63037,93179
19,63448,91340
19,63860,90382
19,64272,90814
19,64685,88970
19,65097,87100
19,65508,83581
19,65922,82873
19,66333,84542
19,66745,82351
19,67158,81978
19,67570,80213
19,67982,77756
19,68395,81970
19,68807,78995
19,69218,76533
19,69632,75403
19,70043,77841
19,70455,78461
19,70868,81454
19,71280,90938
19,71692,100521
19,72105,126555
19,72517,167451
19,72928,238195
19,73340,346891
19,73753,486343
19,74165,673381
19,74577,897686
19,74990,1143012
19,75402,1350538
19,75813,1529147
19,76227,1625971
19,76638,1625486
19,77050,1574007
19,77463,1452908
19,77875,1307595
19,78287,1133025
19,78700,978715
19,79112,834341
19,79523,727090
19,79937,634745
19,80348,552721
19,80760,488178
19,81173,435171
19,81585,396007
19,81997,351523
19,82408,320631
19,82822,294401
19,83233,277233
19,83645,256818
19,84058,239407
19,84470,227657
19,84882,212871
19,85295,203657
19,85707,193652
19,86118,180160
19,86532,175299
19,86943,166796
19,87355,161742
19,87768,155950
19,88180,148993
19,88592,143018
19,89005,140875
19,89417,132070
19,89828,130489
19,90242,125001
19,90653,122614
19,91065,120079
19,91477,114168
19,91890,112492
19,92302,109185
19,92713,106387
19,93127,104644
19,93538,104953
19,93950,103781
19,94363,100320
19,94775,96864
19,95187,97035
19,95600,93485
19,96012,94433
19,96423,90382
19,96837,88999
19,97248,87947
19,97660,85058
19,98073,87705
19,98485,87097
19,98897,81807
19,99310,80434
19,99722,79171
20,00133,84940
20,00545,80135
20,00958,79505
20,01370,78146
20,01782,77579
20,02195,75199
20,02607,72679
20,03018,75119
20,03432,73124
20,03843,73067
20,04255,73831
20,04668,73683
20,05080,73627
20,05492,74579
20,05905,72133
20,06317,72275
20,06728,69977
20,07142,72050
20,07553,71944
20,07965,72557
20,08378,69249
20,08790,68202
20,09202,71959
20,09613,69462
20,10027,69367
20,10438,67957
20,10850,67080
20,11263,66770
20,11675,63293
20,12087,62929
20,12500,63616
20,12912,61962
20,13323,63972
20,13737,60415
20,14148,59944
20,14560,62399
20,14973,63155
20,15385,62069
20,15797,65994
20,16210,67601
20,16622,68072
20,17033,75687
20,17447,81554
20,17858,88077
20,18270,98234
20,18682,107790
20,19095,117323
20,19507,122681
20,19918,129738
20,20332,129556
20,20743,128124
20,21155,122631
20,21568,117019
20,21980,111201
20,22392,102236
20,22805,98437
20,23217,92148
20,23628,84420
20,24042,82160
20,24453,76760
20,24865,72072
20,25278,69611
20,25690,65887
20,26102,67717
20,26515,64970
20,26927,63903
20,27338,63878
20,27750,61125
20,28163,62335
20,28575,61913
20,28987,60959
20,29400,56428
20,29812,57876
20,30223,57907
20,30637,56288
20,31048,57896
20,31460,57345
20,31873,57051
20,32285,58497
20,32697,54772
20,33110,57781
20,33522,54604
20,33933,55242
20,34347,55320
20,34758,54631
20,35170,56396
20,35583,53822
20,35995,53833
20,36407,53929
20,36820,52254
20,37232,55628
20,37643,51658
20,38055,50601
20,38468,55039
20,38880,51927
20,39292,52275
20,39705,53721
20,40117,51633
20,40528,50523
20,40942,51324
20,41353,50701
20,41765,49551
20,42178,54117
20,42590,50135
20,43002,51158
20,43415,51214
20,43827,51914
20,44238,53458
20,44652,51166
20,45063,53796
20,45475,51454
20,45888,52804
20,46300,51268
20,46712,50249
20,47123,51045
20,47537,52189
20,47948,48961
20,48360,51725
20,48773,51904
20,49185,52894
20,49597,51019
20,50010,50019
20,50422,50347
20,50833,49713
20,51247,50838
20,51658,50137
20,52070,48643
20,52483,48121
20,52895,49403
20,53307,50428
20,53720,47025
20,54132,50034
20,54543,50503
20,54957,49817
20,55368,50820
20,55780,49176
20,56192,47616
20,56605,47819
20,57017,48842
20,57428,50299
20,57842,48308
20,58253,49583
20,58665,49794
20,59078,49151
20,59490,49760
20,59902,49478
20,60315,49192
20,60727,50157
20,61138,49388
20,61552,50326
20,61963,50569
20,62375,51062
20,62788,49645
20,63200,49856
20,63612,52156
20,64025,51775
20,64437,48549
20,64848,48435
20,65260,52893
20,65673,49082
20,66085,51525
20,66497,50966
20,66910,48504
20,67322,48041
20,67733,49996
20,68147,49192
20,68558,49374
20,68970,48362
20,69383,49145
20,69795,46207
20,70207,49570
20,70620,48503
20,71032,50377
20,71443,46612
20,71857,47636
20,72268,47061
20,72680,47570
20,73093,50209
20,73505,48313
20,73917,48602
20,74328,49461
20,74742,45685
20,75153,47677
20,75565,48277
20,75978,49089
20,76390,49290
20,76802,47074
20,77215,49002
20,77627,48212
20,78038,47753
20,78452,46889
20,78863,46115
20,79275,45695
20,79688,48219
20,80100,47867
20,80512,49020
20,80925,46835
20,81337,49099
20,81748,47147
20,82162,50639
20,82573,49292
20,82985,46842
20,83397,47717
20,83810,46219
20,84222,49302
20,84633,50793
20,85047,52844
20,85458,55117
20,85870,62990
20,86283,70891
20,86695,89347
20,87107,120067
20,87520,161394
20,87932,212893
20,88343,288964
20,88757,377067
20,89168,477894
20,89580,586243
20,89993,667677
20,90405,751655
20,90817,798922
20,91230,811534
20,91642,802048
20,92053,768556
20,92465,706268
20,92878,646626
20,93290,583368
20,93702,512098
20,94115,451566
20,94527,403908
20,94938,358439
20,95352,319017
20,95763,284403
20,96175,257241
20,96588,234275
20,97000,208476
20,97412,189955
20,97825,177132
20,98237,167868
20,98648,156317
20,99062,144146
20,99473,136336
20,99885,130062
21,00298,121565
21,00710,117033
21,01122,112904
21,01533,108207
21,01947,105719
21,02358,102077
21,02770,99183
21,03183,92955
21,03595,92670
21,04007,89052
21,04420,86909
21,04832,87971
21,05243,83444
21,05657,82964
21,06068,81405
21,06480,81367
21,06893,74802
21,07305,76413
21,07717,74670
21,08130,73962
21,08542,73607
21,08953,72452
21,09367,71242
21,09778,67230
21,10190,65480
21,10602,67088
21,11015,64315
21,11427,64700
21,11838,65322
21,12252,62226
21,12663,61597
21,13075,64628
21,13488,61871
21,13900,63803
21,14312,59298
21,14725,60730
21,15137,62146
21,15548,59942
21,15962,61110
21,16373,59376
21,16785,57729
21,17198,57759
21,17610,57214
21,18022,57432
21,18435,58014
21,18847,57364
21,19258,57500
21,19670,60583
21,20083,57359
21,20495,56128
21,20907,55092
21,21320,56056
21,21732,56023
21,22143,55209
21,22557,58174
21,22968,54000
21,23380,55038
21,23793,54892
21,24205,55191
21,24617,55192
21,25030,54619
21,25442,53713
21,25853,54970
21,26267,54971
21,26678,54467
21,27090,53762
21,27503,53568
21,27915,51149
21,28327,51482
21,28738,50464
21,29152,50181
21,29563,54535
21,29975,52244
21,30388,50718
21,30800,50598
21,31212,50746
21,31625,50601
21,32037,50328
21,32448,50744
21,32862,52686
21,33273,48020
21,33685,52218
21,34098,51258
21,34510,51323
21,34922,53575
21,35335,53706
21,35747,52968
21,36158,51354
21,36572,51044
21,36983,51024
21,37395,51187
21,37807,52554
21,38220,52567
21,38632,49937
21,39043,52207
21,39457,51614
21,39868,50016
21,40280,52566
21,40693,53132
21,41105,52286
21,41517,52789
21,41930,49155
21,42342,50530
21,42753,50158
21,43167,50792
21,43578,50678
21,43990,47908
21,44403,53095
21,44815,48202
21,45227,48950
21,45640,49346
21,46052,48894
21,46463,48482
21,46875,48635
21,47288,49151
21,47700,48098
21,48112,47772
21,48525,47620
21,48937,48145
21,49348,48684
21,49762,48998
21,50173,49326
21,50585,46633
21,50998,50775
21,51410,50255
21,51822,49902
21,52235,46996
21,52647,49147
21,53058,48920
21,53472,45263
21,53883,46789
21,54295,51280
21,54708,48341
21,55120,50106
21,55532,51738
21,55943,46587
21,56357,50425
21,56768,49372
21,57180,47578
21,57593,52305
21,58005,50487
21,58417,52535
21,58830,50232
21,59242,48525
21,59653,52198
21,60067,48742
21,60478,48747
21,60890,47696
21,61303,48139
21,61715,48285
21,62127,48852
21,62540,49946
21,62952,49859
21,63363,50199
21,63777,50259
21,64188,49223
21,64600,49101
21,65012,49113
21,65425,47531
21,65837,47542
21,66248,50010
21,66662,50383
21,67073,50243
21,67485,50612
21,67898,48240
21,68310,46215
21,68722,50130
21,69135,46218
21,69547,46972
21,69958,47742
21,70372,49409
21,70783,45727
21,71195,46988
21,71608,47651
21,72020,50043
21,72432,46147
21,72845,48795
21,73257,46532
21,73668,45668
21,74080,48215
21,74493,48955
21,74905,46132
21,75317,48574
21,75730,45215
21,76142,48213
21,76553,47067
21,76967,48312
21,77378,48112
21,77790,47350
21,78203,49123
21,78615,48449
21,79027,46812
21,79440,47285
21,79852,46000
21,80263,46781
21,80677,45519
21,81088,44832
21,81500,47027
21,81913,46139
21,82325,47471
21,82737,44183
21,83148,49316
21,83562,46824
21,83973,46806
21,84385,47822
21,84798,49583
21,85210,46928
21,85622,47026
21,86035,47035
21,86447,46442
21,86858,46701
21,87272,48043
21,87683,47323
21,88095,46641
21,88508,46734
21,88920,50715
21,89332,48026
21,89745,50245
21,90157,48691
21,90568,47072
21,90982,49751
21,91393,45952
21,91805,48756
21,92218,46484
21,92630,48298
21,93042,48016
21,93453,46886
21,93867,48691
21,94278,47986
21,94690,46067
21,95103,48065
21,95515,47069
21,95927,48703
21,96340,50477
21,96752,47657
21,97163,49490
21,97577,50495
21,97988,48581
21,98400,51045
21,98813,49331
21,99225,50417
21,99637,49392
22,00050,49947
22,00462,51499
22,00873,46763
22,01287,47820
22,01698,50430
22,02110,48873
22,02522,50561
22,02935,47331
22,03347,47314
22,03758,49847
22,04172,47633
22,04583,48993
22,04995,46943
22,05408,50222
22,05820,48755
22,06232,45708
22,06645,47229
22,07057,42995
22,07468,46652
22,07882,48330
22,08293,48120
22,08705,47271
22,09118,45911
22,09530,45292
22,09942,47429
22,10355,46705
22,10767,46124
22,11178,47962
22,11590,47965
22,12003,45704
22,12415,45263
22,12827,46994
22,13240,44899
22,13652,46960
22,14063,46432
22,14477,44218
22,14888,45046
22,15300,44681
22,15713,46766
22,16125,46813
22,16537,47542
22,16950,43815
22,17362,45969
22,17773,44229
22,18187,46477
22,18598,44502
22,19010,48518
22,19423,44651
22,19835,45037
22,20247,45767
22,20658,46104
22,21072,47092
22,21483,44049
22,21895,44706
22,22308,46167
22,22720,45629
22,23132,48531
22,23545,46184
22,23957,45943
22,24368,46018
22,24782,45550
22,25193,45885
22,25605,47005
22,26018,45465
22,26430,44719
22,26842,45392
22,27255,47180
22,27667,46743
22,28078,45866
22,28492,45876
22,28903,45984
22,29315,43937
22,29727,45894
22,30140,47982
22,30552,46751
22,30963,46560
22,31377,44539
22,31788,43185
22,32200,45490
22,32613,45780
22,33025,45478
22,33437,46501
22,33850,46352
22,34262,45575
22,34673,47366
22,35087,44666
22,35498,49946
22,35910,47036
22,36323,47336
22,36735,46903
22,37147,48742
22,37560,46894
22,37972,46264
22,38383,45333
22,38795,48309
22,39208,46951
22,39620,46797
22,40032,46627
22,40445,44371
22,40857,45154
22,41268,46865
22,41682,45812
22,42093,46000
22,42505,45091
22,42918,45126
22,43330,46064
22,43742,46066
22,44155,45780
22,44567,45523
22,44978,45188
22,45392,44958
22,45803,45541
22,46215,46393
22,46628,48474
22,47040,45234
22,47452,46854
22,47863,46808
22,48277,44698
22,48688,47194
22,49100,44968
22,49513,44555
22,49925,47289
22,50337,48645
22,50750,45848
22,51162,47651
22,51573,45930
22,51987,48091
22,52398,44173
22,52810,45268
22,53223,45880
22,53635,45969
22,54047,45977
22,54460,47499
22,54872,46873
22,55283,48366
22,55697,45917
22,56108,46046
22,56520,47588
22,56932,45162
22,57345,45720
22,57757,46470
22,58168,43706
22,58582,45342
22,58993,47460
22,59405,46921
22,59818,47073
22,60230,44320
22,60642,46328
22,61055,43902
22,61467,45282
22,61878,46122
22,62292,44110
22,62703,43366
22,63115,46556
22,63528,45314
22,63940,47161
22,64352,46177
22,64765,45492
22,65177,44873
22,65588,47899
22,66000,46587
22,66413,45416
22,66825,48878
22,67237,46613
22,67650,44190
22,68062,46210
22,68473,45804
22,68887,45917
22,69298,44991
22,69710,45981
22,70123,45606
22,70535,46263
22,70947,44717
22,71360,45468
22,71772,46351
22,72183,45239
22,72597,44133
22,73008,44658
22,73420,45058
22,73833,45379
22,74245,42651
22,74657,43459
22,75068,45429
22,75482,44145
22,75893,43682
22,76305,43736
22,76718,44233
22,77130,45268
22,77542,45480
22,77955,42668
22,78367,44095
22,78778,42432
22,79192,44101
22,79603,45251
22,80015,43517
22,80428,45323
22,80840,44876
22,81252,43748
22,81665,46767
22,82077,46213
22,82488,43517
22,82902,45056
22,83313,44300
22,83725,44705
22,84137,45320
22,84550,44246
22,84962,43999
22,85373,44119
22,85787,44442
22,86198,45161
22,86610,44712
22,87023,42564
22,87435,46454
22,87847,45739
22,88260,47327
22,88672,47180
22,89083,44665
22,89497,44671
22,89908,46699
22,90320,44585
22,90733,43198
22,91145,45734
22,91557,44960
22,91970,43874
22,92382,44101
22,92793,43834
22,93205,44830
22,93618,46563
22,94030,46115
22,94442,43890
22,94855,43651
22,95267,44995
22,95678,43942
22,96092,43233
22,96503,45343
22,96915,43990
22,97328,51237
22,97740,45330
22,98152,44622
22,98565,47207
22,98977,47387
22,99388,47726
22,99802,49605
23,00213,46462
23,00625,46602
23,01038,47661
23,01450,47598
23,01862,46839
23,02273,48280
23,02687,48638
23,03098,46614
23,03510,46320
23,03923,44921
23,04335,44647
23,04747,46142
23,05160,45236
23,05572,44753
23,05983,47928
23,06397,47004
23,06808,44464
23,07220,43983
23,07633,45835
23,08045,44994
23,08457,44488
23,08870,45005
23,09282,44345
23,09693,44659
23,10107,43404
23,10518,45607
23,10930,45274
23,11342,45259
23,11755,44412
23,12167,43668
23,12578,43213
23,12992,44596
23,13403,45410
23,13815,41914
23,14228,44223
23,14640,44289
23,15052,41590
23,15465,44086
23,15877,41406
23,16288,45414
23,16702,45351
23,17113,44420
23,17525,45800
23,17938,43732
23,18350,43561
23,18762,46283
23,19175,42157
23,19587,45572
23,19998,45141
23,20410,44459
23,20823,43440
23,21235,44097
23,21647,45337
23,22060,44319
23,22472,43553
23,22883,41269
23,23297,44820
23,23708,42172
23,24120,42017
23,24533,44166
23,24945,43588
23,25357,43358
23,25770,45659
23,26182,43472
23,26593,43973
23,27007,45369
23,27418,45990
23,27830,44259
23,28243,45694
23,28655,44304
23,29067,45270
23,29478,41699
23,29892,43599
23,30303,45874
23,30715,45377
23,31128,41992
23,31540,42716
23,31952,43342
23,32365,44902
23,32777,46931
23,33188,45319
23,33602,48573
23,34013,42623
23,34425,43655
23,34838,43916
23,35250,44378
23,35662,43842
23,36075,43871
23,36487,41782
23,36898,45128
23,37312,45649
23,37723,44001
23,38135,47547
23,38547,44595
23,38960,42158
23,39372,42935
23,39783,44464
23,40197,45177
23,40608,46040
23,41020,44442
23,41433,47245
23,41845,43779
23,42257,44091
23,42670,46401
23,43082,46238
23,43493,45139
23,43907,47678
23,44318,45899
23,44730,47865
23,45143,46068
23,45555,48262
23,45967,47410
23,46380,48921
23,46792,47487
23,47203,51234
23,47615,45195
23,48028,46859
23,48440,48195
23,48852,47557
23,49265,49418
23,49677,50358
23,50088,47217
23,50502,47365
23,50913,48030
23,51325,47086
23,51738,48937
23,52150,46366
23,52562,46530
23,52975,43377
23,53387,45604
23,53798,48080
23,54212,42922
23,54623,46689
23,55035,44415
23,55448,42542
23,55860,44751
23,56272,44272
23,56685,46279
23,57097,48443
23,57508,44015
23,57920,43074
23,58333,46891
23,58745,45174
23,59157,45989
23,59570,44379
23,59982,44607
23,60393,45459
23,60807,44577
23,61218,45468
23,61630,41360
23,62043,45814
23,62455,46654
23,62867,45139
23,63280,44252
23,63692,45987
23,64103,42668
23,64517,45295
23,64928,42961
23,65340,42915
23,65753,44351
23,66165,42397
23,66577,43094
23,66988,43187
23,67402,45405
23,67813,43343
23,68225,42169
23,68638,45816
23,69050,43521
23,69462,43824
23,69875,44286
23,70287,44626
23,70698,45074
23,71112,43636
23,71523,46024
23,71935,44267
23,72348,43723
23,72760,46763
23,73172,44075
23,73585,44711
23,73997,46724
23,74408,44891
23,74822,44664
23,75233,44801
23,75645,44831
23,76057,45021
23,76470,41821
23,76882,44135
23,77293,44082
23,77707,42404
23,78118,45093
23,78530,43102
23,78943,45659
23,79355,45056
23,79767,44602
23,80180,43383
23,80592,43693
23,81003,44826
23,81417,42909
23,81828,43420
23,82240,43985
23,82653,46396
23,83065,45634
23,83477,44074
23,83890,43472
23,84302,44526
23,84713,44480
23,85125,46038
23,85538,44410
23,85950,45199
23,86362,44840
23,86775,45462
23,87187,45590
23,87598,46823
23,88012,43433
23,88423,44253
23,88835,45443
23,89248,43822
23,89660,44420
23,90072,43381
23,90485,43228
23,90897,44908
23,91308,45308
23,91722,43337
23,92133,43561
23,92545,43295
23,92958,43478
23,93370,43822
23,93782,43703
23,94193,43096
23,94607,42921
23,95018,43434
23,95430,44555
23,95843,45889
23,96255,42309
23,96667,43980
23,97080,43928
23,97492,45169
23,97903,40725
23,98317,44737
23,98728,44587
23,99140,45195
23,99553,42736
23,99965,43851
24,00377,42660
24,00790,44173
24,01202,46365
24,01613,43336
24,02027,42879
24,02438,43932
24,02850,43962
24,03262,41870
24,03675,43064
24,04087,46652
24,04498,44167
24,04912,40955
24,05323,42798
24,05735,43149
24,06148,44451
24,06560,46079
24,06972,41559
24,07385,44578
24,07797,45257
24,08208,43809
24,08622,43048
24,09033,41410
24,09445,42178
24,09858,43834
24,10270,42186
24,10682,43478
24,11095,41637
24,11507,44997
24,11918,44103
24,12330,43823
24,12743,43232
24,13155,40687
24,13567,44145
24,13980,45310
24,14392,43892
24,14803,42743
24,15217,45781
24,15628,44155
24,16040,45494
24,16453,43043
24,16865,43328
24,17277,43751
24,17690,43899
24,18102,41532
24,18513,45042
24,18927,40912
24,19338,44440
24,19750,44271
24,20163,44131
24,20575,42585
24,20987,44120
24,21398,42603
24,21812,40484
24,22223,43244
24,22635,45041
24,23048,41995
24,23460,44958
24,23872,44200
24,24285,43776
24,24697,43502
24,25108,43635
24,25522,45208
24,25933,44853
24,26345,43478
24,26758,44163
24,27170,44439
24,27582,44531
24,27995,45378
24,28407,44228
24,28818,42764
24,29232,41987
24,29643,44867
24,30055,40491
24,30467,43572
24,30880,44639
24,31292,43123
24,31703,42885
24,32117,45997
24,32528,40876
24,32940,44346
24,33353,42134
24,33765,45013
24,34177,48375
24,34590,42697
24,35002,42216
24,35413,44851
24,35827,42618
24,36238,43534
24,36650,44020
24,37063,43148
24,37475,42839
24,37887,42140
24,38300,45540
24,38712,40542
24,39123,42617
24,39535,42677
24,39948,41950
24,40360,44087
24,40772,44957
24,41185,42380
24,41597,43411
24,42008,42270
24,42422,41903
24,42833,44559
24,43245,43243
24,43658,43124
24,44070,42375
24,44482,44189
24,44895,45537
24,45307,43778
24,45718,42116
24,46132,42257
24,46543,45172
24,46955,44512
24,47368,44668
24,47780,43468
24,48192,44594
24,48603,44547
24,49017,44227
24,49428,44152
24,49840,44376
24,50253,44712
24,50665,44954
24,51077,44414
24,51490,46563
24,51902,43817
24,52313,44041
24,52727,46629
24,53138,45898
24,53550,43032
24,53963,45304
24,54375,44130
24,54787,44896
24,55200,44546
24,55612,44661
24,56023,46048
24,56437,44590
24,56848,44670
24,57260,45844
24,57672,42539
24,58085,44653
24,58497,45819
24,58908,44440
24,59322,42635
24,59733,42522
24,60145,42378
24,60558,42750
24,60970,42496
24,61382,43722
24,61795,44739
24,62207,41554
24,62618,45160
24,63032,43492
24,63443,41636
24,63855,41766
24,64268,43043
24,64680,43590
24,65092,43118
24,65505,42781
24,65917,42053
24,66328,42907
24,66740,44008
24,67153,46318
24,67565,41356
24,67977,45596
24,68390,42906
24,68802,46336
24,69213,44106
24,69627,45474
24,70038,43560
24,70450,45003
24,70863,42934
24,71275,43536
24,71687,42566
24,72100,40850
24,72512,44789
24,72923,44732
24,73337,45775
24,73748,46092
24,74160,44584
24,74573,41249
24,74985,42957
24,75397,44463
24,75808,42015
24,76222,43556
24,76633,45162
24,77045,44255
24,77458,43896
24,77870,42632
24,78282,43378
24,78695,41880
24,79107,45459
24,79518,43690
24,79932,41315
24,80343,44432
24,80755,42881
24,81168,42102
24,81580,43375
24,81992,42403
24,82405,43578
24,82817,42915
24,83228,43755
24,83642,46991
24,84053,44103
24,84465,42604
24,84877,42463
24,85290,46489
24,85702,42799
24,86113,41925
24,86527,42718
24,86938,44341
24,87350,43498
24,87763,41934
24,88175,43735
24,88587,41251
24,89000,43303
24,89412,41446
24,89823,47761
24,90237,42261
24,90648,44004
24,91060,42735
24,91473,42679
24,91885,45778
24,92297,41790
24,92710,45065
24,93122,43357
24,93533,44900
24,93945,43523
24,94358,43918
24,94770,43545
24,95182,41071
24,95595,42090
24,96007,43861
24,96418,39937
24,96832,42662
24,97243,45772
24,97655,42512
24,98068,42300
24,98480,45087
24,98892,42328
24,99305,43277
24,99717,41821
25,00128,43084
25,00542,42841
25,00953,43044
25,01365,40282
25,01778,42008
25,02190,41902
25,02602,42328
25,03013,44447
25,03427,42336
25,03838,42717
25,04250,43891
25,04663,44627
25,05075,43947
25,05487,44067
25,05900,44963
25,06312,39190
25,06723,41554
25,07137,41139
25,07548,42921
25,07960,42811
25,08373,40700
25,08785,43248
25,09197,44173
25,09610,43103
25,10022,42500
25,10433,40639
25,10847,42781
25,11258,41085
25,11670,43616
25,12083,43413
25,12495,43219
25,12907,43011
25,13318,42830
25,13732,40586
25,14143,44751
25,14555,38521
25,14968,40756
25,15380,45033
25,15792,43155
25,16205,42206
25,16617,44001
25,17028,43687
25,17442,44268
25,17853,41895
25,18265,41528
25,18678,42246
25,19090,42834
25,19502,43240
25,19915,40883
25,20327,42105
25,20738,43176
25,21152,42601
25,21563,43833
25,21975,42057
25,22387,44003
25,22800,41674
25,23212,44008
25,23623,42994
25,24037,42116
25,24448,42455
25,24860,41500
25,25273,42595
25,25685,42363
25,26097,40732
25,26510,42718
25,26922,42376
25,27333,40831
25,27747,43722
25,28158,44179
25,28570,42371
25,28983,43920
25,29395,39829
25,29807,42879
25,30220,44545
25,30632,42199
25,31043,44899
25,31455,41983
25,31868,42599
25,32280,42681
25,32692,44452
25,33105,42418
25,33517,45312
25,33928,44406
25,34342,45823
25,34753,45206
25,35165,44793
25,35578,45736
25,35990,42021
25,36402,44830
25,36815,44506
25,37227,43375
25,37638,42340
25,38052,44870
25,38463,43980
25,38875,45017
25,39288,45926
25,39700,43879
25,40112,42757
25,40523,43873
25,40937,42469
25,41348,43428
25,41760,42378
25,42173,44952
25,42585,43053
25,42997,43341
25,43410,42377
25,43822,42983
25,44233,43581
25,44647,44566
25,45058,43236
25,45470,44040
25,45883,43409
25,46295,43662
25,46707,42395
25,47120,45835
25,47532,43306
25,47943,40753
25,48357,43005
25,48768,40491
25,49180,45303
25,49592,42282
25,50005,43062
25,50417,42118
25,50828,42059
25,51242,44334
25,51653,40872
25,52065,41387
25,52478,44802
25,52890,42672
25,53302,42811
25,53715,43262
25,54127,41071
25,54538,40332
25,54952,44099
25,55363,39504
25,55775,42903
25,56188,42225
25,56600,44903
25,57012,43487
25,57425,41517
25,57837,43286
25,58248,42039
25,58660,44132
25,59073,43022
25,59485,41423
25,59897,42464
25,60310,43991
25,60722,42113
25,61133,44463
25,61547,41665
25,61958,42148
25,62370,41746
25,62783,43407
25,63195,44519
25,63607,44536
25,64020,43341
25,64432,42349
25,64843,41352
25,65257,42221
25,65668,39509
25,66080,42868
25,66493,40813
25,66905,39688
25,67317,41768
25,67728,41353
25,68142,43148
25,68553,41262
25,68965,42570
25,69378,43728
25,69790,44298
25,70202,42450
25,70615,39523
25,71027,40619
25,71438,40272
25,71852,41804
25,72263,41479
25,72675,44049
25,73088,41981
25,73500,40905
25,73912,44313
25,74325,42954
