D:\MassHunter\GCMS\1\data\Amal\Constant flow\150C\150C_1ml-min_6C-min_3.D Thu Sep 12 17:16:58 2024
Start of data points
4,99083	456882
4,99495	438941
4,99907	422130
5,00320	406036
5,00732	392205
5,01143	377371
5,01557	362213
5,01968	353479
5,02380	343042
5,02793	329236
5,03205	322095
5,03617	309653
5,04030	306324
5,04442	294899
5,04853	286523
5,05267	278035
5,05678	269710
5,06090	261866
5,06503	256151
5,06915	248877
5,07327	237491
5,07740	233716
5,08152	233367
5,08563	223991
5,08975	217360
5,09388	213072
5,09800	211966
5,10212	208840
5,10625	198037
5,11037	195884
5,11448	192208
5,11862	187784
5,12273	184449
5,12685	179961
5,13098	176819
5,13510	175221
5,13922	171039
5,14335	169619
5,14747	164361
5,15158	167870
5,15572	162399
5,15983	168956
5,16395	177065
5,16808	208341
5,17220	285153
5,17632	410861
5,18043	596445
5,18457	793020
5,18868	994361
5,19280	1154253
5,19693	1255426
5,20105	1297932
5,20517	1296299
5,20930	1263375
5,21342	1236805
5,21753	1188581
5,22167	1133416
5,22578	1097373
5,22990	1057834
5,23403	1010646
5,23815	965211
5,24227	918416
5,24640	884363
5,25052	851030
5,25463	816781
5,25877	784466
5,26288	757574
5,26700	723355
5,27112	697030
5,27525	665872
5,27937	640694
5,28348	619502
5,28762	594041
5,29173	571636
5,29585	546926
5,29998	532683
5,30410	504834
5,30822	488618
5,31235	470427
5,31647	451338
5,32058	435409
5,32472	414297
5,32883	405984
5,33295	388594
5,33708	373047
5,34120	352956
5,34532	340875
5,34945	328712
5,35357	312986
5,35768	298328
5,36180	280311
5,36593	268067
5,37005	253587
5,37417	241375
5,37830	226097
5,38242	218332
5,38653	211003
5,39067	197207
5,39478	193661
5,39890	180533
5,40303	173071
5,40715	170409
5,41127	160268
5,41540	155731
5,41952	151138
5,42363	142704
5,42777	142048
5,43188	138369
5,43600	132564
5,44013	125762
5,44425	127285
5,44837	124261
5,45248	117876
5,45662	116062
5,46073	114383
5,46485	114924
5,46898	110448
5,47310	108944
5,47722	106926
5,48135	105773
5,48547	106393
5,48958	101575
5,49372	97952
5,49783	99860
5,50195	99189
5,50608	98962
5,51020	97325
5,51432	99030
5,51845	110078
5,52257	130210
5,52668	162333
5,53082	223441
5,53493	308571
5,53905	414363
5,54317	520326
5,54730	601423
5,55142	678872
5,55553	713378
5,55967	721394
5,56378	724425
5,56790	710267
5,57203	682482
5,57615	659025
5,58027	634555
5,58440	610904
5,58852	588559
5,59263	560431
5,59677	541900
5,60088	519209
5,60500	497275
5,60913	470664
5,61325	451174
5,61737	435243
5,62150	423258
5,62562	399239
5,62973	384204
5,63385	369341
5,63798	353965
5,64210	341076
5,64622	326070
5,65035	313958
5,65447	303048
5,65858	292886
5,66272	279100
5,66683	268640
5,67095	260366
5,67508	249161
5,67920	240189
5,68332	230837
5,68745	223365
5,69157	214726
5,69568	203707
5,69982	195522
5,70393	187513
5,70805	176084
5,71218	168517
5,71630	159542
5,72042	150773
5,72453	146269
5,72867	140462
5,73278	131796
5,73690	130815
5,74103	124616
5,74515	119720
5,74927	114894
5,75340	111204
5,75752	105699
5,76163	104953
5,76577	100091
5,76988	99146
5,77400	94470
5,77813	93215
5,78225	92084
5,78637	90873
5,79050	88137
5,79462	86277
5,79873	86308
5,80287	84558
5,80698	83447
5,81110	81916
5,81522	81034
5,81935	79456
5,82347	79589
5,82758	78642
5,83172	77971
5,83583	79317
5,83995	75942
5,84408	76146
5,84820	76259
5,85232	72922
5,85645	74958
5,86057	74564
5,86468	72095
5,86882	72159
5,87293	74127
5,87705	73568
5,88118	69458
5,88530	73681
5,88942	73059
5,89355	72221
5,89767	73961
5,90178	72018
5,90590	69716
5,91003	70567
5,91415	70708
5,91827	70148
5,92240	71056
5,92652	67942
5,93063	68990
5,93477	69207
5,93888	70858
5,94300	69733
5,94713	72090
5,95125	74682
5,95537	85660
5,95950	113062
5,96362	158779
5,96773	253831
5,97187	385298
5,97598	573506
5,98010	790363
5,98423	1006031
5,98835	1194044
5,99247	1340594
5,99658	1440117
6,00072	1475950
6,00483	1482112
6,00895	1450017
6,01308	1418133
6,01720	1358127
6,02132	1310746
6,02545	1248060
6,02957	1185577
6,03368	1136812
6,03782	1078588
6,04193	1035670
6,04605	969388
6,05018	929425
6,05430	888568
6,05842	843293
6,06255	797363
6,06667	749980
6,07078	720929
6,07492	678100
6,07903	642586
6,08315	602782
6,08727	572653
6,09140	542563
6,09552	515594
6,09963	488722
6,10377	465087
6,10788	433611
6,11200	409558
6,11613	381541
6,12025	360431
6,12437	330170
6,12850	314536
6,13262	291868
6,13673	264521
6,14087	245612
6,14498	227478
6,14910	212298
6,15323	197574
6,15735	186944
6,16147	174512
6,16560	159397
6,16972	150553
6,17383	140753
6,17797	131505
6,18208	124349
6,18620	115217
6,19032	110486
6,19445	106603
6,19857	101324
6,20268	96463
6,20682	92229
6,21093	88389
6,21505	85491
6,21918	82686
6,22330	79818
6,22742	79101
6,23155	72919
6,23567	75340
6,23978	71437
6,24392	69404
6,24803	65358
6,25215	65985
6,25628	65065
6,26040	63737
6,26452	61381
6,26865	62429
6,27277	59488
6,27688	57925
6,28100	57186
6,28513	58214
6,28925	56469
6,29337	57003
6,29750	55780
6,30162	55639
6,30573	54321
6,30987	55643
6,31398	52974
6,31810	51439
6,32223	54627
6,32635	50101
6,33047	52452
6,33460	52397
6,33872	49348
6,34283	51541
6,34697	50318
6,35108	50039
6,35520	51612
6,35933	51802
6,36345	48581
6,36757	48530
6,37168	50056
6,37582	49167
6,37993	48327
6,38405	47019
6,38818	49228
6,39230	47756
6,39642	46886
6,40055	47446
6,40467	48677
6,40878	47250
6,41292	45778
6,41703	45210
6,42115	46577
6,42528	47100
6,42940	44464
6,43352	46080
6,43765	46077
6,44177	45356
6,44588	45600
6,45002	44248
6,45413	46060
6,45825	46108
6,46237	44571
6,46650	46714
6,47062	45355
6,47473	46174
6,47887	45904
6,48298	50497
6,48710	57154
6,49123	71995
6,49535	106182
6,49947	151849
6,50360	232610
6,50772	324094
6,51183	428135
6,51597	536693
6,52008	642567
6,52420	723192
6,52833	785484
6,53245	814040
6,53657	825140
6,54070	818308
6,54482	802534
6,54893	775320
6,55305	741011
6,55718	715805
6,56130	683206
6,56542	645916
6,56955	611050
6,57367	585621
6,57778	553815
6,58192	518718
6,58603	487532
6,59015	467343
6,59428	434063
6,59840	405991
6,60252	392849
6,60665	364791
6,61077	344151
6,61488	321498
6,61902	302368
6,62313	284195
6,62725	265253
6,63138	249093
6,63550	232454
6,63962	212296
6,64373	197516
6,64787	185530
6,65198	170742
6,65610	160109
6,66023	147399
6,66435	139125
6,66847	126598
6,67260	116401
6,67672	109484
6,68083	106031
6,68497	96152
6,68908	90096
6,69320	88722
6,69733	78340
6,70145	78770
6,70557	75696
6,70970	68628
6,71382	68914
6,71793	67253
6,72207	64218
6,72618	61234
6,73030	58497
6,73442	57573
6,73855	54235
6,74267	56773
6,74678	55031
6,75092	51668
6,75503	49758
6,75915	51492
6,76328	49136
6,76740	46009
6,77152	48621
6,77565	45178
6,77977	46795
6,78388	47487
6,78802	44206
6,79213	45343
6,79625	46434
6,80038	46372
6,80450	45586
6,80862	45766
6,81275	45688
6,81687	44421
6,82098	46079
6,82510	44477
6,82923	44528
6,83335	45892
6,83747	43982
6,84160	45050
6,84572	42217
6,84983	42319
6,85397	43193
6,85808	40645
6,86220	42570
6,86633	40931
6,87045	40517
6,87457	40573
6,87870	40265
6,88282	39727
6,88693	37767
6,89107	39501
6,89518	37687
6,89930	40304
6,90343	38695
6,90755	38083
6,91167	37771
6,91578	38682
6,91992	35290
6,92403	38528
6,92815	38002
6,93228	37577
6,93640	36649
6,94052	36415
6,94465	37478
6,94877	37843
6,95288	36410
6,95702	37304
6,96113	36375
6,96525	37543
6,96938	36103
6,97350	35023
6,97762	34751
6,98175	35784
6,98587	36495
6,98998	35489
6,99412	36458
6,99823	33662
7,00235	34873
7,00647	34671
7,01060	34435
7,01472	34789
7,01883	35820
7,02297	34127
7,02708	34938
7,03120	34827
7,03533	33485
7,03945	36059
7,04357	35147
7,04770	35123
7,05182	35954
7,05593	34629
7,06007	33561
7,06418	34973
7,06830	34403
7,07243	36221
7,07655	34484
7,08067	34304
7,08480	33453
7,08892	34798
7,09303	33639
7,09715	36941
7,10128	40142
7,10540	53318
7,10952	75405
7,11365	117445
7,11777	189961
7,12188	298606
7,12602	455408
7,13013	667050
7,13425	906342
7,13838	1136694
7,14250	1356448
7,14662	1519808
7,15075	1678420
7,15487	1752558
7,15898	1796090
7,16312	1788486
7,16723	1777741
7,17135	1698403
7,17548	1647935
7,17960	1567784
7,18372	1475196
7,18783	1413024
7,19197	1321022
7,19608	1238480
7,20020	1163692
7,20433	1089436
7,20845	1008747
7,21257	933634
7,21670	871665
7,22082	812771
7,22493	751327
7,22907	692170
7,23318	630077
7,23730	570108
7,24143	526032
7,24555	477186
7,24967	432301
7,25380	383016
7,25792	344483
7,26203	305365
7,26617	277136
7,27028	247619
7,27440	223278
7,27852	197921
7,28265	179407
7,28677	160694
7,29088	148743
7,29502	137730
7,29913	125701
7,30325	115999
7,30738	104430
7,31150	96300
7,31562	90990
7,31975	85627
7,32387	81163
7,32798	74622
7,33212	70598
7,33623	68163
7,34035	65646
7,34448	61271
7,34860	59072
7,35272	56825
7,35685	55060
7,36097	54955
7,36508	52974
7,36920	50165
7,37333	48559
7,37745	46948
7,38157	47289
7,38570	45113
7,38982	45923
7,39393	46647
7,39807	44324
7,40218	46300
7,40630	46146
7,41043	46256
7,41455	45475
7,41867	46163
7,42280	46879
7,42692	46279
7,43103	45674
7,43517	44561
7,43928	45014
7,44340	43708
7,44753	43911
7,45165	44559
7,45577	42732
7,45988	43494
7,46402	42354
7,46813	41938
7,47225	44164
7,47638	43497
7,48050	44668
7,48462	42012
7,48875	41930
7,49287	40985
7,49698	40884
7,50112	40242
7,50523	40843
7,50935	40354
7,51348	39358
7,51760	37900
7,52172	37597
7,52585	36873
7,52997	35815
7,53408	34885
7,53822	33262
7,54233	34171
7,54645	35779
7,55057	34940
7,55470	35975
7,55882	34312
7,56293	34125
7,56707	34370
7,57118	32387
7,57530	35014
7,57943	34720
7,58355	35475
7,58767	37876
7,59180	38175
7,59592	38698
7,60003	42045
7,60417	42251
7,60828	40231
7,61240	42108
7,61653	42397
7,62065	42837
7,62477	40885
7,62890	44909
7,63302	41635
7,63713	45571
7,64125	49069
7,64538	57299
7,64950	72154
7,65362	96051
7,65775	138456
7,66187	201456
7,66598	274643
7,67012	373381
7,67423	480400
7,67835	598031
7,68248	700019
7,68660	774366
7,69072	840350
7,69485	868520
7,69897	900436
7,70308	884717
7,70722	861746
7,71133	836865
7,71545	799748
7,71958	765363
7,72370	725145
7,72782	677943
7,73195	635300
7,73607	601265
7,74018	554751
7,74430	517448
7,74843	473838
7,75255	442517
7,75667	404398
7,76080	368304
7,76492	336937
7,76903	306052
7,77317	278754
7,77728	250554
7,78140	227260
7,78553	198883
7,78965	183865
7,79377	161290
7,79790	147415
7,80202	137462
7,80613	122493
7,81027	123484
7,81438	124028
7,81850	140158
7,82263	172980
7,82675	233156
7,83087	305838
7,83498	406322
7,83912	523418
7,84323	645715
7,84735	775345
7,85148	872890
7,85560	941826
7,85972	987514
7,86385	1021049
7,86797	1023869
7,87208	1001814
7,87622	970626
7,88033	939845
7,88445	897489
7,88858	833082
7,89270	786542
7,89682	738863
7,90095	689153
7,90507	639294
7,90918	591478
7,91332	548323
7,91743	499129
7,92155	454190
7,92567	409010
7,92980	372640
7,93392	331699
7,93803	299463
7,94217	269411
7,94628	239510
7,95040	211688
7,95453	190042
7,95865	170168
7,96277	151539
7,96690	134994
7,97102	121893
7,97513	110437
7,97927	101868
7,98338	95210
7,98750	83825
7,99163	80918
7,99575	73390
7,99987	68441
8,00400	64437
8,00812	62069
8,01223	58351
8,01635	55666
8,02048	52222
8,02460	50037
8,02872	48553
8,03285	47820
8,03697	48962
8,04108	43872
8,04522	43933
8,04933	42903
8,05345	41150
8,05758	40659
8,06170	39502
8,06582	39145
8,06995	38116
8,07407	39077
8,07818	37971
8,08232	36908
8,08643	35741
8,09055	34276
8,09468	33013
8,09880	33208
8,10292	32501
8,10703	32292
8,11117	34099
8,11528	33752
8,11940	31942
8,12353	32128
8,12765	31572
8,13177	31262
8,13590	29443
8,14002	31136
8,14413	29362
8,14827	31682
8,15238	30424
8,15650	29497
8,16063	27523
8,16475	29349
8,16887	29465
8,17300	28658
8,17712	28416
8,18123	28319
8,18537	27648
8,18948	30443
8,19360	27964
8,19772	29012
8,20185	26097
8,20597	26704
8,21008	28261
8,21422	27275
8,21833	25646
8,22245	27399
8,22658	25611
8,23070	27318
8,23482	27439
8,23895	25298
8,24307	27358
8,24718	24660
8,25132	25720
8,25543	25908
8,25955	24669
8,26368	25190
8,26780	24611
8,27192	25295
8,27605	24318
8,28017	25817
8,28428	24525
8,28840	24837
8,29253	23833
8,29665	23565
8,30077	24659
8,30490	24851
8,30902	24835
8,31313	27060
8,31727	25882
8,32138	26237
8,32550	25917
8,32963	22277
8,33375	22779
8,33787	22070
8,34200	22796
8,34612	23104
8,35023	23090
8,35437	24117
8,35848	24164
8,36260	24532
8,36673	24477
8,37085	23559
8,37497	23730
8,37908	23898
8,38322	23537
8,38733	23502
8,39145	23153
8,39558	26208
8,39970	27507
8,40382	32640
8,40795	43554
8,41207	61496
8,41618	94313
8,42032	139822
8,42443	209005
8,42855	294145
8,43268	396033
8,43680	519587
8,44092	638866
8,44505	753481
8,44917	857023
8,45328	921803
8,45742	976586
8,46153	1002538
8,46565	998071
8,46977	981440
8,47390	946862
8,47802	905725
8,48213	849368
8,48627	785739
8,49038	738262
8,49450	684350
8,49863	620491
8,50275	573291
8,50687	516316
8,51100	467504
8,51512	413108
8,51923	377233
8,52337	333783
8,52748	297004
8,53160	261629
8,53573	230379
8,53985	203675
8,54397	181494
8,54810	160188
8,55222	142323
8,55633	128681
8,56045	113158
8,56458	103721
8,56870	97345
8,57282	90901
8,57695	85493
8,58107	92349
8,58518	113992
8,58932	150358
8,59343	219120
8,59755	337076
8,60168	514885
8,60580	768824
8,60992	1072503
8,61405	1441839
8,61817	1834565
8,62228	2231239
8,62642	2613345
8,63053	2931940
8,63465	3172228
8,63878	3323133
8,64290	3390359
8,64702	3382701
8,65113	3307802
8,65527	3194122
8,65938	2996995
8,66350	2820775
8,66763	2619675
8,67175	2401754
8,67587	2181707
8,68000	1956692
8,68412	1750470
8,68823	1565321
8,69237	1386525
8,69648	1216897
8,70060	1044910
8,70473	922683
8,70885	803435
8,71297	685553
8,71710	588495
8,72122	512719
8,72533	446702
8,72947	392311
8,73358	343264
8,73770	305983
8,74182	275836
8,74595	240582
8,75007	218491
8,75418	195574
8,75832	177389
8,76243	166512
8,76655	150520
8,77068	138656
8,77480	131128
8,77892	120802
8,78305	114030
8,78717	104910
8,79128	103495
8,79542	94964
8,79953	91434
8,80365	85918
8,80778	82871
8,81190	78429
8,81602	75204
8,82015	74209
8,82427	72205
8,82838	69176
8,83250	65734
8,83663	62543
8,84075	62196
8,84487	58711
8,84900	57837
8,85312	54679
8,85723	53708
8,86137	50841
8,86548	51087
8,86960	49087
8,87373	51887
8,87785	47183
8,88197	46852
8,88610	47318
8,89022	43850
8,89433	44071
8,89847	42801
8,90258	42074
8,90670	40363
8,91083	40057
8,91495	39204
8,91907	39508
8,92318	39692
8,92732	38359
8,93143	36571
8,93555	37006
8,93968	36007
8,94380	35941
8,94792	34280
8,95205	34723
8,95617	34452
8,96028	35443
8,96442	33469
8,96853	34584
8,97265	33704
8,97678	34497
8,98090	33120
8,98502	33365
8,98915	32215
8,99327	32718
8,99738	32866
9,00152	32700
9,00563	30984
9,00975	31559
9,01387	32843
9,01800	30381
9,02212	31101
9,02623	29931
9,03037	30032
9,03448	29247
9,03860	28481
9,04273	30211
9,04685	27956
9,05097	28798
9,05510	28289
9,05922	28547
9,06333	27691
9,06747	27548
9,07158	27660
9,07570	30116
9,07983	27857
9,08395	27126
9,08807	28303
9,09220	28812
9,09632	28851
9,10043	28006
9,10455	29921
9,10868	31006
9,11280	37290
9,11692	48482
9,12105	67721
9,12517	97810
9,12928	146319
9,13342	213260
9,13753	310684
9,14165	420021
9,14578	555251
9,14990	681596
9,15402	811153
9,15815	921315
9,16227	1004337
9,16638	1062251
9,17052	1096507
9,17463	1087839
9,17875	1067597
9,18288	1024559
9,18700	969324
9,19112	906991
9,19523	839346
9,19937	772183
9,20348	699811
9,20760	633318
9,21173	563719
9,21585	492722
9,21997	435417
9,22410	382638
9,22822	334408
9,23233	293730
9,23647	254129
9,24058	224541
9,24470	197660
9,24883	170892
9,25295	152936
9,25707	137127
9,26120	125821
9,26532	115359
9,26943	106289
9,27357	95349
9,27768	90224
9,28180	83441
9,28592	78700
9,29005	74230
9,29417	68650
9,29828	64004
9,30242	63923
9,30653	56902
9,31065	56304
9,31478	52731
9,31890	51369
9,32302	48907
9,32715	47008
9,33127	44824
9,33538	44044
9,33952	41298
9,34363	38966
9,34775	39315
9,35188	36809
9,35600	37383
9,36012	37084
9,36425	34207
9,36837	34752
9,37248	34697
9,37660	33926
9,38073	31244
9,38485	31875
9,38897	31676
9,39310	30535
9,39722	32461
9,40133	30387
9,40547	35159
9,40958	36892
9,41370	45626
9,41783	64759
9,42195	92593
9,42607	140488
9,43020	206732
9,43432	300460
9,43843	409767
9,44257	550496
9,44668	705275
9,45080	859050
9,45493	1007958
9,45905	1116341
9,46317	1200324
9,46730	1230854
9,47142	1257653
9,47553	1262696
9,47965	1215210
9,48378	1150127
9,48790	1081820
9,49202	1007330
9,49615	910722
9,50027	817802
9,50438	726939
9,50852	645130
9,51263	559061
9,51675	488169
9,52088	421061
9,52500	365889
9,52912	309920
9,53325	270512
9,53737	239814
9,54148	207220
9,54562	176663
9,54973	158229
9,55385	145715
9,55798	128915
9,56210	115424
9,56622	105918
9,57033	93380
9,57447	91300
9,57858	82538
9,58270	79025
9,58683	72791
9,59095	68387
9,59507	62220
9,59920	60163
9,60332	58288
9,60743	56961
9,61157	52652
9,61568	50043
9,61980	47414
9,62393	46996
9,62805	46305
9,63217	42826
9,63630	44000
9,64042	40810
9,64453	39541
9,64867	39056
9,65278	38290
9,65690	36634
9,66102	34648
9,66515	35888
9,66927	33956
9,67338	35368
9,67752	32866
9,68163	31753
9,68575	32324
9,68988	31589
9,69400	31868
9,69812	31264
9,70225	31075
9,70637	29793
9,71048	29454
9,71462	28597
9,71873	26992
9,72285	27654
9,72698	27422
9,73110	26428
9,73522	26842
9,73935	26191
9,74347	26101
9,74758	26355
9,75170	24896
9,75583	25350
9,75995	25180
9,76407	26451
9,76820	25912
9,77232	24548
9,77643	24719
9,78057	25436
9,78468	24962
9,78880	25750
9,79293	25935
9,79705	23377
9,80117	22545
9,80530	22863
9,80942	22881
9,81353	23322
9,81767	23954
9,82178	25480
9,82590	24468
9,83003	23208
9,83415	23716
9,83827	22964
9,84238	23235
9,84652	22576
9,85063	21769
9,85475	22203
9,85888	21051
9,86300	20790
9,86712	21489
9,87125	21909
9,87537	22569
9,87948	22064
9,88362	22607
9,88773	20429
9,89185	20672
9,89598	22384
9,90010	21081
9,90422	21486
9,90835	19789
9,91247	20849
9,91658	20544
9,92072	20081
9,92483	20322
9,92895	20669
9,93307	19774
9,93720	19935
9,94132	21774
9,94543	22773
9,94957	22034
9,95368	21065
9,95780	23080
9,96193	26931
9,96605	32554
9,97017	44359
9,97430	65412
9,97842	100583
9,98253	149531
9,98667	224473
9,99078	322446
9,99490	440874
9,99903	577494
10,00315	731345
10,00727	881669
10,01140	1013258
10,01552	1113301
10,01963	1198777
10,02375	1247116
10,02788	1255728
10,03200	1214553
10,03612	1164871
10,04025	1087942
10,04437	1006841
10,04848	917880
10,05262	818947
10,05673	721636
10,06085	640258
10,06498	560282
10,06910	482286
10,07322	412381
10,07735	352794
10,08147	305674
10,08558	265445
10,08972	226981
10,09383	196234
10,09795	178142
10,10208	156985
10,10620	139570
10,11032	126865
10,11443	110707
10,11857	102409
10,12268	95791
10,12680	83236
10,13093	82503
10,13505	73436
10,13917	71597
10,14330	66316
10,14742	62374
10,15153	59065
10,15567	55162
10,15978	52261
10,16390	51407
10,16803	48775
10,17215	48597
10,17627	44683
10,18040	44260
10,18452	43518
10,18863	42097
10,19277	40742
10,19688	39987
10,20100	37558
10,20512	38931
10,20925	36271
10,21337	33734
10,21748	33503
10,22162	33321
10,22573	34214
10,22985	32970
10,23398	31272
10,23810	30317
10,24222	30913
10,24635	28495
10,25047	29427
10,25458	29083
10,25872	29106
10,26283	29510
10,26695	32005
10,27108	36538
10,27520	45526
10,27932	63784
10,28345	99794
10,28757	160078
10,29168	256475
10,29580	396533
10,29993	580538
10,30405	816424
10,30817	1101860
10,31230	1423817
10,31642	1765029
10,32053	2091227
10,32467	2400541
10,32878	2655933
10,33290	2844839
10,33703	2920483
10,34115	2904250
10,34527	2808504
10,34940	2633925
10,35352	2438340
10,35763	2204945
10,36177	1934753
10,36588	1695588
10,37000	1468842
10,37413	1254647
10,37825	1069466
10,38237	906535
10,38648	774047
10,39062	664225
10,39473	560651
10,39885	484875
10,40298	425183
10,40710	375770
10,41122	331420
10,41535	300329
10,41947	269673
10,42358	246134
10,42772	217789
10,43183	204424
10,43595	187866
10,44008	176212
10,44420	161245
10,44832	151104
10,45245	141025
10,45657	130858
10,46068	125412
10,46482	116489
10,46893	107352
10,47305	102502
10,47717	96853
10,48130	89360
10,48542	86652
10,48953	81838
10,49367	77556
10,49778	73888
10,50190	69449
10,50603	65459
10,51015	67540
10,51427	61964
10,51840	60025
10,52252	58125
10,52663	55399
10,53077	54748
10,53488	51501
10,53900	51591
10,54313	50081
10,54725	46927
10,55137	48323
10,55550	45983
10,55962	44339
10,56373	44477
10,56785	44089
10,57198	43087
10,57610	38300
10,58022	39754
10,58435	40929
10,58847	36744
10,59258	40266
10,59672	41765
10,60083	45119
10,60495	55005
10,60908	71870
10,61320	97591
10,61732	141880
10,62145	209220
10,62557	303054
10,62968	425439
10,63382	572208
10,63793	725880
10,64205	914441
10,64618	1065552
10,65030	1197216
10,65442	1302259
10,65853	1361649
10,66267	1387923
10,66678	1358710
10,67090	1310199
10,67503	1233999
10,67915	1132538
10,68327	1027930
10,68740	914890
10,69152	803671
10,69563	693607
10,69977	598313
10,70388	507839
10,70800	438323
10,71213	378973
10,71625	328490
10,72037	283597
10,72450	246191
10,72862	214927
10,73273	193969
10,73687	172598
10,74098	153853
10,74510	138966
10,74922	127828
10,75335	117052
10,75747	107947
10,76158	103767
10,76572	97801
10,76983	102578
10,77395	118979
10,77808	147109
10,78220	194401
10,78632	273080
10,79045	405229
10,79457	572831
10,79868	803939
10,80282	1079305
10,80693	1405376
10,81105	1732667
10,81518	2048422
10,81930	2358837
10,82342	2595148
10,82755	2793749
10,83167	2857017
10,83578	2855136
10,83990	2735683
10,84403	2572512
10,84815	2359146
10,85227	2109583
10,85640	1851377
10,86052	1613615
10,86463	1387088
10,86877	1178493
10,87288	1007620
10,87700	859603
10,88113	725183
10,88525	622796
10,88937	532580
10,89350	466229
10,89762	403957
10,90173	359435
10,90587	315786
10,90998	288694
10,91410	258319
10,91823	229543
10,92235	211434
10,92647	193141
10,93058	178716
10,93472	163401
10,93883	150262
10,94295	144478
10,94708	136726
10,95120	125206
10,95532	118718
10,95945	111133
10,96357	108548
10,96768	102788
10,97182	95533
10,97593	91845
10,98005	85980
10,98418	81196
10,98830	81514
10,99242	76741
10,99655	72874
11,00067	71298
11,00478	70430
11,00892	67283
11,01303	63505
11,01715	63337
11,02128	59350
11,02540	59787
11,02952	57942
11,03363	54315
11,03777	50999
11,04188	52027
11,04600	50048
11,05013	49715
11,05425	48297
11,05837	44131
11,06250	46558
11,06662	43915
11,07073	43760
11,07487	41320
11,07898	41882
11,08310	42039
11,08723	38917
11,09135	40973
11,09547	38643
11,09960	38697
11,10372	38131
11,10783	36216
11,11197	36534
11,11608	36976
11,12020	37246
11,12432	36065
11,12845	36162
11,13257	43151
11,13668	50705
11,14082	67645
11,14493	93900
11,14905	132074
11,15318	200433
11,15730	296972
11,16142	423045
11,16555	585197
11,16967	776663
11,17378	1000054
11,17792	1257947
11,18203	1520316
11,18615	1827744
11,19028	2133299
11,19440	2440965
11,19852	2745024
11,20265	3030215
11,20677	3310878
11,21088	3519946
11,21500	3659952
11,21913	3736383
11,22325	3723032
11,22737	3611109
11,23150	3392386
11,23562	3095159
11,23973	2757193
11,24387	2389556
11,24798	2057414
11,25210	1757481
11,25623	1488682
11,26035	1252839
11,26447	1055759
11,26860	906096
11,27272	772959
11,27683	668819
11,28097	580696
11,28508	511399
11,28920	448049
11,29333	401274
11,29745	360544
11,30157	329601
11,30568	296394
11,30982	271074
11,31393	244756
11,31805	226139
11,32218	213934
11,32630	199626
11,33042	184873
11,33455	170272
11,33867	160673
11,34278	152031
11,34692	140267
11,35103	137556
11,35515	124817
11,35928	122394
11,36340	115369
11,36752	109579
11,37165	107169
11,37577	103797
11,37988	99174
11,38402	96129
11,38813	92744
11,39225	89685
11,39637	83570
11,40050	82297
11,40462	79562
11,40873	77374
11,41287	74462
11,41698	72518
11,42110	70550
11,42523	66770
11,42935	68578
11,43347	64707
11,43760	63082
11,44172	62016
11,44583	61449
11,44997	58644
11,45408	57072
11,45820	55060
11,46233	56288
11,46645	53039
11,47057	52244
11,47470	54153
11,47882	51587
11,48293	48128
11,48705	46000
11,49118	47447
11,49530	46514
11,49942	46289
11,50355	44321
11,50767	43656
11,51178	43153
11,51592	45065
11,52003	43982
11,52415	47976
11,52828	57905
11,53240	71199
11,53652	99553
11,54065	140138
11,54477	203292
11,54888	289073
11,55302	411046
11,55713	540494
11,56125	699996
11,56538	853763
11,56950	993336
11,57362	1129191
11,57773	1207435
11,58187	1273356
11,58598	1266672
11,59010	1245203
11,59423	1163419
11,59835	1071721
11,60247	967782
11,60660	860648
11,61072	749435
11,61483	652678
11,61897	558181
11,62308	480234
11,62720	411823
11,63133	349962
11,63545	304375
11,63957	263844
11,64370	229678
11,64782	206807
11,65193	178052
11,65607	164211
11,66018	147562
11,66430	134666
11,66842	121583
11,67255	112936
11,67667	107835
11,68078	100625
11,68492	92007
11,68903	86269
11,69315	82575
11,69728	82031
11,70140	76219
11,70552	72604
11,70965	71138
11,71377	66729
11,71788	63641
11,72202	62954
11,72613	59758
11,73025	57746
11,73438	53830
11,73850	54339
11,74262	50264
11,74675	47946
11,75087	46280
11,75498	46309
11,75910	45973
11,76323	43376
11,76735	42443
11,77147	41657
11,77560	41123
11,77972	40936
11,78383	38366
11,78797	37189
11,79208	38051
11,79620	34625
11,80033	34728
11,80445	36496
11,80857	34625
11,81270	35650
11,81682	32321
11,82093	32796
11,82507	33038
11,82918	33276
11,83330	31361
11,83743	32648
11,84155	32269
11,84567	31448
11,84978	31642
11,85392	29904
11,85803	32065
11,86215	31772
11,86628	30171
11,87040	28260
11,87452	28264
11,87865	29699
11,88277	28145
11,88688	29631
11,89102	27341
11,89513	27113
11,89925	28290
11,90338	27150
11,90750	26312
11,91162	27535
11,91575	26527
11,91987	24759
11,92398	26432
11,92812	26821
11,93223	24783
11,93635	26084
11,94047	23805
11,94460	23803
11,94872	25993
11,95283	24256
11,95697	26568
11,96108	23445
11,96520	22198
11,96933	22682
11,97345	24525
11,97757	22674
11,98170	24316
11,98582	23133
11,98993	21435
11,99407	23280
11,99818	24046
12,00230	23047
12,00643	21035
12,01055	22241
12,01467	22977
12,01880	21698
12,02292	20305
12,02703	22052
12,03115	22476
12,03528	22549
12,03940	22672
12,04352	23427
12,04765	26833
12,05177	32176
12,05588	44790
12,06002	70608
12,06413	109546
12,06825	179492
12,07238	289777
12,07650	467828
12,08062	711563
12,08475	1037457
12,08887	1452891
12,09298	1950120
12,09712	2501779
12,10123	3057627
12,10535	3614287
12,10948	4056424
12,11360	4421224
12,11772	4541114
12,12183	4513204
12,12597	4347290
12,13008	3999920
12,13420	3594119
12,13833	3152998
12,14245	2735905
12,14657	2353509
12,15070	1988840
12,15482	1677628
12,15893	1425911
12,16307	1201654
12,16718	1029510
12,17130	884554
12,17543	769879
12,17955	671765
12,18367	590422
12,18780	525420
12,19192	468178
12,19603	422894
12,20017	375287
12,20428	342489
12,20840	316895
12,21252	293179
12,21665	267468
12,22077	251697
12,22488	227120
12,22902	216222
12,23313	200462
12,23725	187855
12,24138	180779
12,24550	162854
12,24962	152761
12,25375	145928
12,25787	141308
12,26198	130616
12,26612	124637
12,27023	121924
12,27435	116366
12,27848	108871
12,28260	104786
12,28672	99381
12,29085	97265
12,29497	94545
12,29908	90125
12,30320	85435
12,30733	84830
12,31145	78485
12,31557	76901
12,31970	76964
12,32382	72040
12,32793	71887
12,33207	71152
12,33618	70123
12,34030	68546
12,34443	68551
12,34855	68103
12,35267	70796
12,35680	72280
12,36092	71213
12,36503	70748
12,36917	73618
12,37328	72012
12,37740	74631
12,38153	74279
12,38565	73934
12,38977	73444
12,39388	71981
12,39802	73193
12,40213	70186
12,40625	72268
12,41038	78906
12,41450	88859
12,41862	111346
12,42275	146493
12,42687	199752
12,43098	275460
12,43512	376641
12,43923	492323
12,44335	632061
12,44748	777261
12,45160	902600
12,45572	1005047
12,45985	1095291
12,46397	1147284
12,46808	1133391
12,47222	1100577
12,47633	1018618
12,48045	931627
12,48457	837796
12,48870	736156
12,49282	642635
12,49693	552535
12,50107	476300
12,50518	409821
12,50930	351357
12,51343	305365
12,51755	266043
12,52167	233596
12,52580	204079
12,52992	183057
12,53403	162717
12,53817	150296
12,54228	140271
12,54640	134083
12,55053	127925
12,55465	129466
12,55877	147589
12,56290	173877
12,56702	222328
12,57113	300765
12,57527	407414
12,57938	548660
12,58350	719331
12,58762	910679
12,59175	1120841
12,59587	1312164
12,59998	1462784
12,60412	1572481
12,60823	1623409
12,61235	1612430
12,61648	1532706
12,62060	1433665
12,62472	1291997
12,62885	1136161
12,63297	995070
12,63708	847841
12,64122	737127
12,64533	623870
12,64945	543944
12,65358	469658
12,65770	412373
12,66182	358659
12,66595	322449
12,67007	280026
12,67418	256855
12,67830	231869
12,68243	212028
12,68655	194012
12,69067	179154
12,69480	163562
12,69892	156176
12,70303	144798
12,70717	133046
12,71128	126262
12,71540	118126
12,71953	112368
12,72365	107854
12,72777	101155
12,73190	98581
12,73602	94681
12,74013	84462
12,74427	85032
12,74838	79866
12,75250	76435
12,75663	73531
12,76075	72810
12,76487	68738
12,76898	65367
12,77312	62093
12,77723	61955
12,78135	58268
12,78548	58952
12,78960	55406
12,79372	56179
12,79785	53498
12,80197	53144
12,80608	52779
12,81022	50694
12,81433	49849
12,81845	49446
12,82258	49655
12,82670	49983
12,83082	43668
12,83495	46089
12,83907	44785
12,84318	43047
12,84732	43282
12,85143	43799
12,85555	42253
12,85967	39584
12,86380	40886
12,86792	39370
12,87203	41096
12,87617	40350
12,88028	37342
12,88440	38002
12,88853	36131
12,89265	36641
12,89677	35656
12,90090	34596
12,90502	35960
12,90913	36740
12,91327	34937
12,91738	34131
12,92150	34517
12,92563	34286
12,92975	33475
12,93387	36151
12,93800	35427
12,94212	38771
12,94623	42066
12,95035	56073
12,95448	77077
12,95860	112083
12,96272	172718
12,96685	260355
12,97097	383336
12,97508	549140
12,97922	751156
12,98333	967244
12,98745	1198692
12,99158	1402099
12,99570	1583786
12,99982	1707555
13,00395	1756218
13,00807	1723303
13,01218	1643239
13,01632	1508766
13,02043	1342998
13,02455	1167991
13,02868	1014418
13,03280	872102
13,03692	743173
13,04103	635421
13,04517	547329
13,04928	476987
13,05340	414253
13,05753	366794
13,06165	320240
13,06577	292910
13,06990	266752
13,07402	236577
13,07813	216368
13,08227	197337
13,08638	181093
13,09050	170984
13,09463	157415
13,09875	144418
13,10287	136745
13,10700	130181
13,11112	121590
13,11523	117064
13,11937	109622
13,12348	100717
13,12760	99753
13,13172	93769
13,13585	90672
13,13997	87187
13,14408	84475
13,14822	80648
13,15233	79739
13,15645	80617
13,16058	74909
13,16470	72942
13,16882	69246
13,17295	69404
13,17707	70397
13,18118	66838
13,18532	61595
13,18943	59351
13,19355	60559
13,19768	57992
13,20180	58074
13,20592	55345
13,21005	53849
13,21417	51559
13,21828	50408
13,22240	48278
13,22653	47082
13,23065	48796
13,23477	45028
13,23890	45840
13,24302	45868
13,24713	44006
13,25127	43661
13,25538	40999
13,25950	41042
13,26363	42226
13,26775	40480
13,27187	40685
13,27600	39360
13,28012	38916
13,28423	37422
13,28837	38408
13,29248	37460
13,29660	38530
13,30073	37784
13,30485	40652
13,30897	41930
13,31308	54506
13,31722	67724
13,32133	100244
13,32545	147226
13,32958	211548
13,33370	311497
13,33782	441556
13,34195	596792
13,34607	768155
13,35018	946190
13,35432	1117625
13,35843	1245050
13,36255	1342098
13,36668	1377992
13,37080	1364695
13,37492	1302362
13,37905	1198700
13,38317	1094937
13,38728	975842
13,39142	854568
13,39553	745082
13,39965	637923
13,40377	541416
13,40790	469126
13,41202	404747
13,41613	352892
13,42027	310825
13,42438	275429
13,42850	248486
13,43263	219898
13,43675	202739
13,44087	184476
13,44500	166926
13,44912	151573
13,45323	138913
13,45737	134362
13,46148	123190
13,46560	115573
13,46973	106587
13,47385	100684
13,47797	94504
13,48210	90223
13,48622	86338
13,49033	85142
13,49445	77739
13,49858	75863
13,50270	72737
13,50682	69922
13,51095	67525
13,51507	64194
13,51918	63980
13,52332	62887
13,52743	58520
13,53155	57703
13,53568	58001
13,53980	54124
13,54392	55558
13,54805	53974
13,55217	51177
13,55628	48406
13,56042	49427
13,56453	48053
13,56865	47861
13,57278	46111
13,57690	44061
13,58102	46289
13,58513	42562
13,58927	42072
13,59338	42391
13,59750	40584
13,60163	40866
13,60575	39548
13,60987	39723
13,61400	40550
13,61812	38511
13,62223	37720
13,62637	38179
13,63048	38609
13,63460	34678
13,63873	36335
13,64285	35176
13,64697	35283
13,65110	33675
13,65522	33221
13,65933	34311
13,66347	31386
13,66758	33411
13,67170	32042
13,67582	31390
13,67995	31463
13,68407	30731
13,68818	30070
13,69232	30423
13,69643	30957
13,70055	31133
13,70468	29811
13,70880	30746
13,71292	30341
13,71705	31136
13,72117	31161
13,72528	31478
13,72942	30608
13,73353	29905
13,73765	30975
13,74178	29675
13,74590	30281
13,75002	31690
13,75415	30624
13,75827	30102
13,76238	29746
13,76650	29807
13,77063	29481
13,77475	29879
13,77887	27923
13,78300	29375
13,78712	29409
13,79123	27448
13,79537	26840
13,79948	25872
13,80360	27984
13,80773	29116
13,81185	28178
13,81597	29455
13,82010	32194
13,82422	39107
13,82833	46467
13,83247	66988
13,83658	96239
13,84070	155189
13,84483	239731
13,84895	370741
13,85307	563300
13,85718	813394
13,86132	1142712
13,86543	1557442
13,86955	2058957
13,87368	2580038
13,87780	3131825
13,88192	3689655
13,88605	4186704
13,89017	4545592
13,89428	4738827
13,89842	4709347
13,90253	4462228
13,90665	4144986
13,91078	3737939
13,91490	3318731
13,91902	2889831
13,92315	2463545
13,92727	2129769
13,93138	1815468
13,93552	1562037
13,93963	1343147
13,94375	1174221
13,94787	1012316
13,95200	893077
13,95612	785790
13,96023	698742
13,96437	617839
13,96848	565517
13,97260	506743
13,97673	465569
13,98085	426882
13,98497	387763
13,98910	360207
13,99322	334620
13,99733	314591
14,00147	292808
14,00558	275114
14,00970	257825
14,01383	247206
14,01795	229453
14,02207	218521
14,02620	204948
14,03032	197341
14,03443	186113
14,03855	178996
14,04268	171672
14,04680	162857
14,05092	157823
14,05505	150574
14,05917	145418
14,06328	138954
14,06742	134455
14,07153	130080
14,07565	121919
14,07978	119364
14,08390	116105
14,08802	112868
14,09215	108653
14,09627	105054
14,10038	103549
14,10452	100972
14,10863	99120
14,11275	95608
14,11688	89544
14,12100	89109
14,12512	88560
14,12923	82618
14,13337	81199
14,13748	81146
14,14160	79730
14,14573	77814
14,14985	77936
14,15397	75197
14,15810	72223
14,16222	70850
14,16633	72608
14,17047	66980
14,17458	71571
14,17870	75652
14,18283	78298
14,18695	93370
14,19107	113247
14,19520	146870
14,19932	193585
14,20343	272038
14,20757	374275
14,21168	497083
14,21580	639688
14,21993	800057
14,22405	971226
14,22817	1097947
14,23228	1213582
14,23642	1275304
14,24053	1290937
14,24465	1254001
14,24878	1191351
14,25290	1094959
14,25702	997244
14,26115	903197
14,26527	827914
14,26938	785968
14,27352	774014
14,27763	790233
14,28175	845490
14,28588	930916
14,29000	1026349
14,29412	1125924
14,29825	1215191
14,30237	1292982
14,30648	1320565
14,31062	1323838
14,31473	1301395
14,31885	1248896
14,32297	1193798
14,32710	1140864
14,33122	1096253
14,33533	1096854
14,33947	1127604
14,34358	1205398
14,34770	1323922
14,35183	1470993
14,35595	1612444
14,36007	1748260
14,36420	1847019
14,36832	1892421
14,37243	1885003
14,37657	1813826
14,38068	1682783
14,38480	1544727
14,38893	1371854
14,39305	1209084
14,39717	1059060
14,40130	923630
14,40542	807102
14,40953	703981
14,41365	626154
14,41778	554463
14,42190	503067
14,42602	450588
14,43015	407994
14,43427	375573
14,43838	342183
14,44252	315291
14,44663	290775
14,45075	272426
14,45488	255345
14,45900	237015
14,46312	226078
14,46725	210014
14,47137	203784
14,47548	188476
14,47962	182893
14,48373	169881
14,48785	159369
14,49198	155544
14,49610	154557
14,50022	138266
14,50433	135357
14,50847	131940
14,51258	126788
14,51670	121494
14,52083	117085
14,52495	112774
14,52907	108729
14,53320	105238
14,53732	99339
14,54143	99812
14,54557	96137
14,54968	93240
14,55380	91450
14,55793	88115
14,56205	84924
14,56617	82389
14,57030	84503
14,57442	79586
14,57853	79453
14,58267	77522
14,58678	75464
14,59090	73396
14,59502	71241
14,59915	69112
14,60327	67668
14,60738	67587
14,61152	66283
14,61563	64582
14,61975	67664
14,62388	63156
14,62800	63871
14,63212	64509
14,63625	62068
14,64037	63266
14,64448	60261
14,64862	60439
14,65273	58808
14,65685	56870
14,66098	57640
14,66510	58422
14,66922	55218
14,67335	52652
14,67747	53912
14,68158	56848
14,68570	59331
14,68983	63350
14,69395	70931
14,69807	88344
14,70220	111637
14,70632	150865
14,71043	216360
14,71457	308354
14,71868	439128
14,72280	606829
14,72693	816911
14,73105	1045013
14,73517	1298276
14,73930	1503729
14,74342	1664472
14,74753	1758851
14,75167	1780003
14,75578	1715220
14,75990	1596058
14,76403	1437836
14,76815	1277065
14,77227	1108693
14,77638	967449
14,78052	838620
14,78463	731341
14,78875	647525
14,79288	567589
14,79700	505951
14,80112	456329
14,80525	408382
14,80937	368507
14,81348	339439
14,81762	309658
14,82173	285780
14,82585	263481
14,82998	247923
14,83410	230931
14,83822	212649
14,84235	200735
14,84647	193417
14,85058	182073
14,85472	171663
14,85883	165606
14,86295	153716
14,86707	150116
14,87120	142181
14,87532	137099
14,87943	133874
14,88357	126854
14,88768	122889
14,89180	118217
14,89593	116023
14,90005	114438
14,90417	110469
14,90830	107651
14,91242	105268
14,91653	99611
14,92067	96609
14,92478	98677
14,92890	92468
14,93303	91674
14,93715	87916
14,94127	85667
14,94540	82810
14,94952	81790
14,95363	81766
14,95775	81920
14,96188	81166
14,96600	74339
14,97012	71905
14,97425	73288
14,97837	72412
14,98248	69845
14,98662	71179
14,99073	69152
14,99485	66996
14,99898	65899
15,00310	65435
15,00722	67226
15,01135	63300
15,01547	62349
15,01958	62533
15,02372	62707
15,02783	62965
15,03195	63025
15,03608	61774
15,04020	63875
15,04432	60010
15,04843	65180
15,05257	72396
15,05668	86472
15,06080	107006
15,06493	142949
15,06905	202708
15,07317	292269
15,07730	403716
15,08142	556793
15,08553	737922
15,08967	942641
15,09378	1130009
15,09790	1283390
15,10203	1393425
15,10615	1452065
15,11027	1443610
15,11440	1376802
15,11852	1284436
15,12263	1160986
15,12677	1030340
15,13088	921003
15,13500	792045
15,13912	703379
15,14325	611591
15,14737	547329
15,15148	490700
15,15562	451600
15,15973	428280
15,16385	420045
15,16798	433466
15,17210	483325
15,17622	547997
15,18035	635065
15,18447	743170
15,18858	867424
15,19272	969557
15,19683	1063289
15,20095	1126877
15,20508	1156200
15,20920	1160511
15,21332	1122440
15,21745	1050562
15,22157	977253
15,22568	875808
15,22980	778609
15,23393	693761
15,23805	606901
15,24217	535482
15,24630	469013
15,25042	420419
15,25453	373430
15,25867	332883
15,26278	298011
15,26690	272487
15,27103	250187
15,27515	228687
15,27927	207657
15,28340	198793
15,28752	182579
15,29163	172582
15,29577	163288
15,29988	153902
15,30400	143833
15,30813	136752
15,31225	134376
15,31637	125442
15,32048	120948
15,32462	115100
15,32873	110616
15,33285	104723
15,33698	101587
15,34110	98046
15,34522	94061
15,34935	92197
15,35347	91711
15,35758	87307
15,36172	89182
15,36583	83748
15,36995	80569
15,37408	79594
15,37820	76579
15,38232	75265
15,38645	74429
15,39057	75171
15,39468	74154
15,39882	69762
15,40293	68954
15,40705	70528
15,41117	64458
15,41530	65288
15,41942	61774
15,42353	62838
15,42767	65514
15,43178	62964
15,43590	64210
15,44003	60006
15,44415	59899
15,44827	60715
15,45240	58691
15,45652	58299
15,46063	56420
15,46477	53734
15,46888	56083
15,47300	52055
15,47713	53284
15,48125	54110
15,48537	52079
15,48950	50143
15,49362	51290
15,49773	50145
15,50185	47213
15,50598	49079
15,51010	47720
15,51422	49093
15,51835	45723
15,52247	50266
15,52658	47914
15,53072	50356
15,53483	54079
15,53895	58445
15,54308	66250
15,54720	81137
15,55132	105959
15,55545	139891
15,55957	197464
15,56368	284020
15,56782	398339
15,57193	556953
15,57605	769872
15,58018	1045190
15,58430	1364904
15,58842	1714125
15,59253	2085851
15,59667	2452966
15,60078	2836422
15,60490	3132632
15,60903	3334697
15,61315	3395130
15,61727	3302776
15,62140	3093951
15,62552	2780946
15,62963	2436106
15,63377	2105820
15,63788	1810553
15,64200	1555115
15,64613	1347365
15,65025	1164834
15,65437	1026868
15,65850	901732
15,66262	807846
15,66673	721610
15,67087	646163
15,67498	590703
15,67910	547068
15,68322	500470
15,68735	456114
15,69147	424140
15,69558	393484
15,69972	369931
15,70383	344254
15,70795	325454
15,71208	304777
15,71620	289804
15,72032	274073
15,72445	258864
15,72857	249908
15,73268	237723
15,73682	231313
15,74093	218073
15,74505	205936
15,74918	201190
15,75330	194794
15,75742	186856
15,76155	178867
15,76567	175453
15,76978	169506
15,77392	160910
15,77803	155733
15,78215	148776
15,78627	148077
15,79040	141509
15,79452	141849
15,79863	132176
15,80277	129478
15,80688	130562
15,81100	125400
15,81513	119899
15,81925	115752
15,82337	115002
15,82750	116544
15,83162	108794
15,83573	109059
15,83987	104820
15,84398	105314
15,84810	102329
15,85223	98989
15,85635	97691
15,86047	95106
15,86460	98323
15,86872	94296
15,87283	91445
15,87695	90548
15,88108	90118
15,88520	86772
15,88932	84116
15,89345	84524
15,89757	83737
15,90168	84247
15,90582	79390
15,90993	82341
15,91405	80742
15,91818	75971
15,92230	74661
15,92642	75406
15,93055	76219
15,93467	74661
15,93878	74828
15,94292	73931
15,94703	72663
15,95115	68769
15,95528	71205
15,95940	69755
15,96352	70072
15,96763	69217
15,97177	66593
15,97588	67012
15,98000	66540
15,98413	66778
15,98825	63505
15,99237	66251
15,99650	65340
16,00062	68488
16,00473	71190
16,00887	75553
16,01298	88250
16,01710	103390
16,02123	130420
16,02535	171433
16,02947	237176
16,03360	318664
16,03772	438032
16,04183	592869
16,04597	778512
16,05008	970106
16,05420	1188920
16,05832	1348872
16,06245	1477051
16,06657	1564392
16,07068	1574497
16,07482	1520455
16,07893	1432039
16,08305	1303863
16,08718	1169777
16,09130	1049707
16,09542	922526
16,09955	815918
16,10367	721978
16,10778	636458
16,11192	574008
16,11603	509149
16,12015	465971
16,12428	419992
16,12840	385101
16,13252	356019
16,13665	327049
16,14077	306547
16,14488	282660
16,14900	267708
16,15313	252233
16,15725	239874
16,16137	224769
16,16550	215286
16,16962	201323
16,17373	193383
16,17787	185479
16,18198	174984
16,18610	170491
16,19023	163208
16,19435	157381
16,19847	150619
16,20260	143112
16,20672	140693
16,21083	137677
16,21497	132962
16,21908	130618
16,22320	123664
16,22733	117395
16,23145	116442
16,23557	114965
16,23968	110964
16,24382	107477
16,24793	110133
16,25205	102455
16,25618	99974
16,26030	100302
16,26442	98267
16,26855	96554
16,27267	93906
16,27678	95805
16,28092	92281
16,28503	88669
16,28915	85076
16,29328	89611
16,29740	87599
16,30152	83627
16,30565	82645
16,30977	81710
16,31388	78960
16,31802	78267
16,32213	75385
16,32625	75442
16,33037	76207
16,33450	73933
16,33862	71130
16,34273	74016
16,34687	71963
16,35098	70872
16,35510	68552
16,35923	68153
16,36335	69655
16,36747	70686
16,37160	67235
16,37572	64079
16,37983	68866
16,38397	67095
16,38808	67059
16,39220	68632
16,39633	66188
16,40045	67263
16,40457	69540
16,40870	66753
16,41282	65378
16,41693	70356
16,42105	66397
16,42518	65028
16,42930	65361
16,43342	63844
16,43755	64651
16,44167	68682
16,44578	69386
16,44992	73256
16,45403	76990
16,45815	81136
16,46228	91443
16,46640	99717
16,47052	107124
16,47465	110854
16,47877	122865
16,48288	122278
16,48702	128331
16,49113	130469
16,49525	129168
16,49938	125912
16,50350	117633
16,50762	109562
16,51173	104010
16,51587	99413
16,51998	92917
16,52410	90653
16,52823	79878
16,53235	78083
16,53647	73314
16,54060	68529
16,54472	67444
16,54883	66660
16,55297	62142
16,55708	61323
16,56120	58736
16,56533	60096
16,56945	57508
16,57357	58637
16,57770	55868
16,58182	55162
16,58593	56954
16,59007	56342
16,59418	54695
16,59830	54281
16,60242	51500
16,60655	50558
16,61067	52858
16,61478	52868
16,61892	52043
16,62303	50782
16,62715	52847
16,63128	52415
16,63540	52657
16,63952	50503
16,64365	52139
16,64777	52690
16,65188	51356
16,65602	51365
16,66013	50683
16,66425	48306
16,66838	52039
16,67250	52474
16,67662	52496
16,68075	52202
16,68487	49554
16,68898	51485
16,69310	50485
16,69723	52108
16,70135	50017
16,70547	49512
16,70960	51347
16,71372	51010
16,71783	49331
16,72197	49638
16,72608	49016
16,73020	49268
16,73433	49961
16,73845	47619
16,74257	44085
16,74670	47136
16,75082	45206
16,75493	46755
16,75907	46579
16,76318	46399
16,76730	46266
16,77143	45595
16,77555	45469
16,77967	46615
16,78378	47565
16,78792	47234
16,79203	47474
16,79615	46787
16,80028	46411
16,80440	46128
16,80852	47029
16,81265	46030
16,81677	46835
16,82088	45015
16,82502	46679
16,82913	45958
16,83325	47408
16,83738	49166
16,84150	47513
16,84562	45486
16,84975	44763
16,85387	45573
16,85798	43354
16,86212	44167
16,86623	46141
16,87035	45978
16,87447	46170
16,87860	46128
16,88272	45514
16,88683	46076
16,89097	43135
16,89508	45504
16,89920	45364
16,90333	43934
16,90745	45205
16,91157	44033
16,91570	43503
16,91982	45467
16,92393	45659
16,92807	44313
16,93218	44486
16,93630	44727
16,94043	44307
16,94455	44357
16,94867	48003
16,95280	44315
16,95692	46165
16,96103	45374
16,96515	46488
16,96928	46912
16,97340	43474
16,97752	45898
16,98165	43763
16,98577	45709
16,98988	45680
16,99402	43206
16,99813	44665
17,00225	44392
17,00638	45276
17,01050	43602
17,01462	43180
17,01875	43981
17,02287	40524
17,02698	42464
17,03112	43073
17,03523	43360
17,03935	44669
17,04348	42261
17,04760	42049
17,05172	43608
17,05583	44754
17,05997	45418
17,06408	43619
17,06820	42490
17,07233	41887
17,07645	41937
17,08057	43393
17,08470	42885
17,08882	41801
17,09293	41612
17,09707	43267
17,10118	43508
17,10530	40811
17,10943	42618
17,11355	44192
17,11767	42236
17,12180	43787
17,12592	40901
17,13003	42551
17,13417	42234
17,13828	42048
17,14240	41331
17,14652	42535
17,15065	43054
17,15477	40101
17,15888	40310
17,16302	40995
17,16713	42041
17,17125	42642
17,17538	41810
17,17950	41225
17,18362	43554
17,18775	40140
17,19187	41479
17,19598	41534
17,20012	42562
17,20423	45912
17,20835	41456
17,21248	43759
17,21660	41806
17,22072	39567
17,22485	43067
17,22897	42969
17,23308	41705
17,23720	42077
17,24133	42025
17,24545	38796
17,24957	42364
17,25370	42319
17,25782	40741
17,26193	42891
17,26607	42056
17,27018	43144
17,27430	46064
17,27843	51056
17,28255	53662
17,28667	59528
17,29080	75818
17,29492	94932
17,29903	123635
17,30317	168376
17,30728	224446
17,31140	301705
17,31553	382496
17,31965	477986
17,32377	570937
17,32788	660532
17,33202	731207
17,33613	782682
17,34025	804984
17,34438	792978
17,34850	783990
17,35262	739915
17,35675	687223
17,36087	618561
17,36498	563028
17,36912	510865
17,37323	459807
17,37735	407447
17,38148	372339
17,38560	329082
17,38972	297994
17,39385	268465
17,39797	244428
17,40208	223777
17,40622	211606
17,41033	191976
17,41445	177251
17,41858	165756
17,42270	155136
17,42682	148989
17,43093	136339
17,43507	128701
17,43918	122312
17,44330	117944
17,44743	116274
17,45155	111598
17,45567	104317
17,45980	101684
17,46392	98064
17,46803	98453
17,47217	91854
17,47628	91397
17,48040	87627
17,48453	85582
17,48865	82104
17,49277	79864
17,49690	80826
17,50102	75482
17,50513	76261
17,50927	74020
17,51338	71867
17,51750	73434
17,52162	71137
17,52575	69658
17,52987	67080
17,53398	69111
17,53812	65520
17,54223	64618
17,54635	68040
17,55048	64202
17,55460	63538
17,55872	61726
17,56285	62894
17,56697	60440
17,57108	59724
17,57522	57601
17,57933	62196
17,58345	59860
17,58758	57700
17,59170	58822
17,59582	57210
17,59995	57909
17,60407	57431
17,60818	56287
17,61230	54487
17,61643	54769
17,62055	54549
17,62467	53875
17,62880	54403
17,63292	51989
17,63703	50805
17,64117	52992
17,64528	52660
17,64940	50449
17,65353	52955
17,65765	50983
17,66177	50657
17,66590	50222
17,67002	47943
17,67413	50882
17,67827	50568
17,68238	47110
17,68650	50453
17,69063	50680
17,69475	49212
17,69887	48440
17,70298	50462
17,70712	47563
17,71123	49408
17,71535	48978
17,71948	48379
17,72360	47107
17,72772	45993
