D:\MassHunter\GCMS\1\data\Amal\Constant flow\110C\110C_1ml-min_5C-min_3.D Tue Sep 17 16:29:51 2024
Start of data points
5,29102,568983
5,29513,547119
5,29927,537438
5,30338,513889
5,30750,501216
5,31163,485561
5,31575,468390
5,31987,454230
5,32400,447060
5,32812,431476
5,33223,411772
5,33637,407437
5,34048,385301
5,34460,381165
5,34873,361522
5,35285,352355
5,35697,336992
5,36110,331413
5,36522,322929
5,36933,307200
5,37345,296302
5,37758,287289
5,38170,276329
5,38582,267982
5,38995,256096
5,39407,251647
5,39818,243296
5,40232,235856
5,40643,226854
5,41055,220571
5,41468,210758
5,41880,207740
5,42292,208178
5,42705,194237
5,43117,191988
5,43528,187147
5,43942,182250
5,44353,180015
5,44765,177398
5,45178,170690
5,45590,172458
5,46002,162741
5,46413,163578
5,46827,157141
5,47238,153282
5,47650,154043
5,48063,149248
5,48475,144815
5,48887,145469
5,49300,139085
5,49712,141595
5,50123,137215
5,50537,134243
5,50948,133789
5,51360,131777
5,51773,132310
5,52185,125845
5,52597,125699
5,53010,124820
5,53422,123489
5,53833,121150
5,54247,121389
5,54658,114985
5,55070,118609
5,55482,118246
5,55895,117448
5,56307,116160
5,56718,114192
5,57132,117511
5,57543,114574
5,57955,113261
5,58368,110831
5,58780,110827
5,59192,108490
5,59605,108054
5,60017,107362
5,60428,104838
5,60842,107631
5,61253,102321
5,61665,104532
5,62078,104774
5,62490,104262
5,62902,105208
5,63315,105694
5,63727,102799
5,64138,100921
5,64550,101134
5,64963,98411
5,65375,102084
5,65787,97612
5,66200,99595
5,66612,96837
5,67023,95518
5,67437,99106
5,67848,97612
5,68260,96103
5,68673,94394
5,69085,97253
5,69497,94632
5,69910,93053
5,70322,95309
5,70733,93782
5,71147,98348
5,71558,94335
5,71970,94380
5,72383,94816
5,72795,93536
5,73207,94550
5,73618,91027
5,74032,91301
5,74443,88617
5,74855,91475
5,75268,89926
5,75680,87968
5,76092,91202
5,76505,86807
5,76917,89630
5,77328,88719
5,77742,88375
5,78153,86554
5,78565,89514
5,78978,87569
5,79390,83804
5,79802,84594
5,80215,83887
5,80627,84202
5,81038,87287
5,81452,83639
5,81863,85688
5,82275,82611
5,82687,83227
5,83100,83963
5,83512,84822
5,83923,81860
5,84337,82436
5,84748,81893
5,85160,82751
5,85573,81208
5,85985,81685
5,86397,82154
5,86810,82060
5,87222,80820
5,87633,80627
5,88047,82045
5,88458,78891
5,88870,80069
5,89283,79838
5,89695,81119
5,90107,79515
5,90520,77060
5,90932,82097
5,91343,81668
5,91755,81349
5,92168,82884
5,92580,85219
5,92992,83713
5,93405,84941
5,93817,83373
5,94228,84984
5,94642,87052
5,95053,85948
5,95465,83987
5,95878,87223
5,96290,84165
5,96702,85365
5,97115,87213
5,97527,87081
5,97938,83318
5,98352,87154
5,98763,86623
5,99175,90591
5,99588,87400
6,00000,88420
6,00412,87810
6,00823,90410
6,01237,89369
6,01648,87323
6,02060,87710
6,02473,91488
6,02885,89853
6,03297,86344
6,03710,88019
6,04122,85688
6,04533,87316
6,04947,85722
6,05358,88521
6,05770,85613
6,06183,85883
6,06595,85248
6,07007,84717
6,07420,82798
6,07832,82253
6,08243,81725
6,08657,83061
6,09068,82129
6,09480,82506
6,09892,78992
6,10305,79621
6,10717,79552
6,11128,79290
6,11542,80223
6,11953,76001
6,12365,74789
6,12778,75302
6,13190,76184
6,13602,73771
6,14015,73749
6,14427,73646
6,14838,73915
6,15252,72187
6,15663,74893
6,16075,71471
6,16488,72720
6,16900,73078
6,17312,72572
6,17725,72031
6,18137,73004
6,18548,70527
6,18960,67799
6,19373,69589
6,19785,68868
6,20197,67585
6,20610,67885
6,21022,73151
6,21433,78002
6,21847,92515
6,22258,115281
6,22670,158980
6,23083,222905
6,23495,303949
6,23907,408712
6,24320,516335
6,24732,618045
6,25143,729089
6,25557,806296
6,25968,876785
6,26380,911992
6,26793,922786
6,27205,921260
6,27617,914204
6,28030,885048
6,28442,863690
6,28853,831649
6,29265,796520
6,29678,764434
6,30090,728845
6,30502,702226
6,30915,672354
6,31327,633967
6,31738,608294
6,32152,583598
6,32563,561219
6,32975,539202
6,33388,515574
6,33800,493282
6,34212,467633
6,34625,443413
6,35037,423792
6,35448,408453
6,35862,388264
6,36273,369195
6,36685,352254
6,37098,329239
6,37510,315816
6,37922,300584
6,38333,277240
6,38747,266171
6,39158,251507
6,39570,232546
6,39983,223358
6,40395,207491
6,40807,189950
6,41220,181586
6,41632,170964
6,42043,158741
6,42457,149585
6,42868,138339
6,43280,132816
6,43693,128403
6,44105,121506
6,44517,115329
6,44930,108767
6,45342,103654
6,45753,102058
6,46167,96938
6,46578,90084
6,46990,84636
6,47402,83203
6,47815,78357
6,48227,77977
6,48638,77360
6,49052,74478
6,49463,71658
6,49875,70755
6,50288,67831
6,50700,65701
6,51112,62435
6,51525,63310
6,51937,59112
6,52348,59042
6,52762,58657
6,53173,58316
6,53585,57007
6,53998,55087
6,54410,55376
6,54822,56053
6,55235,54273
6,55647,54020
6,56058,52182
6,56470,52678
6,56883,50834
6,57295,51620
6,57707,51299
6,58120,49053
6,58532,50815
6,58943,48793
6,59357,50515
6,59768,49664
6,60180,48754
6,60593,49116
6,61005,47586
6,61417,47014
6,61830,48006
6,62242,47972
6,62653,46185
6,63067,46853
6,63478,45940
6,63890,46233
6,64303,45727
6,64715,43908
6,65127,44528
6,65538,44853
6,65952,45312
6,66363,45907
6,66775,45578
6,67188,45860
6,67600,43478
6,68012,42636
6,68425,43132
6,68837,46136
6,69248,42369
6,69662,43783
6,70073,45625
6,70485,43429
6,70898,43212
6,71310,41967
6,71722,42529
6,72135,43431
6,72547,44067
6,72958,44429
6,73372,42657
6,73783,41941
6,74195,40346
6,74607,42715
6,75020,42379
6,75432,46455
6,75843,44769
6,76257,43129
6,76668,41201
6,77080,41843
6,77493,42018
6,77905,41714
6,78317,40870
6,78730,41324
6,79142,41382
6,79553,40559
6,79967,42501
6,80378,41547
6,80790,40723
6,81203,41677
6,81615,41314
6,82027,41071
6,82440,40532
6,82852,40168
6,83263,40797
6,83675,42216
6,84088,41285
6,84500,42158
6,84912,39678
6,85325,39389
6,85737,38902
6,86148,41831
6,86562,40608
6,86973,39984
6,87385,40850
6,87798,41777
6,88210,40154
6,88622,39111
6,89035,37483
6,89447,38814
6,89858,39303
6,90272,40737
6,90683,39133
6,91095,38631
6,91508,39916
6,91920,38578
6,92332,39920
6,92743,37281
6,93157,39906
6,93568,37493
6,93980,38246
6,94393,36468
6,94805,37595
6,95217,37448
6,95630,36852
6,96042,37248
6,96453,35446
6,96867,36114
6,97278,36247
6,97690,34834
6,98103,38184
6,98515,36881
6,98927,37119
6,99340,35902
6,99752,38028
7,00163,36044
7,00577,36728
7,00988,35744
7,01400,36404
7,01812,35930
7,02225,36975
7,02637,35412
7,03048,35876
7,03462,36432
7,03873,37954
7,04285,37077
7,04698,37043
7,05110,37717
7,05522,36238
7,05935,36963
7,06347,37898
7,06758,36260
7,07172,35541
7,07583,37413
7,07995,37201
7,08408,37530
7,08820,35315
7,09232,38167
7,09645,37392
7,10057,34045
7,10468,35972
7,10880,35232
7,11293,37041
7,11705,35854
7,12117,37427
7,12530,35408
7,12942,35534
7,13353,35356
7,13767,36404
7,14178,36049
7,14590,36764
7,15003,34413
7,15415,34763
7,15827,36215
7,16240,34701
7,16652,36280
7,17063,35443
7,17477,32681
7,17888,35987
7,18300,35433
7,18713,32858
7,19125,34077
7,19537,33148
7,19948,33098
7,20362,34798
7,20773,33578
7,21185,34449
7,21598,33840
7,22010,32253
7,22422,31312
7,22835,33255
7,23247,33798
7,23658,33552
7,24072,34150
7,24483,34114
7,24895,35690
7,25308,33054
7,25720,33672
7,26132,34282
7,26545,35241
7,26957,34946
7,27368,35966
7,27782,37559
7,28193,34577
7,28605,35600
7,29017,35669
7,29430,37234
7,29842,37059
7,30253,35683
7,30667,36309
7,31078,35554
7,31490,36458
7,31903,34848
7,32315,35223
7,32727,34568
7,33140,33462
7,33552,31977
7,33963,34123
7,34377,32795
7,34788,34129
7,35200,33144
7,35613,31099
7,36025,29408
7,36437,32190
7,36850,33341
7,37262,31605
7,37673,30899
7,38085,31694
7,38498,30741
7,38910,32073
7,39322,31661
7,39735,30867
7,40147,30633
7,40558,31990
7,40972,32347
7,41383,30913
7,41795,30411
7,42208,30385
7,42620,30295
7,43032,28929
7,43445,27783
7,43857,30024
7,44268,30522
7,44682,28370
7,45093,30980
7,45505,29615
7,45918,30569
7,46330,29795
7,46742,28088
7,47153,29729
7,47567,30590
7,47978,27800
7,48390,30445
7,48803,29977
7,49215,28120
7,49627,30164
7,50040,29596
7,50452,30036
7,50863,29932
7,51277,28598
7,51688,29150
7,52100,27873
7,52513,29769
7,52925,27864
7,53337,28512
7,53750,27311
7,54162,27723
7,54573,28787
7,54987,28949
7,55398,27106
7,55810,28964
7,56222,28083
7,56635,26940
7,57047,28068
7,57458,27431
7,57872,28541
7,58283,26755
7,58695,27479
7,59108,28156
7,59520,27478
7,59932,28930
7,60345,26553
7,60757,27324
7,61168,28427
7,61582,29111
7,61993,26950
7,62405,26362
7,62818,28864
7,63230,26575
7,63642,26089
7,64055,27513
7,64467,27637
7,64878,27784
7,65290,26935
7,65703,26226
7,66115,28350
7,66527,28150
7,66940,28093
7,67352,25638
7,67763,28279
7,68177,26596
7,68588,28388
7,69000,28380
7,69413,26816
7,69825,26879
7,70237,27726
7,70650,27028
7,71062,26882
7,71473,26303
7,71887,27654
7,72298,26405
7,72710,27617
7,73123,26668
7,73535,26079
7,73947,26992
7,74358,26078
7,74772,25650
7,75183,26255
7,75595,26719
7,76008,25785
7,76420,26346
7,76832,26443
7,77245,26287
7,77657,27444
7,78068,27029
7,78482,26852
7,78893,26929
7,79305,26811
7,79718,26928
7,80130,26761
7,80542,26525
7,80955,26175
7,81367,26696
7,81778,27070
7,82192,25733
7,82603,26108
7,83015,25603
7,83428,26749
7,83840,26991
7,84252,25416
7,84663,26047
7,85077,26734
7,85488,24252
7,85900,27202
7,86313,25909
7,86725,25083
7,87137,25069
7,87550,25985
7,87962,25631
7,88373,25508
7,88787,24397
7,89198,24442
7,89610,25484
7,90023,25392
7,90435,25485
7,90847,23916
7,91260,26229
7,91672,23452
7,92083,25353
7,92497,24745
7,92908,24789
7,93320,24862
7,93732,25821
7,94145,26462
7,94557,24851
7,94968,25768
7,95382,28226
7,95793,32511
7,96205,42409
7,96618,58580
7,97030,84208
7,97442,124449
7,97855,182937
7,98267,265654
7,98678,366185
7,99092,494343
7,99503,630583
7,99915,754169
8,00328,893422
8,00740,1008683
8,01152,1120130
8,01565,1161818
8,01977,1222359
8,02388,1243945
8,02800,1254160
8,03213,1238081
8,03625,1198199
8,04037,1149983
8,04450,1104053
8,04862,1057717
8,05273,993538
8,05687,941820
8,06098,891541
8,06510,842366
8,06923,790920
8,07335,732592
8,07747,689931
8,08160,641125
8,08572,588204
8,08983,545185
8,09397,502045
8,09808,458971
8,10220,420620
8,10633,382740
8,11045,350712
8,11457,311351
8,11868,287242
8,12282,262194
8,12693,233917
8,13105,211929
8,13518,193224
8,13930,174127
8,14342,161424
8,14755,148259
8,15167,137541
8,15578,120506
8,15992,115068
8,16403,105147
8,16815,97846
8,17228,91601
8,17640,81961
8,18052,81765
8,18465,74013
8,18877,69005
8,19288,67873
8,19702,64961
8,20113,61516
8,20525,61342
8,20937,56002
8,21350,53625
8,21762,49157
8,22173,49121
8,22587,46314
8,22998,46192
8,23410,45360
8,23823,43568
8,24235,42863
8,24647,41794
8,25060,40008
8,25472,39393
8,25883,41092
8,26297,38278
8,26708,37861
8,27120,35096
8,27533,36595
8,27945,36071
8,28357,34890
8,28770,32983
8,29182,33689
8,29593,32769
8,30005,32369
8,30418,33760
8,30830,32588
8,31242,31279
8,31655,32209
8,32067,31063
8,32478,31206
8,32892,29939
8,33303,29493
8,33715,30397
8,34128,28274
8,34540,29181
8,34952,27226
8,35365,27885
8,35777,28043
8,36188,27866
8,36602,28116
8,37013,26438
8,37425,26255
8,37838,27750
8,38250,28137
8,38662,25805
8,39073,26689
8,39487,26684
8,39898,27584
8,40310,25849
8,40723,26341
8,41135,26531
8,41547,25545
8,41960,26173
8,42372,27783
8,42783,27078
8,43197,26435
8,43608,27855
8,44020,27178
8,44433,25427
8,44845,26696
8,45257,26306
8,45670,25558
8,46082,25093
8,46493,26571
8,46907,25867
8,47318,25995
8,47730,25307
8,48142,24393
8,48555,23912
8,48967,24655
8,49378,24586
8,49792,25828
8,50203,24141
8,50615,23455
8,51028,25187
8,51440,23261
8,51852,23877
8,52265,25419
8,52677,23878
8,53088,23223
8,53502,25474
8,53913,23469
8,54325,23403
8,54738,22441
8,55150,23173
8,55562,22065
8,55975,22574
8,56387,21927
8,56798,23070
8,57210,22263
8,57623,23950
8,58035,23167
8,58447,23173
8,58860,23532
8,59272,24156
8,59683,21888
8,60097,21945
8,60508,22387
8,60920,21543
8,61333,22833
8,61745,22044
8,62157,21267
8,62570,22520
8,62982,21906
8,63393,20851
8,63807,20437
8,64218,21554
8,64630,19948
8,65043,21069
8,65455,21214
8,65867,19730
8,66278,20038
8,66692,20740
8,67103,22098
8,67515,21324
8,67928,21435
8,68340,20804
8,68752,20793
8,69165,21908
8,69577,21715
8,69988,21788
8,70402,22392
8,70813,20467
8,71225,20422
8,71638,21838
8,72050,22298
8,72462,20657
8,72875,21127
8,73287,21140
8,73698,20885
8,74112,20226
8,74523,21462
8,74935,21627
8,75347,20073
8,75760,21277
8,76172,21454
8,76583,20209
8,76997,22069
8,77408,21076
8,77820,19785
8,78233,21833
8,78645,21410
8,79057,21676
8,79470,20596
8,79882,19410
8,80293,21651
8,80707,18939
8,81118,19707
8,81530,21011
8,81943,19510
8,82355,19080
8,82767,19319
8,83180,20421
8,83592,19541
8,84003,19479
8,84415,19770
8,84828,19809
8,85240,19119
8,85652,19408
8,86065,20946
8,86477,21077
8,86888,19161
8,87302,19270
8,87713,19922
8,88125,18977
8,88538,21079
8,88950,21060
8,89362,19535
8,89775,21047
8,90187,21213
8,90598,21329
8,91012,19588
8,91423,20864
8,91835,20575
8,92248,19448
8,92660,19989
8,93072,19078
8,93483,20911
8,93897,20845
8,94308,21171
8,94720,19266
8,95133,19390
8,95545,20493
8,95957,20794
8,96370,19796
8,96782,19310
8,97193,19666
8,97607,19131
8,98018,20260
8,98430,18606
8,98843,19219
8,99255,18476
8,99667,18501
9,00080,19111
9,00492,18270
9,00903,19915
9,01317,18026
9,01728,19071
9,02140,19478
9,02552,19261
9,02965,18959
9,03377,18428
9,03788,19012
9,04202,18030
9,04613,18545
9,05025,19436
9,05438,18145
9,05850,16904
9,06262,18117
9,06675,18143
9,07087,19666
9,07498,17726
9,07912,18522
9,08323,20738
9,08735,22754
9,09148,31185
9,09560,40385
9,09972,53202
9,10385,76768
9,10797,109811
9,11208,151870
9,11620,207929
9,12033,274221
9,12445,356307
9,12857,429323
9,13270,511646
9,13682,577222
9,14093,640144
9,14507,688451
9,14918,721320
9,15330,726343
9,15743,733351
9,16155,716392
9,16567,703941
9,16980,672939
9,17392,652178
9,17803,611689
9,18217,581437
9,18628,536098
9,19040,499738
9,19453,461804
9,19865,421345
9,20277,377891
9,20688,351614
9,21102,317603
9,21513,285434
9,21925,254272
9,22338,229481
9,22750,204672
9,23162,185075
9,23575,166264
9,23987,150233
9,24398,133523
9,24812,123225
9,25223,108674
9,25635,99790
9,26048,89411
9,26460,84202
9,26872,77323
9,27285,72439
9,27697,68527
9,28108,62985
9,28522,58034
9,28933,55315
9,29345,52240
9,29758,48877
9,30170,46598
9,30582,47534
9,30993,44936
9,31407,43622
9,31818,41919
9,32230,39994
9,32643,40437
9,33055,38151
9,33467,36634
9,33880,34561
9,34292,33035
9,34703,33827
9,35117,32190
9,35528,31002
9,35940,32280
9,36353,29478
9,36765,29647
9,37177,29012
9,37590,27517
9,38002,28230
9,38413,26659
9,38827,26218
9,39238,25950
9,39650,26197
9,40062,25112
9,40475,26896
9,40887,25718
9,41298,25349
9,41712,23727
9,42123,24189
9,42535,24737
9,42948,23421
9,43360,23957
9,43772,23093
9,44185,22107
9,44597,23439
9,45008,22753
9,45422,23253
9,45833,21891
9,46245,22237
9,46658,22360
9,47070,22101
9,47482,21389
9,47895,20446
9,48307,21195
9,48718,20237
9,49130,19278
9,49543,19502
9,49955,19183
9,50367,20630
9,50780,20028
9,51192,19382
9,51603,18870
9,52017,19202
9,52428,17475
9,52840,20113
9,53253,18106
9,53665,19025
9,54077,18530
9,54490,18510
9,54902,18344
9,55313,18284
9,55727,17575
9,56138,18020
9,56550,17908
9,56963,19023
9,57375,17975
9,57787,19940
9,58198,19076
9,58612,19795
9,59023,18076
9,59435,20833
9,59848,20422
9,60260,20059
9,60672,21401
9,61085,21363
9,61497,20882
9,61908,20780
9,62322,19622
9,62733,20223
9,63145,19272
9,63558,19837
9,63970,21390
9,64382,20423
9,64795,19655
9,65207,17942
9,65618,18830
9,66032,18356
9,66443,18453
9,66855,17427
9,67267,17509
9,67680,18216
9,68092,16926
9,68503,17563
9,68917,17326
9,69328,17143
9,69740,16382
9,70153,16614
9,70565,16369
9,70977,16939
9,71390,15211
9,71802,16609
9,72213,16215
9,72627,15829
9,73038,16225
9,73450,16768
9,73863,15231
9,74275,15754
9,74687,14210
9,75100,15278
9,75512,15780
9,75923,15545
9,76335,15216
9,76748,15781
9,77160,15488
9,77572,16775
9,77985,16423
9,78397,16130
9,78808,15817
9,79222,16455
9,79633,16261
9,80045,15313
9,80458,15233
9,80870,15952
9,81282,15091
9,81695,14979
9,82107,15578
9,82518,16088
9,82932,15237
9,83343,16020
9,83755,16094
9,84168,14131
9,84580,16421
9,84992,14544
9,85403,15924
9,85817,14766
9,86228,14249
9,86640,14733
9,87053,15368
9,87465,14958
9,87877,15834
9,88290,14462
9,88702,14704
9,89113,15010
9,89527,15801
9,89938,16124
9,90350,15881
9,90763,15588
9,91175,15016
9,91587,14454
9,92000,14499
9,92412,14088
9,92823,16633
9,93237,14857
9,93648,15897
9,94060,14341
9,94472,15298
9,94885,14948
9,95297,14472
9,95708,16277
9,96122,15361
9,96533,14515
9,96945,14929
9,97358,14639
9,97770,14672
9,98182,14907
9,98595,14266
9,99007,15238
9,99418,13689
9,99832,14665
10,00243,15478
10,00655,15726
10,01068,15143
10,01480,14919
10,01892,14811
10,02305,16484
10,02717,14474
10,03128,14346
10,03540,15206
10,03953,14023
10,04365,14914
10,04777,14978
10,05190,15120
10,05602,15484
10,06013,14779
10,06427,13199
10,06838,14652
10,07250,14680
10,07663,14729
10,08075,13994
10,08487,14764
10,08900,13923
10,09312,15106
10,09723,14797
10,10137,14892
10,10548,15790
10,10960,13521
10,11373,13745
10,11785,14079
10,12197,14180
10,12608,14046
10,13022,14666
10,13433,14851
10,13845,15709
10,14258,16363
10,14670,14423
10,15082,14982
10,15495,14610
10,15907,14953
10,16318,16069
10,16732,14756
10,17143,15697
10,17555,14296
10,17968,14009
10,18380,14469
10,18792,15220
10,19205,14106
10,19617,13168
10,20028,14777
10,20442,14824
10,20853,14210
10,21265,15330
10,21677,14121
10,22090,14174
10,22502,13387
10,22913,14271
10,23327,14590
10,23738,16516
10,24150,15758
10,24563,13632
10,24975,14308
10,25387,14779
10,25800,14935
10,26212,14621
10,26623,15790
10,27037,14438
10,27448,14207
10,27860,13747
10,28273,14368
10,28685,15129
10,29097,14827
10,29510,13213
10,29922,13909
10,30333,13559
10,30745,13694
10,31158,12659
10,31570,13777
10,31982,15589
10,32395,15178
10,32807,14075
10,33218,16732
10,33632,21903
10,34043,29516
10,34455,40995
10,34868,63458
10,35280,97931
10,35692,147233
10,36105,222406
10,36517,319080
10,36928,449096
10,37342,595507
10,37753,770574
10,38165,944267
10,38578,1125239
10,38990,1297804
10,39402,1450976
10,39813,1580460
10,40227,1661062
10,40638,1725138
10,41050,1737742
10,41463,1700409
10,41875,1633868
10,42287,1555134
10,42700,1450127
10,43112,1338413
10,43523,1233378
10,43937,1116083
10,44348,1006105
10,44760,908418
10,45173,801372
10,45585,704057
10,45997,615596
10,46410,544810
10,46822,478582
10,47233,418406
10,47647,369547
10,48058,327878
10,48470,285895
10,48882,257528
10,49295,231091
10,49707,204139
10,50118,181915
10,50532,163456
10,50943,149996
10,51355,135943
10,51768,126264
10,52180,113565
10,52592,104286
10,53005,98274
10,53417,89888
10,53828,82359
10,54242,80905
10,54653,73872
10,55065,71028
10,55478,65843
10,55890,64953
10,56302,61046
10,56715,57623
10,57127,55645
10,57538,51104
10,57950,48611
10,58363,47909
10,58775,44305
10,59187,43921
10,59600,43975
10,60012,41315
10,60423,39289
10,60837,37765
10,61248,37904
10,61660,35819
10,62073,35894
10,62485,34771
10,62897,34460
10,63310,34379
10,63722,31518
10,64133,32262
10,64547,29573
10,64958,29349
10,65370,30027
10,65783,28911
10,66195,28349
10,66607,26604
10,67018,26498
10,67432,25790
10,67843,25872
10,68255,26549
10,68668,24920
10,69080,24681
10,69492,23920
10,69905,23007
10,70317,22936
10,70728,24162
10,71142,21020
10,71553,22040
10,71965,21950
10,72378,22197
10,72790,22879
10,73202,20931
10,73615,21545
10,74027,20348
10,74438,20206
10,74852,20093
10,75263,20144
10,75675,19645
10,76087,21499
10,76500,18594
10,76912,18074
10,77323,18095
10,77737,19575
10,78148,18978
10,78560,18901
10,78973,17986
10,79385,15825
10,79797,18301
10,80210,18473
10,80622,19323
10,81033,16533
10,81447,17729
10,81858,17940
10,82270,16764
10,82683,17978
10,83095,17346
10,83507,16406
10,83920,16681
10,84332,16279
10,84743,15410
10,85155,16184
10,85568,16960
10,85980,15132
10,86392,15777
10,86805,14518
10,87217,16150
10,87628,16340
10,88042,15015
10,88453,14711
10,88865,15241
10,89278,16369
10,89690,15253
10,90102,16655
10,90515,15337
10,90927,15404
10,91338,15114
10,91752,13324
10,92163,15741
10,92575,15787
10,92988,14670
10,93400,14083
10,93812,15249
10,94225,15302
10,94637,14033
10,95048,15055
10,95460,14457
10,95873,14630
10,96285,15388
10,96697,14443
10,97110,13898
10,97522,14232
10,97933,15853
10,98347,15448
10,98758,14943
10,99170,14965
10,99583,13454
10,99995,14331
11,00407,13919
11,00820,13396
11,01232,13765
11,01643,15521
11,02057,14080
11,02468,15507
11,02880,15545
11,03293,15767
11,03705,14383
11,04117,15070
11,04528,14705
11,04942,15167
11,05353,14456
11,05765,14783
11,06178,14239
11,06590,14339
11,07002,14533
11,07415,13264
11,07827,15180
11,08238,15419
11,08652,15143
11,09063,16406
11,09475,17015
11,09888,16040
11,10300,16095
11,10712,18606
11,11125,18364
11,11537,19405
11,11948,20422
11,12362,20531
11,12773,22459
11,13185,20789
11,13597,22416
11,14010,20531
11,14422,19929
11,14833,22163
11,15247,18962
11,15658,19070
11,16070,18287
11,16483,19502
11,16895,19250
11,17307,20506
11,17720,18317
11,18132,18477
11,18543,18574
11,18957,16269
11,19368,15064
11,19780,15455
11,20193,15177
11,20605,14900
11,21017,14522
11,21430,13971
11,21842,14809
11,22253,13262
11,22665,13744
11,23078,14369
11,23490,12962
11,23902,13187
11,24315,14138
11,24727,13764
11,25138,12764
11,25552,13425
11,25963,14331
11,26375,12175
11,26788,12296
11,27200,12711
11,27612,13297
11,28025,13110
11,28437,11310
11,28848,13356
11,29262,11435
11,29673,12130
11,30085,11626
11,30498,12154
11,30910,11989
11,31322,11171
11,31733,11773
11,32147,12408
11,32558,11686
11,32970,11950
11,33383,12410
11,33795,12034
11,34207,12567
11,34620,12324
11,35032,12575
11,35443,12355
11,35857,12374
11,36268,11853
11,36680,11285
11,37093,11470
11,37505,12797
11,37917,11761
11,38330,11608
11,38742,11795
11,39153,12316
11,39567,11850
11,39978,11587
11,40390,9871
11,40802,11585
11,41215,10779
11,41627,10686
11,42038,10572
11,42452,12037
11,42863,11779
11,43275,10714
11,43688,12197
11,44100,11073
11,44512,11143
11,44925,11928
11,45337,10746
11,45748,12119
11,46162,12237
11,46573,11053
11,46985,11038
11,47398,12094
11,47810,10747
11,48222,12036
11,48635,12138
11,49047,11617
11,49458,11221
11,49870,10954
11,50283,11853
11,50695,10783
11,51107,11469
11,51520,11520
11,51932,11969
11,52343,11777
11,52757,10644
11,53168,11267
11,53580,11077
11,53993,11641
11,54405,10960
11,54817,11625
11,55230,10258
11,55642,10158
11,56053,11297
11,56467,11022
11,56878,10578
11,57290,10658
11,57703,11319
11,58115,10895
11,58527,9965
11,58938,11811
11,59352,11666
11,59763,10278
11,60175,11113
11,60588,11137
11,61000,10840
11,61412,11104
11,61825,11163
11,62237,11520
11,62648,10515
11,63062,11536
11,63473,11693
11,63885,11914
11,64298,12558
11,64710,11626
11,65122,11072
11,65535,12414
11,65947,12296
11,66358,13451
11,66772,15477
11,67183,19154
11,67595,25729
11,68007,35760
11,68420,52652
11,68832,78313
11,69243,116528
11,69657,161193
11,70068,231926
11,70480,317757
11,70893,413282
11,71305,519450
11,71717,618792
11,72130,724225
11,72542,817538
11,72953,899051
11,73367,944249
11,73778,959687
11,74190,959772
11,74603,943037
11,75015,911929
11,75427,846631
11,75840,775908
11,76252,710239
11,76663,631438
11,77075,557892
11,77488,490837
11,77900,430814
11,78312,382135
11,78725,329940
11,79137,286477
11,79548,250456
11,79962,222333
11,80373,190284
11,80785,166331
11,81198,154263
11,81610,133567
11,82022,118325
11,82435,105390
11,82847,96097
11,83258,89933
11,83672,80804
11,84083,72979
11,84495,66998
11,84908,63661
11,85320,61370
11,85732,54265
11,86143,51870
11,86557,49102
11,86968,44317
11,87380,42514
11,87793,43367
11,88205,40026
11,88617,37280
11,89030,35813
11,89442,32500
11,89853,31541
11,90267,29782
11,90678,29612
11,91090,28910
11,91503,28574
11,91915,26171
11,92327,26416
11,92740,24907
11,93152,24524
11,93563,24210
11,93977,25263
11,94388,23062
11,94800,22533
11,95212,21068
11,95625,21767
11,96037,19040
11,96448,19531
11,96862,21678
11,97273,19386
11,97685,18394
11,98098,18385
11,98510,18070
11,98922,18670
11,99335,18329
11,99747,17964
12,00158,18117
12,00572,16023
12,00983,15847
12,01395,14797
12,01808,16232
12,02220,16913
12,02632,17016
12,03045,16163
12,03457,15214
12,03868,15474
12,04280,15518
12,04693,15422
12,05105,15442
12,05517,14616
12,05930,13983
12,06342,14319
12,06753,15294
12,07167,13346
12,07578,14636
12,07990,14042
12,08403,12672
12,08815,15092
12,09227,15300
12,09640,12628
12,10052,14006
12,10463,13261
12,10877,13587
12,11288,12758
12,11700,13517
12,12113,12910
12,12525,11211
12,12937,13693
12,13348,11993
12,13762,14775
12,14173,11926
12,14585,13255
12,14998,12312
12,15410,12668
12,15822,12016
12,16235,12516
12,16647,10941
12,17058,12786
12,17472,12160
12,17883,11078
12,18295,11471
12,18708,11964
12,19120,11924
12,19532,12035
12,19945,11413
12,20357,12294
12,20768,11477
12,21182,12189
12,21593,10979
12,22005,11261
12,22417,10994
12,22830,10641
12,23242,11660
12,23653,11689
12,24067,11726
12,24478,11287
12,24890,10156
12,25303,10897
12,25715,9457
12,26127,10124
12,26540,12575
12,26952,11255
12,27363,11473
12,27777,10645
12,28188,10485
12,28600,11240
12,29013,10820
12,29425,10929
12,29837,10917
12,30250,10381
12,30662,11187
12,31073,9541
12,31485,9316
12,31898,10601
12,32310,10466
12,32722,9994
12,33135,9733
12,33547,10365
12,33958,10507
12,34372,11054
12,34783,10607
12,35195,10798
12,35608,9868
12,36020,9927
12,36432,9886
12,36845,10403
12,37257,10160
12,37668,9992
12,38082,10061
12,38493,12218
12,38905,11325
12,39318,11366
12,39730,12243
12,40142,11633
12,40553,12618
12,40967,13918
12,41378,14050
12,41790,13664
12,42203,13725
12,42615,14107
12,43027,14478
12,43440,13393
12,43852,13718
12,44263,13311
12,44677,12640
12,45088,12159
12,45500,13064
12,45913,13254
12,46325,12092
12,46737,12056
12,47150,11868
12,47562,14098
12,47973,12389
12,48387,13713
12,48798,13147
12,49210,14094
12,49623,13881
12,50035,14876
12,50447,14683
12,50858,15523
12,51272,13133
12,51683,14807
12,52095,13316
12,52508,14089
12,52920,15133
12,53332,14755
12,53745,13091
12,54157,12041
12,54568,12254
12,54982,13196
12,55393,11369
12,55805,11271
12,56218,10978
12,56630,10860
12,57042,11258
12,57455,11141
12,57867,10046
12,58278,10863
12,58692,10335
12,59103,11531
12,59515,10231
12,59927,10273
12,60340,10890
12,60752,10820
12,61163,9551
12,61577,9202
12,61988,11615
12,62400,9124
12,62813,9420
12,63225,8690
12,63637,9392
12,64050,10206
12,64462,9864
12,64873,9275
12,65287,10287
12,65698,10344
12,66110,10264
12,66523,10043
12,66935,9519
12,67347,10057
12,67760,10015
12,68172,9339
12,68583,11115
12,68995,9650
12,69408,9898
12,69820,9141
12,70232,9321
12,70645,9841
12,71057,9361
12,71468,9981
12,71882,9430
12,72293,10246
12,72705,8646
12,73118,10078
12,73530,10157
12,73942,8973
12,74355,10281
12,74767,8993
12,75178,9891
12,75592,10259
12,76003,10662
12,76415,9966
12,76828,9841
12,77240,10014
12,77652,9714
12,78063,9693
12,78477,10741
12,78888,10047
12,79300,10056
12,79713,8919
12,80125,9690
12,80537,8878
12,80950,9743
12,81362,9431
12,81773,9642
12,82187,9591
12,82598,8943
12,83010,8748
12,83423,9745
12,83835,8395
12,84247,9484
12,84660,10026
12,85072,10304
12,85483,9687
12,85897,9818
12,86308,8301
12,86720,10048
12,87132,8385
12,87545,9997
12,87957,8228
12,88368,9365
12,88782,9049
12,89193,9907
12,89605,8538
12,90018,9198
12,90430,9455
12,90842,7876
12,91255,9148
12,91667,9433
12,92078,8660
12,92492,8085
12,92903,9706
12,93315,8980
12,93728,9278
12,94140,8339
12,94552,8537
12,94965,9422
12,95377,10008
12,95788,11122
12,96200,11245
12,96613,10846
12,97025,11552
12,97437,13248
12,97850,15027
12,98262,15510
12,98673,15622
12,99087,14754
12,99498,16577
12,99910,15508
13,00323,15796
13,00735,15908
13,01147,14347
13,01560,13859
13,01972,15528
13,02383,14728
13,02797,15138
13,03208,16887
13,03620,17430
13,04033,22205
13,04445,30592
13,04857,44683
13,05268,68780
13,05682,109708
13,06093,173247
13,06505,261927
13,06918,377991
13,07330,524385
13,07742,715244
13,08155,923432
13,08567,1167032
13,08978,1397143
13,09392,1644605
13,09803,1868722
13,10215,2023377
13,10628,2125667
13,11040,2155056
13,11452,2136694
13,11865,2064412
13,12277,1931246
13,12688,1781782
13,13102,1607357
13,13513,1428152
13,13925,1253656
13,14337,1083799
13,14750,932191
13,15162,800071
13,15573,686995
13,15987,591202
13,16398,511135
13,16810,437250
13,17223,387820
13,17635,336669
13,18047,302478
13,18460,261003
13,18872,239598
13,19283,217156
13,19697,193916
13,20108,177743
13,20520,162755
13,20933,147962
13,21345,136303
13,21757,125673
13,22170,118196
13,22582,109097
13,22993,103407
13,23405,95275
13,23818,89617
13,24230,82695
13,24642,80058
13,25055,74521
13,25467,68459
13,25878,66725
13,26292,63193
13,26703,58386
13,27115,56439
13,27528,55993
13,27940,49518
13,28352,50652
13,28765,45852
13,29177,44161
13,29588,44429
13,30002,40990
13,30413,40586
13,30825,37255
13,31238,39124
13,31650,34993
13,32062,34296
13,32473,33023
13,32887,30955
13,33298,31967
13,33710,30166
13,34123,30611
13,34535,31291
13,34947,28137
13,35360,26635
13,35772,26464
13,36183,25588
13,36597,23712
13,37008,25208
13,37420,22746
13,37833,22001
13,38245,22606
13,38657,21341
13,39070,22758
13,39482,21146
13,39893,21152
13,40307,20650
13,40718,19935
13,41130,19124
13,41542,18834
13,41955,19285
13,42367,17506
13,42778,17478
13,43192,18353
13,43603,17206
13,44015,17149
13,44428,16676
13,44840,15935
13,45252,17196
13,45665,15294
13,46077,15625
13,46488,16599
13,46902,17180
13,47313,16101
13,47725,16003
13,48138,16383
13,48550,13952
13,48962,16075
13,49375,13671
13,49787,14905
13,50198,13320
13,50610,15247
13,51023,14826
13,51435,15544
13,51847,13610
13,52260,14769
13,52672,15418
13,53083,13611
13,53497,13910
13,53908,14067
13,54320,14005
13,54733,13004
13,55145,13371
13,55557,12014
13,55970,12046
13,56382,12870
13,56793,11884
13,57207,12450
13,57618,12095
13,58030,12013
13,58443,10266
13,58855,11419
13,59267,10057
13,59678,11711
13,60092,10725
13,60503,10671
13,60915,10608
13,61328,10649
13,61740,12000
13,62152,10189
13,62565,11116
13,62977,10584
13,63388,10715
13,63802,10990
13,64213,10800
13,64625,10217
13,65038,10613
13,65450,10621
13,65862,9709
13,66275,9919
13,66687,9294
13,67098,9814
13,67512,10054
13,67923,11604
13,68335,12085
13,68747,9647
13,69160,10285
13,69572,10643
13,69983,10753
13,70397,9907
13,70808,9573
13,71220,10599
13,71633,9835
13,72045,9637
13,72457,11111
13,72870,10061
13,73282,9569
13,73693,10690
13,74107,10242
13,74518,10562
13,74930,9360
13,75343,10211
13,75755,10249
13,76167,10754
13,76580,10338
13,76992,10955
13,77403,12200
13,77815,12540
13,78228,12343
13,78640,12147
13,79052,11465
13,79465,13118
13,79877,11624
13,80288,12100
13,80702,12157
13,81113,11297
13,81525,11149
13,81938,12415
13,82350,10920
13,82762,10687
13,83175,10410
13,83587,10479
13,83998,9408
13,84412,8950
13,84823,9581
13,85235,10054
13,85648,9050
13,86060,8707
13,86472,9859
13,86883,10821
13,87297,8053
13,87708,9729
13,88120,9118
13,88533,9493
13,88945,9399
13,89357,9209
13,89770,8775
13,90182,8329
13,90593,8907
13,91007,7808
13,91418,8339
13,91830,9211
13,92243,8635
13,92655,7893
13,93067,9802
13,93480,8515
13,93892,8632
13,94303,9538
13,94717,8291
13,95128,9592
13,95540,8729
13,95952,8853
13,96365,9025
13,96777,9633
13,97188,8227
13,97602,9475
13,98013,8998
13,98425,8499
13,98838,9470
13,99250,9769
13,99662,10395
14,00075,13602
14,00487,17508
14,00898,25095
14,01312,32973
14,01723,54997
14,02135,81159
14,02548,121157
14,02960,178668
14,03372,246043
14,03785,336638
14,04197,431653
14,04608,538148
14,05020,659231
14,05433,772613
14,05845,858914
14,06257,927667
14,06670,977478
14,07082,988654
14,07493,980658
14,07907,945351
14,08318,890800
14,08730,811022
14,09143,737990
14,09555,662470
14,09967,590360
14,10380,514284
14,10792,448631
14,11203,387863
14,11617,340315
14,12028,289023
14,12440,249829
14,12853,222404
14,13265,194914
14,13677,174282
14,14090,151559
14,14502,139291
14,14913,124134
14,15325,109450
14,15738,101594
14,16150,92441
14,16562,84044
14,16975,78088
14,17387,72432
14,17798,65124
14,18212,61952
14,18623,57635
14,19035,54581
14,19448,49711
14,19860,47833
14,20272,45987
14,20685,43557
14,21097,40136
14,21508,40094
14,21922,36733
14,22333,34147
14,22745,34592
14,23158,31877
14,23570,31458
14,23982,32496
14,24393,32065
14,24807,32535
14,25218,33183
14,25630,31516
14,26043,33149
14,26455,32255
14,26867,32293
14,27280,31590
14,27692,32021
14,28103,28873
14,28517,28778
14,28928,27736
14,29340,26482
14,29753,25777
14,30165,23707
14,30577,23424
14,30990,22397
14,31402,20542
14,31813,19533
14,32227,18504
14,32638,18621
14,33050,16849
14,33462,17102
14,33875,15972
14,34287,16314
14,34698,15655
14,35112,15831
14,35523,14688
14,35935,13912
14,36348,12697
14,36760,13016
14,37172,13913
14,37585,13487
14,37997,14143
14,38408,12860
14,38822,12548
14,39233,12589
14,39645,12950
14,40058,13258
14,40470,11553
14,40882,13147
14,41295,13774
14,41707,16077
14,42118,21386
14,42530,30670
14,42943,42367
14,43355,62534
14,43767,97257
14,44180,142779
14,44592,211033
14,45003,298539
14,45417,397580
14,45828,523350
14,46240,640686
14,46653,786156
14,47065,907012
14,47477,1008556
14,47890,1088528
14,48302,1122617
14,48713,1135641
14,49127,1108999
14,49538,1056548
14,49950,965304
14,50363,882662
14,50775,784745
14,51187,700393
14,51598,605198
14,52012,517931
14,52423,451868
14,52835,386097
14,53248,328866
14,53660,284777
14,54072,244142
14,54485,217918
14,54897,188138
14,55308,166853
14,55722,149481
14,56133,133426
14,56545,119640
14,56958,104312
14,57370,96031
14,57782,85462
14,58195,82148
14,58607,75550
14,59018,69916
14,59432,63665
14,59843,59790
14,60255,57164
14,60667,54589
14,61080,49650
14,61492,47565
14,61903,45257
14,62317,40487
14,62728,40279
14,63140,38516
14,63553,35990
14,63965,34349
14,64377,34195
14,64790,32570
14,65202,30526
14,65613,29126
14,66027,26536
14,66438,25597
14,66850,25795
14,67263,25831
14,67675,24034
14,68087,23981
14,68500,22406
14,68912,22614
14,69323,22011
14,69735,20700
14,70148,19388
14,70560,19196
14,70972,19047
14,71385,18064
14,71797,17996
14,72208,18823
14,72622,17344
14,73033,18828
14,73445,17636
14,73858,16458
14,74270,16862
14,74682,16254
14,75095,14893
14,75507,15238
14,75918,16171
14,76332,14070
14,76743,14345
14,77155,14682
14,77568,14300
14,77980,13402
14,78392,13866
14,78803,12611
14,79217,13389
14,79628,13871
14,80040,13358
14,80453,12465
14,80865,11967
14,81277,14168
14,81690,11370
14,82102,10693
14,82513,12774
14,82927,13166
14,83338,11924
14,83750,12024
14,84163,13393
14,84575,11626
14,84987,14435
14,85400,11513
14,85812,13130
14,86223,11946
14,86637,12805
14,87048,12840
14,87460,12049
14,87872,10244
14,88285,12810
14,88697,12001
14,89108,12481
14,89522,11295
14,89933,11799
14,90345,11594
14,90758,11438
14,91170,11217
14,91582,11797
14,91995,9716
14,92407,11336
14,92818,10403
14,93232,10503
14,93643,10309
14,94055,10589
14,94468,9669
14,94880,9992
14,95292,9708
14,95705,10081
14,96117,10384
14,96528,10412
14,96940,9772
14,97353,10909
14,97765,10411
14,98177,9141
14,98590,11027
14,99002,9860
14,99413,11204
14,99827,9425
15,00238,10447
15,00650,9049
15,01063,9808
15,01475,9707
15,01887,9667
15,02300,8195
15,02712,8700
15,03123,9622
15,03537,9683
15,03948,9127
15,04360,8864
15,04773,9239
15,05185,10478
15,05597,8628
15,06008,9519
15,06422,8889
15,06833,9198
15,07245,9677
15,07658,8172
15,08070,8626
15,08482,7959
15,08895,9142
15,09307,9430
15,09718,9333
15,10132,9081
15,10543,8566
15,10955,9592
15,11368,8398
15,11780,8539
15,12192,7838
15,12605,8987
15,13017,8577
15,13428,6954
15,13842,9120
15,14253,8730
15,14665,8090
15,15077,7189
15,15490,8483
15,15902,8407
15,16313,7696
15,16727,7719
15,17138,7689
15,17550,8055
15,17963,8380
15,18375,8298
15,18787,9163
15,19200,8728
15,19612,9784
15,20023,8718
15,20437,8596
15,20848,8903
15,21260,7386
15,21673,8762
15,22085,8570
15,22497,9327
15,22910,8429
15,23322,8195
15,23733,8947
15,24145,8109
15,24558,7882
15,24970,6979
15,25382,8350
15,25795,8605
15,26207,9551
15,26618,7205
15,27032,7888
15,27443,8453
15,27855,8250
15,28268,8955
15,28680,7534
15,29092,8022
15,29505,7668
15,29917,8303
15,30328,8390
15,30742,8423
15,31153,8167
15,31565,8033
15,31978,8694
15,32390,7926
15,32802,7987
15,33213,7550
15,33627,8409
15,34038,7611
15,34450,9831
15,34863,8782
15,35275,8323
15,35687,8244
15,36100,9666
15,36512,8844
15,36923,9282
15,37337,9958
15,37748,10660
15,38160,13997
15,38573,18404
15,38985,26945
15,39397,40742
15,39810,60404
15,40222,95236
15,40633,142791
15,41047,208711
15,41458,289075
15,41870,390611
15,42282,501130
15,42695,617627
15,43107,733738
15,43518,841076
15,43932,939375
15,44343,999768
15,44755,1035299
15,45168,1043657
15,45580,1020774
15,45992,974656
15,46405,907812
15,46817,827242
15,47228,737969
15,47642,655365
15,48053,570950
15,48465,498327
15,48878,432101
15,49290,379980
15,49702,324606
15,50115,279609
15,50527,242988
15,50938,213715
15,51350,185230
15,51763,169509
15,52175,146105
15,52587,130277
15,53000,116994
15,53412,106099
15,53823,97312
15,54237,89113
15,54648,82729
15,55060,74811
15,55473,71403
15,55885,64697
15,56297,57745
15,56710,56558
15,57122,52403
15,57533,51301
15,57947,45094
15,58358,43052
15,58770,39845
15,59183,37940
15,59595,35409
15,60007,34456
15,60418,34404
15,60832,32617
15,61243,31265
15,61655,28354
15,62068,27817
15,62480,27595
15,62892,25593
15,63305,23917
15,63717,24440
15,64128,23554
15,64542,24222
15,64953,23512
15,65365,20562
15,65778,22672
15,66190,20745
15,66602,19188
15,67015,18603
15,67427,18918
15,67838,17125
15,68252,17175
15,68663,18405
15,69075,17846
15,69487,15974
15,69900,14587
15,70312,15602
15,70723,13797
15,71137,14851
15,71548,15192
15,71960,13578
15,72373,15051
15,72785,14038
15,73197,13295
15,73610,14137
15,74022,12412
15,74433,11966
15,74847,12574
15,75258,12909
15,75670,13196
15,76083,11808
15,76495,12542
15,76907,14287
15,77320,16295
15,77732,21671
15,78143,29591
15,78557,46046
15,78968,74777
15,79380,120213
15,79792,192061
15,80205,295984
15,80617,436794
15,81028,634661
15,81442,889009
15,81853,1178953
15,82265,1520299
15,82678,1895422
15,83090,2290923
15,83502,2673320
15,83915,3046043
15,84327,3337258
15,84738,3558659
15,85152,3663650
15,85563,3632903
15,85975,3486861
15,86388,3242691
15,86800,2946358
15,87212,2620804
15,87625,2300244
15,88037,1969009
15,88448,1695144
15,88860,1433407
15,89273,1224955
15,89685,1046408
15,90097,892543
15,90510,767398
15,90922,664292
15,91333,586060
15,91747,517618
15,92158,451924
15,92570,402366
15,92983,362991
15,93395,327352
15,93807,294231
15,94220,266698
15,94632,242278
15,95043,219467
15,95457,207859
15,95868,189056
15,96280,175128
15,96693,163542
15,97105,151514
15,97517,142842
15,97928,129956
15,98342,122247
15,98753,116419
15,99165,108530
15,99578,104894
15,99990,95823
16,00402,93065
16,00815,85830
16,01227,81489
16,01638,77964
16,02052,75532
16,02463,71398
16,02875,69924
16,03288,65756
16,03700,62811
16,04112,59843
16,04525,58950
16,04937,53026
16,05348,52700
16,05762,49665
16,06173,48604
16,06585,46598
16,06997,44931
16,07410,43413
16,07822,41106
16,08233,40284
16,08647,39688
16,09058,36030
16,09470,37359
16,09883,32953
16,10295,33624
16,10707,33176
16,11120,31730
16,11532,31313
16,11943,30520
16,12357,29023
16,12768,28473
16,13180,27796
16,13593,26145
16,14005,26910
16,14417,24978
16,14830,25056
16,15242,25370
16,15653,24652
16,16065,23045
16,16478,21946
16,16890,22885
16,17302,21818
16,17715,23671
16,18127,19988
16,18538,19366
16,18952,21279
16,19363,19470
16,19775,20651
16,20188,18160
16,20600,17674
16,21012,19367
16,21425,18048
16,21837,18482
16,22248,17040
16,22662,17622
16,23073,17537
16,23485,17149
16,23898,16334
16,24310,17399
16,24722,15830
16,25133,15723
16,25547,16299
16,25958,14813
16,26370,14207
16,26783,13860
16,27195,14112
16,27607,13329
16,28020,15399
16,28432,13767
16,28843,15102
16,29257,14662
16,29668,12870
16,30080,12656
16,30493,13770
16,30905,13954
16,31317,13434
16,31730,13234
16,32142,13568
16,32553,13965
16,32967,13557
16,33378,14117
16,33790,13032
16,34202,12743
16,34615,13447
16,35027,13651
16,35438,13599
16,35852,12092
16,36263,13539
16,36675,13186
16,37088,13469
16,37500,12992
16,37912,12479
16,38325,11904
16,38737,13039
16,39148,11829
16,39562,12903
16,39973,11637
16,40385,11908
16,40798,12430
16,41210,10488
16,41622,10622
16,42035,9825
16,42447,10429
16,42858,10357
16,43270,11765
16,43683,10754
16,44095,10745
16,44507,10886
16,44920,12184
16,45332,10527
16,45743,11097
16,46157,10418
16,46568,12320
16,46980,12438
16,47393,15521
16,47805,13980
16,48217,16169
16,48630,16804
16,49042,16999
16,49453,18885
16,49867,20747
16,50278,20581
16,50690,19435
16,51103,21538
16,51515,21721
16,51927,22305
16,52338,22114
16,52752,22732
16,53163,21110
16,53575,20874
16,53988,19090
16,54400,18220
16,54812,18669
16,55225,19725
16,55637,21175
16,56048,25080
16,56462,36436
16,56873,48271
16,57285,72592
16,57698,105076
16,58110,158644
16,58522,222858
16,58935,307731
16,59347,417423
16,59758,525216
16,60172,648623
16,60583,780722
16,60995,897878
16,61407,995181
16,61820,1050492
16,62232,1081649
16,62643,1084329
16,63057,1049291
16,63468,993358
16,63880,921068
16,64293,840941
16,64705,738668
16,65117,646799
16,65530,563642
16,65942,486526
16,66353,427727
16,66767,361552
16,67178,315405
16,67590,270841
16,68003,239052
16,68415,209365
16,68827,185437
16,69240,164567
16,69652,151300
16,70063,133696
16,70475,118585
16,70888,109635
16,71300,98825
16,71712,93550
16,72125,85636
16,72537,78921
16,72948,71773
16,73362,64164
16,73773,63944
16,74185,59202
16,74598,56049
16,75010,51983
16,75422,49555
16,75835,46201
16,76247,43727
16,76658,43044
16,77072,41477
16,77483,40179
16,77895,40477
16,78308,40715
16,78720,38763
16,79132,38744
16,79543,36071
16,79957,37002
16,80368,35817
16,80780,33131
16,81193,33866
16,81605,30746
16,82017,30800
16,82430,30842
16,82842,27718
16,83253,27546
16,83667,25705
16,84078,24746
16,84490,24855
16,84903,24009
16,85315,23131
16,85727,22090
16,86140,20684
16,86552,20271
16,86963,19771
16,87377,21538
16,87788,18482
16,88200,19159
16,88612,16524
16,89025,15812
16,89437,15257
16,89848,18049
16,90262,16283
16,90673,16373
16,91085,16257
16,91498,14677
16,91910,13588
16,92322,14450
16,92735,13916
16,93147,13992
16,93558,11907
16,93972,14612
16,94383,14739
16,94795,13312
16,95208,13057
16,95620,13524
16,96032,12511
16,96445,12665
16,96857,12982
16,97268,12033
16,97680,12077
16,98093,12119
16,98505,12551
16,98917,11549
16,99330,11919
16,99742,11255
17,00153,11351
17,00567,12104
17,00978,12043
17,01390,11566
17,01803,11386
17,02215,11310
17,02627,11820
17,03040,10104
17,03452,11577
17,03863,10728
17,04277,11824
17,04688,10300
17,05100,10005
17,05513,10585
17,05925,10583
17,06337,11241
17,06748,10790
17,07162,10999
17,07573,10434
17,07985,9476
17,08398,10072
17,08810,9612
17,09222,10253
17,09635,10617
17,10047,11006
17,10458,11144
17,10872,14402
17,11283,19908
17,11695,26305
17,12108,41990
17,12520,66005
17,12932,101299
17,13345,154165
17,13757,226711
17,14168,321181
17,14582,439547
17,14993,574577
17,15405,724374
17,15817,875209
17,16230,1016016
17,16642,1125372
17,17053,1210122
17,17467,1261138
17,17878,1260415
17,18290,1220205
17,18703,1155243
17,19115,1062326
17,19527,951471
17,19940,839940
17,20352,740156
17,20763,643774
17,21177,553970
17,21588,471671
17,22000,406547
17,22413,354277
17,22825,299813
17,23237,263346
17,23650,230251
17,24062,198439
17,24473,180381
17,24885,158108
17,25298,142955
17,25710,126171
17,26122,116021
17,26535,107637
17,26947,95148
17,27358,87903
17,27772,81426
17,28183,75113
17,28595,72429
17,29008,66774
17,29420,62063
17,29832,57147
17,30245,55235
17,30657,52423
17,31068,49589
17,31482,49620
17,31893,45183
17,32305,40264
17,32718,43086
17,33130,41452
17,33542,37786
17,33953,37008
17,34367,36062
17,34778,33365
17,35190,33012
17,35603,31158
17,36015,31186
17,36427,28511
17,36840,26428
17,37252,26510
17,37663,26122
17,38077,23305
17,38488,24534
17,38900,22275
17,39313,22669
17,39725,20842
17,40137,21261
17,40550,20575
17,40962,20692
17,41373,19615
17,41787,18629
17,42198,19078
17,42610,17404
17,43023,17306
17,43435,17232
17,43847,16181
17,44258,15993
17,44672,16215
17,45083,15082
17,45495,16469
17,45908,14144
17,46320,15544
17,46732,15273
17,47145,13433
17,47557,15899
17,47968,14266
17,48382,13150
17,48793,13218
17,49205,14587
17,49618,13772
17,50030,13455
17,50442,13292
17,50855,12397
17,51267,12620
17,51678,13717
17,52092,12398
17,52503,11237
17,52915,12575
17,53327,13159
17,53740,11403
17,54152,11504
17,54563,11336
17,54977,12083
17,55388,11330
17,55800,11844
17,56213,11120
17,56625,11477
17,57037,11910
17,57450,11689
17,57862,11597
17,58273,12653
17,58687,11566
17,59098,10511
17,59510,11136
17,59923,10409
17,60335,9965
17,60747,10493
17,61160,11315
17,61572,12446
17,61983,10790
17,62395,12561
17,62808,11446
17,63220,10832
17,63632,10855
17,64045,11786
17,64457,10910
17,64868,10661
17,65282,10990
17,65693,11728
17,66105,10737
17,66518,12084
17,66930,10796
17,67342,9139
17,67755,10957
17,68167,10498
17,68578,10626
17,68992,10681
17,69403,9574
17,69815,10665
17,70228,8999
17,70640,9005
17,71052,9903
17,71463,8673
17,71877,11339
17,72288,10685
17,72700,9365
17,73113,8864
17,73525,11344
17,73937,9058
17,74350,8975
17,74762,8464
17,75173,10009
17,75587,10048
17,75998,9814
17,76410,9022
17,76823,8659
17,77235,9139
17,77647,9719
17,78060,8489
17,78472,9036
17,78883,9622
17,79297,8668
17,79708,8597
17,80120,9650
17,80532,8798
17,80945,8577
17,81357,9832
17,81768,9416
17,82182,9602
17,82593,8446
17,83005,8138
17,83418,9489
17,83830,8198
17,84242,8847
17,84655,8859
17,85067,7670
17,85478,10347
17,85892,11195
17,86303,10342
17,86715,12816
17,87128,13716
17,87540,16621
17,87952,25236
17,88365,35525
17,88777,56311
17,89188,84634
17,89600,128511
17,90013,190689
17,90425,273125
17,90837,376741
17,91250,495695
17,91662,632037
17,92073,764459
17,92487,897867
17,92898,1007640
17,93310,1096543
17,93723,1150456
17,94135,1167730
17,94547,1154700
17,94960,1104536
17,95372,1032746
17,95783,951828
17,96197,855480
17,96608,753966
17,97020,654344
17,97433,573163
17,97845,494320
17,98257,425822
17,98668,370228
17,99082,318344
17,99493,274562
17,99905,247271
18,00318,216253
18,00730,188660
18,01142,174037
18,01555,152631
18,01967,140008
18,02378,124890
18,02792,117852
18,03203,109407
18,03615,103259
18,04028,96833
18,04440,94732
18,04852,88969
18,05265,83912
18,05677,82548
18,06088,77798
18,06502,75711
18,06913,75165
18,07325,70424
18,07737,68394
18,08150,63013
18,08562,60425
18,08973,60260
18,09387,52970
18,09798,52688
18,10210,46474
18,10623,45085
18,11035,41517
18,11447,39132
18,11860,38199
18,12272,35494
18,12683,35203
18,13097,33198
18,13508,31458
18,13920,30088
18,14333,30380
18,14745,27750
18,15157,26395
18,15570,24959
18,15982,25300
18,16393,23270
18,16805,22665
18,17218,22151
18,17630,21171
18,18042,19973
18,18455,19570
18,18867,20560
18,19278,19912
18,19692,18196
18,20103,18714
18,20515,18218
18,20928,16861
18,21340,15509
18,21752,16890
18,22165,15279
18,22577,15046
18,22988,16494
18,23402,15176
18,23813,15509
18,24225,15515
18,24638,14424
18,25050,14290
18,25462,13346
18,25873,14635
18,26287,14645
18,26698,13053
18,27110,12296
18,27523,13224
18,27935,12452
18,28347,13005
18,28760,12053
18,29172,11982
18,29583,12740
18,29997,11662
18,30408,11927
18,30820,11590
18,31233,12675
18,31645,11037
18,32057,12590
18,32470,13187
18,32882,12303
18,33293,11835
18,33707,11122
18,34118,10923
18,34530,12206
18,34942,11956
18,35355,11531
18,35767,12120
18,36178,11721
18,36592,10655
18,37003,11834
18,37415,11556
18,37828,11366
18,38240,11332
18,38652,11794
18,39065,12422
18,39477,12195
18,39888,13808
18,40302,18834
18,40713,25625
18,41125,36906
18,41538,57453
18,41950,88670
18,42362,143226
18,42775,224860
18,43187,324519
18,43598,470056
18,44010,644235
18,44423,865108
18,44835,1126498
18,45247,1421479
18,45660,1714637
18,46072,2021502
18,46483,2297553
18,46897,2511942
18,47308,2690745
18,47720,2775824
18,48133,2751772
18,48545,2648850
18,48957,2486530
18,49370,2257427
18,49782,2008576
18,50193,1746716
18,50607,1505839
18,51018,1299076
18,51430,1105281
18,51843,943445
18,52255,809730
18,52667,699188
18,53078,599882
18,53492,526864
18,53903,463277
18,54315,409642
18,54728,366430
18,55140,322338
18,55552,291148
18,55965,264580
18,56377,239860
18,56788,218852
18,57202,197606
18,57613,178390
18,58025,171162
18,58438,157382
18,58850,143904
18,59262,134966
18,59675,128248
18,60087,115200
18,60498,109186
18,60912,103044
18,61323,94667
18,61735,91638
18,62147,88676
18,62560,82777
18,62972,76819
18,63383,71791
18,63797,70800
18,64208,67568
18,64620,64392
18,65033,60630
18,65445,56764
18,65857,55998
18,66270,51303
18,66682,50416
18,67093,47849
18,67507,48154
18,67918,44542
18,68330,43905
18,68743,42645
18,69155,41106
18,69567,38849
18,69980,37222
18,70392,34933
18,70803,38146
18,71215,34062
18,71628,33831
18,72040,34125
18,72452,32238
18,72865,31989
18,73277,30290
18,73688,28511
18,74102,28551
18,74513,27633
18,74925,26121
18,75338,25809
18,75750,24331
18,76162,24123
18,76575,24501
18,76987,23352
18,77398,22476
18,77812,21903
18,78223,21707
18,78635,22045
18,79048,21475
18,79460,19721
18,79872,19345
18,80283,19477
18,80697,19576
18,81108,18599
18,81520,18823
18,81933,18339
18,82345,19287
18,82757,20560
18,83170,22569
18,83582,27186
18,83993,35537
18,84407,49287
18,84818,70757
18,85230,103965
18,85643,153874
18,86055,216188
18,86467,309490
18,86880,417573
18,87292,542574
18,87703,686826
18,88117,830472
18,88528,982802
18,88940,1119903
18,89352,1191028
18,89765,1251753
18,90177,1268836
18,90588,1250123
18,91002,1206409
18,91413,1130476
18,91825,1032968
18,92238,920257
18,92650,813741
18,93062,717455
18,93475,630594
18,93887,544037
18,94298,468913
18,94712,402625
18,95123,353909
18,95535,305003
18,95948,269233
18,96360,237919
18,96772,211407
18,97185,189693
18,97597,171576
18,98008,152824
18,98420,138644
18,98833,128561
18,99245,116433
18,99657,109714
19,00070,96809
19,00482,91756
19,00893,86242
19,01307,80570
19,01718,75183
19,02130,69222
19,02543,66471
19,02955,62883
19,03367,61232
19,03780,61263
19,04192,60483
19,04603,64446
19,05017,70927
19,05428,90144
19,05840,117023
19,06253,157622
19,06665,220372
19,07077,320110
19,07490,441513
19,07902,603457
19,08313,822746
19,08725,1064561
19,09138,1344257
19,09550,1639779
19,09962,1919336
19,10375,2142551
19,10787,2332603
19,11198,2500037
19,11612,2573528
19,12023,2587967
19,12435,2494413
19,12848,2332585
19,13260,2120869
19,13672,1915500
19,14085,1685568
19,14497,1483692
19,14908,1275526
19,15322,1105289
19,15733,945381
19,16145,817663
19,16558,708659
19,16970,620557
19,17382,542924
19,17793,473532
19,18207,423456
19,18618,374407
19,19030,339856
19,19443,304560
19,19855,272920
19,20267,254198
19,20680,232656
19,21092,211874
19,21503,197702
19,21917,175678
19,22328,170786
19,22740,158791
19,23153,147019
19,23565,134445
19,23977,129021
19,24390,119741
19,24802,112751
19,25213,106630
19,25627,99592
19,26038,93386
19,26450,92924
19,26862,87655
19,27275,80991
19,27687,76853
19,28098,74335
19,28512,70110
19,28923,65059
19,29335,64263
19,29748,61168
19,30160,57275
19,30572,56011
19,30985,54661
19,31397,52496
19,31808,50713
19,32222,49337
19,32633,46472
19,33045,46843
19,33458,42506
19,33870,42750
19,34282,41008
19,34695,41435
19,35107,38059
19,35518,38767
19,35930,38838
19,36343,34287
19,36755,35127
19,37167,33403
19,37580,32390
19,37992,32930
19,38403,30837
19,38817,30957
19,39228,28202
19,39640,28935
19,40053,27354
19,40465,24988
19,40877,26282
19,41290,27293
19,41702,25663
19,42113,24901
19,42527,25324
19,42938,24739
19,43350,23176
19,43763,23628
19,44175,23323
19,44587,23428
19,44998,21733
19,45412,20648
19,45823,23292
19,46235,20457
19,46648,19277
19,47060,19457
19,47472,20863
19,47885,18680
19,48297,20248
19,48708,18884
19,49122,19088
19,49533,19060
19,49945,19804
19,50358,19367
19,50770,20320
19,51182,19357
19,51595,18932
19,52007,18232
19,52418,17969
19,52832,19138
19,53243,17797
19,53655,17601
19,54067,16867
19,54480,19042
19,54892,18078
19,55303,18263
19,55717,19185
19,56128,21629
19,56540,24896
19,56953,30340
19,57365,41632
19,57777,58861
19,58190,86213
19,58602,121487
19,59013,181478
19,59427,256724
19,59838,355521
19,60250,467928
19,60663,589566
19,61075,723481
19,61487,859103
19,61900,981741
19,62312,1055991
19,62723,1112118
19,63135,1131827
19,63548,1122800
19,63960,1067257
19,64372,1009733
19,64785,922027
19,65197,832762
19,65608,755616
19,66022,676293
19,66433,619986
19,66845,578103
19,67258,566168
19,67670,573136
19,68082,620740
19,68495,708388
19,68907,863872
19,69318,1046142
19,69732,1274393
19,70143,1537204
19,70555,1828985
19,70968,2124451
19,71380,2406550
19,71792,2625440
19,72203,2811007
19,72617,2912245
19,73028,2905477
19,73440,2784092
19,73853,2602500
19,74265,2363673
19,74677,2105510
19,75090,1849743
19,75502,1592181
19,75913,1373186
19,76327,1185397
19,76738,1011493
19,77150,874843
19,77563,754698
19,77975,662987
19,78387,580642
19,78800,519186
19,79212,459658
19,79623,413836
19,80037,362506
19,80448,330738
19,80860,303530
19,81272,279063
19,81685,253231
19,82097,237770
19,82508,218698
19,82922,205695
19,83333,189292
19,83745,172673
19,84158,161490
19,84570,152632
19,84982,146609
19,85395,140015
19,85807,131979
19,86218,124526
19,86632,118070
19,87043,110976
19,87455,105552
19,87868,98441
19,88280,94657
19,88692,93404
19,89105,89195
19,89517,84702
19,89928,80239
19,90340,78725
19,90753,72194
19,91165,68312
19,91577,64387
19,91990,67424
19,92402,62417
19,92813,60057
19,93227,57617
19,93638,54337
19,94050,53320
19,94463,50550
19,94875,50407
19,95287,49427
19,95700,48194
19,96112,48266
19,96523,44162
19,96937,46721
19,97348,43549
19,97760,43427
19,98173,41783
19,98585,41955
19,98997,40018
19,99408,39377
19,99822,36697
20,00233,38095
20,00645,36661
20,01058,34058
20,01470,35812
20,01882,33719
20,02295,33854
20,02707,31049
20,03118,31734
20,03532,33068
20,03943,33040
20,04355,32869
20,04768,31689
20,05180,34497
20,05592,42810
20,06005,50638
20,06417,65766
20,06828,88643
20,07242,126507
20,07653,180852
20,08065,248648
20,08477,339336
20,08890,449925
20,09302,562286
20,09713,681059
20,10127,809347
20,10538,917271
20,10950,1008206
20,11363,1067049
20,11775,1089727
20,12187,1079777
20,12600,1049346
20,13012,985038
20,13423,919363
20,13837,826993
20,14248,744437
20,14660,669918
20,15073,575317
20,15485,505825
20,15897,439108
20,16310,381841
20,16722,335133
20,17133,295742
20,17545,255631
20,17958,232117
20,18370,204012
20,18782,179882
20,19195,165438
20,19607,146778
20,20018,138407
20,20432,125492
20,20843,114705
20,21255,107238
20,21668,99168
20,22080,91511
20,22492,87274
20,22905,77969
20,23317,75278
20,23728,70911
20,24142,65491
20,24553,63632
20,24965,61557
20,25378,55512
20,25790,53781
20,26202,50107
20,26613,51263
20,27027,48063
20,27438,48608
20,27850,41838
20,28263,42775
20,28675,42736
20,29087,38592
20,29500,38922
20,29912,36938
20,30323,34724
20,30737,36806
20,31148,33826
20,31560,35176
20,31973,33602
20,32385,33160
20,32797,30743
20,33210,32015
20,33622,32231
20,34033,30709
20,34447,29591
20,34858,29166
20,35270,27775
20,35682,25486
20,36095,26638
20,36507,26364
20,36918,26222
20,37332,25417
20,37743,24168
20,38155,23425
20,38568,23714
20,38980,23019
20,39392,21114
20,39805,21849
20,40217,20661
20,40628,20947
20,41042,19207
20,41453,19099
20,41865,20181
20,42278,21034
20,42690,19672
20,43102,19430
20,43515,19057
20,43927,19100
20,44338,18353
20,44750,19239
20,45163,17474
20,45575,16571
20,45987,17059
20,46400,17376
20,46812,17687
20,47223,17134
20,47637,16137
20,48048,17683
20,48460,16569
20,48873,16280
20,49285,14603
20,49697,14975
20,50110,15776
20,50522,15835
20,50933,15423
20,51347,15380
20,51758,14824
20,52170,15477
20,52583,15170
20,52995,15279
20,53407,14137
20,53818,13919
20,54232,14188
20,54643,15360
20,55055,16307
20,55468,14285
20,55880,14390
20,56292,14962
20,56705,14287
20,57117,12876
20,57528,13423
20,57942,14849
20,58353,12279
20,58765,13661
20,59178,12587
20,59590,14590
20,60002,14167
20,60415,12662
20,60827,12679
20,61238,13152
20,61652,14561
20,62063,13663
20,62475,13607
20,62887,12863
20,63300,12745
20,63712,14408
20,64123,12232
20,64537,13075
20,64948,13415
20,65360,12546
20,65773,13302
20,66185,12407
20,66597,12487
20,67010,10921
20,67422,13808
20,67833,12142
20,68247,11507
20,68658,11862
20,69070,12669
20,69483,12504
20,69895,12289
20,70307,10640
20,70720,11457
20,71132,11513
20,71543,11235
20,71955,12086
20,72368,12154
20,72780,11929
20,73192,11096
20,73605,13413
20,74017,12327
20,74428,12858
20,74842,11554
20,75253,14167
20,75665,15181
20,76078,23289
20,76490,29012
20,76902,43933
20,77315,65973
20,77727,95199
20,78138,143209
20,78552,197825
20,78963,279428
20,79375,365204
20,79788,469044
20,80200,574674
20,80612,679137
20,81025,781377
20,81437,850886
20,81848,908285
20,82260,944355
20,82673,937247
20,83085,908340
20,83497,859007
20,83910,793306
20,84322,721274
20,84733,639757
20,85147,571202
20,85558,504830
20,85970,446561
20,86383,400775
20,86795,361468
20,87207,337603
20,87620,326244
20,88032,325928
20,88443,367442
20,88857,423016
20,89268,516912
20,89680,643348
20,90093,813879
20,90505,1026345
20,90917,1287677
20,91328,1582935
20,91742,1898491
20,92153,2238389
20,92565,2539853
20,92978,2829565
20,93390,3030855
20,93802,3174432
20,94215,3172759
20,94627,3104940
20,95038,2931814
20,95452,2692475
20,95863,2417279
20,96275,2127190
20,96688,1855990
20,97100,1596893
20,97512,1379869
20,97925,1185294
20,98337,1014449
20,98748,880138
20,99162,772060
20,99573,673255
20,99985,603549
21,00397,535866
21,00810,476438
21,01222,423089
21,01633,387481
21,02047,345755
21,02458,326489
21,02870,298137
21,03283,270459
21,03695,252264
21,04107,232361
21,04520,217000
21,04932,203472
21,05343,191573
21,05757,175208
21,06168,167999
21,06580,159537
21,06993,145902
21,07405,140666
21,07817,133402
21,08230,125667
21,08642,118680
21,09053,114248
21,09465,109034
21,09878,106414
21,10290,97147
21,10702,94344
21,11115,90191
21,11527,87918
21,11938,82678
21,12352,81024
21,12763,78163
21,13175,75057
21,13588,72270
21,14000,73846
21,14412,67666
21,14825,66220
21,15237,62127
21,15648,59889
21,16062,58644
21,16473,55458
21,16885,55239
21,17298,51738
21,17710,52619
21,18122,50025
21,18533,50730
21,18947,49126
21,19358,47396
21,19770,47088
21,20183,45008
21,20595,46161
21,21007,48701
21,21420,51931
21,21832,59414
21,22243,72442
21,22657,88732
21,23068,122415
21,23480,156805
21,23893,218374
21,24305,291817
21,24717,374526
21,25130,475816
21,25542,576994
21,25953,680743
21,26367,770513
21,26778,852341
21,27190,899258
21,27602,936466
21,28015,948702
21,28427,928902
21,28838,876061
21,29252,815276
21,29663,747048
21,30075,677878
21,30488,605881
21,30900,531647
21,31312,473186
21,31725,410000
21,32137,364190
21,32548,320461
21,32962,281562
21,33373,246703
21,33785,216143
21,34198,198436
21,34610,179284
21,35022,162048
21,35435,149884
21,35847,131935
21,36258,126281
21,36670,114815
21,37083,103238
21,37495,98555
21,37907,90779
21,38320,85467
21,38732,78428
21,39143,75853
21,39557,71847
21,39968,67985
21,40380,62430
21,40793,62157
21,41205,58497
21,41617,56026
21,42030,53821
21,42442,53065
21,42853,50471
21,43267,48038
21,43678,47247
21,44090,45403
21,44503,41715
21,44915,41222
21,45327,40690
21,45738,41788
21,46152,42843
21,46563,42025
21,46975,47625
21,47388,55053
21,47800,64248
21,48212,83734
21,48625,123517
21,49037,171163
21,49448,239833
21,49862,327751
21,50273,435265
21,50685,571270
21,51098,719251
21,51510,887139
21,51922,1041118
21,52335,1187147
21,52747,1292797
21,53158,1373737
21,53572,1413780
21,53983,1398801
21,54395,1349092
21,54807,1273545
21,55220,1179638
21,55632,1060373
21,56043,954361
21,56457,835949
21,56868,729307
21,57280,637296
21,57693,550927
21,58105,486179
21,58517,427855
21,58930,378549
21,59342,332019
21,59753,296637
21,60167,265523
21,60578,239775
21,60990,218745
21,61403,200045
21,61815,181769
21,62227,168896
21,62640,155428
21,63052,145536
21,63463,136264
21,63875,123163
21,64288,117045
21,64700,110096
21,65112,103874
21,65525,97598
21,65937,91340
21,66348,86989
21,66762,80620
21,67173,77913
21,67585,73315
21,67998,69343
21,68410,68635
21,68822,63510
21,69235,63363
21,69647,58716
21,70058,57522
21,70472,55866
21,70883,53005
21,71295,50136
21,71708,47194
21,72120,48493
21,72532,46110
21,72943,44216
21,73357,43169
21,73768,41792
21,74180,37945
21,74593,38739
21,75005,38833
21,75417,37544
21,75830,36131
21,76242,36338
21,76653,33387
21,77067,33201
21,77478,33643
21,77890,33011
21,78303,31744
21,78715,31414
21,79127,29456
21,79540,29454
21,79952,28389
21,80363,29122
21,80777,26963
21,81188,28558
21,81600,27983
21,82012,27365
21,82425,25619
21,82837,25681
21,83248,25839
21,83662,22813
21,84073,24260
21,84485,23345
21,84898,23681
21,85310,22581
21,85722,23283
21,86135,22304
21,86547,22015
21,86958,23053
21,87372,22445
21,87783,23666
21,88195,20567
21,88608,21460
21,89020,20111
21,89432,19424
21,89845,20353
21,90257,20470
21,90668,19295
21,91080,19870
21,91493,19314
21,91905,19755
21,92317,19355
21,92730,18822
21,93142,19281
21,93553,17417
21,93967,18685
21,94378,18953
21,94790,18808
21,95203,20354
21,95615,18049
21,96027,18537
21,96440,18347
21,96852,17500
21,97263,17669
21,97677,18311
21,98088,18129
21,98500,19558
21,98913,16924
21,99325,17207
21,99737,18311
22,00148,18200
22,00562,17046
22,00973,17892
22,01385,17311
22,01798,18196
22,02210,19228
22,02622,24043
22,03035,25148
22,03447,32681
22,03858,44429
22,04272,67583
22,04683,101904
22,05095,150675
22,05508,223155
22,05920,319586
22,06332,436390
22,06745,591427
22,07157,772731
22,07568,956201
22,07982,1131753
22,08393,1314733
22,08805,1452733
22,09217,1559323
22,09630,1612988
22,10042,1602221
22,10453,1546312
22,10867,1439623
22,11278,1315077
22,11690,1193673
22,12103,1058496
22,12515,925630
22,12927,802720
22,13340,696477
22,13752,605098
22,14163,522881
22,14577,460150
22,14988,410029
22,15400,355585
22,15813,322310
22,16225,289268
22,16637,259487
22,17050,237035
22,17462,214375
22,17873,195936
22,18285,178537
22,18698,167942
22,19110,152103
22,19522,148246
22,19935,135199
22,20347,124560
22,20758,118770
22,21172,112000
22,21583,103104
22,21995,99173
22,22408,95884
22,22820,93288
22,23232,87142
22,23645,83492
22,24057,76829
22,24468,77290
22,24882,74592
22,25293,70486
22,25705,67974
22,26118,65805
22,26530,62557
22,26942,58685
22,27355,57713
22,27767,55272
22,28178,55119
22,28590,51090
22,29003,49466
22,29415,46484
22,29827,44112
22,30240,44626
22,30652,42475
22,31063,42881
22,31477,40114
22,31888,41394
22,32300,39986
22,32713,38417
22,33125,36304
22,33537,37415
22,33950,36336
22,34362,35578
22,34773,36203
22,35187,34855
22,35598,34825
22,36010,32707
22,36423,32973
22,36835,30775
22,37247,29903
22,37658,30149
22,38072,31121
22,38483,28670
22,38895,31058
22,39308,27909
22,39720,29065
22,40132,26564
22,40545,27575
22,40957,26908
22,41368,27155
22,41782,26642
22,42193,29305
22,42605,30976
22,43018,38952
22,43430,49899
22,43842,62112
22,44255,84150
22,44667,123025
22,45078,173502
22,45492,246135
22,45903,340528
22,46315,461030
22,46727,590951
22,47140,722727
22,47552,864052
22,47963,989049
22,48377,1090007
22,48788,1152670
22,49200,1189947
22,49613,1190607
22,50025,1164697
22,50437,1091470
22,50850,1024961
22,51262,930702
22,51673,831791
22,52087,739633
22,52498,649680
22,52910,570559
22,53323,498115
22,53735,432312
22,54147,384937
22,54560,338430
22,54972,295632
22,55383,265633
22,55795,238424
22,56208,219050
22,56620,193348
22,57032,180580
22,57445,165498
22,57857,148296
22,58268,137054
22,58682,129099
22,59093,118839
22,59505,110837
22,59918,103471
22,60330,98741
22,60742,91021
22,61155,85394
22,61567,84043
22,61978,76748
22,62392,72632
22,62803,68088
22,63215,66817
22,63628,65657
22,64040,61605
22,64452,59270
22,64863,55529
22,65277,54744
22,65688,51702
22,66100,51037
22,66513,48630
22,66925,46452
22,67337,43463
22,67750,45316
22,68162,42352
22,68573,43425
22,68987,39975
22,69398,38163
22,69810,36160
22,70223,37346
22,70635,36482
22,71047,35005
22,71460,35203
22,71872,34473
22,72283,33104
22,72697,30818
22,73108,30518
22,73520,29226
22,73932,31597
22,74345,29846
22,74757,28526
22,75168,27666
22,75582,28408
22,75993,29762
22,76405,26842
22,76818,27180
22,77230,27230
22,77642,25743
22,78055,26340
22,78467,24232
22,78878,24526
22,79292,24437
22,79703,25873
22,80115,24430
22,80528,23691
22,80940,22706
22,81352,24603
22,81765,21744
22,82177,23305
22,82588,23072
22,83000,21636
22,83413,20611
22,83825,21687
22,84237,21615
22,84650,22023
22,85062,20679
22,85473,21802
22,85887,21403
22,86298,22441
22,86710,21422
22,87123,22391
22,87535,21547
22,87947,22577
22,88360,20490
22,88772,20653
22,89183,20335
22,89597,20674
22,90008,19420
22,90420,19332
22,90833,19876
22,91245,20270
22,91657,19166
22,92068,19621
22,92482,19193
22,92893,19979
22,93305,19390
22,93718,20640
22,94130,19127
22,94542,19509
22,94955,20592
22,95367,20216
22,95778,19057
22,96192,19368
22,96603,20059
22,97015,19463
22,97428,18806
22,97840,19840
22,98252,21268
22,98665,17629
22,99077,18805
22,99488,20581
22,99902,19874
23,00313,20495
23,00725,18961
23,01137,21430
23,01550,20778
23,01962,21433
23,02373,20109
23,02787,20471
23,03198,19517
23,03610,18939
23,04023,20248
23,04435,19299
23,04847,19482
23,05260,16914
23,05672,17815
23,06083,18243
23,06497,18112
23,06908,17912
23,07320,17581
23,07733,16694
23,08145,20047
23,08557,19812
23,08970,22982
23,09382,25450
23,09793,33025
23,10205,46595
23,10618,63868
23,11030,92038
23,11442,133861
23,11855,191912
23,12267,266873
23,12678,355104
23,13092,476911
23,13503,583279
23,13915,709400
23,14328,818718
23,14740,912495
23,15152,980152
23,15565,1032735
23,15977,1044088
23,16388,1045132
23,16802,1025481
23,17213,993918
23,17625,974540
23,18038,948352
23,18450,955759
23,18862,995209
23,19273,1056178
23,19687,1176200
23,20098,1325287
23,20510,1524615
23,20923,1755861
23,21335,2020973
23,21747,2305172
23,22160,2612536
23,22572,2888796
23,22983,3156245
23,23397,3335745
23,23808,3456655
23,24220,3457426
23,24633,3349230
23,25045,3142528
23,25457,2858730
23,25870,2562790
23,26282,2233185
23,26693,1947909
23,27107,1693267
23,27518,1455343
23,27930,1262167
23,28342,1104938
23,28755,972465
23,29167,864432
23,29578,761941
23,29992,686432
23,30403,609582
23,30815,563057
23,31228,512856
23,31640,466523
23,32052,428170
23,32465,390505
23,32877,360930
23,33288,337708
23,33702,317631
23,34113,295915
23,34525,280872
23,34938,254730
23,35350,240494
23,35762,231286
23,36175,216662
23,36587,202958
23,36998,193915
23,37410,184814
23,37823,179561
23,38235,167289
23,38647,161996
23,39060,150229
23,39472,144129
23,39883,141944
23,40297,133841
23,40708,129398
23,41120,123856
23,41533,119769
23,41945,112930
23,42357,112869
23,42770,108544
23,43182,104594
23,43593,100196
23,44007,97298
23,44418,92637
23,44830,87709
23,45243,87441
23,45655,85989
23,46067,83583
23,46478,79666
23,46892,77657
23,47303,75649
23,47715,74914
23,48128,72862
23,48540,72771
23,48952,66986
23,49365,69461
23,49777,67076
23,50188,66885
23,50602,66387
23,51013,69013
23,51425,69230
23,51838,70374
23,52250,77072
23,52662,85897
23,53075,105160
23,53487,129691
23,53898,167489
23,54312,221111
23,54723,296026
23,55135,385913
23,55547,499299
23,55960,607740
23,56372,735223
23,56783,868503
23,57197,972052
23,57608,1049787
23,58020,1103163
23,58433,1124629
23,58845,1126514
23,59257,1102642
23,59670,1052276
23,60082,1037412
23,60493,977016
23,60907,959657
23,61318,949700
23,61730,969129
23,62143,991288
23,62555,1034752
23,62967,1090274
23,63380,1130394
23,63792,1173417
23,64203,1197648
23,64615,1214604
23,65028,1186293
23,65440,1144537
23,65852,1082475
23,66265,1014254
23,66677,930696
23,67088,843522
23,67502,756388
23,67913,684242
23,68325,606763
23,68738,542593
23,69150,480333
23,69562,425979
23,69975,384333
23,70387,345300
23,70798,313359
23,71212,280873
23,71623,259572
23,72035,237397
23,72448,221365
23,72860,207637
23,73272,197766
23,73683,193071
23,74097,193630
23,74508,207421
23,74920,232259
23,75333,265657
23,75745,324711
23,76157,404513
23,76570,515227
23,76982,634988
23,77393,782596
23,77807,945155
23,78218,1097445
23,78630,1262263
23,79043,1398544
23,79455,1501229
23,79867,1572336
23,80280,1576058
23,80692,1533113
23,81103,1469891
23,81517,1372658
23,81928,1253580
23,82340,1128690
23,82752,1012937
23,83165,898900
23,83577,798237
23,83988,694452
23,84402,620792
23,84813,550464
23,85225,494988
23,85638,450685
23,86050,394484
23,86462,358846
23,86875,329607
23,87287,302113
23,87698,278349
23,88112,252872
23,88523,238861
23,88935,224099
23,89348,211007
23,89760,197192
23,90172,185726
23,90585,175219
23,90997,168716
23,91408,159435
23,91820,150593
23,92233,145819
23,92645,132466
23,93057,128522
23,93470,123301
23,93882,119678
23,94293,110686
23,94707,109038
23,95118,106714
23,95530,98915
23,95943,97741
23,96355,92627
23,96767,89077
23,97180,87482
23,97592,85388
23,98003,82017
23,98417,80050
23,98828,78162
23,99240,72947
23,99653,72670
24,00065,71054
24,00477,67998
24,00890,69034
24,01302,66957
24,01713,61517
24,02125,62681
24,02538,60938
24,02950,59881
24,03362,57737
24,03775,57734
24,04187,54712
24,04598,52792
24,05012,54652
24,05423,52207
24,05835,52913
24,06248,52376
24,06660,49322
24,07072,49791
24,07485,51265
24,07897,50329
24,08308,49490
24,08722,47513
24,09133,48945
24,09545,48101
24,09958,49390
24,10370,45420
24,10782,46835
24,11193,44781
24,11607,45421
24,12018,42416
24,12430,42878
24,12843,41461
24,13255,39450
24,13667,39958
24,14080,39535
24,14492,39594
24,14903,38781
24,15317,36379
24,15728,36057
24,16140,37458
24,16553,36821
24,16965,35279
24,17377,35183
24,17790,34247
24,18202,35838
24,18613,35894
24,19027,32924
24,19438,33874
24,19850,31578
24,20262,31731
24,20675,33072
24,21087,31563
24,21498,33026
24,21912,31640
24,22323,32216
24,22735,32767
24,23148,33758
24,23560,33244
24,23972,36781
24,24385,42232
24,24797,51199
24,25208,64970
24,25622,88261
24,26033,120576
24,26445,170363
24,26858,236261
24,27270,328580
24,27682,448913
24,28095,597135
24,28507,776337
24,28918,949384
24,29330,1144642
24,29743,1332404
24,30155,1496569
24,30567,1616237
24,30980,1671260
24,31392,1675353
24,31803,1632492
24,32217,1546058
24,32628,1416486
24,33040,1277829
24,33453,1137247
24,33865,1007146
24,34277,888496
24,34690,776680
24,35102,692136
24,35513,615902
24,35927,541859
24,36338,492375
24,36750,435833
24,37163,393664
24,37575,357105
24,37987,323985
24,38398,299196
24,38812,276133
24,39223,258168
24,39635,237140
24,40048,217499
24,40460,208306
24,40872,191356
24,41285,179374
24,41697,171996
24,42108,163336
24,42522,153393
24,42933,148121
24,43345,137076
24,43758,129306
24,44170,126438
24,44582,120565
24,44995,117913
24,45407,111523
24,45818,108175
24,46232,105477
24,46643,100429
24,47055,96357
24,47467,91330
24,47880,92397
24,48292,88476
24,48703,83944
24,49117,82395
24,49528,79642
24,49940,74857
24,50353,75748
24,50765,72874
24,51177,70550
24,51590,67527
24,52002,69683
24,52413,64842
24,52827,63542
24,53238,60306
24,53650,58846
24,54063,60700
24,54475,55748
24,54887,60973
24,55300,54008
24,55712,57006
24,56123,53417
24,56535,54177
24,56948,50923
24,57360,50529
24,57772,51946
24,58185,51607
24,58597,48675
24,59008,48908
24,59422,46594
24,59833,44803
24,60245,47255
24,60658,44855
24,61070,46258
24,61482,42741
24,61895,43148
24,62307,43672
24,62718,44507
24,63132,44367
24,63543,47499
24,63955,51060
24,64368,60500
24,64780,71572
24,65192,91884
24,65603,124520
24,66017,167240
24,66428,228054
24,66840,309272
24,67253,414814
24,67665,542032
24,68077,689897
24,68490,840101
24,68902,984674
24,69313,1121416
24,69727,1225391
24,70138,1302738
24,70550,1350841
24,70963,1346672
24,71375,1341053
24,71787,1291935
24,72200,1257386
24,72612,1225291
24,73023,1196903
24,73437,1188865
24,73848,1195923
24,74260,1215847
24,74672,1225822
24,75085,1249771
24,75497,1249494
24,75908,1235097
24,76322,1210968
24,76733,1166476
24,77145,1112494
24,77558,1034171
24,77970,957351
24,78382,875489
24,78795,788568
24,79207,709584
24,79618,639789
24,80032,563683
24,80443,514391
24,80855,457366
24,81268,412973
24,81680,380155
24,82092,342536
24,82505,311463
24,82917,287284
24,83328,260675
24,83740,241212
24,84153,224784
24,84565,212140
24,84977,194962
24,85390,186119
24,85802,172676
24,86213,166593
24,86627,153686
24,87038,149146
24,87450,139516
24,87863,135527
24,88275,123836
24,88687,121515
24,89100,115110
24,89512,112488
24,89923,106056
24,90337,99637
24,90748,99234
24,91160,97114
24,91573,90556
24,91985,86090
24,92397,86105
24,92808,79169
24,93222,82263
24,93633,77298
24,94045,73157
24,94458,73970
24,94870,71229
24,95282,70112
24,95695,66850
24,96107,65134
24,96518,64263
24,96932,64701
24,97343,59204
24,97755,58933
24,98168,61290
24,98580,57900
24,98992,57349
24,99405,54439
24,99817,55427
25,00228,52579
25,00642,50985
25,01053,51447
25,01465,50607
25,01877,50933
25,02290,49270
25,02702,49071
25,03113,48801
25,03527,46170
25,03938,48321
25,04350,43777
25,04763,45289
25,05175,43622
25,05587,45502
25,06000,45359
25,06412,43644
25,06823,44278
25,07237,43285
25,07648,44177
25,08060,42293
25,08473,42257
25,08885,42315
25,09297,39772
25,09710,40885
25,10122,40413
25,10533,39211
25,10945,39736
25,11358,38016
25,11770,39173
25,12182,35847
25,12595,35232
25,13007,39222
25,13418,36558
25,13832,36338
25,14243,36010
25,14655,34341
25,15068,34626
25,15480,33704
25,15892,33890
25,16305,37212
25,16717,38014
25,17128,33808
25,17542,31856
25,17953,34860
25,18365,34843
25,18778,33528
25,19190,33428
25,19602,32203
25,20013,34370
25,20427,33191
25,20838,33271
25,21250,32111
25,21663,31708
25,22075,32917
25,22487,31534
25,22900,31583
25,23312,32886
25,23723,31237
25,24137,32814
25,24548,31494
25,24960,31312
25,25373,31739
25,25785,32708
25,26197,32423
25,26610,32321
25,27022,32902
25,27433,32168
25,27847,32526
25,28258,32013
25,28670,33275
25,29082,37405
25,29495,37692
25,29907,42060
25,30318,50966
25,30732,65139
25,31143,84511
25,31555,117023
25,31968,165303
25,32380,228676
25,32792,323311
25,33205,435532
25,33617,600257
25,34028,783710
25,34442,1011616
25,34853,1247810
25,35265,1529900
25,35678,1828219
25,36090,2146532
25,36502,2465046
25,36915,2784995
25,37327,3033599
25,37738,3220650
25,38150,3298144
25,38563,3258760
25,38975,3119407
25,39387,2890848
25,39800,2617592
25,40212,2307142
25,40623,2031417
25,41037,1785358
25,41448,1555378
25,41860,1353644
25,42273,1187466
25,42685,1046130
25,43097,928825
25,43510,830734
25,43922,741274
25,44333,666617
25,44747,617611
25,45158,564110
25,45570,510569
25,45983,473541
25,46395,443520
25,46807,406819
25,47218,383378
25,47632,359309
25,48043,329148
25,48455,312140
25,48868,293745
25,49280,279892
25,49692,266101
25,50105,247664
25,50517,241781
25,50928,229865
25,51342,215486
25,51753,209119
25,52165,201042
25,52578,191997
25,52990,181347
25,53402,176801
25,53815,167062
25,54227,162540
25,54638,158468
25,55052,151301
25,55463,145928
25,55875,141975
25,56287,138110
25,56700,135926
25,57112,129501
25,57523,126878
25,57937,123090
25,58348,120477
25,58760,114509
25,59173,113710
25,59585,108749
25,59997,106910
25,60410,104027
25,60822,101643
25,61233,98577
25,61647,95029
25,62058,96032
25,62470,89684
25,62883,87760
25,63295,87591
25,63707,86090
25,64120,86658
25,64532,81442
25,64943,78910
25,65357,79466
25,65768,78594
25,66180,76470
25,66592,73573
25,67005,72085
25,67417,70144
25,67828,72925
25,68242,69895
25,68653,67452
25,69065,66351
25,69478,66196
25,69890,65297
25,70302,64803
25,70715,63693
25,71127,63430
25,71538,61444
25,71952,60721
25,72363,59578
25,72775,60556
25,73188,57403
25,73600,58180
25,74012,57485
25,74425,57180
25,74837,55883
25,75248,54258
25,75660,54262
25,76073,53351
25,76485,54386
25,76897,53438
25,77310,54972
25,77722,52048
25,78133,51552
25,78547,50990
25,78958,48777
25,79370,48834
25,79783,50637
25,80195,47608
25,80607,49439
25,81020,47848
25,81432,47294
25,81843,46191
25,82257,47248
25,82668,45946
25,83080,46769
25,83493,47190
25,83905,47137
25,84317,51206
25,84728,55291
25,85142,67247
25,85553,84612
25,85965,104835
25,86378,135065
25,86790,181540
25,87202,243858
25,87615,334455
25,88027,441788
25,88438,575295
25,88852,741513
25,89263,911443
25,89675,1099049
25,90088,1251508
25,90500,1385336
25,90912,1478348
25,91325,1518685
25,91737,1532425
25,92148,1479392
25,92562,1407378
25,92973,1312296
25,93385,1198864
25,93797,1079352
25,94210,970148
25,94622,865306
25,95033,766316
25,95447,679059
25,95858,614511
25,96270,552467
25,96683,498959
25,97095,448279
25,97507,407676
25,97920,376565
25,98332,344913
25,98743,319039
25,99157,293413
25,99568,274192
25,99980,256125
26,00393,240181
26,00805,225724
26,01217,212034
26,01630,199637
26,02042,190623
26,02453,182387
26,02865,174815
26,03278,165191
26,03690,160297
26,04102,149667
26,04515,142222
26,04927,140730
26,05338,132387
26,05752,129822
26,06163,122593
26,06575,119747
26,06988,118884
26,07400,111361
26,07812,108615
26,08225,107176
26,08637,102734
26,09048,99142
26,09462,94045
26,09873,93081
26,10285,92754
26,10698,87198
26,11110,86781
26,11522,84099
26,11933,82978
26,12347,79386
26,12758,75533
26,13170,79714
26,13583,75501
26,13995,73507
26,14407,71455
26,14820,71082
26,15232,66361
26,15643,68203
26,16057,66117
26,16468,67701
26,16880,66742
26,17293,66180
26,17705,64974
26,18117,65992
26,18530,66023
26,18942,69118
26,19353,71620
26,19767,77074
26,20178,83296
26,20590,86695
26,21002,95361
26,21415,101339
26,21827,104388
26,22238,109885
26,22652,113832
26,23063,118762
26,23475,117171
26,23888,114106
26,24300,114139
26,24712,114194
26,25125,109767
26,25537,101755
26,25948,97431
26,26362,95728
26,26773,89773
26,27185,86028
26,27598,76877
26,28010,73726
26,28422,70384
26,28835,69850
26,29247,66887
26,29658,64487
26,30070,59582
26,30483,58350
26,30895,58990
26,31307,57592
26,31720,56101
26,32132,53693
26,32543,55159
26,32957,54009
26,33368,50998
26,33780,48725
26,34193,49755
26,34605,46227
26,35017,49552
26,35430,48547
26,35842,46431
26,36253,44975
26,36667,44375
26,37078,46954
26,37490,44244
26,37903,44741
26,38315,46060
26,38727,44692
26,39138,44657
26,39552,42046
26,39963,43516
26,40375,42793
26,40788,41597
26,41200,43383
26,41612,42319
26,42025,41337
26,42437,39295
26,42848,40626
26,43262,41386
26,43673,41926
26,44085,39648
26,44498,39798
26,44910,39405
26,45322,41214
26,45735,40697
26,46147,40797
26,46558,37581
26,46972,39198
26,47383,38864
26,47795,39158
26,48207,36705
26,48620,36175
26,49032,38297
26,49443,37249
26,49857,38746
26,50268,38664
26,50680,36475
26,51093,38887
26,51505,38943
26,51917,38038
26,52330,39564
26,52742,36059
26,53153,39923
26,53567,36723
26,53978,37341
26,54390,38002
26,54803,37973
26,55215,39313
26,55627,36940
26,56040,37486
26,56452,40250
26,56863,35702
26,57275,36094
26,57688,36096
26,58100,36098
26,58512,35301
26,58925,37053
26,59337,36645
26,59748,36422
26,60162,35792
26,60573,35298
26,60985,35698
26,61398,34815
26,61810,34108
26,62222,34520
26,62635,35002
26,63047,35248
26,63458,33804
26,63872,36101
26,64283,35905
26,64695,35443
26,65108,35796
26,65520,35405
26,65932,31385
26,66343,33431
26,66757,34721
26,67168,34894
26,67580,32025
26,67993,33795
26,68405,33328
26,68817,34724
26,69230,33450
26,69642,34844
26,70053,33959
26,70467,34016
26,70878,33954
26,71290,32391
26,71703,32899
26,72115,35246
26,72527,34787
26,72940,31967
26,73352,34222
26,73763,34303
26,74177,33983
26,74588,34326
26,75000,35801
26,75412,34426
26,75825,33432
26,76237,33636
26,76648,37198
26,77062,35165
26,77473,36616
26,77885,35562
26,78298,34347
26,78710,33680
26,79122,35002
26,79535,34811
26,79947,33711
26,80358,32703
26,80772,33620
26,81183,35905
26,81595,32503
26,82008,36253
26,82420,34324
26,82832,35010
26,83245,36128
26,83657,35636
26,84068,35507
26,84480,36100
26,84893,34368
26,85305,36676
26,85717,34984
26,86130,32689
26,86542,34212
26,86953,32821
26,87367,35788
26,87778,35965
26,88190,33902
26,88603,33907
26,89015,33727
26,89427,32735
26,89840,33028
26,90252,34239
26,90663,35966
26,91077,32879
26,91488,32617
26,91900,34042
26,92313,33033
26,92725,33070
26,93137,31163
26,93548,33244
26,93962,31822
26,94373,33002
26,94785,31793
26,95198,30961
26,95610,31490
26,96022,32976
26,96435,32131
26,96847,31836
26,97258,33329
26,97672,33700
26,98083,33150
26,98495,30675
26,98908,33081
26,99320,33991
26,99732,32269
27,00145,32230
27,00557,35081
27,00968,31970
27,01382,33062
27,01793,35158
27,02205,31473
27,02617,31623
27,03030,33894
27,03442,32360
27,03853,34359
27,04267,31648
27,04678,33014
27,05090,33901
27,05503,33143
27,05915,30931
27,06327,31658
27,06740,33914
27,07152,32937
27,07563,31311
27,07977,31770
27,08388,31066
27,08800,31323
27,09213,32529
27,09625,34279
27,10037,31672
27,10450,34766
27,10862,33486
27,11273,31591
27,11685,32787
27,12098,30696
27,12510,32779
27,12922,33993
27,13335,34700
27,13747,33130
27,14158,32027
27,14572,33490
27,14983,33700
27,15395,32333
27,15808,35126
27,16220,31408
27,16632,33075
27,17045,32435
27,17457,31420
27,17868,32810
27,18282,32783
27,18693,32312
27,19105,30596
27,19518,34044
27,19930,30986
27,20342,32790
27,20753,32926
27,21167,28923
27,21578,33237
27,21990,30716
27,22403,31664
27,22815,33140
27,23227,34543
27,23640,33005
27,24052,33293
27,24463,32370
27,24877,31475
27,25288,32535
27,25700,32487
27,26113,33170
27,26525,33136
27,26937,33117
27,27350,33593
27,27762,33167
27,28173,32770
27,28587,34194
27,28998,35241
27,29410,32880
27,29823,34090
27,30235,35169
27,30647,40000
27,31058,43041
27,31472,46127
27,31883,58820
27,32295,71638
27,32708,92508
27,33120,123614
27,33532,165626
27,33945,222428
27,34357,281567
27,34768,364453
27,35182,443338
27,35593,524686
27,36005,608730
27,36418,677170
27,36830,734001
27,37242,775647
27,37655,782668
27,38067,771933
27,38478,744309
27,38892,700108
27,39303,648420
27,39715,603429
27,40127,549396
27,40540,502265
27,40952,447278
27,41363,395771
27,41777,358905
27,42188,322893
27,42600,292425
27,43013,267306
27,43425,238922
27,43837,220878
27,44250,201132
27,44662,186018
27,45073,168952
27,45487,159096
27,45898,149125
27,46310,138428
27,46723,132753
27,47135,129190
27,47547,116711
27,47960,113512
27,48372,108191
27,48783,104243
27,49195,98569
27,49608,93143
27,50020,91284
27,50432,86774
27,50845,87509
27,51257,80356
27,51668,80710
27,52082,76007
27,52493,75972
27,52905,70252
27,53318,69412
27,53730,67409
27,54142,67132
27,54555,67755
27,54967,63575
27,55378,62424
27,55792,63755
27,56203,62398
27,56615,60898
27,57028,60223
27,57440,57320
27,57852,57519
27,58263,56450
27,58677,55590
27,59088,56632
27,59500,53289
27,59913,55703
27,60325,54355
27,60737,53691
27,61150,52697
27,61562,50327
27,61973,50642
27,62387,50437
27,62798,48141
27,63210,48195
27,63623,48780
27,64035,49702
27,64447,48035
27,64860,50292
27,65272,48562
27,65683,47242
27,66097,47040
27,66508,47117
27,66920,45510
27,67332,47836
27,67745,47561
27,68157,45815
27,68568,44572
27,68982,45117
27,69393,45358
27,69805,44583
27,70218,45222
27,70630,44543
27,71042,43822
27,71455,45776
27,71867,43763
27,72278,42335
27,72692,43067
27,73103,42762
27,73515,44335
27,73928,44831
27,74340,42370
27,74752,44365
27,75165,42844
27,75577,41104
27,75988,42359
27,76400,41350
27,76813,38352
27,77225,41667
27,77637,40946
27,78050,41717
27,78462,42433
27,78873,41984
27,79287,43967
27,79698,43752
27,80110,42737
27,80523,43298
27,80935,42619
27,81347,40706
27,81760,41208
27,82172,42340
27,82583,42199
27,82997,40107
27,83408,41603
27,83820,42880
27,84233,42096
27,84645,42156
27,85057,41054
27,85468,41266
27,85882,40074
27,86293,40051
27,86705,41065
27,87118,42477
27,87530,42977
27,87942,41600
27,88355,41476
27,88767,42810
27,89178,41315
27,89592,40969
27,90003,43701
27,90415,41366
27,90828,43671
27,91240,42784
27,91652,40023
27,92065,42531
27,92477,41312
27,92888,41035
27,93302,42020
27,93713,40751
27,94125,41362
27,94537,37647
27,94950,39792
27,95362,41567
27,95773,38858
27,96187,41793
27,96598,40872
27,97010,43854
27,97423,39618
27,97835,38756
27,98247,39147
27,98660,39614
27,99072,43706
27,99483,38716
27,99897,40070
28,00308,42120
28,00720,39348
28,01133,40282
28,01545,40566
28,01957,40937
28,02370,38526
28,02782,41164
28,03193,41328
28,03605,40319
28,04018,39477
28,04430,37684
28,04842,37417
28,05255,41366
28,05667,38044
28,06078,39429
28,06492,38915
28,06903,39152
28,07315,39042
28,07728,40638
28,08140,39017
28,08552,39922
28,08965,40863
28,09377,39495
28,09788,41758
28,10202,41634
28,10613,41402
28,11025,39816
28,11438,41234
28,11850,38700
28,12262,40465
28,12673,42022
28,13087,40884
28,13498,40844
28,13910,40149
28,14323,40644
28,14735,42952
28,15147,41343
28,15560,41844
28,15972,40711
28,16383,43077
28,16797,41200
28,17208,42496
28,17620,44072
28,18033,42149
28,18445,40908
28,18857,43543
28,19270,39481
28,19682,40915
28,20093,42139
28,20507,42472
28,20918,39518
28,21330,41639
28,21742,41986
28,22155,42442
28,22567,42269
28,22978,42764
28,23392,42262
28,23803,39445
28,24215,42335
28,24628,39999
28,25040,43669
28,25452,41312
28,25865,39907
28,26277,43845
28,26688,42407
28,27102,43381
28,27513,41170
28,27925,42788
28,28338,43927
28,28750,42751
28,29162,45838
28,29575,44013
28,29987,44075
28,30398,41531
28,30810,43503
28,31223,40857
28,31635,42949
28,32047,42938
28,32460,42432
28,32872,42083
28,33283,40119
28,33697,42104
28,34108,41474
28,34520,44046
28,34933,43654
28,35345,41147
28,35757,39516
28,36170,41187
28,36582,43170
28,36993,42610
28,37407,42621
28,37818,43871
28,38230,43755
28,38643,45689
28,39055,42695
28,39467,40833
28,39878,44305
28,40292,39767
28,40703,41048
28,41115,43557
28,41528,39249
28,41940,41142
28,42352,42839
28,42765,40139
28,43177,39855
28,43588,42310
28,44002,41462
28,44413,41790
28,44825,42101
28,45238,42647
28,45650,40403
28,46062,39929
28,46475,40240
28,46887,38574
28,47298,39934
28,47712,42157
28,48123,39090
28,48535,42087
28,48947,42453
28,49360,39782
28,49772,38319
28,50183,40290
28,50597,39846
28,51008,40442
28,51420,39742
28,51833,40509
28,52245,40384
28,52657,38395
28,53070,39003
28,53482,39974
28,53893,40378
28,54307,40786
28,54718,40311
28,55130,40369
28,55543,38581
28,55955,42298
28,56367,40742
28,56780,40915
28,57192,41458
28,57603,40788
28,58015,41134
28,58428,42523
28,58840,40793
28,59252,40115
28,59665,41222
28,60077,41819
28,60488,41276
28,60902,40312
28,61313,40377
28,61725,42072
28,62138,42407
28,62550,41218
28,62962,41169
28,63375,40013
28,63787,39405
28,64198,41097
28,64612,42019
28,65023,39196
28,65435,38204
28,65848,41579
28,66260,42245
28,66672,40898
28,67083,41211
28,67497,39940
28,67908,41035
28,68320,41722
28,68733,40221
28,69145,39331
28,69557,39227
28,69970,40238
28,70382,40503
28,70793,40250
28,71207,39586
28,71618,38502
28,72030,42972
28,72443,41104
28,72855,41183
28,73267,40345
28,73680,42354
28,74092,41152
28,74503,40866
28,74917,43097
28,75328,40318
28,75740,41516
28,76152,41863
28,76565,40738
28,76977,40540
28,77388,40463
28,77802,39807
28,78213,41444
28,78625,39889
28,79038,40839
28,79450,40418
28,79862,40435
28,80275,41533
28,80687,41319
28,81098,41485
28,81512,39903
28,81923,38205
28,82335,40923
28,82748,41643
28,83160,40652
28,83572,41849
28,83985,40875
28,84397,41439
28,84808,42353
28,85220,39484
28,85633,40729
28,86045,40916
28,86457,40250
28,86870,40643
28,87282,41894
28,87693,43787
28,88107,41202
28,88518,40491
