D:\MassHunter\GCMS\1\data\Amal\Constant flow\120C\120C_1ml-min_6C-min_3.D Mon Sep 16 19:50:33 2024
Start of data points
5,29090	150176
5,29503	150573
5,29915	146052
5,30327	144748
5,30740	138809
5,31152	138540
5,31563	137667
5,31975	133638
5,32388	140387
5,32800	132360
5,33212	131968
5,33625	129957
5,34037	128615
5,34448	130075
5,34862	127142
5,35273	129040
5,35685	127553
5,36098	124127
5,36510	124106
5,36922	122985
5,37335	121337
5,37747	118653
5,38158	120167
5,38572	114665
5,38983	114548
5,39395	116227
5,39808	119950
5,40220	117585
5,40632	115868
5,41043	118195
5,41457	115938
5,41868	113975
5,42280	117870
5,42693	114821
5,43105	113646
5,43517	116012
5,43930	111848
5,44342	115672
5,44753	116297
5,45167	115742
5,45578	116116
5,45990	116988
5,46403	119948
5,46815	117654
5,47227	118411
5,47640	116819
5,48052	120439
5,48463	117115
5,48877	116088
5,49288	116417
5,49700	114567
5,50112	114654
5,50525	113943
5,50937	111352
5,51348	110520
5,51762	111510
5,52173	111922
5,52585	110698
5,52998	110754
5,53410	111632
5,53822	107144
5,54235	106030
5,54647	108378
5,55058	106361
5,55472	108857
5,55883	115251
5,56295	129721
5,56708	159718
5,57120	216148
5,57532	305646
5,57945	431725
5,58357	567579
5,58768	703414
5,59180	831232
5,59593	918823
5,60005	982543
5,60417	1009618
5,60830	1006598
5,61242	984091
5,61653	959066
5,62067	929136
5,62478	893733
5,62890	857118
5,63303	814439
5,63715	786979
5,64127	752481
5,64540	723983
5,64952	698363
5,65363	672794
5,65777	640038
5,66188	609165
5,66600	595841
5,67013	565435
5,67425	539751
5,67837	522331
5,68248	498071
5,68662	484552
5,69073	470884
5,69485	446792
5,69898	428617
5,70310	410284
5,70722	392262
5,71135	371154
5,71547	352362
5,71958	334311
5,72372	318554
5,72783	296472
5,73195	289175
5,73608	265211
5,74020	248700
5,74432	237305
5,74845	220301
5,75257	211075
5,75668	198289
5,76082	186238
5,76493	180615
5,76905	168925
5,77317	159775
5,77730	152735
5,78142	145509
5,78553	140212
5,78967	131380
5,79378	125348
5,79790	121320
5,80203	113176
5,80615	114914
5,81027	107345
5,81440	106234
5,81852	102183
5,82263	96743
5,82677	97921
5,83088	94399
5,83500	92309
5,83913	89626
5,84325	90362
5,84737	86599
5,85150	83410
5,85562	84983
5,85973	84143
5,86385	82672
5,86798	79760
5,87210	81965
5,87622	80372
5,88035	76924
5,88447	78097
5,88858	78410
5,89272	77430
5,89683	75251
5,90095	74060
5,90508	74744
5,90920	72740
5,91332	72893
5,91745	76083
5,92157	71067
5,92568	71146
5,92982	69421
5,93393	71236
5,93805	69821
5,94218	69364
5,94630	68514
5,95042	66716
5,95453	69627
5,95867	65598
5,96278	68270
5,96690	69137
5,97103	66657
5,97515	66039
5,97927	64337
5,98340	63726
5,98752	66936
5,99163	66802
5,99577	63582
5,99988	65444
6,00400	63788
6,00813	66624
6,01225	62359
6,01637	65245
6,02050	62137
6,02462	62165
6,02873	63129
6,03287	66565
6,03698	63795
6,04110	64905
6,04522	64465
6,04935	63885
6,05347	62616
6,05758	64978
6,06172	63177
6,06583	61484
6,06995	63418
6,07408	63021
6,07820	62775
6,08232	60447
6,08645	61269
6,09057	61842
6,09468	60444
6,09882	62890
6,10293	62798
6,10705	59608
6,11118	61848
6,11530	62820
6,11942	61010
6,12355	62811
6,12767	62785
6,13178	60160
6,13590	62838
6,14003	60306
6,14415	61610
6,14827	62886
6,15240	62444
6,15652	62374
6,16063	60820
6,16477	62968
6,16888	61882
6,17300	59211
6,17713	62289
6,18125	58983
6,18537	60157
6,18950	60286
6,19362	59613
6,19773	58421
6,20187	59284
6,20598	59096
6,21010	58606
6,21423	57493
6,21835	57659
6,22247	56236
6,22658	56439
6,23072	55435
6,23483	56008
6,23895	56103
6,24308	53088
6,24720	54259
6,25132	55117
6,25545	53994
6,25957	52254
6,26368	53007
6,26782	49617
6,27193	51324
6,27605	53368
6,28018	50597
6,28430	52680
6,28842	50228
6,29255	52469
6,29667	48491
6,30078	48419
6,30492	50269
6,30903	49226
6,31315	49324
6,31728	48893
6,32140	48897
6,32552	48986
6,32963	49361
6,33377	47814
6,33788	50259
6,34200	49597
6,34613	50175
6,35025	48546
6,35437	49616
6,35850	51449
6,36262	50061
6,36673	51454
6,37087	52352
6,37498	50873
6,37910	51487
6,38323	53449
6,38735	50251
6,39147	51217
6,39560	50423
6,39972	49495
6,40383	49611
6,40797	49133
6,41208	48809
6,41620	46756
6,42032	47210
6,42445	46753
6,42857	45997
6,43268	46780
6,43682	46044
6,44093	46517
6,44505	45187
6,44918	45563
6,45330	45556
6,45742	45080
6,46155	45333
6,46567	45011
6,46978	46486
6,47392	45321
6,47803	45276
6,48215	43411
6,48628	43594
6,49040	44171
6,49452	44646
6,49865	43885
6,50277	42167
6,50688	42416
6,51100	42089
6,51513	44328
6,51925	43308
6,52337	41864
6,52750	41030
6,53162	41466
6,53573	41458
6,53987	42833
6,54398	42454
6,54810	40841
6,55223	40215
6,55635	40774
6,56047	42757
6,56460	40456
6,56872	40748
6,57283	41256
6,57697	40373
6,58108	43647
6,58520	40050
6,58933	43056
6,59345	41623
6,59757	42863
6,60168	42197
6,60582	39244
6,60993	39926
6,61405	37334
6,61818	39730
6,62230	42503
6,62642	39899
6,63055	40296
6,63467	38573
6,63878	39961
6,64292	40206
6,64703	40594
6,65115	41222
6,65528	37874
6,65940	38090
6,66352	38823
6,66765	40899
6,67177	39618
6,67588	40371
6,68002	38513
6,68413	38174
6,68825	39088
6,69237	39557
6,69650	39845
6,70062	40478
6,70473	40269
6,70887	39642
6,71298	40450
6,71710	39136
6,72123	41206
6,72535	39231
6,72947	40985
6,73360	38750
6,73772	40752
6,74183	40260
6,74597	45812
6,75008	53401
6,75420	73578
6,75833	103740
6,76245	157356
6,76657	240864
6,77070	354222
6,77482	504013
6,77893	665289
6,78305	849883
6,78718	996456
6,79130	1125320
6,79542	1226653
6,79955	1280549
6,80367	1308396
6,80778	1306386
6,81192	1266274
6,81603	1246607
6,82015	1194555
6,82428	1146436
6,82840	1093427
6,83252	1029183
6,83665	986671
6,84077	937355
6,84488	880031
6,84902	832647
6,85313	785178
6,85725	745104
6,86138	696598
6,86550	656757
6,86962	613297
6,87373	574889
6,87787	530954
6,88198	495673
6,88610	462201
6,89023	423589
6,89435	384370
6,89847	351564
6,90260	320523
6,90672	290843
6,91083	264293
6,91497	239216
6,91908	221922
6,92320	200200
6,92733	180724
6,93145	169602
6,93557	151076
6,93970	140006
6,94382	132086
6,94793	118484
6,95207	111943
6,95618	99961
6,96030	96798
6,96442	89662
6,96855	85286
6,97267	78184
6,97678	76546
6,98092	71012
6,98503	69271
6,98915	65466
6,99328	63015
6,99740	61074
7,00152	58272
7,00565	56277
7,00977	52786
7,01388	54510
7,01802	50717
7,02213	49604
7,02625	49785
7,03038	47437
7,03450	47632
7,03862	46887
7,04275	44688
7,04687	45580
7,05098	43100
7,05510	43198
7,05923	44164
7,06335	42034
7,06747	42891
7,07160	40641
7,07572	41191
7,07983	41799
7,08397	39507
7,08808	40568
7,09220	40174
7,09633	39939
7,10045	38894
7,10457	39273
7,10870	39715
7,11282	37776
7,11693	37695
7,12107	36078
7,12518	38811
7,12930	38290
7,13343	38023
7,13755	35878
7,14167	36476
7,14578	37529
7,14992	38156
7,15403	36072
7,15815	35940
7,16228	34749
7,16640	35464
7,17052	32894
7,17465	34988
7,17877	36677
7,18288	34345
7,18702	34326
7,19113	35434
7,19525	35174
7,19938	35698
7,20350	35372
7,20762	35170
7,21175	36574
7,21587	36328
7,21998	34343
7,22412	34748
7,22823	34361
7,23235	35582
7,23647	35283
7,24060	36416
7,24472	35269
7,24883	34767
7,25297	35320
7,25708	34439
7,26120	35076
7,26533	32816
7,26945	33689
7,27357	34480
7,27770	31451
7,28182	32086
7,28593	32707
7,29007	33661
7,29418	33352
7,29830	31881
7,30243	32706
7,30655	30286
7,31067	31529
7,31480	31071
7,31892	31781
7,32303	32986
7,32715	31477
7,33128	31154
7,33540	30539
7,33952	30897
7,34365	29681
7,34777	30390
7,35188	29606
7,35602	29859
7,36013	29154
7,36425	29433
7,36838	30724
7,37250	30034
7,37662	30341
7,38075	30647
7,38487	28743
7,38898	29460
7,39312	30052
7,39723	29065
7,40135	32760
7,40548	31219
7,40960	31388
7,41372	30462
7,41783	29412
7,42197	30379
7,42608	28959
7,43020	30220
7,43433	31621
7,43845	30130
7,44257	29724
7,44670	27478
7,45082	28872
7,45493	31313
7,45907	29135
7,46318	28189
7,46730	27727
7,47143	27478
7,47555	27527
7,47967	30043
7,48380	29297
7,48792	29601
7,49203	26830
7,49617	28010
7,50028	27049
7,50440	29378
7,50852	28694
7,51265	26981
7,51677	28277
7,52088	28568
7,52502	27687
7,52913	28741
7,53325	28890
7,53738	29219
7,54150	31916
7,54562	35774
7,54975	46205
7,55387	63988
7,55798	91483
7,56212	134148
7,56623	188870
7,57035	261558
7,57448	350759
7,57860	443366
7,58272	537886
7,58685	617104
7,59097	687060
7,59508	720317
7,59920	757011
7,60333	771806
7,60745	743874
7,61157	735829
7,61570	714456
7,61982	677001
7,62393	646841
7,62807	609251
7,63218	572903
7,63630	544373
7,64043	507817
7,64455	477364
7,64867	439751
7,65280	407574
7,65692	370373
7,66103	341850
7,66517	310615
7,66928	288800
7,67340	259725
7,67753	230055
7,68165	210795
7,68577	191574
7,68988	174027
7,69402	155462
7,69813	137292
7,70225	124237
7,70638	117962
7,71050	103071
7,71462	96476
7,71875	85873
7,72287	80798
7,72698	75173
7,73112	70135
7,73523	64765
7,73935	61412
7,74348	56546
7,74760	54825
7,75172	52021
7,75585	49426
7,75997	46031
7,76408	45210
7,76822	44390
7,77233	42812
7,77645	40357
7,78057	40639
7,78470	38906
7,78882	37034
7,79293	36878
7,79707	36169
7,80118	36636
7,80530	35741
7,80943	35855
7,81355	33516
7,81767	32536
7,82180	33411
7,82592	32346
7,83003	32777
7,83417	32878
7,83828	31149
7,84240	32345
7,84653	29788
7,85065	31775
7,85477	32791
7,85890	31443
7,86302	32712
7,86713	31963
7,87127	31614
7,87538	33005
7,87950	32487
7,88362	32953
7,88775	32089
7,89187	32743
7,89598	33910
7,90012	33131
7,90423	33992
7,90835	31798
7,91248	34761
7,91660	33936
7,92072	34345
7,92485	32693
7,92897	32466
7,93308	31736
7,93722	31420
7,94133	30982
7,94545	29711
7,94958	30588
7,95370	30183
7,95782	29381
7,96195	27768
7,96607	30153
7,97018	29404
7,97430	27737
7,97843	28379
7,98255	27914
7,98667	26542
7,99080	25743
7,99492	24859
7,99903	26425
8,00317	26504
8,00728	23390
8,01140	25589
8,01553	26227
8,01965	24814
8,02377	25532
8,02790	23984
8,03202	23837
8,03613	23538
8,04027	24528
8,04438	23647
8,04850	24364
8,05263	23065
8,05675	23336
8,06087	23161
8,06498	23397
8,06912	24338
8,07323	24505
8,07735	23705
8,08148	24169
8,08560	23234
8,08972	22748
8,09385	23926
8,09797	24969
8,10208	23040
8,10622	21350
8,11033	22911
8,11445	23039
8,11858	23110
8,12270	23915
8,12682	23010
8,13095	22269
8,13507	21874
8,13918	21121
8,14332	22290
8,14743	22314
8,15155	23030
8,15567	23653
8,15980	23430
8,16392	22283
8,16803	22140
8,17217	22836
8,17628	22157
8,18040	23241
8,18453	22058
8,18865	20595
8,19277	20383
8,19690	21854
8,20102	20377
8,20513	21745
8,20927	22519
8,21338	22108
8,21750	21647
8,22163	22323
8,22575	21467
8,22987	22332
8,23400	21732
8,23812	22337
8,24223	21644
8,24635	22206
8,25048	22365
8,25460	21146
8,25872	22712
8,26285	21538
8,26697	21627
8,27108	21159
8,27522	22112
8,27933	21981
8,28345	22387
8,28758	20711
8,29170	21256
8,29582	21443
8,29995	22603
8,30407	23190
8,30818	22508
8,31232	21359
8,31643	22809
8,32055	22585
8,32468	22317
8,32880	22886
8,33292	20897
8,33703	22259
8,34117	21995
8,34528	21559
8,34940	22758
8,35353	21848
8,35765	22126
8,36177	21538
8,36590	21689
8,37002	21971
8,37413	20666
8,37827	20941
8,38238	21696
8,38650	21691
8,39063	19960
8,39475	19454
8,39887	20420
8,40300	21377
8,40712	20919
8,41123	21693
8,41537	20216
8,41948	22146
8,42360	20633
8,42772	21441
8,43185	21114
8,43597	20571
8,44008	22381
8,44422	23374
8,44833	25309
8,45245	31971
8,45658	45550
8,46070	69023
8,46482	110479
8,46895	178031
8,47307	277773
8,47718	420650
8,48132	587956
8,48543	799506
8,48955	1007444
8,49368	1214775
8,49780	1422145
8,50192	1573618
8,50605	1695435
8,51017	1773208
8,51428	1762891
8,51840	1746736
8,52253	1717376
8,52665	1623638
8,53077	1548207
8,53490	1442931
8,53902	1339001
8,54313	1239331
8,54727	1128481
8,55138	1023958
8,55550	925926
8,55963	821101
8,56375	734221
8,56787	646711
8,57200	571926
8,57612	497928
8,58023	439616
8,58437	388254
8,58848	340635
8,59260	296658
8,59673	260145
8,60085	226009
8,60497	200876
8,60908	177657
8,61322	159685
8,61733	144141
8,62145	131389
8,62558	119659
8,62970	110189
8,63382	98512
8,63795	92698
8,64207	85199
8,64618	79948
8,65032	73701
8,65443	71739
8,65855	65615
8,66268	61549
8,66680	61791
8,67092	57742
8,67505	54873
8,67917	53398
8,68328	49636
8,68742	47549
8,69153	45702
8,69565	45993
8,69977	41464
8,70390	41501
8,70802	40390
8,71213	39738
8,71627	38367
8,72038	37000
8,72450	36142
8,72863	37535
8,73275	33570
8,73687	35758
8,74100	36360
8,74512	33129
8,74923	30814
8,75337	32220
8,75748	30466
8,76160	29677
8,76573	29503
8,76985	29751
8,77397	29028
8,77810	28455
8,78222	28356
8,78633	27464
8,79045	28207
8,79458	27355
8,79870	25668
8,80282	25901
8,80695	26515
8,81107	26053
8,81518	24882
8,81932	25564
8,82343	25685
8,82755	25685
8,83168	24577
8,83580	25401
8,83992	23922
8,84405	24624
8,84817	24720
8,85228	24332
8,85642	23032
8,86053	23256
8,86465	24358
8,86878	21285
8,87290	21914
8,87702	23442
8,88113	22531
8,88527	21761
8,88938	22070
8,89350	21397
8,89763	21358
8,90175	21606
8,90587	21271
8,91000	21898
8,91412	21042
8,91823	22070
8,92237	20691
8,92648	21584
8,93060	21818
8,93473	20030
8,93885	20713
8,94297	19433
8,94710	20469
8,95122	20340
8,95533	20923
8,95947	19260
8,96358	19014
8,96770	19883
8,97182	20621
8,97595	20008
8,98007	21054
8,98418	21354
8,98832	20746
8,99243	19009
8,99655	18606
9,00068	18175
9,00480	20656
9,00892	19507
9,01305	17535
9,01717	19955
9,02128	19269
9,02542	19464
9,02953	19052
9,03365	18500
9,03778	18270
9,04190	18395
9,04602	18234
9,05015	19090
9,05427	18680
9,05838	17979
9,06250	18743
9,06663	20029
9,07075	17959
9,07487	18201
9,07900	18972
9,08312	20034
9,08723	19240
9,09137	20358
9,09548	19602
9,09960	20024
9,10373	19525
9,10785	19376
9,11197	18811
9,11610	19630
9,12022	18555
9,12433	19356
9,12847	17574
9,13258	19401
9,13670	18592
9,14083	19134
9,14495	18955
9,14907	19179
9,15318	20372
9,15732	17219
9,16143	18163
9,16555	18914
9,16968	18624
9,17380	17159
9,17792	18381
9,18205	17730
9,18617	19541
9,19028	19561
9,19442	20459
9,19853	20964
9,20265	21922
9,20678	22570
9,21090	22768
9,21502	23069
9,21915	23516
9,22327	24337
9,22738	24425
9,23152	25882
9,23563	26301
9,23975	25196
9,24387	25410
9,24800	25728
9,25212	22761
9,25623	25106
9,26037	23687
9,26448	24413
9,26860	23772
9,27273	23169
9,27685	22830
9,28097	23615
9,28510	22638
9,28922	20812
9,29333	21326
9,29747	19441
9,30158	20020
9,30570	20318
9,30983	19843
9,31395	18101
9,31807	18334
9,32220	18600
9,32632	18269
9,33043	18123
9,33455	17722
9,33868	17787
9,34280	17296
9,34692	17866
9,35105	16925
9,35517	18454
9,35928	17946
9,36342	15791
9,36753	17413
9,37165	15831
9,37578	15877
9,37990	14633
9,38402	16829
9,38815	15915
9,39227	15228
9,39638	16340
9,40052	15594
9,40463	15889
9,40875	16550
9,41288	15686
9,41700	15206
9,42112	15388
9,42525	16427
9,42937	15788
9,43348	16697
9,43760	15481
9,44173	16990
9,44585	19248
9,44997	22759
9,45410	34150
9,45822	49351
9,46233	72233
9,46647	113472
9,47058	172696
9,47470	249960
9,47883	356204
9,48295	463001
9,48707	594104
9,49120	715106
9,49532	832681
9,49943	921378
9,50357	991668
9,50768	1022232
9,51180	1024244
9,51593	1003755
9,52005	960797
9,52417	903897
9,52828	831663
9,53242	766545
9,53653	687947
9,54065	610667
9,54478	544028
9,54890	468474
9,55302	411953
9,55715	358887
9,56127	307141
9,56538	265549
9,56952	234139
9,57363	194429
9,57775	174518
9,58188	149801
9,58600	135725
9,59012	117163
9,59425	102899
9,59837	94670
9,60248	84225
9,60662	77299
9,61073	71882
9,61485	64897
9,61897	59883
9,62310	54998
9,62722	51450
9,63133	50639
9,63547	46692
9,63958	44012
9,64370	41189
9,64783	39997
9,65195	38074
9,65607	38430
9,66020	34532
9,66432	35564
9,66843	33216
9,67257	32118
9,67668	30690
9,68080	30018
9,68493	29944
9,68905	28501
9,69317	26900
9,69730	26687
9,70142	26086
9,70553	26264
9,70965	27366
9,71378	26214
9,71790	24348
9,72202	23197
9,72615	24126
9,73027	23397
9,73438	23480
9,73852	22432
9,74263	21985
9,74675	22046
9,75088	21548
9,75500	19397
9,75912	22410
9,76325	20797
9,76737	20480
9,77148	20361
9,77562	18684
9,77973	19324
9,78385	18844
9,78798	19473
9,79210	18615
9,79622	19245
9,80033	18619
9,80447	18784
9,80858	18791
9,81270	18412
9,81683	18702
9,82095	17514
9,82507	19378
9,82920	18016
9,83332	17014
9,83743	16897
9,84157	17010
9,84568	17312
9,84980	17832
9,85393	17112
9,85805	17609
9,86217	18346
9,86630	16920
9,87042	16455
9,87453	17011
9,87867	17305
9,88278	16483
9,88690	16230
9,89102	15767
9,89515	14780
9,89927	15911
9,90338	14859
9,90752	17235
9,91163	16232
9,91575	15686
9,91988	16090
9,92400	15236
9,92812	16535
9,93225	15703
9,93637	15661
9,94048	15805
9,94462	15394
9,94873	16121
9,95285	14704
9,95698	15805
9,96110	14583
9,96522	16760
9,96935	16551
9,97347	15171
9,97758	14606
9,98170	14815
9,98583	14922
9,98995	15194
9,99407	16658
9,99820	17890
10,00232	19360
10,00643	19049
10,01057	18676
10,01468	18496
10,01880	19541
10,02293	19864
10,02705	19426
10,03117	17881
10,03530	20114
10,03942	19038
10,04353	18192
10,04767	18306
10,05178	17694
10,05590	18503
10,06003	17071
10,06415	17913
10,06827	17026
10,07238	16673
10,07652	16168
10,08063	15179
10,08475	13893
10,08888	15726
10,09300	14855
10,09712	14268
10,10125	13451
10,10537	13616
10,10948	13951
10,11362	14439
10,11773	14653
10,12185	14967
10,12598	14973
10,13010	13984
10,13422	15134
10,13835	14079
10,14247	15328
10,14658	13410
10,15072	13292
10,15483	15131
10,15895	13678
10,16307	13493
10,16720	13877
10,17132	14444
10,17543	14054
10,17957	13514
10,18368	14188
10,18780	15006
10,19193	15047
10,19605	15514
10,20017	15296
10,20430	14979
10,20842	15735
10,21253	17753
10,21667	17028
10,22078	18494
10,22490	19136
10,22903	19127
10,23315	19871
10,23727	19424
10,24140	18968
10,24552	18499
10,24963	17252
10,25375	17407
10,25788	17102
10,26200	16932
10,26612	15389
10,27025	16021
10,27437	14815
10,27848	15431
10,28262	15419
10,28673	15103
10,29085	15464
10,29498	14025
10,29910	16357
10,30322	14679
10,30735	12986
10,31147	14710
10,31558	14652
10,31972	14829
10,32383	14660
10,32795	15343
10,33208	13280
10,33620	15649
10,34032	15326
10,34443	12749
10,34857	14280
10,35268	13472
10,35680	13407
10,36093	14626
10,36505	13662
10,36917	13046
10,37330	14110
10,37742	13371
10,38153	12635
10,38567	13510
10,38978	12807
10,39390	12532
10,39803	13775
10,40215	12867
10,40627	14945
10,41040	13019
10,41452	12664
10,41863	13199
10,42277	13015
10,42688	13765
10,43100	12787
10,43512	13111
10,43925	13348
10,44337	12734
10,44748	13448
10,45162	13558
10,45573	11825
10,45985	13730
10,46398	13249
10,46810	14285
10,47222	12861
10,47635	12245
10,48047	12766
10,48458	13166
10,48872	12482
10,49283	15229
10,49695	19169
10,50108	24899
10,50520	41412
10,50932	62681
10,51345	107619
10,51757	177173
10,52168	283667
10,52580	445177
10,52993	636552
10,53405	889523
10,53817	1167050
10,54230	1461598
10,54642	1743394
10,55053	1984587
10,55467	2192578
10,55878	2332506
10,56290	2356955
10,56703	2334204
10,57115	2253279
10,57527	2087589
10,57940	1894744
10,58352	1694850
10,58763	1477722
10,59177	1279061
10,59588	1091835
10,60000	919483
10,60413	782667
10,60825	660785
10,61237	552211
10,61648	475226
10,62062	405843
10,62473	349058
10,62885	302087
10,63298	268321
10,63710	235009
10,64122	204575
10,64535	181989
10,64947	167486
10,65358	148195
10,65772	133923
10,66183	122878
10,66595	113365
10,67008	105363
10,67420	94678
10,67832	88654
10,68245	83877
10,68657	78568
10,69068	71741
10,69482	66331
10,69893	64811
10,70305	62188
10,70717	57797
10,71130	55252
10,71542	51437
10,71953	51178
10,72367	45503
10,72778	45894
10,73190	43772
10,73603	43452
10,74015	40502
10,74427	39218
10,74840	37887
10,75252	36016
10,75663	36723
10,76077	35633
10,76488	32904
10,76900	34216
10,77313	30074
10,77725	30530
10,78137	30897
10,78550	30881
10,78962	28999
10,79373	28812
10,79785	29815
10,80198	32576
10,80610	30642
10,81022	30659
10,81435	31996
10,81847	29396
10,82258	30249
10,82672	30427
10,83083	28661
10,83495	30503
10,83908	29155
10,84320	26902
10,84732	25837
10,85145	25278
10,85557	25144
10,85968	23748
10,86382	23382
10,86793	23120
10,87205	21875
10,87618	22148
10,88030	20162
10,88442	20597
10,88853	20578
10,89267	20239
10,89678	20283
10,90090	17812
10,90503	18839
10,90915	19032
10,91327	18447
10,91740	18189
10,92152	17386
10,92563	16661
10,92977	17467
10,93388	18715
10,93800	18575
10,94213	16388
10,94625	16384
10,95037	17695
10,95450	16658
10,95862	17852
10,96273	15587
10,96687	16757
10,97098	16475
10,97510	16738
10,97922	17066
10,98335	17615
10,98747	16278
10,99158	14809
10,99572	15615
10,99983	16578
11,00395	15519
11,00808	14517
11,01220	13531
11,01632	15166
11,02045	14894
11,02457	17110
11,02868	15386
11,03282	15792
11,03693	14540
11,04105	14586
11,04518	16720
11,04930	15184
11,05342	14286
11,05755	14065
11,06167	15291
11,06578	16880
11,06990	14682
11,07403	17306
11,07815	16239
11,08227	17601
11,08640	17648
11,09052	17570
11,09463	17421
11,09877	18587
11,10288	16946
11,10700	16550
11,11113	16746
11,11525	17567
11,11937	18334
11,12350	16687
11,12762	14643
11,13173	15536
11,13587	14464
11,13998	14047
11,14410	13872
11,14823	14249
11,15235	13902
11,15647	13266
11,16060	12993
11,16472	13477
11,16883	13250
11,17295	13856
11,17708	13797
11,18120	12674
11,18532	14677
11,18945	12863
11,19357	13173
11,19768	13649
11,20182	12217
11,20593	11934
11,21005	13489
11,21418	12523
11,21830	12686
11,22242	12213
11,22655	13065
11,23067	11506
11,23478	12947
11,23892	11299
11,24303	13945
11,24715	12462
11,25128	12769
11,25540	14202
11,25952	13575
11,26363	12583
11,26777	15244
11,27188	16423
11,27600	19769
11,28013	27745
11,28425	42486
11,28837	64551
11,29250	99484
11,29662	152792
11,30073	231702
11,30487	334015
11,30898	448738
11,31310	583805
11,31723	724580
11,32135	858976
11,32547	963209
11,32960	1052463
11,33372	1091305
11,33783	1113809
11,34197	1089470
11,34608	1027369
11,35020	947832
11,35432	855751
11,35845	764008
11,36257	660164
11,36668	569585
11,37082	491543
11,37493	408997
11,37905	350155
11,38318	298260
11,38730	255030
11,39142	220642
11,39555	193527
11,39967	168376
11,40378	148059
11,40792	134675
11,41203	119688
11,41615	111761
11,42028	104477
11,42440	97304
11,42852	86966
11,43265	83024
11,43677	72750
11,44088	68433
11,44500	62185
11,44913	57039
11,45325	54612
11,45737	52127
11,46150	47427
11,46562	44927
11,46973	41430
11,47387	39049
11,47798	38590
11,48210	36167
11,48623	33197
11,49035	32035
11,49447	32985
11,49860	30697
11,50272	30540
11,50683	28593
11,51097	26486
11,51508	26719
11,51920	25035
11,52333	25028
11,52745	22924
11,53157	23578
11,53568	23786
11,53982	22186
11,54393	22561
11,54805	21467
11,55218	21971
11,55630	22253
11,56042	21572
11,56455	18778
11,56867	19987
11,57278	20731
11,57692	22533
11,58103	24490
11,58515	32423
11,58928	45454
11,59340	70817
11,59752	109036
11,60165	166437
11,60577	256099
11,60988	363631
11,61402	495683
11,61813	658299
11,62225	819780
11,62637	971054
11,63050	1114558
11,63462	1215534
11,63873	1268683
11,64287	1284835
11,64698	1237617
11,65110	1158722
11,65523	1062673
11,65935	956113
11,66347	833231
11,66760	714818
11,67172	595406
11,67583	510928
11,67997	429450
11,68408	359695
11,68820	297867
11,69233	251988
11,69645	217862
11,70057	192741
11,70470	163995
11,70882	141022
11,71293	123578
11,71705	115225
11,72118	99073
11,72530	93858
11,72942	84390
11,73355	78804
11,73767	69401
11,74178	65885
11,74592	58662
11,75003	56410
11,75415	54883
11,75828	49942
11,76240	46039
11,76652	44687
11,77065	41287
11,77477	40347
11,77888	38927
11,78302	36523
11,78713	36342
11,79125	32968
11,79538	32938
11,79950	30541
11,80362	29800
11,80773	28733
11,81187	27058
11,81598	26475
11,82010	26874
11,82423	26499
11,82835	24872
11,83247	25403
11,83660	23760
11,84072	22028
11,84483	23730
11,84897	21958
11,85308	20882
11,85720	21495
11,86133	21100
11,86545	20207
11,86957	19391
11,87370	19301
11,87782	19052
11,88193	18326
11,88607	18726
11,89018	20269
11,89430	16091
11,89842	16337
11,90255	15585
11,90667	18023
11,91078	17631
11,91492	15629
11,91903	16514
11,92315	17037
11,92728	16645
11,93140	16402
11,93552	16729
11,93965	16088
11,94377	14920
11,94788	16228
11,95202	14489
11,95613	14036
11,96025	15986
11,96438	15014
11,96850	14331
11,97262	15515
11,97675	15187
11,98087	15714
11,98498	14701
11,98910	14626
11,99323	13512
11,99735	12333
12,00147	13018
12,00560	13520
12,00972	13754
12,01383	14326
12,01797	12332
12,02208	12324
12,02620	13013
12,03033	13861
12,03445	13485
12,03857	12663
12,04270	12791
12,04682	11403
12,05093	12581
12,05507	13012
12,05918	11880
12,06330	13120
12,06743	12076
12,07155	12652
12,07567	12858
12,07978	11171
12,08392	12648
12,08803	11331
12,09215	10892
12,09628	11431
12,10040	12291
12,10452	13448
12,10865	12593
12,11277	12842
12,11688	13503
12,12102	12022
12,12513	11897
12,12925	12974
12,13338	14567
12,13750	13742
12,14162	11965
12,14575	13035
12,14987	14074
12,15398	13345
12,15812	13148
12,16223	13844
12,16635	12524
12,17047	12747
12,17460	12148
12,17872	13158
12,18283	12703
12,18697	12978
12,19108	12398
12,19520	12474
12,19933	11925
12,20345	10708
12,20757	12039
12,21170	11575
12,21582	11402
12,21993	11908
12,22407	13081
12,22818	12419
12,23230	12160
12,23643	11124
12,24055	13079
12,24467	11690
12,24880	11277
12,25292	11569
12,25703	11718
12,26115	11448
12,26528	11303
12,26940	13234
12,27352	11705
12,27765	10085
12,28177	10966
12,28588	10596
12,29002	11370
12,29413	11012
12,29825	12273
12,30238	11759
12,30650	11787
12,31062	12062
12,31475	10664
12,31887	11643
12,32298	10873
12,32712	11082
12,33123	10576
12,33535	11764
12,33948	11880
12,34360	12867
12,34772	12258
12,35183	11429
12,35597	12259
12,36008	13129
12,36420	14001
12,36833	18121
12,37245	22541
12,37657	34112
12,38070	52670
12,38482	80210
12,38893	132225
12,39307	199125
12,39718	290908
12,40130	417181
12,40543	561347
12,40955	713284
12,41367	872066
12,41780	1012572
12,42192	1121834
12,42603	1184694
12,43017	1210401
12,43428	1186291
12,43840	1134158
12,44252	1037907
12,44665	935252
12,45077	822940
12,45488	709031
12,45902	597517
12,46313	504544
12,46725	434248
12,47138	360841
12,47550	301773
12,47962	256420
12,48375	221397
12,48787	190591
12,49198	161633
12,49612	143678
12,50023	131044
12,50435	113499
12,50848	106550
12,51260	96177
12,51672	83525
12,52085	77090
12,52497	73999
12,52908	69849
12,53320	62913
12,53733	58485
12,54145	56173
12,54557	49188
12,54970	49803
12,55382	43081
12,55793	41839
12,56207	42422
12,56618	39669
12,57030	36383
12,57443	34256
12,57855	33375
12,58267	32697
12,58680	32622
12,59092	28663
12,59503	28062
12,59917	26693
12,60328	28159
12,60740	24951
12,61153	24679
12,61565	25104
12,61977	23681
12,62388	22310
12,62802	21807
12,63213	21254
12,63625	22067
12,64038	21169
12,64450	20626
12,64862	21543
12,65275	20896
12,65687	21482
12,66098	25028
12,66512	30394
12,66923	44496
12,67335	71640
12,67748	119516
12,68160	202244
12,68572	329286
12,68985	524182
12,69397	776877
12,69808	1125213
12,70222	1553999
12,70633	2019060
12,71045	2539261
12,71457	3068674
12,71870	3534128
12,72282	3916629
12,72693	4162804
12,73107	4222268
12,73518	4087561
12,73930	3836153
12,74343	3448035
12,74755	3015244
12,75167	2575597
12,75580	2169114
12,75992	1795582
12,76403	1483567
12,76817	1230222
12,77228	1020332
12,77640	857182
12,78053	720905
12,78465	608803
12,78877	524379
12,79290	459724
12,79702	395870
12,80113	356489
12,80527	319591
12,80938	277042
12,81350	249042
12,81762	228009
12,82175	207726
12,82587	191641
12,82998	174008
12,83412	161121
12,83823	145805
12,84235	139429
12,84648	126654
12,85060	119140
12,85472	113527
12,85885	106069
12,86297	97785
12,86708	94682
12,87122	85930
12,87533	83655
12,87945	79065
12,88358	74950
12,88770	72355
12,89182	68794
12,89595	64330
12,90007	59739
12,90418	56506
12,90830	57667
12,91243	54960
12,91655	50891
12,92067	48845
12,92480	49850
12,92892	46324
12,93303	44635
12,93717	42670
12,94128	43438
12,94540	40543
12,94953	40950
12,95365	37676
12,95777	34460
12,96190	37360
12,96602	34163
12,97013	33796
12,97427	33602
12,97838	32563
12,98250	32206
12,98663	32131
12,99075	30676
12,99487	29551
12,99898	30354
13,00312	28396
13,00723	28521
13,01135	27164
13,01548	27100
13,01960	26289
13,02372	24021
13,02785	24097
13,03197	24576
13,03608	24225
13,04022	21716
13,04433	22419
13,04845	23377
13,05258	20945
13,05670	21631
13,06082	21788
13,06495	20352
13,06907	20379
13,07318	19847
13,07732	20709
13,08143	20232
13,08555	19876
13,08967	18210
13,09380	18031
13,09792	18036
13,10203	19248
13,10617	18270
13,11028	18130
13,11440	18677
13,11853	18615
13,12265	17516
13,12677	17547
13,13090	19535
13,13502	18996
13,13913	17881
13,14327	18625
13,14738	18482
13,15150	17058
13,15563	17554
13,15975	18371
13,16387	17476
13,16800	18862
13,17212	17329
13,17623	17272
13,18035	15331
13,18448	15575
13,18860	17074
13,19272	15161
13,19685	15471
13,20097	14451
13,20508	14552
13,20922	14257
13,21333	14508
13,21745	15458
13,22158	15699
13,22570	13687
13,22982	14995
13,23395	15754
13,23807	15576
13,24218	14993
13,24632	14048
13,25043	15822
13,25455	16571
13,25868	16025
13,26280	16083
13,26692	15541
13,27103	15556
13,27517	16163
13,27928	15869
13,28340	14857
13,28753	16084
13,29165	14706
13,29577	14178
13,29990	15854
13,30402	14883
13,30813	15659
13,31227	18806
13,31638	24942
13,32050	38322
13,32463	59406
13,32875	91863
13,33287	144511
13,33700	219120
13,34112	323868
13,34523	455004
13,34937	601238
13,35348	777591
13,35760	939880
13,36172	1065974
13,36585	1178419
13,36997	1247858
13,37408	1264408
13,37822	1234850
13,38233	1146863
13,38645	1061812
13,39058	939625
13,39470	815384
13,39882	698160
13,40295	595331
13,40707	499428
13,41118	423888
13,41532	364232
13,41943	313196
13,42355	264098
13,42768	230344
13,43180	203803
13,43592	174909
13,44005	160005
13,44417	145370
13,44828	128116
13,45240	114904
13,45653	106372
13,46065	93389
13,46477	86106
13,46890	82490
13,47302	74402
13,47713	73842
13,48127	63817
13,48538	63623
13,48950	58070
13,49363	56613
13,49775	54253
13,50187	52821
13,50600	50325
13,51012	47522
13,51423	45003
13,51837	46124
13,52248	43743
13,52660	42362
13,53073	41229
13,53485	37609
13,53897	35618
13,54308	35939
13,54722	33847
13,55133	30170
13,55545	30686
13,55958	29254
13,56370	29549
13,56782	27752
13,57195	28719
13,57607	28277
13,58018	25549
13,58432	24229
13,58843	24054
13,59255	22914
13,59668	22823
13,60080	21906
13,60492	22584
13,60905	20729
13,61317	20533
13,61728	19090
13,62142	20919
13,62553	17607
13,62965	18658
13,63377	17560
13,63790	17866
13,64202	17804
13,64613	17142
13,65027	17641
13,65438	16248
13,65850	17111
13,66263	15675
13,66675	14586
13,67087	16364
13,67500	16131
13,67912	14896
13,68323	16079
13,68737	15803
13,69148	14905
13,69560	16244
13,69973	15963
13,70385	15515
13,70797	14156
13,71210	14894
13,71622	15586
13,72033	14185
13,72445	15001
13,72858	14696
13,73270	16297
13,73682	18476
13,74095	19876
13,74507	29444
13,74918	42710
13,75332	67086
13,75743	112289
13,76155	177293
13,76568	270652
13,76980	398648
13,77392	557355
13,77805	734575
13,78217	937343
13,78628	1126621
13,79042	1276933
13,79453	1395435
13,79865	1464628
13,80278	1464354
13,80690	1386489
13,81102	1282427
13,81513	1133409
13,81927	1004130
13,82338	848069
13,82750	713688
13,83163	596439
13,83575	498629
13,83987	417048
13,84400	344506
13,84812	293173
13,85223	251969
13,85637	216924
13,86048	187672
13,86460	163202
13,86873	147966
13,87285	128257
13,87697	115152
13,88110	106454
13,88522	97096
13,88933	87562
13,89347	80815
13,89758	75140
13,90170	65386
13,90582	63358
13,90995	60639
13,91407	57794
13,91818	51552
13,92232	48780
13,92643	45064
13,93055	44319
13,93468	42438
13,93880	38695
13,94292	38445
13,94705	37640
13,95117	34392
13,95528	33636
13,95942	31758
13,96353	32078
13,96765	31720
13,97178	30613
13,97590	28362
13,98002	28756
13,98415	28198
13,98827	27457
13,99238	26014
13,99650	27326
14,00063	25748
14,00475	25525
14,00887	24391
14,01300	23102
14,01712	22868
14,02123	23443
14,02537	22189
14,02948	22277
14,03360	21668
14,03773	20148
14,04185	20277
14,04597	20509
14,05010	19608
14,05422	18351
14,05833	19396
14,06247	18576
14,06658	17866
14,07070	17836
14,07483	17872
14,07895	17522
14,08307	17922
14,08718	16674
14,09132	18657
14,09543	16655
14,09955	16557
14,10368	16033
14,10780	16332
14,11192	15810
14,11605	15871
14,12017	16636
14,12428	15406
14,12842	14683
14,13253	14788
14,13665	14326
14,14078	13885
14,14490	15751
14,14902	14623
14,15315	14510
14,15727	13797
14,16138	14012
14,16552	14681
14,16963	13923
14,17375	14576
14,17787	13659
14,18200	13166
14,18612	14624
14,19023	13372
14,19437	13913
14,19848	12817
14,20260	11671
14,20673	12903
14,21085	12682
14,21497	13112
14,21910	13547
14,22322	12484
14,22733	12899
14,23147	13488
14,23558	14051
14,23970	13248
14,24383	11648
14,24795	12414
14,25207	11896
14,25620	12018
14,26032	11302
14,26443	11157
14,26855	10825
14,27268	13027
14,27680	12937
14,28092	13155
14,28505	10760
14,28917	12396
14,29328	13494
14,29742	13080
14,30153	12150
14,30565	12977
14,30978	13253
14,31390	11620
14,31802	13281
14,32215	12157
14,32627	12608
14,33038	11503
14,33452	12215
14,33863	12095
14,34275	11573
14,34688	11537
14,35100	13009
14,35512	12201
14,35923	12690
14,36337	11496
14,36748	11626
14,37160	13419
14,37573	16266
14,37985	16685
14,38397	23311
14,38810	36292
14,39222	55894
14,39633	91340
14,40047	146097
14,40458	225007
14,40870	334843
14,41283	472032
14,41695	644148
14,42107	829816
14,42520	1010964
14,42932	1164523
14,43343	1281599
14,43757	1354348
14,44168	1376420
14,44580	1331559
14,44993	1252403
14,45405	1139150
14,45817	1010938
14,46228	873464
14,46642	745290
14,47053	633603
14,47465	524492
14,47878	441282
14,48290	370410
14,48702	321302
14,49115	271621
14,49527	233798
14,49938	200913
14,50352	176306
14,50763	152973
14,51175	132782
14,51588	124366
14,52000	113377
14,52412	98290
14,52825	92172
14,53237	86730
14,53648	77338
14,54062	70840
14,54473	65919
14,54885	63093
14,55297	56912
14,55710	54665
14,56122	52713
14,56533	47980
14,56947	46933
14,57358	43993
14,57770	41866
14,58183	40496
14,58595	38930
14,59007	39706
14,59420	35391
14,59832	34620
14,60243	32234
14,60657	31984
14,61068	29108
14,61480	30366
14,61893	29601
14,62305	28760
14,62717	26750
14,63130	27748
14,63542	26848
14,63953	30067
14,64365	28250
14,64778	30995
14,65190	31859
14,65602	33119
14,66015	38077
14,66427	39890
14,66838	42685
14,67252	41945
14,67663	41616
14,68075	41988
14,68488	40944
14,68900	39987
14,69312	39804
14,69725	36666
14,70137	34285
14,70548	31343
14,70962	30480
14,71373	28812
14,71785	26874
14,72198	25540
14,72610	25190
14,73022	22317
14,73433	21573
14,73847	21516
14,74258	20221
14,74670	19811
14,75083	21263
14,75495	18210
14,75907	19814
14,76320	18572
14,76732	17011
14,77143	16707
14,77557	17013
14,77968	17433
14,78380	16652
14,78793	19563
14,79205	22708
14,79617	29632
14,80030	45469
14,80442	71829
14,80853	121208
14,81267	202751
14,81678	325202
14,82090	492422
14,82502	726965
14,82915	1025572
14,83327	1351891
14,83738	1749799
14,84152	2151136
14,84563	2524578
14,84975	2824238
14,85388	3040333
14,85800	3157322
14,86212	3122364
14,86625	2968099
14,87037	2703091
14,87448	2415988
14,87862	2062695
14,88273	1741652
14,88685	1448114
14,89098	1205805
14,89510	1007310
14,89922	833989
14,90335	699674
14,90747	590158
14,91158	508258
14,91570	439511
14,91983	378536
14,92395	336069
14,92807	294680
14,93220	263091
14,93632	233801
14,94043	212979
14,94457	195707
14,94868	175705
14,95280	160888
14,95693	151678
14,96105	136630
14,96517	128087
14,96930	118824
14,97342	111298
14,97753	103916
14,98167	99490
14,98578	94231
14,98990	84753
14,99403	79290
14,99815	77295
15,00227	73895
15,00638	65886
15,01052	66884
15,01463	62130
15,01875	57953
15,02288	58606
15,02700	55449
15,03112	52040
15,03525	50424
15,03937	50453
15,04348	45577
15,04762	46045
15,05173	43520
15,05585	42623
15,05998	42211
15,06410	40792
15,06822	38802
15,07235	37132
15,07647	35832
15,08058	35691
15,08472	33957
15,08883	34290
15,09295	31103
15,09707	33192
15,10120	30641
15,10532	30315
15,10943	29439
15,11357	29208
15,11768	28965
15,12180	26653
15,12593	27658
15,13005	27422
15,13417	25485
15,13830	25851
15,14242	24458
15,14653	24699
15,15067	26251
15,15478	27959
15,15890	35255
15,16303	49261
15,16715	69446
15,17127	102198
15,17540	152495
15,17952	241345
15,18363	354392
15,18775	492686
15,19188	673906
15,19600	873592
15,20012	1067932
15,20425	1232154
15,20837	1357837
15,21248	1440697
15,21662	1461246
15,22073	1438293
15,22485	1359101
15,22898	1244611
15,23310	1100090
15,23722	948767
15,24135	809307
15,24547	685102
15,24958	583588
15,25372	485434
15,25783	411953
15,26195	350430
15,26608	298879
15,27020	259608
15,27432	230634
15,27843	201491
15,28257	174059
15,28668	158390
15,29080	141599
15,29493	130515
15,29905	115881
15,30317	109403
15,30730	100319
15,31142	93111
15,31553	85117
15,31967	82096
15,32378	74336
15,32790	74440
15,33203	67850
15,33615	70877
15,34027	78664
15,34440	93297
15,34852	119822
15,35263	172120
15,35677	260058
15,36088	385302
15,36500	569971
15,36912	806600
15,37325	1121783
15,37737	1458927
15,38148	1846644
15,38562	2229115
15,38973	2596423
15,39385	2832113
15,39798	2996806
15,40210	3025917
15,40622	2906415
15,41035	2700274
15,41447	2441048
15,41858	2133606
15,42272	1819964
15,42683	1538087
15,43095	1296401
15,43508	1080706
15,43920	909470
15,44332	768082
15,44745	658489
15,45157	553722
15,45568	477525
15,45980	418242
15,46393	372575
15,46805	325894
15,47217	295029
15,47630	264763
15,48042	237639
15,48453	211661
15,48867	198424
15,49278	180852
15,49690	169575
15,50103	152691
15,50515	142424
15,50927	135832
15,51340	126128
15,51752	118129
15,52163	112662
15,52577	106024
15,52988	97517
15,53400	93147
15,53813	87670
15,54225	82009
15,54637	78608
15,55048	77130
15,55462	72357
15,55873	69558
15,56285	66270
15,56698	65032
15,57110	62579
15,57522	58362
15,57935	55637
15,58347	54878
15,58758	54991
15,59172	53052
15,59583	51560
15,59995	49213
15,60408	47389
15,60820	44876
15,61232	43920
15,61645	43079
15,62057	41820
15,62468	41077
15,62882	40767
15,63293	37364
15,63705	39058
15,64117	37232
15,64530	35235
15,64942	35322
15,65353	34804
15,65767	34563
15,66178	31542
15,66590	33801
15,67003	32428
15,67415	32038
15,67827	28375
15,68240	28527
15,68652	30627
15,69063	28001
15,69477	29405
15,69888	29930
15,70300	27266
15,70713	25370
15,71125	25328
15,71537	24640
15,71950	25895
15,72362	25155
15,72773	20928
15,73185	24394
15,73598	24149
15,74010	24502
15,74422	22487
15,74835	23700
15,75247	24084
15,75658	25815
15,76072	31706
15,76483	39945
15,76895	55696
15,77308	82462
15,77720	130238
15,78132	197182
15,78545	299257
15,78957	424290
15,79368	587053
15,79782	756200
15,80193	938031
15,80605	1087923
15,81018	1233906
15,81430	1315918
15,81842	1336058
15,82253	1315774
15,82667	1279341
15,83078	1206827
15,83490	1147685
15,83903	1102400
15,84315	1112657
15,84727	1194898
15,85140	1331779
15,85552	1538246
15,85963	1813580
15,86377	2138670
15,86788	2506537
15,87200	2834228
15,87613	3100413
15,88025	3292418
15,88437	3320882
15,88850	3218483
15,89262	3018546
15,89673	2731246
15,90087	2385517
15,90498	2031971
15,90910	1694520
15,91322	1428509
15,91735	1180999
15,92147	992045
15,92558	835986
15,92972	710365
15,93383	611609
15,93795	537979
15,94208	470517
15,94620	408357
15,95032	368406
15,95445	333008
15,95857	297880
15,96268	270663
15,96682	252431
15,97093	228456
15,97505	208360
15,97918	197644
15,98330	181232
15,98742	168449
15,99155	155404
15,99567	146955
15,99978	136569
16,00392	132676
16,00803	120550
16,01215	115549
16,01627	110867
16,02040	106300
16,02452	97444
16,02863	96551
16,03277	93301
16,03688	87648
16,04100	86790
16,04513	80164
16,04925	78376
16,05337	74001
16,05750	73544
16,06162	67736
16,06573	65145
16,06987	65595
16,07398	62614
16,07810	58533
16,08223	58903
16,08635	54531
16,09047	55282
16,09460	51341
16,09872	50829
16,10283	49162
16,10695	51740
16,11108	48733
16,11520	46913
16,11932	45213
16,12345	44312
16,12757	42666
16,13168	42590
16,13582	41079
16,13993	40260
16,14405	38774
16,14818	38162
16,15230	36680
16,15642	36118
16,16055	36678
16,16467	36804
16,16878	36206
16,17292	37692
16,17703	41297
16,18115	49508
16,18528	64579
16,18940	88552
16,19352	129159
16,19763	193009
16,20177	277499
16,20588	395631
16,21000	535592
16,21413	694443
16,21825	861288
16,22237	1020821
16,22650	1151884
16,23062	1230002
16,23473	1276491
16,23887	1260414
16,24298	1204836
16,24710	1110400
16,25123	998849
16,25535	880223
16,25947	764167
16,26360	658694
16,26772	556926
16,27183	468789
16,27597	400441
16,28008	342069
16,28420	294049
16,28832	256533
16,29245	221576
16,29657	197393
16,30068	173764
16,30482	155019
16,30893	142144
16,31305	127351
16,31718	119327
16,32130	106204
16,32542	100920
16,32955	91515
16,33367	85983
16,33778	80808
16,34192	75829
16,34603	73802
16,35015	68566
16,35428	64404
16,35840	60940
16,36252	58434
16,36665	55480
16,37077	54322
16,37488	52194
16,37900	50488
16,38313	48241
16,38725	47396
16,39137	45565
16,39550	44410
16,39962	43892
16,40373	42172
16,40787	41435
16,41198	41235
16,41610	39590
16,42023	38108
16,42435	36501
16,42847	37892
16,43260	35715
16,43672	34719
16,44083	33361
16,44497	33936
16,44908	31914
16,45320	30058
16,45733	29754
16,46145	29139
16,46557	27511
16,46968	26898
16,47382	27935
16,47793	25830
16,48205	26071
16,48618	25181
16,49030	24543
16,49442	24326
16,49855	25594
16,50267	24651
16,50678	24548
16,51092	24210
16,51503	23700
16,51915	22810
16,52328	23644
16,52740	22896
16,53152	22410
16,53565	21599
16,53977	21063
16,54388	21160
16,54802	21099
16,55213	19565
16,55625	20713
16,56037	19932
16,56450	20844
16,56862	20971
16,57273	20721
16,57687	20766
16,58098	19103
16,58510	18153
16,58923	19581
16,59335	18985
16,59747	19134
16,60160	18690
16,60572	18006
16,60983	18785
16,61397	18162
16,61808	20627
16,62220	17356
16,62633	20242
16,63045	20369
16,63457	19650
16,63870	17550
16,64282	17148
16,64693	18651
16,65105	18337
16,65518	17071
16,65930	18046
16,66342	17759
16,66755	15984
16,67167	18065
16,67578	17322
16,67992	17531
16,68403	16874
16,68815	17217
16,69228	16582
16,69640	17129
16,70052	16449
16,70465	17346
16,70877	17275
16,71288	15402
16,71702	16671
16,72113	16136
16,72525	16257
16,72938	15398
16,73350	16351
16,73762	15107
16,74173	15539
16,74587	16493
16,74998	16566
16,75410	17757
16,75823	17205
16,76235	17917
16,76647	22333
16,77060	27852
16,77472	38519
16,77883	59131
16,78297	88988
16,78708	143038
16,79120	208707
16,79533	302697
16,79945	421662
16,80357	555650
16,80770	702464
16,81182	838480
16,81593	966808
16,82007	1076614
16,82418	1148116
16,82830	1188762
16,83242	1226910
16,83655	1272825
16,84067	1322501
16,84478	1423735
16,84892	1585679
16,85303	1797208
16,85715	2093933
16,86128	2449288
16,86540	2817654
16,86952	3168698
16,87365	3421075
16,87777	3613378
16,88188	3688062
16,88602	3574982
16,89013	3344661
16,89425	2984650
16,89838	2608268
16,90250	2227486
16,90662	1889201
16,91075	1583296
16,91487	1317752
16,91898	1117532
16,92310	939651
16,92723	810782
16,93135	694599
16,93547	605387
16,93960	538494
16,94372	468311
16,94783	423571
16,95197	380988
16,95608	347698
16,96020	318866
16,96433	299484
16,96845	274693
16,97257	253888
16,97670	243047
16,98082	226188
16,98493	217579
16,98907	203195
16,99318	191179
16,99730	180812
17,00143	167252
17,00555	160985
17,00967	153468
17,01378	142543
17,01792	133151
17,02203	127167
17,02615	119544
17,03028	113638
17,03440	108774
17,03852	100595
17,04265	97673
17,04677	91537
17,05088	87749
17,05502	84908
17,05913	83133
17,06325	77303
17,06738	76385
17,07150	74280
17,07562	70527
17,07975	69154
17,08387	67947
17,08798	63786
17,09212	59109
17,09623	61033
17,10035	57364
17,10447	55091
17,10860	52097
17,11272	50542
17,11683	51095
17,12097	50095
17,12508	49099
17,12920	47276
17,13333	49090
17,13745	48874
17,14157	52546
17,14570	57863
17,14982	67560
17,15393	89052
17,15807	122450
17,16218	179531
17,16630	249874
17,17043	350230
17,17455	468455
17,17867	607466
17,18280	749347
17,18692	884745
17,19103	1003250
17,19515	1070871
17,19928	1106715
17,20340	1079435
17,20752	1047693
17,21165	969902
17,21577	887250
17,21988	787662
17,22402	681392
17,22813	595504
17,23225	501442
17,23638	431887
17,24050	368131
17,24462	309453
17,24875	274303
17,25287	243531
17,25698	207610
17,26112	190255
17,26523	168308
17,26935	148372
17,27348	133345
17,27760	124509
17,28172	114519
17,28583	104636
17,28997	101137
17,29408	88328
17,29820	85880
17,30233	80996
17,30645	73199
17,31057	72119
17,31470	68539
17,31882	65519
17,32293	65471
17,32707	63266
17,33118	65841
17,33530	73579
17,33943	90204
17,34355	113426
17,34767	163048
17,35180	227455
17,35592	322142
17,36003	456799
17,36417	622242
17,36828	809757
17,37240	1010034
17,37652	1219180
17,38065	1391473
17,38477	1530225
17,38888	1578011
17,39302	1575154
17,39713	1519844
17,40125	1404047
17,40538	1285519
17,40950	1139605
17,41362	976547
17,41775	842365
17,42187	710686
17,42598	607220
17,43012	514016
17,43423	444236
17,43835	384006
17,44248	336707
17,44660	298476
17,45072	267183
17,45485	234263
17,45897	213039
17,46308	193257
17,46720	176603
17,47133	162331
17,47545	147190
17,47957	137308
17,48370	129579
17,48782	119639
17,49193	110625
17,49607	103054
17,50018	99630
17,50430	93295
17,50843	87978
17,51255	83792
17,51667	82972
17,52080	77233
17,52492	73365
17,52903	70631
17,53317	66393
17,53728	67205
17,54140	61119
17,54553	60361
17,54965	60680
17,55377	55675
17,55788	56101
17,56202	52412
17,56613	52237
17,57025	49919
17,57438	46487
17,57850	45142
17,58262	45780
17,58675	44708
17,59087	43701
17,59498	42029
17,59912	41180
17,60323	39707
17,60735	39875
17,61148	39894
17,61560	38039
17,61972	37143
17,62385	36425
17,62797	36287
17,63208	36188
17,63622	35593
17,64033	35176
17,64445	32405
17,64858	34021
17,65270	32739
17,65682	31397
17,66093	32849
17,66507	32291
17,66918	29531
17,67330	30609
17,67743	29752
17,68155	28892
17,68567	29671
17,68980	27910
17,69392	29578
17,69803	27903
17,70217	28485
17,70628	26932
17,71040	27487
17,71453	28180
17,71865	26603
17,72277	28207
17,72690	25640
17,73102	25344
17,73513	26318
17,73927	24161
17,74338	23607
17,74750	24988
17,75162	23960
17,75575	24327
17,75987	25042
17,76398	23656
17,76812	25827
17,77223	26404
17,77635	29328
17,78048	34274
17,78460	45957
17,78872	62655
17,79285	94359
17,79697	149675
17,80108	231701
17,80522	349215
17,80933	502204
17,81345	694023
17,81758	938928
17,82170	1182976
17,82582	1410372
17,82995	1583852
17,83407	1707298
17,83818	1766735
17,84230	1732395
17,84643	1639772
17,85055	1510814
17,85467	1340504
17,85880	1156149
17,86292	980310
17,86703	832963
17,87117	710865
17,87528	597653
17,87940	520920
17,88353	447590
17,88765	379177
17,89177	332999
17,89590	298711
17,90002	269316
17,90413	236964
17,90827	219071
17,91238	191285
17,91650	181150
17,92063	164684
17,92475	152512
17,92887	141378
17,93298	130541
17,93712	123294
17,94123	115929
17,94535	109112
17,94948	101653
17,95360	97049
17,95772	92126
17,96185	87743
17,96597	83563
17,97008	81411
17,97422	78820
17,97833	72525
17,98245	73312
17,98658	71109
17,99070	67704
17,99482	63697
17,99895	64364
18,00307	59936
18,00718	58476
18,01132	58139
18,01543	52657
18,01955	50861
18,02367	50537
18,02780	46458
18,03192	48582
18,03603	45245
18,04017	44984
18,04428	42143
18,04840	44158
18,05253	43171
18,05665	41215
18,06077	41777
18,06490	42897
18,06902	39021
18,07313	39150
18,07727	36469
18,08138	37745
18,08550	37987
18,08963	37466
18,09375	36722
18,09787	35923
18,10200	34896
18,10612	34989
18,11023	34704
18,11435	32833
18,11848	34021
18,12260	33605
18,12672	34225
18,13085	37033
18,13497	42147
18,13908	51054
18,14322	70808
18,14733	103778
18,15145	151293
18,15558	226879
18,15970	329625
18,16382	473762
18,16795	635134
18,17207	818159
18,17618	1001403
18,18032	1158902
18,18443	1287976
18,18855	1352638
18,19268	1355903
18,19680	1325770
18,20092	1237170
18,20503	1126711
18,20917	1008862
18,21328	873869
18,21740	750147
18,22153	637401
18,22565	551445
18,22977	475458
18,23390	403407
18,23802	354792
18,24213	309497
18,24627	269751
18,25038	245271
18,25450	214020
18,25863	195080
18,26275	177418
18,26687	158048
18,27100	148095
18,27512	135050
18,27923	123233
18,28337	116309
18,28748	110406
18,29160	105387
18,29572	97204
18,29985	89753
18,30397	85497
18,30808	81319
18,31222	81588
18,31633	73539
18,32045	71253
18,32458	66443
18,32870	64914
18,33282	59485
18,33695	57073
18,34107	58356
18,34518	55640
18,34932	54494
18,35343	52461
18,35755	51745
18,36168	49736
18,36580	46473
18,36992	45643
18,37405	45357
18,37817	43825
18,38228	42600
18,38640	41800
18,39053	41204
18,39465	39860
18,39877	40290
18,40290	39119
18,40702	38903
18,41113	35521
18,41527	35858
18,41938	34665
18,42350	35097
18,42763	36073
18,43175	34281
18,43587	35291
18,44000	31775
18,44412	31922
18,44823	30933
18,45237	31148
18,45648	32062
18,46060	30808
18,46473	31945
18,46885	30049
18,47297	29890
18,47708	29153
18,48122	29367
18,48533	28797
18,48945	27725
18,49358	28436
18,49770	28104
18,50182	28029
18,50595	28341
18,51007	28237
18,51418	28677
18,51832	27513
18,52243	27530
18,52655	28831
18,53068	27476
18,53480	27125
18,53892	24770
18,54305	27461
18,54717	26230
18,55128	26542
18,55542	27899
18,55953	27647
18,56365	27095
18,56777	28507
18,57190	29105
18,57602	26846
18,58013	27250
18,58427	27092
18,58838	27069
18,59250	26891
18,59663	24970
18,60075	26730
18,60487	26232
18,60900	25221
18,61312	24849
18,61723	24592
18,62137	24210
18,62548	25157
18,62960	24100
18,63373	25175
18,63785	23279
18,64197	24218
18,64610	21801
18,65022	22718
18,65433	23917
18,65845	24537
18,66258	24107
18,66670	23678
18,67082	22541
18,67495	23952
18,67907	23769
18,68318	23396
18,68732	23565
18,69143	29502
18,69555	32459
18,69968	41374
18,70380	57629
18,70792	87691
18,71205	134518
18,71617	207542
18,72028	322779
18,72442	468602
18,72853	663676
18,73265	898532
18,73678	1185653
18,74090	1496007
18,74502	1805258
18,74913	2139188
18,75327	2489643
18,75738	2854522
18,76150	3166410
18,76563	3479281
18,76975	3772026
18,77387	4029465
18,77800	4166743
18,78212	4157987
18,78623	4000118
18,79037	3735879
18,79448	3379111
18,79860	2969325
18,80273	2538842
18,80685	2150487
18,81097	1818163
18,81510	1527563
18,81922	1302052
18,82333	1122104
18,82747	971259
18,83158	847604
18,83570	736849
18,83982	658385
18,84395	588712
18,84807	532101
18,85218	480702
18,85632	442350
18,86043	406409
18,86455	369769
18,86868	341893
18,87280	312503
18,87692	293409
18,88105	272995
18,88517	260055
18,88928	237157
18,89342	233453
18,89753	214679
18,90165	203084
18,90578	193026
18,90990	184887
18,91402	173937
18,91815	168035
18,92227	160395
18,92638	153331
18,93050	144473
18,93463	140125
18,93875	134409
18,94287	129167
18,94700	123279
18,95112	119474
18,95523	116882
18,95937	109625
18,96348	106923
18,96760	102484
18,97173	99750
18,97585	94054
18,97997	92540
18,98410	90536
18,98822	90417
18,99233	86582
18,99647	85292
19,00058	81191
19,00470	78407
19,00883	76156
19,01295	74024
19,01707	73650
19,02118	73140
19,02532	68290
19,02943	71805
19,03355	71802
19,03768	69922
19,04180	70061
19,04592	72202
19,05005	80536
19,05417	97693
19,05828	123979
19,06242	164964
19,06653	227942
19,07065	317670
19,07478	432666
19,07890	568404
19,08302	724278
19,08715	883918
19,09127	1020696
19,09538	1129271
19,09952	1219697
19,10363	1259625
19,10775	1240720
19,11187	1191617
19,11600	1127383
19,12012	1035580
19,12423	962763
19,12837	902911
19,13248	875420
19,13660	870590
19,14073	905040
19,14485	972708
19,14897	1048703
19,15310	1140140
19,15722	1214228
19,16133	1277911
19,16547	1297303
19,16958	1286558
19,17370	1238455
19,17783	1158963
19,18195	1069611
19,18607	952763
19,19020	840811
19,19432	730084
19,19843	651160
19,20255	576659
19,20668	514334
19,21080	467230
19,21492	449336
19,21905	447290
19,22317	479670
19,22728	547767
19,23142	653262
19,23553	784123
19,23965	957832
19,24378	1159836
19,24790	1361614
19,25202	1523047
19,25615	1665691
19,26027	1729729
19,26438	1734374
19,26852	1691871
19,27263	1580088
19,27675	1445731
19,28088	1301320
19,28500	1142093
19,28912	993317
19,29325	862645
19,29737	750013
19,30148	645750
19,30560	572658
19,30973	503897
19,31385	447734
19,31797	402775
19,32210	357198
19,32622	329632
19,33033	301343
19,33447	279409
19,33858	258529
19,34270	238935
19,34683	224613
19,35095	210112
19,35507	196091
19,35920	181668
19,36332	176402
19,36743	167295
19,37157	156700
19,37568	150461
19,37980	139357
19,38393	139657
19,38805	129959
19,39217	120221
19,39628	119951
19,40042	111057
19,40453	109915
19,40865	100334
19,41278	104730
19,41690	97342
19,42102	93556
19,42515	91195
19,42927	87067
19,43338	86188
19,43752	85332
19,44163	80195
19,44575	78454
19,44988	78124
19,45400	77006
19,45812	72661
19,46225	69985
19,46637	70965
19,47048	70210
19,47462	68351
19,47873	66245
19,48285	68083
19,48697	64637
19,49110	64738
19,49522	61645
19,49933	60136
19,50347	60413
19,50758	62003
19,51170	58274
19,51583	59116
19,51995	56312
19,52407	55589
19,52820	52536
19,53232	56073
19,53643	52689
19,54057	52874
19,54468	51539
19,54880	53127
19,55293	51361
19,55705	50297
19,56117	46440
19,56530	50566
19,56942	47652
19,57353	49811
19,57765	47039
19,58178	47108
19,58590	48048
19,59002	49693
19,59415	50456
19,59827	49923
19,60238	52518
19,60652	50915
19,61063	55555
19,61475	64411
19,61888	77617
19,62300	103753
19,62712	136620
19,63125	200499
19,63537	287801
19,63948	407899
19,64362	561756
19,64773	752244
19,65185	980748
19,65598	1229178
19,66010	1442448
19,66422	1627915
19,66833	1741329
19,67247	1781682
19,67658	1738383
19,68070	1621398
19,68483	1482290
19,68895	1317049
19,69307	1144912
19,69720	985679
19,70132	851056
19,70543	727346
19,70957	634569
19,71368	551054
19,71780	488324
19,72193	434289
19,72605	384245
19,73017	351912
19,73430	313519
19,73842	287943
19,74253	264967
19,74667	244235
19,75078	225440
19,75490	211352
19,75902	198254
19,76315	188059
19,76727	175290
19,77138	169179
19,77552	154839
19,77963	145537
19,78375	142548
19,78788	138643
19,79200	135163
19,79612	128204
19,80025	121282
19,80437	119086
19,80848	112746
19,81262	109939
19,81673	108847
19,82085	104779
19,82498	102644
19,82910	100463
19,83322	94893
19,83735	93183
19,84147	89632
19,84558	90701
19,84970	85856
19,85383	85797
19,85795	82371
19,86207	77775
19,86620	76500
19,87032	74834
19,87443	74463
19,87857	72829
19,88268	71106
19,88680	67275
19,89093	69814
19,89505	67775
19,89917	65111
19,90330	63961
19,90742	63170
19,91153	62576
19,91567	58924
19,91978	56344
19,92390	60058
19,92803	55400
19,93215	55201
19,93627	53869
19,94038	55351
19,94452	53007
19,94863	51681
19,95275	53849
19,95688	54703
19,96100	54850
19,96512	62601
19,96925	76105
19,97337	93126
19,97748	128626
19,98162	176521
19,98573	252944
19,98985	353850
19,99398	494501
19,99810	654454
20,00222	840246
20,00635	1024615
20,01047	1200666
20,01458	1344718
20,01872	1403527
20,02283	1404223
20,02695	1381084
20,03107	1303963
20,03520	1193506
20,03932	1075977
20,04343	946370
20,04757	843480
20,05168	749925
20,05580	687852
20,05993	649203
20,06405	655867
20,06817	671241
20,07230	739884
20,07642	803437
20,08053	900448
20,08467	1002577
20,08878	1087973
20,09290	1137891
20,09703	1166729
20,10115	1156022
20,10527	1137102
20,10940	1064728
20,11352	981436
20,11763	877910
20,12175	795139
20,12588	698535
20,13000	602459
20,13412	537749
20,13825	476800
20,14237	419922
20,14648	374867
20,15062	329789
20,15473	303496
20,15885	267650
20,16298	244618
20,16710	226457
20,17122	206842
20,17535	196433
20,17947	176272
20,18358	170913
20,18772	158285
20,19183	151938
20,19595	143413
20,20008	136318
20,20420	128430
20,20832	121981
20,21243	117394
20,21657	111731
20,22068	105611
20,22480	105105
20,22893	95718
20,23305	99039
20,23717	93166
20,24130	89569
20,24542	88940
20,24953	83158
20,25367	81516
20,25778	80462
20,26190	81688
20,26603	73360
20,27015	72096
20,27427	75400
20,27840	70204
20,28252	68804
20,28663	69950
20,29077	66448
20,29488	65310
20,29900	66487
20,30312	66176
20,30725	63973
20,31137	61178
20,31548	58920
20,31962	59581
20,32373	56945
20,32785	57332
20,33198	58056
20,33610	55453
20,34022	58649
20,34435	53595
20,34847	57267
20,35258	57388
20,35672	53118
20,36083	54903
20,36495	54185
20,36908	52829
20,37320	51526
20,37732	51649
20,38145	51771
20,38557	48330
20,38968	48858
20,39380	48411
20,39793	48371
20,40205	47991
20,40617	47278
20,41030	45784
20,41442	46571
20,41853	45394
20,42267	43933
20,42678	45454
20,43090	43666
20,43503	44169
20,43915	43383
20,44327	43947
20,44740	44544
20,45152	44205
20,45563	46094
20,45977	43900
20,46388	43042
20,46800	42422
20,47213	43776
20,47625	43449
20,48037	47471
20,48448	49797
20,48862	53945
20,49273	66922
20,49685	87657
20,50098	114832
20,50510	163189
20,50922	230302
20,51335	337866
20,51747	478315
20,52158	666476
20,52572	913634
20,52983	1208494
20,53395	1569348
20,53808	1938504
20,54220	2352959
20,54632	2743630
20,55045	3087845
20,55457	3346345
20,55868	3443959
20,56282	3415377
20,56693	3203471
20,57105	2897678
20,57517	2562604
20,57930	2218494
20,58342	1897672
20,58753	1612260
20,59167	1375954
20,59578	1193034
20,59990	1026602
20,60403	890948
20,60815	791543
20,61227	707910
20,61640	630971
20,62052	567073
20,62463	520894
20,62877	473706
20,63288	435068
20,63700	407449
20,64113	378119
20,64525	347137
20,64937	323795
20,65350	305634
20,65762	288187
20,66173	267791
20,66585	256466
20,66998	244783
20,67410	232173
20,67822	222131
20,68235	209831
20,68647	205049
20,69058	194582
20,69472	184731
20,69883	176951
20,70295	171628
20,70708	162423
20,71120	158627
20,71532	151744
20,71945	148339
20,72357	145099
20,72768	140780
20,73182	136915
20,73593	132381
20,74005	126310
20,74418	125176
20,74830	120695
20,75242	117390
20,75653	117494
20,76067	113862
20,76478	109937
20,76890	107008
20,77303	103151
20,77715	103830
20,78127	102085
20,78540	101288
20,78952	94153
20,79363	93480
20,79777	93912
20,80188	91049
20,80600	90557
20,81013	87409
20,81425	89064
20,81837	83141
20,82250	81361
20,82662	86091
20,83073	83482
20,83487	80770
20,83898	80584
20,84310	79060
20,84722	78638
20,85135	76785
20,85547	74842
20,85958	76710
20,86372	76570
20,86783	74107
20,87195	74287
20,87608	73931
20,88020	71220
20,88432	72477
20,88845	69687
20,89257	70929
20,89668	67822
20,90082	66557
20,90493	68268
20,90905	67694
20,91318	64465
20,91730	66073
20,92142	66159
20,92555	63671
20,92967	60550
20,93378	61696
20,93790	64616
20,94203	61588
20,94615	61881
20,95027	65542
20,95440	70046
20,95852	76289
20,96263	92231
20,96677	115959
20,97088	152679
20,97500	209794
20,97913	299472
20,98325	416976
20,98737	562315
20,99150	742780
20,99562	955396
20,99973	1160885
21,00387	1351179
21,00798	1499855
21,01210	1585651
21,01623	1614893
21,02035	1582353
21,02447	1485777
21,02860	1358463
21,03272	1227197
21,03683	1071922
21,04095	942213
21,04508	810588
21,04920	718740
21,05332	637923
21,05745	556353
21,06157	503183
21,06568	450519
21,06982	403182
21,07393	367686
21,07805	333294
21,08218	304955
21,08630	285331
21,09042	263544
21,09455	252950
21,09867	232069
21,10278	220549
21,10692	210720
21,11103	195975
21,11515	185984
21,11928	175998
21,12340	173947
21,12752	165425
21,13163	156907
21,13577	145930
21,13988	144555
21,14400	141297
21,14813	134686
21,15225	132463
21,15637	124782
21,16050	123026
21,16462	121708
21,16873	116844
21,17287	112061
21,17698	110295
21,18110	104048
21,18523	106097
21,18935	103666
21,19347	101985
21,19760	98672
21,20172	96175
21,20583	94443
21,20997	93511
21,21408	91723
21,21820	86103
21,22232	82590
21,22645	83988
21,23057	84875
21,23468	83687
21,23882	80981
21,24293	78700
21,24705	76604
21,25118	75378
21,25530	77202
21,25942	73489
21,26355	72181
21,26767	73390
21,27178	73330
21,27592	69522
21,28003	70093
21,28415	68869
21,28828	68326
21,29240	67662
21,29652	68210
21,30065	68474
21,30477	65453
21,30888	66547
21,31300	69691
21,31713	69204
21,32125	68475
21,32537	68765
21,32950	69137
21,33362	69221
21,33773	67675
21,34187	71805
21,34598	73818
21,35010	76829
21,35423	81975
21,35835	87510
21,36247	93895
21,36660	103838
21,37072	111381
21,37483	117691
21,37897	122021
21,38308	125209
21,38720	130218
21,39133	134726
21,39545	132379
21,39957	124591
21,40368	119082
21,40782	113203
21,41193	105573
21,41605	99192
21,42018	93078
21,42430	90758
21,42842	83538
21,43255	80318
21,43667	78212
21,44078	72839
21,44492	69557
21,44903	67394
21,45315	64060
21,45728	62593
21,46140	62562
21,46552	64591
21,46965	59990
21,47377	61040
21,47788	58591
21,48202	56516
21,48613	58069
21,49025	56059
21,49437	58174
21,49850	55995
21,50262	56589
21,50673	56874
21,51087	55245
21,51498	55687
21,51910	56240
21,52323	54912
21,52735	55517
21,53147	55317
21,53560	51695
21,53972	55002
21,54383	51181
21,54797	52770
21,55208	52706
21,55620	52021
21,56033	52795
21,56445	53193
21,56857	52578
21,57270	50221
21,57682	51171
21,58093	51252
21,58505	51629
21,58918	50625
21,59330	50005
21,59742	50213
21,60155	51287
21,60567	50620
21,60978	51472
21,61392	49825
21,61803	52177
21,62215	50187
21,62628	49831
21,63040	50900
21,63452	45833
21,63865	47734
21,64277	48969
21,64688	49428
21,65102	49196
21,65513	47957
21,65925	49457
21,66338	48919
21,66750	48981
21,67162	49711
21,67573	49518
21,67987	45421
21,68398	46299
21,68810	46723
21,69223	47078
21,69635	49039
21,70047	48684
21,70460	47838
21,70872	49446
21,71283	47130
21,71697	47105
21,72108	46816
21,72520	47223
21,72933	49372
21,73345	47869
21,73757	45821
21,74170	47313
21,74582	47443
21,74993	47947
21,75407	46332
21,75818	49506
21,76230	45892
21,76642	49521
21,77055	45647
21,77467	45004
21,77878	48799
21,78292	45011
21,78703	45780
21,79115	47270
21,79528	46684
21,79940	46526
21,80352	47415
21,80765	45489
21,81177	50137
21,81588	47908
21,82002	48649
21,82413	47409
21,82825	47464
21,83238	48796
21,83650	47440
21,84062	49538
21,84475	48286
21,84887	45723
21,85298	46470
21,85710	47462
21,86123	50209
21,86535	47015
21,86947	49245
21,87360	47363
21,87772	49993
21,88183	44619
21,88597	43990
21,89008	45167
21,89420	45683
21,89833	47644
21,90245	47914
21,90657	45823
21,91070	46490
21,91482	45966
21,91893	46087
21,92307	47604
21,92718	45958
21,93130	47573
21,93543	47310
21,93955	44936
21,94367	47676
21,94778	45971
21,95192	46206
21,95603	43588
21,96015	43589
21,96428	46241
21,96840	44687
21,97252	44973
21,97665	46904
21,98077	44871
21,98488	45268
21,98902	45907
21,99313	45584
21,99725	46517
22,00138	46391
22,00550	45902
22,00962	44468
22,01375	47099
22,01787	45738
22,02198	46435
22,02612	47044
22,03023	46346
22,03435	49288
22,03847	48286
22,04260	46592
22,04672	49918
22,05083	46091
22,05497	46157
22,05908	43589
22,06320	46629
22,06733	48095
22,07145	46602
22,07557	45587
22,07970	46625
22,08382	44850
22,08793	43716
22,09207	46478
22,09618	46225
22,10030	43351
22,10443	46415
22,10855	45031
22,11267	47094
22,11680	46174
22,12092	45974
22,12503	45277
22,12915	47973
22,13328	44917
22,13740	44050
22,14152	45593
22,14565	46007
22,14977	45634
22,15388	46750
22,15802	43422
22,16213	46313
22,16625	45489
22,17038	45787
22,17450	45204
22,17862	47977
22,18275	45996
22,18687	47630
22,19098	47982
22,19512	47047
22,19923	46626
22,20335	47321
22,20748	47488
22,21160	46649
22,21572	45234
22,21983	46474
22,22397	51160
22,22808	56974
22,23220	61934
22,23633	74237
22,24045	90169
22,24457	115009
22,24870	154539
22,25282	202766
22,25693	270143
22,26107	346890
22,26518	439873
22,26930	532013
22,27343	631695
22,27755	707922
22,28167	762673
22,28580	793745
22,28992	799681
22,29403	792712
22,29817	754242
22,30228	707395
22,30640	648254
22,31052	588708
22,31465	523707
22,31877	471739
22,32288	423103
22,32702	379877
22,33113	335449
22,33525	297409
22,33938	277081
22,34350	251204
22,34762	228934
22,35175	207676
22,35587	191128
22,35998	176704
22,36412	165675
22,36823	155882
22,37235	148794
22,37648	138665
22,38060	131881
22,38472	127360
22,38885	118400
22,39297	117569
22,39708	109696
22,40120	107147
22,40533	102025
22,40945	99653
22,41357	94211
22,41770	95595
22,42182	91427
22,42593	86515
22,43007	86381
22,43418	85363
22,43830	84098
22,44243	80752
22,44655	79404
22,45067	78470
22,45480	75311
22,45892	73175
22,46303	72042
22,46717	76078
22,47128	71705
22,47540	71134
22,47953	70599
22,48365	68051
22,48777	64930
22,49190	64715
22,49602	65678
22,50013	65140
22,50425	65162
22,50838	62981
22,51250	61782
22,51662	61105
22,52075	60666
22,52487	61495
22,52898	60502
22,53312	59607
22,53723	60357
22,54135	56721
22,54548	59888
22,54960	58097
22,55372	60275
22,55785	60964
22,56197	58260
22,56608	56169
22,57022	57315
22,57433	55389
22,57845	57162
22,58258	55603
22,58670	53627
22,59082	54722
22,59493	54929
22,59907	55122
22,60318	53333
22,60730	51975
22,61143	54027
22,61555	51453
22,61967	52698
22,62380	49591
22,62792	52340
22,63203	52903
22,63617	51183
22,64028	54262
22,64440	53317
22,64853	51669
22,65265	53482
22,65677	51106
22,66090	52561
22,66502	52796
22,66913	52351
22,67327	53933
22,67738	52327
22,68150	50492
22,68562	50647
22,68975	51005
22,69387	51629
22,69798	53600
22,70212	50901
22,70623	52852
22,71035	53264
22,71448	51609
22,71860	53257
22,72272	50674
22,72685	52070
22,73097	49188
22,73508	53307
22,73922	50809
