D:\MassHunter\GCMS\1\data\Amal\Constant flow\150C\150C_1ml-min_10C-min_4.D Tue Sep 24 18:38:42 2024
Start of data points
4,69105	1,056526E+07
4,69518	9987065
4,69930	9433653
4,70342	8964696
4,70755	8512623
4,71167	8061819
4,71578	7622736
4,71992	7257973
4,72403	6891600
4,72815	6575765
4,73228	6175333
4,73640	5844060
4,74052	5535946
4,74465	5287868
4,74877	4997541
4,75288	4741329
4,75702	4477410
4,76113	4287840
4,76525	4080088
4,76938	3864764
4,77350	3640966
4,77762	3410696
4,78173	3296572
4,78587	3077958
4,78998	2981156
4,79410	2826369
4,79823	2696583
4,80235	2554038
4,80647	2426720
4,81060	2297233
4,81472	2178095
4,81883	2082688
4,82297	1979979
4,82708	1843809
4,83120	1792986
4,83533	1678421
4,83945	1623919
4,84357	1537627
4,84770	1457037
4,85182	1377656
4,85593	1327648
4,86007	1263449
4,86418	1183694
4,86830	1152629
4,87242	1096240
4,87655	1042766
4,88067	1002894
4,88478	958065
4,88892	894405
4,89303	858956
4,89715	814884
4,90128	792245
4,90540	755478
4,90952	733414
4,91365	696241
4,91777	697609
4,92188	743268
4,92602	824621
4,93013	970015
4,93425	1132989
4,93838	1321874
4,94250	1434476
4,94662	1489834
4,95075	1488848
4,95487	1471073
4,95898	1443841
4,96310	1412782
4,96723	1370808
4,97135	1336665
4,97547	1296269
4,97960	1254231
4,98372	1213413
4,98783	1169833
4,99197	1132373
4,99608	1103252
5,00020	1064376
5,00433	1031321
5,00845	1015867
5,01257	982156
5,01670	933827
5,02082	907480
5,02493	875471
5,02907	848412
5,03318	816218
5,03730	790699
5,04143	763871
5,04555	739064
5,04967	709649
5,05378	681895
5,05792	652788
5,06203	624886
5,06615	611742
5,07028	571761
5,07440	540182
5,07852	508895
5,08265	479640
5,08677	456387
5,09088	431608
5,09502	407308
5,09913	379210
5,10325	358640
5,10738	344471
5,11150	323270
5,11562	303015
5,11975	290524
5,12387	272545
5,12798	262004
5,13212	249655
5,13623	233722
5,14035	225350
5,14447	220357
5,14860	207441
5,15272	201298
5,15683	193953
5,16097	182768
5,16508	177379
5,16920	177610
5,17333	170880
5,17745	183690
5,18157	206891
5,18570	256510
5,18982	332487
5,19393	433098
5,19807	539484
5,20218	636913
5,20630	702687
5,21043	730072
5,21455	744567
5,21867	740898
5,22280	728156
5,22692	710261
5,23103	693344
5,23515	659499
5,23928	654476
5,24340	628480
5,24752	603647
5,25165	593964
5,25577	577691
5,25988	555503
5,26402	545108
5,26813	528298
5,27225	506494
5,27638	492831
5,28050	481533
5,28462	464759
5,28875	449968
5,29287	436920
5,29698	427043
5,30112	408370
5,30523	394613
5,30935	370968
5,31348	357174
5,31760	341476
5,32172	326693
5,32583	307046
5,32997	284176
5,33408	272587
5,33820	259226
5,34233	241049
5,34645	226013
5,35057	215126
5,35470	197428
5,35882	192439
5,36293	183410
5,36707	173118
5,37118	167159
5,37530	156508
5,37943	148958
5,38355	144342
5,38767	140959
5,39180	134452
5,39592	130778
5,40003	126795
5,40417	117988
5,40828	119775
5,41240	118609
5,41653	114594
5,42065	111595
5,42477	108270
5,42888	106553
5,43302	103264
5,43713	104641
5,44125	103529
5,44538	99048
5,44950	98137
5,45362	97943
5,45775	97977
5,46187	97382
5,46598	93851
5,47012	95050
5,47423	94255
5,47835	92181
5,48248	97377
5,48660	104527
5,49072	128326
5,49485	181919
5,49897	284499
5,50308	448096
5,50722	670581
5,51133	917794
5,51545	1148095
5,51957	1321135
5,52370	1432701
5,52782	1504917
5,53193	1495398
5,53607	1499539
5,54018	1463938
5,54430	1430699
5,54843	1384417
5,55255	1336189
5,55667	1288485
5,56080	1242558
5,56492	1202875
5,56903	1152462
5,57317	1113064
5,57728	1076061
5,58140	1027900
5,58553	1000382
5,58965	955766
5,59377	909402
5,59790	877111
5,60202	832268
5,60613	791524
5,61025	736884
5,61438	696471
5,61850	659311
5,62262	607621
5,62675	562417
5,63087	513733
5,63498	464911
5,63912	425733
5,64323	391894
5,64735	356522
5,65148	328966
5,65560	299812
5,65972	273241
5,66385	245224
5,66797	225117
5,67208	211141
5,67622	194150
5,68033	177892
5,68445	167274
5,68858	156355
5,69270	147865
5,69682	135207
5,70093	129022
5,70507	122467
5,70918	117395
5,71330	111737
5,71743	107383
5,72155	99814
5,72567	102635
5,72980	93778
5,73392	95306
5,73803	91991
5,74217	89884
5,74628	89310
5,75040	83594
5,75453	81987
5,75865	80413
5,76277	80255
5,76690	79461
5,77102	78767
5,77513	80056
5,77927	78545
5,78338	75480
5,78750	74906
5,79162	73920
5,79575	73948
5,79987	74820
5,80398	73212
5,80812	72968
5,81223	71445
5,81635	72440
5,82048	69694
5,82460	72678
5,82872	70918
5,83285	69081
5,83697	69789
5,84108	69941
5,84522	68137
5,84933	69401
5,85345	72845
5,85758	79623
5,86170	101398
5,86582	146217
5,86995	220782
5,87407	331651
5,87818	463011
5,88230	598767
5,88643	725027
5,89055	816350
5,89467	877202
5,89880	895268
5,90292	891176
5,90703	878193
5,91117	857816
5,91528	834325
5,91940	812803
5,92353	785622
5,92765	749434
5,93177	720371
5,93590	697149
5,94002	668105
5,94413	632460
5,94827	614065
5,95238	588084
5,95650	549618
5,96063	518559
5,96475	490399
5,96887	460997
5,97298	433623
5,97712	396425
5,98123	360337
5,98535	331899
5,98948	296183
5,99360	274589
5,99772	247278
6,00185	222910
6,00597	201313
6,01008	185700
6,01422	166425
6,01833	159782
6,02245	144059
6,02658	131243
6,03070	124484
6,03482	118157
6,03895	110526
6,04307	105679
6,04718	102227
6,05132	98156
6,05543	95180
6,05955	94422
6,06367	89056
6,06780	87112
6,07192	86574
6,07603	81248
6,08017	80734
6,08428	81184
6,08840	78756
6,09253	76055
6,09665	76507
6,10077	79168
6,10490	75877
6,10902	75061
6,11313	74540
6,11727	71826
6,12138	72075
6,12550	72600
6,12963	66890
6,13375	68165
6,13787	66225
6,14200	64923
6,14612	64129
6,15023	65374
6,15435	65844
6,15848	64244
6,16260	61429
6,16672	61645
6,17085	56073
6,17497	59097
6,17908	57829
6,18322	54085
6,18733	53380
6,19145	57257
6,19558	52693
6,19970	52392
6,20382	51901
6,20795	52412
6,21207	51735
6,21618	53994
6,22032	52630
6,22443	52148
6,22855	53137
6,23268	50716
6,23680	50371
6,24092	51276
6,24503	51650
6,24917	51994
6,25328	51311
6,25740	51608
6,26153	52108
6,26565	51069
6,26977	53262
6,27390	61418
6,27802	85519
6,28213	135803
6,28627	230007
6,29038	398946
6,29450	632770
6,29863	951423
6,30275	1273503
6,30687	1578847
6,31100	1820262
6,31512	1986955
6,31923	2049023
6,32337	2062888
6,32748	2043811
6,33160	1993243
6,33572	1905817
6,33985	1832541
6,34397	1732821
6,34808	1665644
6,35222	1593250
6,35633	1506873
6,36045	1432674
6,36458	1341844
6,36870	1254959
6,37282	1162742
6,37695	1067838
6,38107	967425
6,38518	862746
6,38932	761223
6,39343	677219
6,39755	592526
6,40168	530878
6,40580	462933
6,40992	404012
6,41405	351691
6,41817	308322
6,42228	272279
6,42640	238191
6,43053	209220
6,43465	184878
6,43877	165212
6,44290	150214
6,44702	132242
6,45113	124808
6,45527	113023
6,45938	103083
6,46350	96606
6,46763	90951
6,47175	83202
6,47587	79458
6,48000	75696
6,48412	71421
6,48823	71708
6,49237	66647
6,49648	65207
6,50060	61970
6,50473	61588
6,50885	59345
6,51297	62144
6,51708	59693
6,52122	59354
6,52533	58009
6,52945	58318
6,53358	57088
6,53770	57512
6,54182	56225
6,54595	56012
6,55007	55265
6,55418	57017
6,55832	58476
6,56243	58405
6,56655	60186
6,57068	61782
6,57480	61606
6,57892	63251
6,58305	65933
6,58717	64963
6,59128	65019
6,59542	63537
6,59953	62120
6,60365	61245
6,60777	61496
6,61190	62419
6,61602	58644
6,62013	58685
6,62427	60068
6,62838	57623
6,63250	56803
6,63663	55676
6,64075	59061
6,64487	66353
6,64900	87581
6,65312	127109
6,65723	196096
6,66137	302129
6,66548	437144
6,66960	595057
6,67373	745562
6,67785	883840
6,68197	980825
6,68610	1031893
6,69022	1040652
6,69433	1032840
6,69845	1016350
6,70258	981894
6,70670	947879
6,71082	908778
6,71495	861139
6,71907	818531
6,72318	777681
6,72732	719616
6,73143	671036
6,73555	612883
6,73968	560077
6,74380	520791
6,74792	504353
6,75205	512746
6,75617	572578
6,76028	679717
6,76442	819587
6,76853	962597
6,77265	1111759
6,77678	1232353
6,78090	1289794
6,78502	1324247
6,78913	1304436
6,79327	1271012
6,79738	1233431
6,80150	1163466
6,80563	1113230
6,80975	1028141
6,81387	965554
6,81800	896909
6,82212	841628
6,82623	770543
6,83037	694776
6,83448	621442
6,83860	543750
6,84273	482182
6,84685	415145
6,85097	366722
6,85510	313090
6,85922	275877
6,86333	232491
6,86747	206104
6,87158	177584
6,87570	154903
6,87982	136581
6,88395	117489
6,88807	109159
6,89218	97933
6,89632	90943
6,90043	80549
6,90455	79599
6,90868	74140
6,91280	70130
6,91692	67983
6,92105	63470
6,92517	59986
6,92928	60215
6,93342	56807
6,93753	54269
6,94165	56453
6,94578	51861
6,94990	50908
6,95402	50720
6,95815	50240
6,96227	48626
6,96638	48750
6,97050	48584
6,97463	49707
6,97875	44922
6,98287	44538
6,98700	42593
6,99112	43345
6,99523	43932
6,99937	43860
7,00348	42943
7,00760	43183
7,01173	40976
7,01585	40389
7,01997	42217
7,02410	39143
7,02822	41295
7,03233	39517
7,03647	40242
7,04058	38030
7,04470	38075
7,04883	38091
7,05295	38062
7,05707	37094
7,06118	36208
7,06532	36602
7,06943	35477
7,07355	34042
7,07768	35095
7,08180	36577
7,08592	37114
7,09005	35984
7,09417	34569
7,09828	37600
7,10242	36191
7,10653	35490
7,11065	36656
7,11478	35192
7,11890	35836
7,12302	34659
7,12715	36669
7,13127	36291
7,13538	40424
7,13952	48033
7,14363	67492
7,14775	112426
7,15188	181527
7,15600	286905
7,16012	438560
7,16423	612184
7,16837	808908
7,17248	989368
7,17660	1113946
7,18073	1199658
7,18485	1243792
7,18897	1236306
7,19310	1205138
7,19722	1153862
7,20133	1104633
7,20547	1039959
7,20958	964196
7,21370	884716
7,21783	800131
7,22195	723124
7,22607	632233
7,23020	563962
7,23432	489889
7,23843	439679
7,24257	424669
7,24668	470636
7,25080	600158
7,25492	857242
7,25905	1234273
7,26317	1760406
7,26728	2350967
7,27142	2985499
7,27553	3543739
7,27965	3964890
7,28378	4233494
7,28790	4338926
7,29202	4296311
7,29615	4152231
7,30027	3984819
7,30438	3701732
7,30852	3405678
7,31263	3080245
7,31675	2767011
7,32088	2431576
7,32500	2135181
7,32912	1841707
7,33325	1571980
7,33737	1315702
7,34148	1105831
7,34560	922778
7,34973	756825
7,35385	628463
7,35797	523823
7,36210	434869
7,36622	371488
7,37033	318707
7,37447	272928
7,37858	241166
7,38270	210675
7,38683	185763
7,39095	164401
7,39507	150487
7,39920	135572
7,40332	125760
7,40743	116499
7,41157	111266
7,41568	100986
7,41980	96739
7,42393	90704
7,42805	85314
7,43217	84470
7,43628	79487
7,44042	74289
7,44453	73388
7,44865	67800
7,45278	67307
7,45690	64794
7,46102	63937
7,46515	60916
7,46927	59809
7,47338	58109
7,47752	56214
7,48163	57714
7,48575	55083
7,48988	55339
7,49400	55591
7,49812	53416
7,50225	54003
7,50637	56231
7,51048	53711
7,51462	53582
7,51873	54101
7,52285	52188
7,52697	51645
7,53110	53008
7,53522	47208
7,53933	50211
7,54347	47875
7,54758	46345
7,55170	46529
7,55583	44946
7,55995	46166
7,56407	44913
7,56820	44321
7,57232	42234
7,57643	43668
7,58057	44172
7,58468	43742
7,58880	50167
7,59293	60722
7,59705	87143
7,60117	131267
7,60530	215772
7,60942	347611
7,61353	529366
7,61765	733827
7,62178	946463
7,62590	1137275
7,63002	1291505
7,63415	1379946
7,63827	1421010
7,64238	1431125
7,64652	1378646
7,65063	1288478
7,65475	1197298
7,65888	1086100
7,66300	970162
7,66712	853675
7,67125	740713
7,67537	647623
7,67948	541935
7,68362	459586
7,68773	387199
7,69185	320577
7,69598	274098
7,70010	231151
7,70422	197487
7,70833	170713
7,71247	147627
7,71658	129554
7,72070	114297
7,72483	103228
7,72895	94655
7,73307	86990
7,73720	77901
7,74132	74013
7,74543	69235
7,74957	65033
7,75368	62124
7,75780	58439
7,76193	59813
7,76605	70852
7,77017	95867
7,77430	149795
7,77842	248415
7,78253	393129
7,78667	595817
7,79078	828963
7,79490	1077848
7,79902	1300438
7,80315	1486532
7,80727	1594019
7,81138	1645737
7,81552	1648623
7,81963	1594482
7,82375	1496093
7,82788	1363042
7,83200	1210047
7,83612	1057463
7,84025	914283
7,84437	781834
7,84848	645025
7,85262	540029
7,85673	448168
7,86085	364415
7,86498	304269
7,86910	254470
7,87322	213108
7,87735	184981
7,88147	159266
7,88558	135210
7,88970	124429
7,89383	112243
7,89795	101314
7,90207	97160
7,90620	88316
7,91032	86138
7,91443	83347
7,91857	82866
7,92268	77358
7,92680	78273
7,93093	74321
7,93505	71008
7,93917	70090
7,94330	69112
7,94742	65804
7,95153	66900
7,95567	59515
7,95978	60034
7,96390	57443
7,96803	56154
7,97215	52513
7,97627	51907
7,98038	50603
7,98452	47781
7,98863	46882
7,99275	45706
7,99688	43454
8,00100	43440
8,00512	43074
8,00925	41144
8,01337	40176
8,01748	39612
8,02162	37617
8,02573	39799
8,02985	37738
8,03398	38211
8,03810	37470
8,04222	36822
8,04635	38467
8,05047	38590
8,05458	35891
8,05872	39578
8,06283	37106
8,06695	38729
8,07107	37653
8,07520	37275
8,07932	36446
8,08343	34521
8,08757	34799
8,09168	34123
8,09580	33962
8,09993	31848
8,10405	32489
8,10817	32026
8,11230	32018
8,11642	31678
8,12053	34113
8,12467	36284
8,12878	48708
8,13290	74864
8,13703	124864
8,14115	214074
8,14527	359547
8,14940	549791
8,15352	789134
8,15763	1063218
8,16175	1297471
8,16588	1502099
8,17000	1617586
8,17412	1651180
8,17825	1651864
8,18237	1569718
8,18648	1453516
8,19062	1300873
8,19473	1148328
8,19885	982980
8,20298	829960
8,20710	687948
8,21122	564837
8,21535	463275
8,21947	386194
8,22358	312072
8,22772	256964
8,23183	214502
8,23595	181598
8,24008	159505
8,24420	137263
8,24832	123281
8,25243	111303
8,25657	100094
8,26068	89238
8,26480	85619
8,26893	77696
8,27305	74020
8,27717	71537
8,28130	63650
8,28542	63789
8,28953	62342
8,29367	59697
8,29778	59672
8,30190	65913
8,30603	92847
8,31015	147483
8,31427	255153
8,31840	463764
8,32252	777693
8,32663	1224081
8,33077	1791904
8,33488	2400500
8,33900	3001015
8,34312	3474840
8,34725	3791748
8,35137	3938085
8,35548	3850064
8,35962	3626731
8,36373	3319232
8,36785	2887817
8,37198	2471219
8,37610	2067701
8,38022	1692561
8,38435	1356306
8,38847	1091119
8,39258	876607
8,39672	707876
8,40083	575857
8,40495	475568
8,40908	393545
8,41320	336061
8,41732	284916
8,42145	253163
8,42557	218925
8,42968	193569
8,43380	178905
8,43793	162543
8,44205	144892
8,44617	135622
8,45030	124696
8,45442	115723
8,45853	109171
8,46267	100204
8,46678	94762
8,47090	88540
8,47503	86298
8,47915	83170
8,48327	77392
8,48740	73698
8,49152	68889
8,49563	69699
8,49977	65901
8,50388	62988
8,50800	64001
8,51213	70293
8,51625	85062
8,52037	114278
8,52448	170654
8,52862	270519
8,53273	431969
8,53685	660413
8,54098	928932
8,54510	1235836
8,54922	1513622
8,55335	1742845
8,55747	1898689
8,56158	1952156
8,56572	1920500
8,56983	1795458
8,57395	1600040
8,57808	1380048
8,58220	1168959
8,58632	967949
8,59045	782763
8,59457	643474
8,59868	522080
8,60282	426277
8,60693	359565
8,61105	298015
8,61517	248184
8,61930	220511
8,62342	199145
8,62753	193740
8,63167	218716
8,63578	289504
8,63990	444089
8,64403	695790
8,64815	1073032
8,65227	1592812
8,65640	2173871
8,66052	2806611
8,66463	3365766
8,66877	3767734
8,67288	3943379
8,67700	3873829
8,68113	3655851
8,68525	3286409
8,68937	2868082
8,69350	2398528
8,69762	1982616
8,70173	1603903
8,70585	1294212
8,70998	1029707
8,71410	828457
8,71822	681285
8,72235	557456
8,72647	470825
8,73058	392225
8,73472	340830
8,73883	293332
8,74295	257569
8,74708	227178
8,75120	204583
8,75532	185215
8,75945	172501
8,76357	155933
8,76768	145199
8,77182	133038
8,77593	124462
8,78005	120229
8,78418	108675
8,78830	104422
8,79242	100581
8,79653	97763
8,80067	91767
8,80478	85574
8,80890	81970
8,81303	80103
8,81715	75840
8,82127	74756
8,82540	73508
8,82952	68844
8,83363	67303
8,83777	67085
8,84188	72256
8,84600	84141
8,85013	127154
8,85425	207871
8,85837	379624
8,86250	690184
8,86662	1181416
8,87073	1859378
8,87487	2687375
8,87898	3586601
8,88310	4454255
8,88723	5229174
8,89135	5720238
8,89547	5896220
8,89958	5714851
8,90372	5208576
8,90783	4542732
8,91195	3797784
8,91608	3112566
8,92020	2484113
8,92432	1959370
8,92845	1577837
8,93257	1254727
8,93668	1010718
8,94082	822858
8,94493	687775
8,94905	567828
8,95318	487524
8,95730	421402
8,96142	368990
8,96555	332186
8,96967	299507
8,97378	264247
8,97792	244422
8,98203	216976
8,98615	200488
8,99027	186077
8,99440	172230
8,99852	163293
9,00263	155101
9,00677	144367
9,01088	134328
9,01500	133380
9,01913	125311
9,02325	120586
9,02737	113254
9,03150	109056
9,03562	107770
9,03973	103174
9,04387	98802
9,04798	96424
9,05210	93853
9,05623	90405
9,06035	82180
9,06447	82204
9,06860	81645
9,07272	77288
9,07683	75951
9,08095	73997
9,08508	72803
9,08920	67651
9,09332	67756
9,09745	68741
9,10157	68577
9,10568	81706
9,10982	105968
9,11393	161467
9,11805	262095
9,12218	414896
9,12630	621705
9,13042	887773
9,13455	1179178
9,13867	1458364
9,14278	1644816
9,14692	1768396
9,15103	1740496
9,15515	1650933
9,15928	1488728
9,16340	1300447
9,16752	1093177
9,17163	888274
9,17577	724435
9,17988	583951
9,18400	472936
9,18813	382483
9,19225	322898
9,19637	265736
9,20050	235860
9,20462	201756
9,20873	180416
9,21287	159566
9,21698	143496
9,22110	133169
9,22523	122216
9,22935	114137
9,23347	105922
9,23760	97621
9,24172	90233
9,24583	87245
9,24997	79659
9,25408	79264
9,25820	73845
9,26232	73062
9,26645	68691
9,27057	68350
9,27468	65793
9,27882	62750
9,28293	59418
9,28705	58638
9,29118	59515
9,29530	55153
9,29942	54550
9,30355	54463
9,30767	52403
9,31178	49780
9,31592	49132
9,32003	50111
9,32415	49604
9,32828	49294
9,33240	47154
9,33652	46068
9,34065	44092
9,34477	44439
9,34888	46206
9,35300	44243
9,35713	43734
9,36125	43731
9,36537	44135
9,36950	43830
9,37362	41970
9,37773	41987
9,38187	40914
9,38598	45605
9,39010	46906
9,39423	59068
9,39835	88653
9,40247	156082
9,40660	288798
9,41072	533518
9,41483	918942
9,41897	1480631
9,42308	2154868
9,42720	2943346
9,43133	3712582
9,43545	4374722
9,43957	4749862
9,44368	4785479
9,44782	4501245
9,45193	3975413
9,45605	3366685
9,46018	2813052
9,46430	2376984
9,46842	2098902
9,47255	1972975
9,47667	1957951
9,48078	2014087
9,48492	2062544
9,48903	2095502
9,49315	2021957
9,49728	1900171
9,50140	1716204
9,50552	1494042
9,50965	1272433
9,51377	1063704
9,51788	875833
9,52202	722053
9,52613	603339
9,53025	502750
9,53437	423326
9,53850	364919
9,54262	321097
9,54673	285627
9,55087	252954
9,55498	229704
9,55910	209867
9,56323	191413
9,56735	179049
9,57147	168033
9,57560	154738
9,57972	145248
9,58383	140163
9,58797	130902
9,59208	124381
9,59620	118580
9,60033	113082
9,60445	110350
9,60857	105537
9,61270	100509
9,61682	97223
9,62093	95884
9,62505	92137
9,62918	93647
9,63330	88144
9,63742	86739
9,64155	84349
9,64567	80479
9,64978	82049
9,65392	87981
9,65803	97188
9,66215	124301
9,66628	178777
9,67040	277761
9,67452	428715
9,67865	635452
9,68277	896770
9,68688	1160436
9,69102	1386644
9,69513	1529263
9,69925	1579765
9,70338	1526698
9,70750	1402144
9,71162	1240502
9,71573	1047150
9,71987	902193
9,72398	803377
9,72810	785319
9,73223	855176
9,73635	1026623
9,74047	1309749
9,74460	1653018
9,74872	1989620
9,75283	2255447
9,75697	2414377
9,76108	2367408
9,76520	2198261
9,76933	1918713
9,77345	1623350
9,77757	1332408
9,78170	1075855
9,78582	875902
9,78993	707300
9,79407	579994
9,79818	491255
9,80230	417882
9,80642	358933
9,81055	311397
9,81467	276651
9,81878	248618
9,82292	228436
9,82703	201360
9,83115	188630
9,83528	170451
9,83940	157551
9,84352	146983
9,84765	136553
9,85177	128682
9,85588	123002
9,86002	117700
9,86413	116451
9,86825	110446
9,87238	103488
9,87650	101373
9,88062	95248
9,88475	94414
9,88887	89940
9,89298	87490
9,89710	84774
9,90123	82350
9,90535	79798
9,90947	78696
9,91360	76668
9,91772	72557
9,92183	71092
9,92597	74102
9,93008	73924
9,93420	78166
9,93833	92273
9,94245	128825
9,94657	198960
9,95070	338542
9,95482	547177
9,95893	865600
9,96307	1249738
9,96718	1679536
9,97130	2053388
9,97543	2326287
9,97955	2443063
9,98367	2351715
9,98778	2123473
9,99192	1813250
9,99603	1493800
10,00015	1202890
10,00428	968829
10,00840	790602
10,01252	635873
10,01665	528400
10,02077	452001
10,02488	395211
10,02902	338617
10,03313	298460
10,03725	262292
10,04138	241702
10,04550	223107
10,04962	202998
10,05375	181414
10,05787	174132
10,06198	162456
10,06612	153222
10,07023	144119
10,07435	134580
10,07847	130923
10,08260	122279
10,08672	114216
10,09083	111094
10,09497	108757
10,09908	105973
10,10320	104541
10,10733	101415
10,11145	98888
10,11557	92489
10,11970	91617
10,12382	88457
10,12793	83738
10,13207	83814
10,13618	79791
10,14030	79937
10,14443	79107
10,14855	75284
10,15267	76128
10,15680	76830
10,16092	70712
10,16503	69993
10,16915	69311
10,17328	68263
10,17740	68258
10,18152	69177
10,18565	70679
10,18977	80853
10,19388	100804
10,19802	143672
10,20213	227854
10,20625	368227
10,21038	578543
10,21450	855200
10,21862	1182666
10,22275	1510770
10,22687	1756604
10,23098	1878706
10,23512	1893312
10,23923	1766722
10,24335	1587756
10,24748	1332488
10,25160	1098471
10,25572	892337
10,25983	726826
10,26397	595200
10,26808	485021
10,27220	410719
10,27633	350532
10,28045	299997
10,28457	264065
10,28870	228659
10,29282	209414
10,29693	187449
10,30107	169866
10,30518	160242
10,30930	146925
10,31343	136810
10,31755	129456
10,32167	120920
10,32580	112123
10,32992	111179
10,33403	108130
10,33817	100552
10,34228	95816
10,34640	97156
10,35052	92348
10,35465	87991
10,35877	85089
10,36288	83716
10,36702	78901
10,37113	78462
10,37525	76773
10,37938	73520
10,38350	76281
10,38762	72545
10,39175	70024
10,39587	68972
10,39998	66045
10,40412	64995
10,40823	65377
10,41235	63255
10,41648	64294
10,42060	61928
10,42472	61878
10,42885	59559
10,43297	57103
10,43708	56400
10,44120	57153
10,44533	58350
10,44945	55477
10,45357	53491
10,45770	53520
10,46182	52697
10,46593	56555
10,47007	62992
10,47418	65684
10,47830	82225
10,48243	120886
10,48655	196800
10,49067	337224
10,49480	580047
10,49892	973877
10,50303	1516225
10,50717	2188243
10,51128	2983330
10,51540	3739006
10,51953	4362258
10,52365	4730622
10,52777	4719525
10,53190	4375679
10,53602	3812338
10,54013	3222963
10,54425	2639142
10,54838	2168303
10,55250	1824596
10,55662	1627116
10,56075	1575562
10,56487	1613428
10,56898	1742687
10,57312	1879286
10,57723	2009560
10,58135	2044633
10,58548	2030062
10,58960	1926107
10,59372	1758305
10,59785	1559068
10,60197	1347459
10,60608	1147859
10,61022	961428
10,61433	813991
10,61845	694750
10,62258	589154
10,62670	513203
10,63082	449674
10,63493	402412
10,63907	359476
10,64318	330652
10,64730	300324
10,65143	277077
10,65555	256685
10,65967	238626
10,66380	221755
10,66792	210196
10,67203	200645
10,67617	191987
10,68028	181048
10,68440	173627
10,68853	164204
10,69265	156288
10,69677	151992
10,70090	143008
10,70502	142070
10,70913	142499
10,71327	131778
10,71738	129416
10,72150	131698
10,72562	125067
10,72975	124350
10,73387	117374
10,73798	116612
10,74212	115931
10,74623	114985
10,75035	123091
10,75448	141730
10,75860	179270
10,76272	251556
10,76685	366190
10,77097	535561
10,77508	758324
10,77922	1018844
10,78333	1268874
10,78745	1474190
10,79158	1609200
10,79570	1627805
10,79982	1572916
10,80395	1466324
10,80807	1322573
10,81218	1182522
10,81630	1127099
10,82043	1156898
10,82455	1313732
10,82867	1623651
10,83280	2055226
10,83692	2549473
10,84103	3053074
10,84517	3461523
10,84928	3662858
10,85340	3647013
10,85753	3448560
10,86165	3139143
10,86577	2730589
10,86990	2333019
10,87402	1963878
10,87813	1636454
10,88227	1354230
10,88638	1133567
10,89050	959085
10,89463	824949
10,89875	706286
10,90287	617836
10,90698	554296
10,91112	496619
10,91523	439958
10,91935	404130
10,92348	371010
10,92760	337515
10,93172	315036
10,93585	292619
10,93997	271297
10,94408	255531
10,94822	241625
10,95233	234771
10,95645	218757
10,96058	209739
10,96470	203254
10,96882	197652
10,97295	186395
10,97707	180259
10,98118	172107
10,98532	166983
10,98943	158364
10,99355	155819
10,99767	147621
11,00180	143458
11,00592	137438
11,01003	128811
11,01417	128826
11,01828	126870
11,02240	123768
11,02653	125934
11,03065	138431
11,03477	158867
11,03890	204677
11,04302	282626
11,04713	412934
11,05127	609326
11,05538	893954
11,05950	1234956
11,06363	1582651
11,06775	1881398
11,07187	2086878
11,07600	2164623
11,08012	2080806
11,08423	1935297
11,08835	1696127
11,09248	1468869
11,09660	1235547
11,10072	1040360
11,10485	877934
11,10897	759271
11,11308	649695
11,11722	567630
11,12133	508527
11,12545	448244
11,12958	411272
11,13370	370106
11,13782	337463
11,14195	306658
11,14607	292171
11,15018	269082
11,15432	256430
11,15843	237139
11,16255	220692
11,16668	210642
11,17080	200142
11,17492	192498
11,17903	182753
11,18317	177173
11,18728	168881
11,19140	166200
11,19553	159256
11,19965	152731
11,20377	149431
11,20790	143643
11,21202	139806
11,21613	136493
11,22027	130999
11,22438	124842
11,22850	125615
11,23263	124032
11,23675	118366
11,24087	118973
11,24500	114666
11,24912	110474
11,25323	114972
11,25737	110840
11,26148	110847
11,26560	106678
11,26972	108263
11,27385	103662
11,27797	101312
11,28208	103315
11,28622	101946
11,29033	96338
11,29445	92193
11,29858	95029
11,30270	97688
11,30682	111575
11,31095	133092
11,31507	184346
11,31918	266725
11,32332	402704
11,32743	595494
11,33155	842803
11,33568	1101191
11,33980	1348695
11,34392	1543763
11,34805	1664277
11,35217	1670800
11,35628	1586925
11,36040	1464967
11,36453	1300739
11,36865	1135710
11,37277	967897
11,37690	829298
11,38102	701059
11,38513	610833
11,38927	527215
11,39338	462063
11,39750	406034
11,40163	363986
11,40575	328724
11,40987	296490
11,41400	273656
11,41812	254664
11,42223	241516
11,42637	239489
11,43048	248003
11,43460	280128
11,43873	333282
11,44285	421984
11,44697	546275
11,45108	708209
11,45522	874751
11,45933	1040419
11,46345	1161673
11,46758	1238671
11,47170	1278994
11,47582	1232416
11,47995	1140110
11,48407	1028803
11,48818	908617
11,49232	788609
11,49643	676964
11,50055	579089
11,50468	501699
11,50880	436059
11,51292	379966
11,51705	341384
11,52117	306437
11,52528	271780
11,52942	251647
11,53353	228747
11,53765	211463
11,54177	197642
11,54590	184948
11,55002	177228
11,55413	164222
11,55827	158036
11,56238	149643
11,56650	140125
11,57063	131538
11,57475	130033
11,57887	125485
11,58300	119863
11,58712	121522
11,59123	113723
11,59537	117080
11,59948	115491
11,60360	127361
11,60773	144160
11,61185	179663
11,61597	239952
11,62010	346859
11,62422	508122
11,62833	747569
11,63245	1069014
11,63658	1512674
11,64070	2024386
11,64482	2596326
11,64895	3119290
11,65307	3549662
11,65718	3791807
11,66132	3851866
11,66543	3663717
11,66955	3317155
11,67368	2879131
11,67780	2446115
11,68192	2065393
11,68605	1754665
11,69017	1486790
11,69428	1274683
11,69842	1108261
11,70253	970059
11,70665	861859
11,71078	752490
11,71490	686934
11,71902	624240
11,72313	566908
11,72727	523649
11,73138	485456
11,73550	449578
11,73963	426351
11,74375	392699
11,74787	374475
11,75200	348810
11,75612	330094
11,76023	308908
11,76437	297924
11,76848	282029
11,77260	267861
11,77673	260430
11,78085	243193
11,78497	241941
11,78910	225694
11,79322	221374
11,79733	206343
11,80147	201530
11,80558	194991
11,80970	186323
11,81382	180270
11,81795	174659
11,82207	172843
11,82618	166817
11,83032	158484
11,83443	154186
11,83855	154564
11,84268	147679
11,84680	146898
11,85092	143189
11,85505	135991
11,85917	133591
11,86328	132728
11,86742	127569
11,87153	127105
11,87565	125413
11,87978	121297
11,88390	120876
11,88802	115541
11,89215	113579
11,89627	114609
11,90038	111816
11,90450	109877
11,90863	108140
11,91275	102844
11,91687	103868
11,92100	103207
11,92512	101920
11,92923	97847
11,93337	97151
11,93748	94929
11,94160	94130
11,94573	92332
11,94985	97428
11,95397	96148
11,95810	104791
11,96222	116162
11,96633	139836
11,97047	180606
11,97458	232640
11,97870	320837
11,98283	455425
11,98695	629848
11,99107	846540
11,99518	1089154
11,99932	1315558
12,00343	1518013
12,00755	1656851
12,01168	1689092
12,01580	1645179
12,01992	1549445
12,02405	1406045
12,02817	1264534
12,03228	1104785
12,03642	980123
12,04053	851266
12,04465	751910
12,04878	663760
12,05290	591416
12,05702	530119
12,06115	483472
12,06527	438414
12,06938	400743
12,07352	364540
12,07763	343565
12,08175	322217
12,08588	296653
12,09000	276568
12,09412	262313
12,09823	248657
12,10237	231937
12,10648	222204
12,11060	213230
12,11473	199106
12,11885	192411
12,12297	187504
12,12710	179738
12,13122	177236
12,13533	166797
12,13947	158059
12,14358	154346
12,14770	153123
12,15183	148833
12,15595	141772
12,16007	139456
12,16420	134515
12,16832	131640
12,17243	128458
12,17657	125948
12,18068	124270
12,18480	116878
12,18892	116925
12,19305	117257
12,19717	114281
12,20128	112970
12,20542	109532
12,20953	107016
12,21365	106203
12,21778	103143
12,22190	100682
12,22602	99776
12,23015	100002
12,23427	97983
12,23838	95798
12,24252	94316
12,24663	95540
12,25075	91639
12,25488	87912
12,25900	89468
12,26312	88110
12,26725	89357
12,27137	84406
12,27548	89830
12,27960	84365
12,28373	86603
12,28785	79687
12,29197	80798
12,29610	79782
12,30022	76916
12,30433	79315
12,30847	75551
12,31258	79134
12,31670	76296
12,32083	75325
12,32495	77633
12,32907	75072
12,33320	77046
12,33732	76085
12,34143	73449
12,34557	73534
12,34968	73062
12,35380	74351
12,35793	75234
12,36205	74511
12,36617	76539
12,37028	76614
12,37442	74627
12,37853	74838
12,38265	75936
12,38678	70454
12,39090	70480
12,39502	68628
12,39915	70382
12,40327	69948
12,40738	67003
12,41152	66327
12,41563	66127
12,41975	65513
12,42388	63002
12,42800	62582
12,43212	63209
12,43625	61276
12,44037	60826
12,44448	60614
12,44862	58216
12,45273	59214
12,45685	59424
12,46097	59245
12,46510	58671
12,46922	60919
12,47333	59524
12,47747	59787
12,48158	59547
12,48570	60285
12,48983	62625
12,49395	64525
12,49807	70645
12,50220	73885
12,50632	80321
12,51043	89775
12,51457	100439
12,51868	108565
12,52280	117156
12,52693	128341
12,53105	133875
12,53517	140998
12,53930	140358
12,54342	135782
12,54753	132603
12,55165	129236
12,55578	121556
12,55990	110547
12,56402	106853
12,56815	98628
12,57227	93397
12,57638	90611
12,58052	85353
12,58463	80219
12,58875	77200
12,59288	76588
12,59700	75328
12,60112	70291
12,60525	69205
12,60937	68912
12,61348	67410
12,61762	64573
12,62173	62358
12,62585	62212
12,62998	62215
12,63410	60529
12,63822	59152
12,64233	56899
12,64647	57097
12,65058	58288
12,65470	54881
12,65883	56224
12,66295	57650
12,66707	59134
12,67120	56025
12,67532	57059
12,67943	54169
12,68357	56269
12,68768	58429
12,69180	55126
12,69593	56225
12,70005	57932
12,70417	53851
12,70830	51364
12,71242	58225
12,71653	53758
12,72067	53537
12,72478	54246
12,72890	52352
12,73302	50191
12,73715	51575
12,74127	50471
12,74538	52408
12,74952	48516
12,75363	51254
12,75775	50138
12,76188	49227
12,76600	49424
12,77012	49761
12,77425	50401
12,77837	49777
12,78248	51811
12,78662	50599
12,79073	49356
12,79485	49066
12,79898	50144
12,80310	51279
12,80722	50999
12,81135	49450
12,81547	51600
12,81958	50470
12,82370	47582
12,82783	50408
12,83195	48709
12,83607	48383
12,84020	47374
12,84432	49435
12,84843	48996
12,85257	50514
12,85668	46334
12,86080	50253
12,86493	48974
12,86905	49839
12,87317	47666
12,87730	47367
12,88142	51539
12,88553	50800
12,88967	49000
12,89378	49745
12,89790	49321
12,90203	46395
12,90615	45170
12,91027	47639
12,91438	46769
12,91852	47009
12,92263	47515
12,92675	46670
12,93088	45904
12,93500	44330
12,93912	45271
12,94325	46033
12,94737	46734
12,95148	48295
12,95562	45189
12,95973	46579
12,96385	47580
12,96798	45064
12,97210	47110
12,97622	48054
12,98035	47667
12,98447	48021
12,98858	48760
12,99272	50169
12,99683	49408
13,00095	46997
13,00507	47795
13,00920	49517
13,01332	48997
13,01743	46123
13,02157	46747
13,02568	49888
13,02980	47207
13,03393	49665
13,03805	53696
13,04217	59195
13,04630	69149
13,05042	86467
13,05453	110693
13,05867	149974
13,06278	199698
13,06690	270257
13,07103	351440
13,07515	438576
13,07927	521516
13,08340	600925
13,08752	676088
13,09163	711037
13,09575	734528
13,09988	735092
13,10400	710274
13,10812	674732
13,11225	620436
13,11637	576597
13,12048	523103
13,12462	468869
13,12873	424228
13,13285	387185
13,13698	341583
13,14110	307686
13,14522	283846
13,14935	258746
13,15347	236138
13,15758	217512
13,16172	201186
13,16583	190126
13,16995	173539
13,17408	164024
13,17820	155466
13,18232	144130
13,18643	140347
13,19057	131176
13,19468	127152
13,19880	118913
13,20293	117858
13,20705	110407
13,21117	107400
13,21530	102204
13,21942	99990
13,22353	100263
13,22767	92845
13,23178	89868
13,23590	90000
13,24003	87151
13,24415	84089
13,24827	84335
13,25240	82543
13,25652	79389
13,26063	74808
13,26477	74524
13,26888	75727
13,27300	73606
13,27712	71464
13,28125	70698
13,28537	70936
13,28948	69999
13,29362	67862
13,29773	67682
13,30185	67357
13,30598	66754
13,31010	64639
13,31422	66055
13,31835	64472
13,32247	62689
13,32658	59785
13,33072	63253
13,33483	63447
13,33895	62937
13,34308	58281
13,34720	59866
13,35132	61010
13,35545	61503
13,35957	58462
13,36368	59493
13,36780	58098
13,37193	54059
13,37605	55606
13,38017	57199
13,38430	55346
13,38842	55331
13,39253	55077
13,39667	54010
13,40078	54269
13,40490	53370
13,40903	53021
13,41315	51769
13,41727	51150
13,42140	53133
13,42552	52450
13,42963	51886
13,43377	49842
13,43788	51538
13,44200	52805
13,44613	48989
13,45025	49550
13,45437	50578
13,45848	50428
13,46262	52260
13,46673	48327
13,47085	48745
13,47498	48019
13,47910	49641
13,48322	48889
13,48735	48904
13,49147	48306
13,49558	52545
13,49972	50770
13,50383	47977
13,50795	49626
13,51208	50507
13,51620	48133
13,52032	49827
13,52445	49729
13,52857	47831
13,53268	49229
13,53682	48484
13,54093	46917
13,54505	46674
13,54917	46133
13,55330	48997
13,55742	45272
13,56153	47629
13,56567	47276
13,56978	46487
13,57390	45191
13,57803	47903
13,58215	45952
13,58627	44253
13,59040	47070
13,59452	45236
13,59863	45850
13,60277	44010
13,60688	46721
13,61100	45469
13,61513	44323
13,61925	44777
13,62337	44763
13,62750	44098
13,63162	45684
13,63573	42880
13,63985	47158
13,64398	44797
13,64810	46124
13,65222	44705
13,65635	45696
13,66047	44586
13,66458	44584
13,66872	46034
13,67283	43329
13,67695	44607
13,68108	45066
13,68520	46310
13,68932	46262
13,69345	46548
13,69757	43843
13,70168	45839
13,70582	43249
13,70993	44708
13,71405	42598
13,71818	44663
13,72230	44690
13,72642	43319
13,73055	44505
13,73467	44698
13,73878	46490
13,74290	44694
13,74703	44682
13,75115	44730
13,75527	47179
13,75940	45917
13,76352	45765
13,76763	45640
13,77177	47790
13,77588	47026
13,78000	44928
13,78413	45086
13,78825	46639
13,79237	45723
13,79650	43539
13,80062	44763
13,80473	45823
13,80887	44643
13,81298	45306
13,81710	43358
13,82123	46079
13,82535	44797
13,82947	45338
13,83358	45296
13,83772	45948
13,84183	44980
13,84595	42441
13,85008	41672
13,85420	43690
13,85832	41798
13,86245	44700
13,86657	43078
13,87068	42591
13,87482	43200
13,87893	42321
13,88305	44015
13,88718	42220
13,89130	44622
13,89542	42083
13,89955	43296
13,90367	43291
13,90778	44895
13,91192	43814
13,91603	40481
13,92015	43874
13,92427	41559
13,92840	43706
13,93252	44211
13,93663	45821
13,94077	41611
13,94488	41491
13,94900	43733
13,95313	43798
13,95725	44739
13,96137	42089
13,96550	43707
13,96962	42224
13,97373	43382
13,97787	41152
13,98198	40630
13,98610	41699
13,99023	40564
13,99435	42839
13,99847	41636
14,00260	39744
14,00672	42424
14,01083	43317
14,01495	44225
14,01908	40879
14,02320	43961
14,02732	42146
14,03145	42920
14,03557	41599
14,03968	42975
14,04382	43819
14,04793	42258
14,05205	43300
14,05618	43808
14,06030	44283
14,06442	40162
14,06855	43320
14,07267	41937
14,07678	43207
14,08092	43408
14,08503	41712
14,08915	42437
14,09328	43919
14,09740	43627
14,10152	42271
14,10563	40990
14,10977	42837
14,11388	42996
14,11800	43453
14,12213	42833
14,12625	42716
14,13037	41123
14,13450	41922
14,13862	43409
14,14273	43350
14,14687	41853
14,15098	44327
14,15510	41004
14,15923	42364
14,16335	42358
14,16747	42113
14,17160	42225
14,17572	41944
14,17983	42251
14,18397	41492
14,18808	43825
14,19220	43387
14,19632	40277
14,20045	42933
14,20457	42199
14,20868	41570
14,21282	42025
14,21693	41303
14,22105	42305
14,22518	42658
14,22930	42785
14,23342	44273
14,23755	44963
14,24167	43022
14,24578	41517
14,24992	42641
14,25403	42518
14,25815	43521
14,26228	42740
14,26640	42433
14,27052	41395
14,27465	42122
14,27877	42745
14,28288	40869
14,28700	41009
14,29113	42769
14,29525	39368
14,29937	39617
14,30350	42637
14,30762	41599
14,31173	44510
14,31587	44153
14,31998	41798
14,32410	41844
14,32823	40809
14,33235	42233
14,33647	42994
14,34060	42457
14,34472	43720
14,34883	37074
14,35297	40457
14,35708	38994
14,36120	40646
14,36533	42414
14,36945	40733
14,37357	39213
14,37768	40834
14,38182	40444
14,38593	43150
14,39005	39662
14,39418	41457
14,39830	39016
14,40242	38410
14,40655	40421
14,41067	40629
14,41478	42206
14,41892	39521
14,42303	39676
14,42715	39611
14,43128	38421
14,43540	40277
14,43952	37039
14,44365	39349
14,44777	38639
14,45188	38688
14,45602	39138
14,46013	37374
14,46425	39048
14,46837	37969
14,47250	39000
14,47662	38424
14,48073	39652
14,48487	41188
14,48898	39073
14,49310	39276
14,49723	39500
14,50135	38883
14,50547	38077
14,50960	39416
14,51372	38657
14,51783	38599
14,52197	41321
14,52608	40653
14,53020	41720
14,53433	40282
14,53845	37340
14,54257	41060
14,54670	41317
14,55082	40817
14,55493	40620
14,55905	38342
14,56318	40601
14,56730	41247
14,57142	42236
14,57555	43392
14,57967	41391
14,58378	41331
14,58792	41347
14,59203	39858
14,59615	39784
14,60028	38179
14,60440	41373
14,60852	39625
14,61265	40898
14,61677	38929
14,62088	40202
14,62502	40995
14,62913	37847
14,63325	38252
14,63738	37681
14,64150	40242
14,64562	38484
14,64973	39221
14,65387	38731
14,65798	37334
14,66210	38172
14,66623	38318
14,67035	41318
14,67447	37624
14,67860	41569
14,68272	40452
14,68683	41006
14,69097	41718
14,69508	41022
14,69920	38890
14,70333	39550
14,70745	38494
14,71157	38672
14,71570	38459
14,71982	37956
14,72393	38214
14,72807	37322
14,73218	37104
14,73630	40666
14,74042	40903
14,74455	38173
14,74867	36476
14,75278	36800
14,75692	38667
14,76103	38223
14,76515	38389
14,76928	38393
14,77340	37394
14,77752	40153
14,78165	36567
14,78577	34964
14,78988	37620
14,79402	37154
14,79813	36236
14,80225	37725
14,80638	39495
14,81050	35498
14,81462	38638
14,81875	37597
14,82287	36189
14,82698	36255
14,83110	37927
14,83523	37701
14,83935	37196
14,84347	36788
14,84760	37283
14,85172	38499
14,85583	36917
14,85997	34738
14,86408	37188
14,86820	35831
14,87233	36466
14,87645	36774
14,88057	38595
14,88470	37569
14,88882	39887
14,89293	38892
14,89707	37919
14,90118	36744
14,90530	36015
14,90943	37693
14,91355	39302
14,91767	37648
14,92178	38255
14,92592	36890
14,93003	38640
14,93415	37124
14,93828	36430
14,94240	39294
14,94652	39384
14,95065	37492
14,95477	37569
14,95888	37170
14,96302	40438
14,96713	38335
14,97125	39978
14,97538	39257
14,97950	39840
14,98362	40443
14,98775	37431
14,99187	38703
14,99598	36978
15,00012	36448
15,00423	37476
15,00835	38732
15,01247	39668
15,01660	38698
15,02072	37899
15,02483	36247
15,02897	36967
15,03308	37501
15,03720	37392
15,04133	37914
15,04545	36558
15,04957	38096
15,05370	37233
15,05782	37121
15,06193	36577
15,06607	38882
15,07018	34479
15,07430	36545
15,07843	36373
15,08255	37944
15,08667	37375
15,09080	36057
15,09492	35015
15,09903	36514
15,10315	36958
15,10728	35351
15,11140	35708
15,11552	36798
15,11965	38108
15,12377	37023
15,12788	37461
15,13202	38672
15,13613	39498
15,14025	39551
15,14438	37477
15,14850	38011
15,15262	39666
15,15675	40468
15,16087	40244
15,16498	40322
15,16912	39196
15,17323	41139
15,17735	40224
15,18148	41476
15,18560	40489
15,18972	42055
15,19383	39234
15,19797	42777
15,20208	40405
15,20620	41216
15,21033	38808
15,21445	39104
15,21857	38414
15,22270	39349
15,22682	38755
15,23093	39394
15,23507	38498
15,23918	41407
15,24330	37867
15,24743	36810
15,25155	35942
15,25567	39381
15,25980	38449
15,26392	39139
15,26803	38634
15,27217	38543
15,27628	37274
15,28040	37481
15,28453	37819
15,28865	38522
15,29277	38608
15,29688	38190
15,30102	37851
15,30513	35558
15,30925	41130
15,31338	35084
15,31750	38621
15,32162	38651
15,32575	39247
15,32987	40347
15,33398	36576
15,33812	36345
15,34223	37661
15,34635	37225
15,35048	36927
15,35460	36822
15,35872	38017
15,36285	38118
15,36697	38249
15,37108	36625
15,37522	36710
15,37933	38507
15,38345	39940
15,38757	36584
15,39170	36335
15,39582	39557
15,39993	35581
15,40407	35282
15,40818	39146
15,41230	37980
15,41643	37586
15,42055	38489
15,42467	37009
15,42880	34806
15,43292	37480
15,43703	37968
15,44117	36991
15,44528	37235
15,44940	38247
15,45353	37408
15,45765	36701
15,46177	35805
15,46590	39353
15,47002	41066
15,47413	40825
15,47825	41626
15,48238	39386
15,48650	41535
15,49062	41293
15,49475	43549
15,49887	44698
15,50298	42284
15,50712	42044
15,51123	42503
15,51535	45222
15,51948	44714
15,52360	45253
15,52772	40769
15,53185	42539
15,53597	43179
15,54008	44095
15,54422	41503
15,54833	38098
15,55245	39674
15,55658	41492
15,56070	41224
15,56482	38412
15,56893	38449
15,57307	38696
15,57718	39240
15,58130	40352
15,58543	37592
15,58955	38618
15,59367	38014
15,59780	37142
15,60192	37110
15,60603	36008
15,61017	39047
15,61428	37516
15,61840	38805
15,62253	36806
15,62665	37618
15,63077	37516
15,63490	35433
15,63902	37582
15,64313	38126
15,64727	34956
15,65138	37726
15,65550	36298
15,65962	34867
15,66375	36924
15,66787	33981
15,67198	36807
15,67612	35775
15,68023	36530
15,68435	37358
15,68848	37054
15,69260	36886
15,69672	36512
15,70085	34608
15,70497	37292
15,70908	36069
15,71322	36628
15,71733	35153
15,72145	37046
15,72558	36193
15,72970	37833
15,73382	39350
15,73795	35257
15,74207	35096
15,74618	37886
15,75030	37889
15,75443	35658
15,75855	39247
15,76267	37275
15,76680	37697
15,77092	38069
15,77503	35060
15,77917	37556
15,78328	34352
15,78740	35507
15,79153	37368
15,79565	36761
15,79977	35823
15,80390	36964
15,80802	35579
15,81213	34719
15,81627	36994
15,82038	34847
15,82450	34083
15,82863	35996
15,83275	35952
15,83687	33215
15,84098	37437
15,84512	37273
15,84923	36130
15,85335	35971
15,85748	35769
15,86160	34129
15,86572	35871
15,86985	40328
15,87397	36535
15,87808	35539
15,88222	37661
15,88633	36912
15,89045	36396
15,89458	37651
15,89870	35804
15,90282	37061
15,90695	35137
15,91107	37037
15,91518	35024
15,91932	36233
15,92343	34664
15,92755	38303
15,93167	36852
15,93580	35310
15,93992	34825
15,94403	35820
15,94817	36551
15,95228	34924
15,95640	35062
15,96053	38376
15,96465	33865
15,96877	38673
15,97290	34346
15,97702	36566
15,98113	34824
15,98527	36525
15,98938	33629
15,99350	36924
15,99763	36667
16,00175	37774
16,00587	34720
16,01000	34116
16,01412	37719
16,01823	35593
16,02235	34581
16,02648	34613
16,03060	36102
16,03472	36413
16,03885	35070
16,04297	33783
16,04708	36062
16,05122	35885
16,05533	34407
16,05945	34752
16,06358	35500
16,06770	36462
16,07182	36177
16,07595	34784
16,08007	34171
16,08418	33881
16,08832	34972
16,09243	35280
16,09655	34597
16,10068	34958
16,10480	36443
16,10892	35128
16,11303	34964
16,11717	35512
16,12128	35144
16,12540	34963
16,12953	35875
16,13365	36604
16,13777	36060
16,14190	35208
16,14602	33647
16,15013	35859
16,15427	36734
16,15838	38175
16,16250	35430
16,16663	35152
16,17075	37682
16,17487	36223
16,17900	34388
16,18312	34606
16,18723	37408
16,19137	32722
16,19548	33502
16,19960	33455
16,20372	36567
16,20785	37571
16,21197	35903
16,21608	32115
16,22022	36148
16,22433	35474
16,22845	35770
16,23258	36886
16,23670	36262
16,24082	35775
16,24495	34207
16,24907	34940
16,25318	33648
16,25732	32811
16,26143	35659
16,26555	33932
16,26968	34190
16,27380	34715
16,27792	32373
16,28205	33430
16,28617	36757
16,29028	37588
16,29440	34341
16,29853	33711
16,30265	35801
16,30677	33498
16,31090	34017
16,31502	34337
16,31913	33676
16,32327	36817
16,32738	36041
16,33150	34055
16,33563	34999
16,33975	36027
16,34387	34917
16,34800	35623
16,35212	36660
16,35623	33035
16,36037	33597
16,36448	35152
16,36860	34170
16,37273	32975
16,37685	32659
16,38097	33953
16,38508	34021
16,38922	37702
16,39333	36119
16,39745	34540
16,40158	36185
16,40570	35784
16,40982	32012
16,41395	35780
16,41807	36237
16,42218	32781
16,42632	36043
16,43043	34418
16,43455	33175
16,43868	34970
16,44280	33575
16,44692	35374
16,45105	35140
16,45517	34053
16,45928	34520
16,46342	32939
16,46753	34468
16,47165	33344
16,47577	35485
16,47990	35457
16,48402	36449
16,48813	33404
16,49227	36632
16,49638	36348
16,50050	36552
16,50463	36777
16,50875	35492
16,51287	35001
16,51700	35799
16,52112	36403
16,52523	34335
16,52937	34886
16,53348	35774
16,53760	37579
16,54173	35258
16,54585	37859
16,54997	36027
16,55410	35851
16,55822	36623
16,56233	35617
16,56645	36588
16,57058	36776
16,57470	38012
16,57882	35189
16,58295	37017
16,58707	35661
16,59118	35100
16,59532	34351
16,59943	37166
16,60355	34924
16,60768	36914
16,61180	34996
16,61592	35796
16,62005	37468
16,62417	36721
16,62828	34873
16,63242	35949
16,63653	38834
16,64065	35522
16,64478	36335
16,64890	34632
16,65302	34346
16,65713	35274
16,66127	36626
16,66538	37307
16,66950	35590
16,67363	35597
16,67775	35609
16,68187	34576
16,68600	36049
16,69012	33635
16,69423	34240
16,69837	34599
16,70248	36694
16,70660	31515
16,71073	34100
16,71485	34302
16,71897	32894
16,72310	34764
16,72722	33773
16,73133	32495
16,73547	34581
16,73958	34919
16,74370	34013
16,74782	34815
16,75195	34239
16,75607	34340
16,76018	32358
16,76432	34670
16,76843	34668
16,77255	33453
16,77668	35848
16,78080	34590
16,78492	35203
16,78905	35166
16,79317	34170
16,79728	34596
16,80142	32834
16,80553	35692
16,80965	33490
16,81378	35025
16,81790	32792
16,82202	35579
16,82615	36369
16,83027	33147
16,83438	34915
16,83850	35485
16,84263	34432
16,84675	35327
16,85087	34201
16,85500	37059
16,85912	35380
16,86323	36034
16,86737	34731
16,87148	34436
16,87560	34433
16,87973	34182
16,88385	33688
16,88797	33752
16,89210	35119
16,89622	37303
