D:\MassHunter\GCMS\1\data\Amal\Constant flow\130C\130C_1ml-min_4C-min_3.D Mon Sep 16 15:03:08 2024
Start of data points
4,94107	2748255
4,94520	2597647
4,94932	2461164
4,95343	2340190
4,95757	2200120
4,96168	2085008
4,96580	1995580
4,96993	1901349
4,97405	1785037
4,97817	1681603
4,98228	1614371
4,98642	1552400
4,99053	1440887
4,99465	1375267
4,99878	1325428
5,00290	1245696
5,00702	1197063
5,01115	1122566
5,01527	1073958
5,01938	1022349
5,02352	974398
5,02763	916870
5,03175	877580
5,03588	835763
5,04000	804449
5,04412	775604
5,04825	727936
5,05237	705875
5,05648	661091
5,06062	629120
5,06473	614404
5,06885	585761
5,07297	557786
5,07710	539021
5,08122	511216
5,08533	483615
5,08947	468644
5,09358	450860
5,09770	429068
5,10183	413064
5,10595	397544
5,11007	382964
5,11420	367534
5,11832	355530
5,12243	339056
5,12657	327264
5,13068	318040
5,13480	305650
5,13893	291273
5,14305	285918
5,14717	277593
5,15130	268241
5,15542	255330
5,15953	249403
5,16365	246102
5,16778	237513
5,17190	227873
5,17602	221642
5,18015	215425
5,18427	211322
5,18838	206606
5,19252	199220
5,19663	194523
5,20075	189834
5,20488	187961
5,20900	181576
5,21312	177498
5,21725	174984
5,22137	171662
5,22548	170121
5,22962	167019
5,23373	161488
5,23785	160838
5,24198	156075
5,24610	157868
5,25022	152232
5,25433	153819
5,25847	150159
5,26258	148129
5,26670	148980
5,27083	144967
5,27495	146247
5,27907	147438
5,28320	145030
5,28732	144102
5,29143	139475
5,29557	138534
5,29968	136487
5,30380	136709
5,30793	135385
5,31205	133803
5,31617	131845
5,32030	132205
5,32442	131129
5,32853	130576
5,33267	126774
5,33678	126880
5,34090	132699
5,34502	136684
5,34915	159190
5,35327	204857
5,35738	270804
5,36152	357424
5,36563	457108
5,36975	564117
5,37388	658975
5,37800	729537
5,38212	768110
5,38625	782774
5,39037	780362
5,39448	769843
5,39862	747572
5,40273	725288
5,40685	701373
5,41098	681058
5,41510	654482
5,41922	631228
5,42335	615311
5,42747	590924
5,43158	569381
5,43570	542659
5,43983	534156
5,44395	513628
5,44807	496026
5,45220	483195
5,45632	467258
5,46043	445153
5,46457	434975
5,46868	415714
5,47280	401831
5,47693	392100
5,48105	371606
5,48517	366440
5,48930	352635
5,49342	342951
5,49753	332180
5,50167	318200
5,50578	307018
5,50990	295531
5,51403	288966
5,51815	275891
5,52227	269619
5,52638	259996
5,53052	250028
5,53463	240035
5,53875	232395
5,54288	222030
5,54700	209634
5,55112	201045
5,55525	195973
5,55937	185298
5,56348	178098
5,56762	170992
5,57173	163373
5,57585	157038
5,57998	153420
5,58410	143490
5,58822	139708
5,59235	135596
5,59647	128067
5,60058	122438
5,60472	123856
5,60883	117125
5,61295	115708
5,61707	113290
5,62120	111718
5,62532	105043
5,62943	102871
5,63357	99365
5,63768	96642
5,64180	94052
5,64593	96489
5,65005	91127
5,65417	91493
5,65830	87767
5,66242	88079
5,66653	88241
5,67067	86828
5,67478	85015
5,67890	82946
5,68303	81211
5,68715	78552
5,69127	80775
5,69540	79442
5,69952	83333
5,70363	76431
5,70775	74009
5,71188	74121
5,71600	74979
5,72012	74636
5,72425	74988
5,72837	74835
5,73248	74675
5,73662	73148
5,74073	73399
5,74485	70456
5,74898	71855
5,75310	71213
5,75722	69139
5,76135	70222
5,76547	70997
5,76958	69180
5,77372	67752
5,77783	69836
5,78195	67491
5,78608	67105
5,79020	66812
5,79432	68214
5,79843	67948
5,80257	68705
5,80668	66882
5,81080	68357
5,81493	67154
5,81905	70419
5,82317	67981
5,82730	67096
5,83142	66590
5,83553	66292
5,83967	64918
5,84378	66564
5,84790	66485
5,85203	65199
5,85615	66307
5,86027	64268
5,86440	65809
5,86852	64982
5,87263	63918
5,87677	66334
5,88088	67250
5,88500	64421
5,88912	63227
5,89325	64582
5,89737	63132
5,90148	66012
5,90562	65605
5,90973	61943
5,91385	63351
5,91798	63392
5,92210	63188
5,92622	62335
5,93035	63782
5,93447	63055
5,93858	61616
5,94272	61507
5,94683	62056
5,95095	59780
5,95508	62535
5,95920	59879
5,96332	56298
5,96745	61701
5,97157	59937
5,97568	59145
5,97980	60135
5,98393	59937
5,98805	58367
5,99217	59675
5,99630	59166
6,00042	57858
6,00453	58356
6,00867	59215
6,01278	59004
6,01690	57999
6,02103	58050
6,02515	56028
6,02927	55993
6,03340	58064
6,03752	57373
6,04163	56414
6,04577	56079
6,04988	54520
6,05400	55459
6,05813	56425
6,06225	54160
6,06637	55534
6,07048	56494
6,07462	54344
6,07873	54850
6,08285	56868
6,08698	54283
6,09110	52891
6,09522	55731
6,09935	54142
6,10347	54959
6,10758	57200
6,11172	57979
6,11583	56373
6,11995	58417
6,12408	56734
6,12820	56642
6,13232	54387
6,13645	56551
6,14057	55227
6,14468	57815
6,14882	54250
6,15293	54293
6,15705	56250
6,16117	54539
6,16530	54484
6,16942	53110
6,17353	53209
6,17767	51264
6,18178	53368
6,18590	52898
6,19003	52146
6,19415	52192
6,19827	52437
6,20240	52864
6,20652	51786
6,21063	51796
6,21477	52225
6,21888	50381
6,22300	49132
6,22713	50709
6,23125	49160
6,23537	49933
6,23950	48525
6,24362	48037
6,24773	50301
6,25185	47572
6,25598	48476
6,26010	47419
6,26422	47175
6,26835	46037
6,27247	47495
6,27658	46041
6,28072	44103
6,28483	48275
6,28895	46218
6,29308	46581
6,29720	46703
6,30132	46461
6,30545	46433
6,30957	46982
6,31368	45772
6,31782	46879
6,32193	45464
6,32605	43232
6,33018	44209
6,33430	44641
6,33842	43443
6,34255	44082
6,34667	46094
6,35078	43369
6,35490	44160
6,35903	42611
6,36315	43921
6,36727	43749
6,37140	43561
6,37552	44647
6,37963	42222
6,38377	42297
6,38788	42234
6,39200	42592
6,39613	44502
6,40025	42656
6,40437	43481
6,40850	41469
6,41262	41227
6,41673	43551
6,42087	41086
6,42498	40506
6,42910	41191
6,43323	43616
6,43735	43440
6,44147	43089
6,44558	50268
6,44972	56703
6,45383	72859
6,45795	102248
6,46208	144681
6,46620	208003
6,47032	293093
6,47445	395921
6,47857	509030
6,48268	617651
6,48682	703540
6,49093	791055
6,49505	838424
6,49918	879503
6,50330	897203
6,50742	897068
6,51155	889136
6,51567	864097
6,51978	841723
6,52392	815627
6,52803	784551
6,53215	761080
6,53627	727340
6,54040	703321
6,54452	679049
6,54863	644066
6,55277	626470
6,55688	598054
6,56100	568696
6,56513	547938
6,56925	524658
6,57337	504767
6,57750	479092
6,58162	458612
6,58573	440770
6,58987	422456
6,59398	401136
6,59810	383992
6,60223	366187
6,60635	344628
6,61047	330412
6,61460	311384
6,61872	295769
6,62283	276313
6,62695	260933
6,63108	238493
6,63520	227701
6,63932	216854
6,64345	200014
6,64757	187249
6,65168	172755
6,65582	162928
6,65993	150477
6,66405	140704
6,66818	135362
6,67230	126661
6,67642	119502
6,68055	111299
6,68467	104107
6,68878	99340
6,69292	93205
6,69703	88687
6,70115	83924
6,70528	80987
6,70940	78687
6,71352	70972
6,71763	70670
6,72177	69442
6,72588	65930
6,73000	64184
6,73413	61459
6,73825	58209
6,74237	58109
6,74650	56400
6,75062	52294
6,75473	50970
6,75887	51241
6,76298	50876
6,76710	49006
6,77123	48698
6,77535	47445
6,77947	46138
6,78360	44892
6,78772	47490
6,79183	43199
6,79597	43439
6,80008	43326
6,80420	43377
6,80832	43984
6,81245	42238
6,81657	43458
6,82068	40042
6,82482	41914
6,82893	41199
6,83305	41598
6,83718	41408
6,84130	40512
6,84542	41254
6,84955	40378
6,85367	40240
6,85778	39268
6,86192	40180
6,86603	39171
6,87015	38176
6,87428	39242
6,87840	37215
6,88252	39067
6,88665	37660
6,89077	38219
6,89488	38000
6,89900	37818
6,90313	37861
6,90725	37786
6,91137	37456
6,91550	36107
6,91962	37726
6,92373	35233
6,92787	37869
6,93198	35703
6,93610	34744
6,94023	36431
6,94435	36247
6,94847	37860
6,95260	34965
6,95672	34977
6,96083	34862
6,96497	36419
6,96908	34399
6,97320	35203
6,97733	34234
6,98145	34701
6,98557	34923
6,98968	34728
6,99382	34525
6,99793	33057
7,00205	34241
7,00618	34113
7,01030	33171
7,01442	34487
7,01855	33632
7,02267	33868
7,02678	31244
7,03092	32631
7,03503	33704
7,03915	32906
7,04328	31931
7,04740	33006
7,05152	30375
7,05565	32840
7,05977	31594
7,06388	32044
7,06802	31789
7,07213	32058
7,07625	31708
7,08037	31437
7,08450	32052
7,08862	31927
7,09273	32530
7,09687	29747
7,10098	31640
7,10510	30271
7,10923	30442
7,11335	30707
7,11747	31359
7,12160	32093
7,12572	32827
7,12983	31232
7,13397	30185
7,13808	30235
7,14220	30885
7,14633	31939
7,15045	29501
7,15457	32204
7,15870	30712
7,16282	29867
7,16693	31255
7,17105	31581
7,17518	31788
7,17930	31100
7,18342	30470
7,18755	31106
7,19167	29406
7,19578	29765
7,19992	30219
7,20403	29695
7,20815	29019
7,21228	29962
7,21640	28835
7,22052	27891
7,22465	28741
7,22877	28269
7,23288	28803
7,23702	29564
7,24113	32388
7,24525	34388
7,24938	38777
7,25350	49026
7,25762	63189
7,26173	84400
7,26587	113929
7,26998	156879
7,27410	204281
7,27823	257001
7,28235	309089
7,28647	363590
7,29060	411282
7,29472	447727
7,29883	472531
7,30297	487688
7,30708	498819
7,31120	498811
7,31533	492889
7,31945	484129
7,32357	473754
7,32770	457483
7,33182	440826
7,33593	423144
7,34007	412418
7,34418	394241
7,34830	376225
7,35242	360707
7,35655	342389
7,36067	330470
7,36478	316468
7,36892	306962
7,37303	286337
7,37715	270754
7,38128	259675
7,38540	250501
7,38952	234545
7,39365	219392
7,39777	209911
7,40188	201037
7,40602	186890
7,41013	174680
7,41425	163209
7,41838	150446
7,42250	140086
7,42662	132754
7,43075	121963
7,43487	116398
7,43898	105383
7,44310	97197
7,44723	90157
7,45135	88875
7,45547	82566
7,45960	77988
7,46372	72635
7,46783	68296
7,47197	66240
7,47608	62042
7,48020	57826
7,48433	53742
7,48845	54323
7,49257	50093
7,49670	50144
7,50082	47498
7,50493	46565
7,50907	44058
7,51318	43338
7,51730	39642
7,52143	40293
7,52555	38999
7,52967	38223
7,53378	36716
7,53792	38067
7,54203	35807
7,54615	35756
7,55028	36367
7,55440	33191
7,55852	33312
7,56265	32107
7,56677	31963
7,57088	33098
7,57502	31734
7,57913	32424
7,58325	31116
7,58738	32284
7,59150	30419
7,59562	31295
7,59975	32940
7,60387	30083
7,60798	31013
7,61212	32545
7,61623	31694
7,62035	31450
7,62447	33848
7,62860	32997
7,63272	34273
7,63683	32194
7,64097	32181
7,64508	32393
7,64920	31685
7,65333	32556
7,65745	31137
7,66157	32570
7,66570	29738
7,66982	29996
7,67393	29919
7,67807	28728
7,68218	28191
7,68630	31225
7,69043	30158
7,69455	30672
7,69867	28521
7,70280	28715
7,70692	29507
7,71103	27839
7,71515	27933
7,71928	27119
7,72340	27720
7,72752	27862
7,73165	27361
7,73577	28458
7,73988	27837
7,74402	27670
7,74813	24552
7,75225	26634
7,75638	26732
7,76050	25407
7,76462	26227
7,76875	24930
7,77287	26293
7,77698	25355
7,78112	25281
7,78523	24842
7,78935	25093
7,79348	23844
7,79760	23908
7,80172	25311
7,80583	23703
7,80997	23835
7,81408	24918
7,81820	24148
7,82233	22690
7,82645	25249
7,83057	23752
7,83470	23916
7,83882	24772
7,84293	24443
7,84707	24267
7,85118	24289
7,85530	23130
7,85943	24611
7,86355	23369
7,86767	23803
7,87180	23371
7,87592	23437
7,88003	22520
7,88417	22591
7,88828	22685
7,89240	22685
7,89652	22978
7,90065	22495
7,90477	23267
7,90888	22746
7,91302	22070
7,91713	23028
7,92125	23196
7,92538	22703
7,92950	22262
7,93362	23841
7,93775	22700
7,94187	22655
7,94598	21321
7,95012	22695
7,95423	21566
7,95835	22722
7,96248	22445
7,96660	22022
7,97072	21812
7,97485	20469
7,97897	22050
7,98308	21009
7,98722	22767
7,99133	23489
7,99545	20966
7,99957	22788
8,00370	20449
8,00782	21686
8,01193	20030
8,01607	20501
8,02018	21633
8,02430	21947
8,02843	21004
8,03255	21157
8,03667	21758
8,04080	20661
8,04492	21982
8,04903	20502
8,05317	22271
8,05728	21501
8,06140	20504
8,06553	21771
8,06965	20949
8,07377	22158
8,07790	21833
8,08202	20928
8,08613	21068
8,09025	21079
8,09438	21916
8,09850	21652
8,10262	22489
8,10675	20892
8,11087	21509
8,11498	21675
8,11912	22121
8,12323	21925
8,12735	21645
8,13148	21923
8,13560	20176
8,13972	20208
8,14385	19521
8,14797	20064
8,15208	20142
8,15622	19649
8,16033	20030
8,16445	21765
8,16858	19591
8,17270	20509
8,17682	20133
8,18093	20215
8,18507	19964
8,18918	20354
8,19330	18448
8,19743	22235
8,20155	20771
8,20567	22836
8,20980	23146
8,21392	24447
8,21803	29387
8,22217	39036
8,22628	55478
8,23040	77118
8,23453	114578
8,23865	165864
8,24277	236956
8,24690	322530
8,25102	424723
8,25513	538206
8,25927	657088
8,26338	769396
8,26750	864186
8,27162	954159
8,27575	1021347
8,27987	1067147
8,28398	1094853
8,28812	1100117
8,29223	1106982
8,29635	1076929
8,30048	1042330
8,30460	1022815
8,30872	993449
8,31285	944459
8,31697	897695
8,32108	860715
8,32522	815696
8,32933	771309
8,33345	728850
8,33758	684459
8,34170	644922
8,34582	607463
8,34995	568528
8,35407	533348
8,35818	491067
8,36230	451349
8,36643	423521
8,37055	394656
8,37467	358354
8,37880	328875
8,38292	302474
8,38703	280625
8,39117	249105
8,39528	226988
8,39940	211138
8,40353	190547
8,40765	175697
8,41177	161344
8,41590	146310
8,42002	132353
8,42413	123606
8,42827	115462
8,43238	104846
8,43650	98281
8,44063	90161
8,44475	86362
8,44887	77606
8,45298	73229
8,45712	67881
8,46123	64748
8,46535	64019
8,46948	58068
8,47360	57085
8,47772	53573
8,48185	50467
8,48597	48748
8,49008	47919
8,49422	45468
8,49833	41932
8,50245	42081
8,50658	41230
8,51070	37904
8,51482	39723
8,51895	37614
8,52307	38012
8,52718	36374
8,53132	33648
8,53543	35461
8,53955	32905
8,54367	33133
8,54780	33732
8,55192	32977
8,55603	31091
8,56017	31222
8,56428	31075
8,56840	31144
8,57253	28859
8,57665	27749
8,58077	29526
8,58490	28151
8,58902	26913
8,59313	27294
8,59727	26872
8,60138	27095
8,60550	25380
8,60963	25826
8,61375	26119
8,61787	24639
8,62200	24694
8,62612	25169
8,63023	25668
8,63435	23877
8,63848	24955
8,64260	23550
8,64672	24361
8,65085	23878
8,65497	23289
8,65908	22793
8,66322	21813
8,66733	22756
8,67145	21470
8,67558	22950
8,67970	21773
8,68382	22176
8,68795	21358
8,69207	21588
8,69618	20806
8,70032	20362
8,70443	21234
8,70855	20302
8,71268	21814
8,71680	19535
8,72092	21554
8,72503	20508
8,72917	20538
8,73328	22021
8,73740	19197
8,74153	18024
8,74565	22756
8,74977	19775
8,75390	19663
8,75802	18762
8,76213	19957
8,76627	20029
8,77038	20100
8,77450	18489
8,77863	19049
8,78275	18182
8,78687	18088
8,79100	17412
8,79512	20089
8,79923	18195
8,80337	20647
8,80748	18512
8,81160	19257
8,81572	17451
8,81985	18373
8,82397	18313
8,82808	18696
8,83222	19285
8,83633	18790
8,84045	17948
8,84458	18717
8,84870	18568
8,85282	17298
8,85695	17798
8,86107	17420
8,86518	17608
8,86932	18161
8,87343	17241
8,87755	17104
8,88168	18165
8,88580	16358
8,88992	16799
8,89405	17968
8,89817	17162
8,90228	18144
8,90640	17786
8,91053	16234
8,91465	18479
8,91877	17705
8,92290	17299
8,92702	17554
8,93113	17993
8,93527	17163
8,93938	17261
8,94350	16180
8,94763	17819
8,95175	17816
8,95587	17183
8,96000	16918
8,96412	17871
8,96823	16259
8,97237	18445
8,97648	16746
8,98060	17960
8,98473	18007
8,98885	16956
8,99297	19186
8,99708	17472
9,00122	18053
9,00533	16199
9,00945	15832
9,01358	16809
9,01770	17643
9,02182	17034
9,02595	17965
9,03007	17532
9,03418	16915
9,03832	17368
9,04243	16466
9,04655	15915
9,05068	17646
9,05480	16341
9,05892	17064
9,06305	17528
9,06717	17828
9,07128	17876
9,07542	18646
9,07953	18411
9,08365	17834
9,08777	18483
9,09190	19547
9,09602	19721
9,10013	20071
9,10427	21551
9,10838	21519
9,11250	21097
9,11663	20465
9,12075	21666
9,12487	21213
9,12900	21185
9,13312	20999
9,13723	19679
9,14137	19895
9,14548	20225
9,14960	20841
9,15373	19786
9,15785	19479
9,16197	21235
9,16610	19126
9,17022	19953
9,17433	19075
9,17845	19617
9,18258	18689
9,18670	19115
9,19082	18317
9,19495	18792
9,19907	18141
9,20318	17170
9,20732	17218
9,21143	16830
9,21555	17789
9,21968	17243
9,22380	17400
9,22792	15726
9,23205	17277
9,23617	16895
9,24028	15723
9,24442	17072
9,24853	17256
9,25265	16078
9,25678	16312
9,26090	15269
9,26502	15699
9,26913	16316
9,27327	15983
9,27738	15035
9,28150	15535
9,28563	15005
9,28975	14942
9,29387	14342
9,29800	14859
9,30212	14809
9,30623	15080
9,31037	14188
9,31448	15428
9,31860	15387
9,32273	15172
9,32685	16066
9,33097	15529
9,33510	15279
9,33922	15380
9,34333	16430
9,34747	15973
9,35158	17156
9,35570	18807
9,35982	22991
9,36395	30029
9,36807	37839
9,37218	52271
9,37632	73969
9,38043	102412
9,38455	138223
9,38868	185838
9,39280	236219
9,39692	294751
9,40105	361098
9,40517	418103
9,40928	479500
9,41342	530463
9,41753	569547
9,42165	594153
9,42578	619079
9,42990	623403
9,43402	633605
9,43815	610469
9,44227	598134
9,44638	589662
9,45050	560153
9,45463	533237
9,45875	497561
9,46287	476151
9,46700	441016
9,47112	423521
9,47523	393838
9,47937	359981
9,48348	334455
9,48760	303689
9,49173	278373
9,49585	252670
9,49997	232024
9,50410	212468
9,50822	188643
9,51233	175774
9,51647	157681
9,52058	142172
9,52470	131453
9,52883	117716
9,53295	104564
9,53707	98230
9,54120	92212
9,54532	79952
9,54943	75008
9,55355	70189
9,55768	64165
9,56180	61563
9,56592	56673
9,57005	53007
9,57417	49331
9,57828	48640
9,58242	43958
9,58653	42034
9,59065	40020
9,59478	39220
9,59890	37712
9,60302	35166
9,60715	34023
9,61127	32126
9,61538	31428
9,61952	29093
9,62363	29433
9,62775	28748
9,63188	28522
9,63600	25196
9,64012	25853
9,64423	24697
9,64837	25263
9,65248	24296
9,65660	24836
9,66073	22457
9,66485	23512
9,66897	22195
9,67310	21349
9,67722	20501
9,68133	21289
9,68547	21220
9,68958	20489
9,69370	19749
9,69783	20572
9,70195	21737
9,70607	18795
9,71020	18272
9,71432	19029
9,71843	18335
9,72257	18948
9,72668	18971
9,73080	18718
9,73492	18146
9,73905	18546
9,74317	17690
9,74728	18975
9,75142	17046
9,75553	18470
9,75965	16699
9,76378	17012
9,76790	16403
9,77202	15607
9,77615	17479
9,78027	15431
9,78438	16817
9,78852	16314
9,79263	16610
9,79675	15864
9,80088	15747
9,80500	15572
9,80912	15429
9,81325	15189
9,81737	15765
9,82148	15000
9,82560	15893
9,82973	14815
9,83385	15522
9,83797	15828
9,84210	14064
9,84622	15561
9,85033	14221
9,85447	15046
9,85858	14233
9,86270	14168
9,86683	13673
9,87095	14531
9,87507	13569
9,87920	13996
9,88332	13844
9,88743	15601
9,89157	14119
9,89568	14380
9,89980	14790
9,90393	14145
9,90805	13794
9,91217	14156
9,91628	13185
9,92042	13761
9,92453	13627
9,92865	14390
9,93278	12522
9,93690	13604
9,94102	14066
9,94515	13100
9,94927	14018
9,95338	13443
9,95752	13357
9,96163	14633
9,96575	15161
9,96988	14490
9,97400	13656
9,97812	13901
9,98225	12954
9,98637	14586
9,99048	13752
9,99462	13845
9,99873	14316
10,00285	13416
10,00697	14114
10,01110	14761
10,01522	14776
10,01933	15351
10,02347	14602
10,02758	15008
10,03170	15034
10,03583	16430
10,03995	16119
10,04407	15803
10,04820	15551
10,05232	15541
10,05643	15801
10,06057	15061
10,06468	15006
10,06880	15348
10,07293	15014
10,07705	14962
10,08117	14873
10,08530	14960
10,08942	14695
10,09353	14253
10,09765	14503
10,10178	14424
10,10590	13593
10,11002	13700
10,11415	14355
10,11827	13323
10,12238	11999
10,12652	13788
10,13063	13260
10,13475	13368
10,13888	13281
10,14300	11843
10,14712	13885
10,15125	12695
10,15537	11757
10,15948	13669
10,16362	12665
10,16773	13290
10,17185	14050
10,17598	11965
10,18010	12676
10,18422	11269
10,18833	13384
10,19247	11883
10,19658	12718
10,20070	13026
10,20483	12635
10,20895	11346
10,21307	12257
10,21720	13773
10,22132	11465
10,22543	11713
10,22957	12916
10,23368	13080
10,23780	12134
10,24193	13747
10,24605	13233
10,25017	13395
10,25430	13784
10,25842	14419
10,26253	14529
10,26667	15074
10,27078	15479
10,27490	16514
10,27902	15689
10,28315	14816
10,28727	14499
10,29138	14335
10,29552	14111
10,29963	14482
10,30375	14630
10,30788	13664
10,31200	13353
10,31612	15219
10,32025	14074
10,32437	13085
10,32848	12898
10,33262	12856
10,33673	14227
10,34085	13163
10,34498	12257
10,34910	13055
10,35322	13032
10,35735	13196
10,36147	11863
10,36558	12744
10,36970	13220
10,37383	11709
10,37795	12216
10,38207	11959
10,38620	11272
10,39032	11366
10,39443	12992
10,39857	11557
10,40268	12280
10,40680	12489
10,41093	12562
10,41505	12277
10,41917	11558
10,42330	11678
10,42742	12534
10,43153	13210
10,43567	12787
10,43978	12216
10,44390	11555
10,44803	12087
10,45215	11830
10,45627	12510
10,46038	12248
10,46452	10741
10,46863	13124
10,47275	11746
10,47688	12012
10,48100	11123
10,48512	11426
10,48925	12192
10,49337	11279
10,49748	11511
10,50162	11083
10,50573	10528
10,50985	11888
10,51398	11457
10,51810	11108
10,52222	11089
10,52635	11582
10,53047	10682
10,53458	11144
10,53872	11403
10,54283	12276
10,54695	11280
10,55107	10951
10,55520	10593
10,55932	13053
10,56343	10965
10,56757	10093
10,57168	11836
10,57580	10519
10,57993	10960
10,58405	11121
10,58817	11546
10,59230	12061
10,59642	10505
10,60053	11100
10,60467	12199
10,60878	11487
10,61290	11135
10,61703	10968
10,62115	11946
10,62527	11747
10,62940	14773
10,63352	18734
10,63763	24107
10,64175	32576
10,64588	48795
10,65000	73424
10,65412	108644
10,65825	159148
10,66237	225756
10,66648	311928
10,67062	415348
10,67473	538948
10,67885	667851
10,68298	798694
10,68710	953499
10,69122	1081124
10,69535	1179988
10,69947	1289280
10,70358	1365844
10,70772	1416610
10,71183	1429811
10,71595	1429848
10,72008	1419333
10,72420	1373707
10,72832	1321112
10,73243	1242361
10,73657	1174086
10,74068	1097182
10,74480	1013698
10,74893	931211
10,75305	847015
10,75717	766954
10,76130	690801
10,76542	630711
10,76953	561010
10,77367	499630
10,77778	450423
10,78190	401833
10,78603	360395
10,79015	321574
10,79427	286809
10,79840	258668
10,80252	231393
10,80663	205355
10,81077	187038
10,81488	170272
10,81900	151616
10,82312	136649
10,82725	126120
10,83137	117442
10,83548	105086
10,83962	100018
10,84373	92158
10,84785	85301
10,85198	80449
10,85610	75235
10,86022	73219
10,86435	68962
10,86847	61592
10,87258	60491
10,87672	57372
10,88083	54258
10,88495	53624
10,88908	51603
10,89320	47649
10,89732	46668
10,90145	43520
10,90557	43145
10,90968	40739
10,91380	39871
10,91793	37201
10,92205	35537
10,92617	35431
10,93030	34686
10,93442	33968
10,93853	31673
10,94267	32467
10,94678	30095
10,95090	31109
10,95503	30159
10,95915	30364
10,96327	29388
10,96740	28727
10,97152	29342
10,97563	28419
10,97977	27581
10,98388	27710
10,98800	27415
10,99213	26645
10,99625	26577
11,00037	26222
11,00448	27516
11,00862	24849
11,01273	24180
11,01685	24498
11,02098	24111
11,02510	22484
11,02922	21365
11,03335	21102
11,03747	21340
11,04158	21125
11,04572	20466
11,04983	21326
11,05395	18635
11,05808	20046
11,06220	17507
11,06632	18550
11,07045	18353
11,07457	17717
11,07868	17424
11,08282	17645
11,08693	16841
11,09105	16627
11,09518	16842
11,09930	15392
11,10342	15841
11,10753	17741
11,11167	16758
11,11578	15368
11,11990	16195
11,12403	16006
11,12815	14411
11,13227	16164
11,13640	14048
11,14052	15515
11,14463	14829
11,14877	15004
11,15288	14682
11,15700	14953
11,16113	14029
11,16525	15589
11,16937	13802
11,17350	13731
11,17762	14399
11,18173	14065
11,18587	12944
11,18998	12945
11,19410	13010
11,19822	13705
11,20235	13895
11,20647	13894
11,21058	12364
11,21472	13577
11,21883	13290
11,22295	13325
11,22708	13458
11,23120	13600
11,23532	12164
11,23945	12860
11,24357	11666
11,24768	13184
11,25182	13105
11,25593	12541
11,26005	12000
11,26418	11164
11,26830	12158
11,27242	12433
11,27655	12815
11,28067	12372
11,28478	12341
11,28890	11420
11,29303	11846
11,29715	11576
11,30127	10850
11,30540	11279
11,30952	11167
11,31363	11291
11,31777	12282
11,32188	10722
11,32600	11786
11,33013	11623
11,33425	11296
11,33837	11173
11,34250	11501
11,34662	13311
11,35073	12174
11,35487	11783
11,35898	13013
11,36310	13035
11,36723	13125
11,37135	13100
11,37547	11685
11,37958	12217
11,38372	13034
11,38783	12285
11,39195	12957
11,39608	12431
11,40020	13376
11,40432	13032
11,40845	12420
11,41257	12630
11,41668	11375
11,42082	12017
11,42493	11291
11,42905	12285
11,43318	11449
11,43730	12079
11,44142	11402
11,44555	10405
11,44967	10411
11,45378	11243
11,45792	10791
11,46203	9917
11,46615	9992
11,47027	9581
11,47440	9674
11,47852	11760
11,48263	9371
11,48677	8962
11,49088	10289
11,49500	11130
11,49913	9025
11,50325	10439
11,50737	10034
11,51150	10162
11,51562	10444
11,51973	10334
11,52387	10345
11,52798	9617
11,53210	9565
11,53623	10657
11,54035	9233
11,54447	10114
11,54860	10249
11,55272	10352
11,55683	10207
11,56095	10209
11,56508	9948
11,56920	9897
11,57332	9557
11,57745	9580
11,58157	9628
11,58568	10726
11,58982	9055
11,59393	10850
11,59805	10884
11,60218	10029
11,60630	12840
11,61042	13705
11,61455	13637
11,61867	19142
11,62278	24309
11,62692	35587
11,63103	46435
11,63515	68112
11,63928	96245
11,64340	128454
11,64752	170133
11,65163	218737
11,65577	283520
11,65988	336906
11,66400	401030
11,66813	461338
11,67225	522372
11,67637	576199
11,68050	623857
11,68462	651795
11,68873	672263
11,69287	678693
11,69698	676043
11,70110	651125
11,70523	631027
11,70935	596119
11,71347	562168
11,71760	530229
11,72172	485979
11,72583	446190
11,72997	410578
11,73408	373076
11,73820	334604
11,74232	301019
11,74645	268575
11,75057	240090
11,75468	219107
11,75882	193860
11,76293	173306
11,76705	156314
11,77118	141558
11,77530	130541
11,77942	117177
11,78355	106486
11,78767	100720
11,79178	92787
11,79592	86134
11,80003	79596
11,80415	73194
11,80828	69686
11,81240	64741
11,81652	59717
11,82065	59275
11,82477	54388
11,82888	50151
11,83300	48862
11,83713	45831
11,84125	43445
11,84537	41345
11,84950	39986
11,85362	37424
11,85773	35502
11,86187	32581
11,86598	31988
11,87010	31475
11,87423	28592
11,87835	28352
11,88247	27696
11,88660	27390
11,89072	24879
11,89483	23166
11,89897	23304
11,90308	23893
11,90720	21105
11,91133	20478
11,91545	21213
11,91957	21303
11,92368	19198
11,92782	19056
11,93193	18413
11,93605	18095
11,94018	19117
11,94430	17113
11,94842	18072
11,95255	15610
11,95667	15679
11,96078	16747
11,96492	15380
11,96903	15974
11,97315	15390
11,97728	15425
11,98140	13487
11,98552	14912
11,98965	16157
11,99377	13146
11,99788	14703
12,00202	15005
12,00613	14001
12,01025	13548
12,01437	15395
12,01850	17994
12,02262	22028
12,02673	26746
12,03087	35942
12,03498	50529
12,03910	69747
12,04323	98462
12,04735	137074
12,05147	179772
12,05560	239084
12,05972	302392
12,06383	380164
12,06797	456366
12,07208	533911
12,07620	599883
12,08033	662484
12,08445	715708
12,08857	745509
12,09270	772950
12,09682	797176
12,10093	785023
12,10505	769181
12,10918	734847
12,11330	699480
12,11742	651858
12,12155	601793
12,12567	549251
12,12978	503486
12,13392	453014
12,13803	411841
12,14215	361584
12,14628	324694
12,15040	286549
12,15452	253271
12,15865	226920
12,16277	202832
12,16688	174680
12,17102	158611
12,17513	145332
12,17925	126741
12,18338	117159
12,18750	103230
12,19162	97859
12,19573	85651
12,19987	78824
12,20398	74658
12,20810	69388
12,21223	62153
12,21635	58585
12,22047	55347
12,22460	52097
12,22872	46731
12,23283	47027
12,23697	43810
12,24108	41915
12,24520	39482
12,24933	38234
12,25345	34257
12,25757	33936
12,26170	32130
12,26582	31043
12,26993	29697
12,27407	30250
12,27818	26805
12,28230	27618
12,28642	25283
12,29055	25908
12,29467	25041
12,29878	23227
12,30292	24171
12,30703	22791
12,31115	20273
12,31528	21495
12,31940	20996
12,32352	20265
12,32765	20979
12,33177	18987
12,33588	18568
12,34002	17577
12,34413	18838
12,34825	17408
12,35238	17498
12,35650	16674
12,36062	16016
12,36475	17157
12,36887	15169
12,37298	15018
12,37710	16023
12,38123	15954
12,38535	14282
12,38947	14154
12,39360	15081
12,39772	13564
12,40183	14161
12,40597	14597
12,41008	14028
12,41420	14372
12,41833	13949
12,42245	12802
12,42657	11812
12,43070	13648
12,43482	12560
12,43893	12824
12,44307	12312
12,44718	12408
12,45130	12735
12,45543	12454
12,45955	12193
12,46367	13159
12,46778	11917
12,47192	12127
12,47603	12621
12,48015	11577
12,48428	10577
12,48840	10899
12,49252	12615
12,49665	11172
12,50077	12589
12,50488	11749
12,50902	10804
12,51313	10045
12,51725	11103
12,52138	10652
12,52550	10074
12,52962	10516
12,53375	10702
12,53787	11956
12,54198	11667
12,54612	10743
12,55023	11037
12,55435	9699
12,55847	10651
12,56260	10289
12,56672	9892
12,57083	11247
12,57497	10988
12,57908	10860
12,58320	9653
12,58733	9870
12,59145	9617
12,59557	9778
12,59970	9738
12,60382	11013
12,60793	10714
12,61207	7525
12,61618	9530
12,62030	10866
12,62443	10766
12,62855	9946
12,63267	8948
12,63680	11667
12,64092	9227
12,64503	8996
12,64917	10642
12,65328	9326
12,65740	9365
12,66152	11635
12,66565	11133
12,66977	10042
12,67388	9060
12,67802	9990
12,68213	9295
12,68625	9660
12,69038	9838
12,69450	9890
12,69862	10308
12,70275	9633
12,70687	8604
12,71098	9762
12,71512	9339
12,71923	9371
12,72335	9504
12,72748	9376
12,73160	10488
12,73572	10148
12,73985	9189
12,74397	9901
12,74808	9735
12,75220	9481
12,75633	8815
12,76045	9256
12,76457	8715
12,76870	8823
12,77282	9291
12,77693	8792
12,78107	9604
12,78518	9180
12,78930	9528
12,79343	9300
12,79755	8484
12,80167	9053
12,80580	9569
12,80992	9128
12,81403	8155
12,81817	9342
12,82228	8569
12,82640	8880
12,83053	8127
12,83465	9541
12,83877	8350
12,84288	8033
12,84702	9738
12,85113	9484
12,85525	9733
12,85938	8927
12,86350	8731
12,86762	9628
12,87175	8741
12,87587	9980
12,87998	8953
12,88412	8538
12,88823	8259
12,89235	9150
12,89648	9395
12,90060	9346
12,90472	7765
12,90885	8924
12,91297	8805
12,91708	8379
12,92122	8420
12,92533	8421
12,92945	8826
12,93357	8721
12,93770	8819
12,94182	8986
12,94593	8288
12,95007	7714
12,95418	9323
12,95830	7658
12,96243	8527
12,96655	7812
12,97067	8891
12,97480	8016
12,97892	8973
12,98303	8758
12,98717	8411
12,99128	7733
12,99540	7121
12,99953	8518
13,00365	9167
13,00777	8014
13,01190	7717
13,01602	8260
13,02013	8318
13,02425	8666
13,02838	7760
13,03250	9173
13,03662	8217
13,04075	8846
13,04487	11452
13,04898	11615
13,05312	11401
13,05723	14978
13,06135	18668
13,06548	25715
13,06960	35626
13,07372	50895
13,07785	71718
13,08197	100888
13,08608	138169
13,09022	183435
13,09433	237882
13,09845	302669
13,10258	376081
13,10670	449390
13,11082	523389
13,11493	591845
13,11907	645251
13,12318	694343
13,12730	728894
13,13143	744264
13,13555	749266
13,13967	735967
13,14380	717023
13,14792	683468
13,15203	638339
13,15617	593962
13,16028	556554
13,16440	502852
13,16853	449990
13,17265	407314
13,17677	366939
13,18090	325209
13,18502	286350
13,18913	255409
13,19327	227808
13,19738	203138
13,20150	179178
13,20562	158414
13,20975	145109
13,21387	129016
13,21798	116230
13,22212	103436
13,22623	96385
13,23035	88303
13,23448	83292
13,23860	75561
13,24272	69507
13,24685	64905
13,25097	60224
13,25508	56352
13,25922	53755
13,26333	50779
13,26745	46085
13,27158	42557
13,27570	41145
13,27982	37493
13,28395	36466
13,28807	35812
13,29218	34004
13,29630	31466
13,30043	30729
13,30455	27901
13,30867	28368
13,31280	26607
13,31692	24036
13,32103	25484
13,32517	25278
13,32928	23867
13,33340	22072
13,33753	21904
13,34165	22713
13,34577	19636
13,34990	20232
13,35402	19374
13,35813	19616
13,36227	18949
13,36638	17396
13,37050	17620
13,37463	17427
13,37875	17092
13,38287	17673
13,38698	16499
13,39112	16238
13,39523	15684
13,39935	16121
13,40348	15021
13,40760	13132
13,41172	13064
13,41585	14431
13,41997	13464
13,42408	13204
13,42822	14655
13,43233	13340
13,43645	12738
13,44058	13353
13,44470	11172
13,44882	11372
13,45295	13031
13,45707	12461
13,46118	14897
13,46532	17718
13,46943	23327
13,47355	32446
13,47767	47604
13,48180	72082
13,48592	108442
13,49003	157026
13,49417	235715
13,49828	331210
13,50240	463401
13,50653	623636
13,51065	813602
13,51477	1025989
13,51890	1250493
13,52302	1488480
13,52713	1732692
13,53127	1968888
13,53538	2198334
13,53950	2355266
13,54363	2507067
13,54775	2599996
13,55187	2650429
13,55600	2629694
13,56012	2559873
13,56423	2430877
13,56835	2259791
13,57248	2072324
13,57660	1876526
13,58072	1696996
13,58485	1521635
13,58897	1328393
13,59308	1173837
13,59722	1034705
13,60133	908143
13,60545	789338
13,60958	701994
13,61370	614201
13,61782	549442
13,62195	490431
13,62607	431629
13,63018	390255
13,63432	344708
13,63843	314771
13,64255	284192
13,64668	254939
13,65080	241032
13,65492	219818
13,65903	204686
13,66317	187607
13,66728	172406
13,67140	160647
13,67553	152767
13,67965	142351
13,68377	129930
13,68790	123743
13,69202	117132
13,69613	107014
13,70027	106647
13,70438	97782
13,70850	92061
13,71263	87444
13,71675	84087
13,72087	79781
13,72500	72035
13,72912	71405
13,73323	68636
13,73737	66432
13,74148	63638
13,74560	61232
13,74972	58203
13,75385	55317
13,75797	55428
13,76208	52284
13,76622	49769
13,77033	48226
13,77445	44621
13,77858	44603
13,78270	41565
13,78682	41258
13,79095	39766
13,79507	37057
13,79918	37920
13,80332	35972
13,80743	35713
13,81155	35022
13,81568	33622
13,81980	32075
13,82392	32850
13,82805	32316
13,83217	29463
13,83628	28915
13,84040	29134
13,84453	27073
13,84865	26700
13,85277	26917
13,85690	26374
13,86102	24650
13,86513	23994
13,86927	22581
13,87338	23219
13,87750	22321
13,88163	22402
13,88575	22394
13,88987	21273
13,89400	19874
13,89812	20599
13,90223	21893
13,90637	19335
13,91048	19809
13,91460	18092
13,91873	18402
13,92285	18775
13,92697	18111
13,93108	16730
13,93522	17614
13,93933	17384
13,94345	16044
13,94758	16256
13,95170	17519
13,95582	15843
13,95995	15326
13,96407	17166
13,96818	15745
13,97232	14397
13,97643	14661
13,98055	14614
13,98468	15447
13,98880	14704
13,99292	14555
13,99705	14822
14,00117	13830
14,00528	13197
14,00942	14563
14,01353	13368
14,01765	13525
14,02177	13774
14,02590	12954
14,03002	12004
14,03413	13200
14,03827	11477
14,04238	12764
14,04650	12878
14,05063	11727
14,05475	12419
14,05887	11731
14,06300	12636
14,06712	12200
14,07123	11448
14,07537	12118
14,07948	11747
14,08360	11620
14,08773	11935
14,09185	11544
14,09597	11589
14,10010	12604
14,10422	12301
14,10833	11571
14,11245	11667
14,11658	11377
14,12070	11304
14,12482	11266
14,12895	11418
14,13307	11812
14,13718	10667
14,14132	11435
14,14543	10570
14,14955	11321
14,15368	11216
14,15780	10377
14,16192	11436
14,16605	11057
14,17017	9919
14,17428	10619
14,17842	9212
14,18253	10550
14,18665	10408
14,19078	10470
14,19490	9881
14,19902	8845
14,20313	9638
14,20727	10218
14,21138	9938
14,21550	8918
14,21963	10360
14,22375	9020
14,22787	9612
14,23200	10257
14,23612	9940
14,24023	10679
14,24437	8874
14,24848	10449
14,25260	11184
14,25673	10736
14,26085	12128
14,26497	10761
14,26910	10869
14,27322	9890
14,27733	9935
14,28147	11221
14,28558	11671
14,28970	10412
14,29383	10978
14,29795	9825
14,30207	11139
14,30618	11005
14,31032	11152
14,31443	10942
14,31855	13106
14,32268	11971
14,32680	13933
14,33092	14309
14,33505	16016
14,33917	19317
14,34328	22520
14,34742	25344
14,35153	33919
14,35565	43923
14,35978	59219
14,36390	81488
14,36802	107554
14,37215	150266
14,37627	196275
14,38038	253238
14,38452	314400
14,38863	394449
14,39275	480898
14,39687	560014
14,40100	619761
14,40512	687618
14,40923	734098
14,41337	779768
14,41748	800585
14,42160	790848
14,42573	783061
14,42985	758215
14,43397	713673
14,43810	663999
14,44222	621171
14,44633	556481
14,45047	505500
14,45458	450355
14,45870	414234
14,46283	367375
14,46695	319432
14,47107	287270
14,47520	251166
14,47932	218145
14,48343	202883
14,48755	177717
14,49168	162277
14,49580	145465
14,49992	130825
14,50405	119256
14,50817	106355
14,51228	97724
14,51642	89866
14,52053	84473
14,52465	77401
14,52878	69816
14,53290	65703
14,53702	63193
14,54115	58758
14,54527	57696
14,54938	54284
14,55352	51568
14,55763	49568
14,56175	44369
14,56588	43946
14,57000	41426
14,57412	40388
14,57823	39383
14,58237	39094
14,58648	37397
14,59060	37429
14,59473	34334
14,59885	36171
14,60297	32639
14,60710	31725
14,61122	34122
14,61533	31493
14,61947	30801
14,62358	27848
14,62770	29460
14,63183	27946
14,63595	25454
14,64007	26333
14,64420	25075
14,64832	21391
14,65243	22436
14,65657	20758
14,66068	21744
14,66480	20918
14,66892	19366
14,67305	19241
14,67717	19715
14,68128	17833
14,68542	18347
14,68953	17593
14,69365	15670
14,69778	16867
14,70190	15583
14,70602	16181
14,71015	15643
14,71427	16072
14,71838	14713
14,72252	14935
14,72663	14127
14,73075	14452
14,73488	14572
14,73900	14075
14,74312	14329
14,74725	13776
14,75137	13633
14,75548	13066
14,75960	12082
14,76373	12703
14,76785	12321
14,77197	12889
14,77610	11153
14,78022	13731
14,78433	12153
14,78847	13584
14,79258	10781
14,79670	10729
14,80083	11451
14,80495	12822
14,80907	11346
14,81320	11513
14,81732	10461
14,82143	10718
14,82557	10831
14,82968	11115
14,83380	11586
14,83793	10062
14,84205	11073
14,84617	10696
14,85028	9057
14,85442	11042
14,85853	10661
14,86265	10868
14,86678	8916
14,87090	9994
14,87502	10188
14,87915	10157
14,88327	10680
14,88738	9210
14,89152	9104
14,89563	8641
14,89975	9464
14,90388	10412
14,90800	8806
14,91212	10279
14,91625	8686
14,92037	9498
14,92448	9089
14,92862	9500
14,93273	9758
14,93685	9796
14,94097	9581
14,94510	10573
14,94922	11188
14,95333	13001
14,95747	17118
14,96158	22471
14,96570	30999
14,96983	44246
14,97395	61966
14,97807	95455
14,98220	127278
14,98632	181375
14,99043	234952
14,99457	305812
14,99868	383561
15,00280	464801
15,00693	564234
15,01105	650425
15,01517	738289
15,01930	803040
15,02342	866894
15,02753	908421
15,03165	925580
15,03578	918951
15,03990	891232
15,04402	847872
15,04815	796571
15,05227	722895
15,05638	667137
15,06052	597316
15,06463	541488
15,06875	480823
15,07288	421785
15,07700	368556
15,08112	330640
15,08525	288434
15,08937	253493
15,09348	220673
15,09762	195673
15,10173	180813
15,10585	161140
15,10998	143440
15,11410	132190
15,11822	117681
15,12233	110488
15,12647	100243
15,13058	93865
15,13470	84104
15,13883	78144
15,14295	72222
15,14707	67457
15,15120	62080
15,15532	57731
15,15943	54109
15,16357	54482
15,16768	48747
15,17180	44801
15,17593	44502
15,18005	42152
15,18417	39551
15,18830	39517
15,19242	34801
15,19653	34811
15,20067	35569
15,20478	32736
15,20890	32597
15,21302	30439
15,21715	29388
15,22127	27422
15,22538	27893
15,22952	27026
15,23363	26025
15,23775	25946
15,24188	23644
15,24600	23655
15,25012	24615
15,25425	21261
15,25837	22287
15,26248	21651
15,26662	20691
15,27073	20249
15,27485	19133
15,27898	19649
15,28310	17606
15,28722	18604
15,29135	17587
15,29547	16488
15,29958	18258
15,30370	16538
15,30783	14228
15,31195	16080
15,31607	15531
15,32020	17571
15,32432	13943
15,32843	15053
15,33257	15235
15,33668	14473
15,34080	14021
15,34493	15097
15,34905	12305
15,35317	12856
15,35730	12776
15,36142	11972
15,36553	12023
15,36967	13102
15,37378	11827
15,37790	11691
15,38203	11706
15,38615	12697
15,39027	11700
15,39438	10628
15,39852	11506
15,40263	11006
15,40675	10358
15,41088	11482
15,41500	10875
15,41912	10736
15,42325	10002
15,42737	9715
15,43148	10527
15,43562	9514
15,43973	10049
15,44385	10181
15,44798	9629
15,45210	8724
15,45622	10548
15,46035	9045
15,46447	9993
15,46858	10694
15,47272	9120
15,47683	9993
15,48095	9791
15,48507	9112
15,48920	9424
15,49332	8667
15,49743	8250
15,50157	9586
15,50568	8394
15,50980	8759
15,51393	8478
15,51805	9145
15,52217	9724
15,52630	8455
15,53042	8614
15,53453	9308
15,53867	7567
15,54278	7991
15,54690	8223
15,55103	8643
15,55515	9635
15,55927	9214
15,56340	7305
15,56752	8851
15,57163	8842
15,57575	9304
15,57988	9085
15,58400	9305
15,58812	9200
15,59225	8484
15,59637	8756
15,60048	8383
15,60462	9135
15,60873	9032
15,61285	7397
15,61698	8198
15,62110	9353
15,62522	8554
15,62935	8982
15,63347	9076
15,63758	8283
15,64172	8829
15,64583	7404
15,64995	7796
15,65408	8058
15,65820	8628
15,66232	7912
15,66643	7585
15,67057	8291
15,67468	7433
15,67880	6873
15,68293	8460
15,68705	6995
15,69117	6501
15,69530	8282
15,69942	8068
15,70353	7860
15,70767	7713
15,71178	6321
15,71590	8052
15,72003	7455
15,72415	7247
15,72827	7325
15,73240	6861
15,73652	7709
15,74063	7533
15,74477	7889
15,74888	7461
15,75300	6358
15,75712	7529
15,76125	7449
15,76537	6823
15,76948	7908
15,77362	8066
15,77773	6360
15,78185	7654
15,78598	6832
15,79010	7460
15,79422	7139
15,79835	8856
15,80247	7006
15,80658	7962
15,81072	6921
15,81483	7892
15,81895	7403
15,82308	7411
15,82720	8889
15,83132	9804
15,83545	11519
15,83957	15851
15,84368	20999
15,84780	30174
15,85193	40504
15,85605	58234
15,86017	83548
15,86430	119625
15,86842	160128
15,87253	221230
15,87667	285770
15,88078	364792
15,88490	448813
15,88903	525597
15,89315	618326
15,89727	691883
15,90140	767496
15,90552	816326
15,90963	850793
15,91377	865739
15,91788	856857
15,92200	828631
15,92613	793334
15,93025	746374
15,93437	694349
15,93850	632647
15,94262	570982
15,94673	508093
15,95085	454631
15,95498	403655
15,95910	357178
15,96322	319819
15,96735	285462
15,97147	249196
15,97558	217498
15,97972	197628
15,98383	177017
15,98795	157197
15,99208	141177
15,99620	130993
16,00032	117268
16,00445	108440
16,00857	98372
16,01268	91300
16,01682	87219
16,02093	79147
16,02505	75050
16,02918	71349
16,03330	66698
16,03742	65788
16,04153	64788
16,04567	63842
16,04978	60940
16,05390	57030
16,05803	57821
16,06215	55320
16,06627	53891
16,07040	53446
16,07452	51431
16,07863	49902
16,08277	44757
16,08688	45541
16,09100	45099
16,09513	40094
16,09925	39731
16,10337	38565
16,10750	35799
16,11162	35134
16,11573	32646
16,11987	31900
16,12398	30088
16,12810	28985
16,13222	27093
16,13635	28184
16,14047	25473
16,14458	24176
16,14872	22087
16,15283	22623
16,15695	22622
16,16108	21599
16,16520	21390
16,16932	20481
16,17345	18023
16,17757	18644
16,18168	17141
16,18582	15739
16,18993	18688
16,19405	17383
16,19818	15814
16,20230	15835
16,20642	14886
16,21055	15500
16,21467	14286
16,21878	14098
16,22290	13749
16,22703	13514
16,23115	12983
16,23527	13629
16,23940	12492
16,24352	12042
16,24763	11654
16,25177	12007
16,25588	12782
16,26000	11572
16,26413	12177
16,26825	12162
16,27237	12152
16,27650	10762
16,28062	11758
16,28473	11509
16,28887	11583
16,29298	10164
16,29710	10810
16,30123	9894
16,30535	9925
16,30947	9913
16,31358	10895
16,31772	10494
16,32183	10058
16,32595	11795
16,33008	10564
16,33420	9899
16,33832	9540
16,34245	10734
16,34657	10201
16,35068	9217
16,35482	8553
16,35893	9796
16,36305	8288
16,36718	9903
16,37130	9196
16,37542	10144
16,37955	9617
16,38367	9770
16,38778	10086
16,39192	9099
16,39603	9332
16,40015	9159
16,40427	10762
16,40840	9708
16,41252	9426
16,41663	8367
16,42077	8762
16,42488	8278
16,42900	8443
16,43313	9908
16,43725	10836
16,44137	13663
16,44550	17001
16,44962	20900
16,45373	29460
16,45787	45765
16,46198	68174
16,46610	98503
16,47023	141163
16,47435	201881
16,47847	288528
16,48260	396640
16,48672	526833
16,49083	674841
16,49495	849978
16,49908	1048779
16,50320	1252155
16,50732	1443458
16,51145	1636278
16,51557	1783204
16,51968	1889680
16,52382	1987144
16,52793	2026131
16,53205	2029515
16,53618	1988090
16,54030	1895024
16,54442	1755407
16,54855	1613359
16,55267	1464249
16,55678	1306261
16,56092	1153871
16,56503	1021919
16,56915	896785
16,57328	786648
16,57740	681861
16,58152	605429
16,58563	539088
16,58977	477878
16,59388	418356
16,59800	376677
16,60213	339928
16,60625	307658
16,61037	277435
16,61450	252166
16,61862	235741
16,62273	209458
16,62687	195088
16,63098	181498
16,63510	164856
16,63923	153519
16,64335	145611
16,64747	133809
16,65160	125287
16,65572	118960
16,65983	107628
16,66397	101843
16,66808	96724
16,67220	92094
16,67632	85799
16,68045	83180
16,68457	78469
16,68868	74991
16,69282	70459
16,69693	67284
16,70105	65270
16,70518	60261
16,70930	58981
16,71342	54756
16,71755	53707
16,72167	52503
16,72578	47950
16,72992	45994
16,73403	44764
16,73815	46135
16,74228	44116
16,74640	40067
16,75052	38924
16,75465	36487
16,75877	37835
16,76288	36598
16,76700	34975
16,77113	32232
16,77525	31588
16,77937	33461
16,78350	32325
16,78762	29714
16,79173	27423
16,79587	27994
16,79998	26748
16,80410	27144
16,80823	25721
16,81235	26434
16,81647	24601
16,82060	23101
16,82472	23494
16,82883	22526
16,83297	22681
16,83708	21814
16,84120	21106
16,84533	19066
16,84945	19457
16,85357	18552
16,85768	20156
16,86182	19581
16,86593	19204
16,87005	17420
16,87418	17560
16,87830	16400
16,88242	18818
16,88655	16843
16,89067	17366
16,89478	16883
16,89892	14907
16,90303	15242
16,90715	16483
16,91128	15864
16,91540	15430
16,91952	14687
16,92365	15444
16,92777	14389
16,93188	14076
16,93602	15274
16,94013	14492
16,94425	15493
16,94837	17013
16,95250	19394
16,95662	23748
16,96073	27206
16,96487	41029
16,96898	53817
16,97310	75701
16,97723	109528
16,98135	147850
16,98547	200570
16,98960	260148
16,99372	337109
16,99783	427530
17,00197	515791
17,00608	613772
17,01020	697815
17,01433	779560
17,01845	850085
17,02257	900183
17,02670	927894
17,03082	936249
17,03493	927512
17,03905	893236
17,04318	847484
17,04730	796865
17,05142	730654
17,05555	668152
17,05967	596213
17,06378	529225
17,06792	480975
17,07203	435452
17,07615	378091
17,08028	332997
17,08440	294229
17,08852	266275
17,09265	234175
17,09677	212430
17,10088	191049
17,10502	176549
17,10913	155288
17,11325	142097
17,11738	131055
17,12150	119746
17,12562	110529
17,12973	98237
17,13387	89681
17,13798	87270
17,14210	81184
17,14623	77318
17,15035	72174
17,15447	65192
17,15860	63680
17,16272	59476
17,16683	56693
17,17097	55751
17,17508	51798
17,17920	47672
17,18333	47460
17,18745	46109
17,19157	42980
17,19570	46185
17,19982	45519
17,20393	53623
17,20807	60748
17,21218	74024
17,21630	95875
17,22042	130133
17,22455	171181
17,22867	235182
17,23278	322112
17,23692	424678
17,24103	547672
17,24515	700906
17,24928	868592
17,25340	1039282
17,25752	1221857
17,26165	1397434
17,26577	1544254
17,26988	1711424
17,27402	1811285
17,27813	1884121
17,28225	1913680
17,28638	1888598
17,29050	1849243
17,29462	1755368
17,29875	1643306
17,30287	1506551
17,30698	1379320
17,31110	1232612
17,31523	1111933
17,31935	982132
17,32347	861527
17,32760	771092
17,33172	673870
17,33583	595107
17,33997	533884
17,34408	472367
17,34820	424336
17,35233	384921
17,35645	341434
17,36057	305713
17,36470	278678
17,36882	256503
17,37293	237126
17,37707	214386
17,38118	201678
17,38530	188581
17,38943	172663
17,39355	163743
17,39767	149376
17,40178	139408
17,40592	132520
17,41003	122489
17,41415	114007
17,41828	107944
17,42240	101368
17,42652	99670
17,43065	91349
17,43477	87710
17,43888	84868
17,44302	81471
17,44713	76342
17,45125	71951
17,45538	67993
17,45950	64764
17,46362	66694
17,46775	61825
17,47187	58024
17,47598	54076
17,48012	53900
17,48423	49849
17,48835	49928
17,49247	47957
17,49660	46861
17,50072	43811
17,50483	45890
17,50897	41194
17,51308	39209
17,51720	38654
17,52133	37151
17,52545	37508
17,52957	34443
17,53370	34020
17,53782	32924
17,54193	31359
17,54607	32851
17,55018	29274
17,55430	29688
17,55843	29548
17,56255	29036
17,56667	28524
17,57080	27405
17,57492	25862
17,57903	26139
17,58315	23545
17,58728	24934
17,59140	23903
17,59552	24042
17,59965	22735
17,60377	24292
17,60788	21776
17,61202	20863
17,61613	20999
17,62025	20541
17,62438	20010
17,62850	20940
17,63262	18956
17,63675	18431
17,64087	18670
17,64498	19448
17,64912	17243
17,65323	18154
17,65735	17350
17,66148	18266
17,66560	18252
17,66972	17736
17,67385	16009
17,67797	15505
17,68208	17141
17,68620	15257
17,69033	15163
17,69445	16016
17,69857	16679
17,70270	15199
17,70682	16249
17,71093	14340
17,71507	15576
17,71918	15052
17,72330	15557
17,72743	15451
17,73155	14443
17,73567	14189
17,73980	12188
17,74392	13860
17,74803	15377
17,75217	13930
17,75628	14898
17,76040	14060
17,76453	13373
17,76865	12492
17,77277	12247
17,77688	12775
17,78102	11601
17,78513	13323
17,78925	13720
17,79338	12710
17,79750	13512
17,80162	14242
17,80575	12191
17,80987	14564
17,81398	13805
17,81812	16975
17,82223	19435
17,82635	23523
17,83048	29347
17,83460	38846
17,83872	53742
17,84285	73562
17,84697	102255
17,85108	143937
17,85522	194667
17,85933	257618
17,86345	328084
17,86757	402595
17,87170	489196
17,87582	567327
17,87993	642197
17,88407	713511
17,88818	772013
17,89230	789984
17,89643	821006
17,90055	827969
17,90467	806161
17,90880	778354
17,91292	734219
17,91703	678539
17,92117	631544
17,92528	576826
17,92940	526170
17,93353	486168
17,93765	460655
17,94177	431816
17,94590	430669
17,95002	446584
17,95413	482232
17,95825	538599
17,96238	633669
17,96650	740065
17,97062	867803
17,97475	1032425
17,97887	1207874
17,98298	1372250
17,98712	1563463
17,99123	1745080
17,99535	1913559
17,99948	2039873
18,00360	2105580
18,00772	2126248
18,01185	2098547
18,01597	2041854
18,02008	1948637
18,02422	1791824
18,02833	1636943
18,03245	1487008
18,03658	1323027
18,04070	1181236
18,04482	1034894
18,04893	926216
18,05307	810739
18,05718	713456
18,06130	631580
18,06543	563836
18,06955	496797
18,07367	448659
18,07780	398850
18,08192	372095
18,08603	334798
18,09017	309294
18,09428	288456
18,09840	260427
18,10253	239016
18,10665	226250
18,11077	208659
18,11490	190705
18,11902	176673
18,12313	171724
18,12727	158161
18,13138	145978
18,13550	140113
18,13962	134328
18,14375	122970
18,14787	118772
18,15198	111225
18,15612	106565
18,16023	104305
18,16435	94731
18,16848	91377
18,17260	86324
18,17672	85311
18,18085	79212
18,18497	75229
18,18908	73994
18,19322	71665
18,19733	68199
18,20145	67959
18,20558	63770
18,20970	61633
18,21382	59370
18,21795	56511
18,22207	56535
18,22618	53749
18,23030	51698
18,23443	49064
18,23855	47745
18,24267	45249
18,24680	43775
18,25092	42149
18,25503	42971
18,25917	40706
18,26328	40474
18,26740	38591
18,27153	38288
18,27565	34739
18,27977	35778
18,28390	33814
18,28802	34483
18,29213	32570
18,29627	32813
18,30038	31118
18,30450	30991
18,30863	33045
18,31275	31037
18,31687	29228
18,32098	30719
18,32512	29504
18,32923	29692
18,33335	29401
18,33748	28896
18,34160	27453
18,34572	27334
18,34985	25798
18,35397	26836
18,35808	26110
18,36222	24548
18,36633	24498
18,37045	24803
18,37458	24541
18,37870	22189
18,38282	24199
18,38695	23243
18,39107	24342
18,39518	25689
18,39932	30311
18,40343	36950
18,40755	44931
18,41167	57442
18,41580	80810
18,41992	102339
18,42403	137428
18,42817	187448
18,43228	245601
18,43640	309381
18,44053	376971
18,44465	453935
18,44877	536013
18,45290	615931
18,45702	686803
18,46113	737818
18,46527	775636
18,46938	794660
18,47350	805909
18,47763	792628
18,48175	763512
18,48587	726429
18,49000	690906
18,49412	630994
18,49823	573829
18,50235	510768
18,50648	468004
18,51060	412338
18,51472	375444
18,51885	339340
18,52297	293322
18,52708	261683
18,53122	234130
18,53533	213933
18,53945	189133
18,54358	174757
18,54770	155710
18,55182	143845
18,55595	129086
18,56007	117306
18,56418	111812
18,56832	102440
18,57243	94606
18,57655	87295
18,58068	82231
18,58480	75499
18,58892	70635
18,59303	68289
18,59717	63187
18,60128	62580
18,60540	57404
18,60953	54323
18,61365	52514
18,61777	49400
18,62190	48161
18,62602	45698
18,63013	43208
18,63427	41384
18,63838	39084
18,64250	39681
18,64663	37402
18,65075	36975
18,65487	34030
18,65900	32028
18,66312	31611
18,66723	32488
18,67137	30127
18,67548	30042
18,67960	28284
18,68372	27463
18,68785	27788
18,69197	26233
18,69608	26373
18,70022	25555
18,70433	26036
18,70845	25380
18,71258	23272
18,71670	22571
18,72082	24077
18,72495	24146
18,72907	22885
18,73318	22410
18,73732	21935
18,74143	22248
18,74555	21608
18,74968	20875
18,75380	20523
18,75792	19749
18,76205	18091
18,76617	19820
18,77028	17989
18,77440	17492
18,77853	16748
18,78265	19019
18,78677	16816
18,79090	17587
18,79502	16299
18,79913	16106
18,80327	17331
18,80738	15940
18,81150	16457
18,81563	15708
18,81975	16344
18,82387	16182
18,82800	15548
18,83212	14783
18,83623	13631
18,84037	13955
18,84448	14741
18,84860	14827
18,85273	13943
18,85685	14192
18,86097	13615
18,86508	12574
18,86922	13817
18,87333	13107
18,87745	12324
18,88158	12243
18,88570	12909
18,88982	13084
18,89395	12582
18,89807	13158
18,90218	11670
18,90632	11852
18,91043	11125
18,91455	12623
18,91868	11990
18,92280	12480
18,92692	11876
18,93105	11834
18,93517	10702
18,93928	11945
18,94342	11769
18,94753	12235
18,95165	10967
18,95577	10686
18,95990	10524
18,96402	10208
18,96813	10471
18,97227	11588
18,97638	10415
18,98050	10797
18,98463	9633
18,98875	10034
18,99287	10278
18,99700	9962
19,00112	9529
19,00523	10234
19,00937	9758
19,01348	11269
19,01760	9592
19,02173	10713
19,02585	10343
19,02997	9574
19,03410	9920
19,03822	9749
19,04233	9432
19,04645	9635
19,05058	8713
19,05470	10002
19,05882	10456
19,06295	9606
19,06707	9540
19,07118	8562
19,07532	10027
19,07943	11566
19,08355	9634
19,08768	9878
19,09180	10179
19,09592	10096
19,10005	9627
19,10417	9582
19,10828	9910
19,11242	9165
19,11653	8796
19,12065	9466
19,12478	9034
19,12890	9215
19,13302	9916
19,13713	9253
19,14127	11082
19,14538	9604
19,14950	8959
19,15363	9082
19,15775	9092
19,16187	9661
19,16600	8956
19,17012	9534
19,17423	8644
19,17837	8250
19,18248	8901
19,18660	8408
19,19073	9345
19,19485	9254
19,19897	7815
19,20310	8135
19,20722	9463
19,21133	8511
19,21547	8174
19,21958	9877
19,22370	10226
19,22783	10608
19,23195	12566
19,23607	13626
19,24018	17141
19,24432	22309
19,24843	30590
19,25255	40880
19,25668	60580
19,26080	82244
19,26492	113825
19,26905	155067
19,27317	199429
19,27728	258347
19,28142	324455
19,28553	385790
19,28965	452167
19,29378	512915
19,29790	584662
19,30202	619172
19,30615	661344
19,31027	679248
19,31438	697597
19,31852	676709
19,32263	663999
19,32675	631764
19,33087	587880
19,33500	553420
19,33912	499415
19,34323	460295
19,34737	414695
19,35148	371433
19,35560	338444
19,35973	300152
19,36385	268736
19,36797	246475
19,37210	226417
19,37622	204529
19,38033	188399
19,38447	182968
19,38858	179472
19,39270	182424
19,39683	195627
19,40095	216447
19,40507	251553
19,40920	309022
19,41332	380047
19,41743	478588
19,42155	594630
19,42568	743317
19,42980	897972
19,43392	1085172
19,43805	1271829
19,44217	1489479
19,44628	1715375
19,45042	1897617
19,45453	2071008
19,45865	2195095
19,46278	2263600
19,46690	2280547
19,47102	2270040
19,47515	2195504
19,47927	2056883
19,48338	1916745
19,48752	1766743
19,49163	1576102
19,49575	1408959
19,49988	1238750
19,50400	1098191
19,50812	974992
19,51223	858414
19,51637	768329
19,52048	679845
19,52460	602789
19,52873	538977
19,53285	480041
19,53697	440075
19,54110	401003
19,54522	361907
19,54933	326527
19,55347	300663
19,55758	280885
19,56170	254603
19,56583	238698
19,56995	223906
19,57407	207048
19,57820	197883
19,58232	181206
19,58643	172163
19,59057	161143
19,59468	149184
19,59880	143812
19,60292	138467
19,60705	127481
19,61117	122634
19,61528	117498
19,61942	110854
19,62353	107141
19,62765	100563
19,63178	95505
19,63590	92062
19,64002	87163
19,64415	83612
19,64827	79039
19,65238	73760
19,65652	75436
19,66063	73052
19,66475	68599
19,66888	66942
19,67300	64479
19,67712	59667
19,68125	59389
19,68537	57028
19,68948	55195
19,69360	53859
19,69773	53270
19,70185	51670
19,70597	48049
19,71010	48597
19,71422	47346
19,71833	46119
19,72247	43669
19,72658	42347
19,73070	43085
19,73483	41710
19,73895	39791
19,74307	40351
19,74720	37452
19,75132	36405
19,75543	35047
19,75957	35996
19,76368	35733
19,76780	34449
19,77193	35660
19,77605	33217
19,78017	34797
19,78428	36872
19,78842	39182
19,79253	43645
19,79665	55003
19,80078	65769
19,80490	81681
19,80902	107637
19,81315	142138
19,81727	178934
19,82138	232569
19,82552	284694
19,82963	351735
19,83375	422282
19,83788	481179
19,84200	532548
19,84612	604550
19,85025	640843
19,85437	674842
19,85848	688243
19,86262	689121
19,86673	682280
19,87085	655363
19,87497	622574
19,87910	587018
19,88322	541315
19,88733	498990
19,89147	452770
19,89558	407880
19,89970	366559
19,90383	330458
19,90795	297181
19,91207	263816
19,91620	241120
19,92032	214116
19,92443	194050
19,92857	176327
19,93268	160320
19,93680	148315
19,94093	132766
19,94505	124789
19,94917	112521
19,95330	106317
19,95742	97770
19,96153	91324
19,96565	85905
19,96978	80239
19,97390	75085
19,97802	74446
19,98215	67932
19,98627	63843
19,99038	61923
19,99452	56310
19,99863	55854
20,00275	53980
20,00688	49667
20,01100	46902
20,01512	46640
20,01925	44026
20,02337	43614
20,02748	40857
20,03162	39122
20,03573	39099
20,03985	37185
20,04398	35394
20,04810	35291
20,05222	33439
20,05633	32427
20,06047	29854
20,06458	31676
20,06870	30672
20,07283	29184
20,07695	29513
20,08107	28828
20,08520	27635
20,08932	27599
20,09343	27729
20,09757	28135
20,10168	28237
20,10580	30757
20,10993	33863
20,11405	37611
20,11817	46608
20,12230	57479
20,12642	74838
20,13053	102780
20,13467	139876
20,13878	182588
20,14290	240392
20,14702	309590
20,15115	398088
20,15527	491703
20,15938	593969
20,16352	686554
20,16763	778836
20,17175	876806
20,17588	945217
20,18000	991196
20,18412	1006279
20,18825	1010780
20,19237	986694
20,19648	963501
20,20062	911133
20,20473	829475
20,20885	775746
20,21298	705593
20,21710	634279
20,22122	570284
20,22535	511203
20,22947	454804
20,23358	405684
20,23770	369448
20,24183	325119
20,24595	294077
20,25007	266829
20,25420	240017
20,25832	218116
20,26243	197261
20,26657	185372
20,27068	169188
20,27480	157406
20,27893	141787
20,28305	132997
20,28717	124509
20,29130	113477
20,29542	105555
20,29953	102855
20,30367	96363
20,30778	88184
20,31190	85804
20,31603	82405
20,32015	77927
20,32427	71347
20,32838	67766
20,33252	67548
20,33663	63872
20,34075	59365
20,34488	56885
20,34900	56151
20,35312	53514
20,35725	51337
20,36137	48039
20,36548	46340
20,36962	46335
20,37373	45888
20,37785	43483
20,38198	41059
20,38610	38840
20,39022	37897
20,39435	36179
20,39847	34637
20,40258	34881
20,40672	35776
20,41083	32792
20,41495	32644
20,41907	30791
20,42320	29974
20,42732	28211
20,43143	30192
20,43557	25977
20,43968	27378
20,44380	26023
20,44793	27341
20,45205	25841
20,45617	24786
20,46030	24193
20,46442	22410
20,46853	22923
20,47267	25317
20,47678	22116
20,48090	21801
20,48503	21647
20,48915	20831
20,49327	20118
20,49740	21603
20,50152	20490
20,50563	20719
20,50975	19886
20,51388	21054
20,51800	19455
20,52212	19252
20,52625	18520
20,53037	19612
20,53448	18253
20,53862	17366
20,54273	17492
20,54685	18343
20,55098	17192
20,55510	17673
20,55922	16378
20,56335	17591
20,56747	17070
20,57158	16718
20,57572	16856
20,57983	16048
20,58395	16039
20,58808	16211
20,59220	16493
20,59632	15247
20,60043	12934
20,60457	14860
20,60868	14619
20,61280	15517
20,61693	15364
20,62105	14746
20,62517	15404
20,62930	12653
20,63342	13666
20,63753	13932
20,64167	13582
20,64578	14797
20,64990	14112
20,65403	14080
20,65815	15063
20,66227	13904
20,66640	12684
20,67052	13730
20,67463	16105
20,67877	13704
20,68288	12514
20,68700	13175
20,69113	13221
20,69525	13329
20,69937	13178
20,70348	11725
20,70762	11696
20,71173	13362
20,71585	11363
20,71998	13080
20,72410	13168
20,72822	12640
20,73235	12625
20,73647	11305
20,74058	12028
20,74472	11141
20,74883	12133
20,75295	13216
20,75708	12553
20,76120	13021
20,76532	13319
20,76945	12267
20,77357	12233
20,77768	12587
20,78182	12486
20,78593	13670
20,79005	15020
20,79417	13995
20,79830	15205
20,80242	18605
20,80653	21720
20,81067	27781
20,81478	40349
20,81890	52603
20,82303	73633
20,82715	104512
20,83127	145861
20,83540	199221
20,83952	263461
20,84363	346754
20,84777	446918
20,85188	554278
20,85600	665655
20,86013	779337
20,86425	896374
20,86837	985972
20,87250	1060086
20,87662	1121504
20,88073	1145982
20,88485	1129844
20,88898	1098466
20,89310	1041777
20,89722	984167
20,90135	893077
20,90547	817760
20,90958	748588
20,91372	654041
20,91783	586978
20,92195	523144
20,92608	465782
20,93020	415771
20,93432	373778
20,93845	333564
20,94257	296235
20,94668	268110
20,95082	244976
20,95493	223970
20,95905	205070
20,96318	190110
20,96730	176897
20,97142	159509
20,97553	149628
20,97967	138160
20,98378	130947
20,98790	119847
20,99203	114519
20,99615	108239
21,00027	99795
21,00440	95357
21,00852	89261
21,01263	87113
21,01677	82887
21,02088	76537
21,02500	72842
21,02913	71993
21,03325	65965
21,03737	64170
21,04150	59061
21,04562	61088
21,04973	57390
21,05387	55681
21,05798	51897
21,06210	50521
21,06622	49183
21,07035	48088
21,07447	47295
21,07858	44079
21,08272	42698
21,08683	41459
21,09095	40665
21,09508	40782
21,09920	38027
21,10332	38069
21,10745	35968
21,11157	35324
21,11568	33188
21,11982	34590
21,12393	31936
21,12805	30915
21,13218	30036
21,13630	29354
21,14042	28534
21,14455	29650
21,14867	30088
21,15278	26642
21,15690	28505
21,16103	27063
21,16515	26153
21,16927	26269
21,17340	25715
21,17752	25395
21,18163	25287
21,18577	24840
21,18988	22608
21,19400	23578
21,19813	22278
21,20225	21541
21,20637	22414
21,21050	20721
21,21462	20242
21,21873	21370
21,22287	20049
21,22698	20543
21,23110	18019
21,23523	19957
21,23935	18565
21,24347	19713
21,24758	17958
21,25172	19255
21,25583	18256
21,25995	19818
21,26408	20148
21,26820	22771
21,27232	26035
21,27645	31568
21,28057	40413
21,28468	51888
21,28882	69694
21,29293	92738
21,29705	125954
21,30118	171338
21,30530	227560
21,30942	287924
21,31355	363691
21,31767	452955
21,32178	543145
21,32592	617801
21,33003	698220
21,33415	767404
21,33827	816597
21,34240	846068
21,34652	852415
21,35063	850949
21,35477	824755
21,35888	796484
21,36300	748141
21,36713	694937
21,37125	636740
21,37537	579233
21,37950	523976
21,38362	471697
21,38773	426015
21,39187	380952
21,39598	337687
21,40010	306396
21,40423	276760
21,40835	247811
21,41247	223656
21,41660	202616
21,42072	184020
21,42483	167585
21,42895	156054
21,43308	141635
21,43720	129854
21,44132	121464
21,44545	112947
21,44957	103953
21,45368	101236
21,45782	91746
21,46193	85959
21,46605	80783
21,47018	77785
21,47430	73035
21,47842	66005
21,48255	66407
21,48667	64812
21,49078	59506
21,49492	60371
21,49903	54586
21,50315	51370
21,50728	51139
21,51140	50299
21,51552	45728
21,51963	44721
21,52377	41661
21,52788	41121
21,53200	41246
21,53613	37952
21,54025	38881
21,54437	37937
21,54850	36018
21,55262	33972
21,55673	33855
21,56087	32399
21,56498	32217
21,56910	31744
21,57323	29736
21,57735	29541
21,58147	27680
21,58560	28836
21,58972	28068
21,59383	26827
21,59797	26447
21,60208	25989
21,60620	23681
21,61032	24890
21,61445	22609
21,61857	24283
21,62268	21516
21,62682	22246
21,63093	20377
21,63505	20795
21,63918	22344
21,64330	20941
21,64742	21683
21,65155	20660
21,65567	19421
21,65978	20587
21,66392	19877
21,66803	18003
21,67215	18010
21,67628	17992
21,68040	18602
21,68452	19880
21,68865	19036
21,69277	18124
21,69688	17913
21,70100	19062
21,70513	17370
21,70925	17573
21,71337	17634
21,71750	17097
21,72162	17801
21,72573	16775
21,72987	17431
21,73398	17522
21,73810	18707
21,74223	16188
21,74635	15441
21,75047	15644
21,75460	14629
21,75872	14243
21,76283	16797
21,76697	16306
21,77108	16011
21,77520	15056
21,77933	15778
21,78345	17060
21,78757	16508
21,79168	14979
21,79582	14890
21,79993	13251
21,80405	15121
21,80818	14831
21,81230	14338
21,81642	15501
21,82055	14552
21,82467	14155
21,82878	16726
21,83292	14762
21,83703	13839
21,84115	16056
21,84528	15125
21,84940	15802
21,85352	16084
21,85765	15207
21,86177	15331
21,86588	15640
21,87002	15480
21,87413	15309
21,87825	14869
21,88237	16174
21,88650	15104
21,89062	15354
21,89473	15537
21,89887	14479
21,90298	14731
21,90710	13030
21,91123	16217
21,91535	13474
21,91947	13975
21,92360	14032
21,92772	13304
21,93183	15840
21,93597	13357
21,94008	13074
21,94420	14244
21,94833	12015
21,95245	13490
21,95657	13906
21,96070	13359
21,96482	12997
21,96893	12921
21,97305	13705
21,97718	12396
21,98130	12431
21,98542	11772
21,98955	11560
21,99367	12505
21,99778	12826
22,00192	12137
22,00603	12257
22,01015	12041
22,01428	12041
22,01840	11740
22,02252	12928
22,02665	12096
22,03077	10640
22,03488	11626
22,03902	11387
22,04313	12686
22,04725	11428
22,05138	12039
22,05550	12931
22,05962	11808
22,06373	13616
22,06787	14752
22,07198	16677
22,07610	16833
22,08023	22104
22,08435	28111
22,08847	35205
22,09260	49033
22,09672	68227
22,10083	90113
22,10497	124697
22,10908	168276
22,11320	218600
22,11733	279909
22,12145	345246
22,12557	424414
22,12970	494797
22,13382	557748
22,13793	619219
22,14207	671126
22,14618	714401
22,15030	726519
22,15442	738702
22,15855	725857
22,16267	692879
22,16678	661028
22,17092	625572
22,17503	582053
22,17915	536630
22,18328	492972
22,18740	450063
22,19152	409754
22,19565	381512
22,19977	356531
22,20388	343700
22,20802	342766
22,21213	348452
22,21625	373215
22,22038	416436
22,22450	468466
22,22862	552054
22,23275	647224
22,23687	778818
22,24098	914274
22,24512	1075242
22,24923	1268159
22,25335	1463681
22,25747	1657650
22,26160	1863486
22,26572	2052294
22,26983	2199293
22,27397	2334220
22,27808	2424507
22,28220	2428093
22,28633	2380453
22,29045	2288715
22,29457	2153229
22,29870	1998511
22,30282	1818912
22,30693	1626673
22,31107	1452449
22,31518	1295507
22,31930	1146383
22,32343	1021411
22,32755	917381
22,33167	814588
22,33580	731869
22,33992	658611
22,34403	588530
22,34815	536683
22,35228	486679
22,35640	448495
22,36052	411402
22,36465	384962
22,36877	352691
22,37288	326317
22,37702	304485
22,38113	288174
22,38525	264377
22,38938	251265
22,39350	236521
22,39762	224335
22,40175	207897
22,40587	199513
22,40998	181426
22,41412	176748
22,41823	170463
22,42235	160980
22,42648	148131
22,43060	149447
22,43472	138794
22,43883	133182
22,44297	132250
22,44708	120377
22,45120	118990
22,45533	114199
22,45945	107264
22,46357	106528
22,46770	102016
22,47182	99380
22,47593	93596
22,48007	91959
22,48418	91430
22,48830	86445
22,49243	84919
22,49655	81086
22,50067	83741
22,50480	79901
22,50892	76083
22,51303	75293
22,51717	71127
22,52128	68935
22,52540	65596
22,52952	64540
22,53365	62121
22,53777	63192
22,54188	60784
22,54602	57998
22,55013	59840
22,55425	52958
22,55838	53969
22,56250	52827
22,56662	50223
22,57075	51596
22,57487	49193
22,57898	48194
22,58312	44090
22,58723	46505
22,59135	43392
22,59548	45575
22,59960	46252
22,60372	47966
22,60785	55696
22,61197	58770
22,61608	72614
22,62020	86622
22,62433	107901
22,62845	136531
22,63257	173232
22,63670	225308
22,64082	278662
22,64493	344409
22,64907	415881
22,65318	499820
22,65730	575410
22,66143	643417
22,66555	704458
22,66967	753518
22,67380	798829
22,67792	812635
22,68203	824077
22,68617	822888
22,69028	806918
22,69440	801110
22,69853	796819
22,70265	792758
22,70677	790492
22,71088	794745
22,71502	815911
22,71913	831333
22,72325	856715
22,72738	874072
22,73150	901482
22,73562	906853
22,73975	920342
22,74387	917655
22,74798	891843
22,75212	865080
22,75623	818128
22,76035	779623
22,76448	730579
22,76860	681440
22,77272	627135
22,77685	576345
22,78097	523428
22,78508	475153
22,78922	426662
22,79333	391866
22,79745	353265
22,80157	322732
22,80570	296208
22,80982	269097
22,81393	246476
22,81807	224245
22,82218	203533
22,82630	194557
22,83043	177008
22,83455	170278
22,83867	156722
22,84280	148152
22,84692	137198
22,85103	128229
22,85517	124575
22,85928	113566
22,86340	113061
22,86753	103595
22,87165	103551
22,87577	95568
22,87990	94821
22,88402	93065
22,88813	90595
22,89225	95422
22,89638	99324
22,90050	109441
22,90462	129540
22,90875	148191
22,91287	179535
22,91698	218719
22,92112	272270
22,92523	335981
22,92935	419360
22,93348	501938
22,93760	604043
22,94172	704547
22,94585	794518
22,94997	885965
22,95408	973676
22,95822	1034119
22,96233	1072208
22,96645	1098394
22,97058	1093666
22,97470	1057028
22,97882	996040
22,98293	937956
22,98707	879589
22,99118	807817
22,99530	740676
22,99943	670856
23,00355	602453
23,00767	545396
23,01180	490711
23,01592	445542
23,02003	407007
23,02417	370216
23,02828	334487
23,03240	306803
23,03653	280511
23,04065	261795
23,04477	237515
23,04890	221771
23,05302	205219
23,05713	192074
23,06127	181529
23,06538	168326
23,06950	159796
23,07362	150390
23,07775	141274
23,08187	136832
23,08598	128253
23,09012	124094
23,09423	117885
23,09835	108636
23,10248	108438
23,10660	103463
23,11072	97714
23,11485	91283
23,11897	90186
23,12308	87597
23,12722	83661
23,13133	82816
23,13545	77363
23,13958	75150
23,14370	70558
23,14782	68956
23,15195	67027
23,15607	67270
23,16018	62091
23,16430	63522
23,16843	61080
23,17255	59802
23,17667	57064
23,18080	56606
23,18492	55688
23,18903	53329
23,19317	52695
23,19728	50762
23,20140	51461
23,20553	47641
23,20965	51117
23,21377	48414
23,21790	47873
23,22202	45717
23,22613	46082
23,23027	43032
23,23438	45937
23,23850	42434
23,24263	40757
23,24675	41373
23,25087	38803
23,25498	40871
23,25912	38242
23,26323	36168
23,26735	37648
23,27148	36102
23,27560	35950
23,27972	34091
23,28385	33660
23,28797	33752
23,29208	31987
23,29622	32571
23,30033	32119
23,30445	31825
23,30858	29308
23,31270	30336
23,31682	29631
23,32095	29433
23,32507	28017
23,32918	27901
23,33332	29175
23,33743	28368
23,34155	28095
23,34567	27451
23,34980	28983
23,35392	25546
23,35803	25087
23,36217	24738
23,36628	26267
23,37040	23847
23,37453	25511
23,37865	25368
23,38277	25087
23,38690	24390
23,39102	26179
23,39513	23627
23,39927	24982
23,40338	22918
23,40750	24362
23,41163	24293
23,41575	23584
23,41987	23384
23,42400	22651
23,42812	23001
23,43223	24182
23,43635	21340
23,44048	23967
23,44460	23765
23,44872	23143
23,45285	22683
23,45697	21427
23,46108	22565
23,46522	22781
23,46933	23997
23,47345	24760
23,47758	23155
23,48170	22952
23,48582	22632
23,48995	23036
23,49407	22184
23,49818	22220
23,50232	22316
23,50643	22482
23,51055	20612
23,51468	22099
23,51880	21307
23,52292	22828
23,52703	25018
23,53117	25862
23,53528	29205
23,53940	34225
23,54353	42973
23,54765	55541
23,55177	73898
23,55590	95357
23,56002	131270
23,56413	179663
23,56827	236938
23,57238	307349
23,57650	393579
23,58063	495544
23,58475	601590
23,58887	712100
23,59300	824901
23,59712	932037
23,60123	1026823
23,60537	1106282
23,60948	1141808
23,61360	1149189
23,61772	1138280
23,62185	1102625
23,62597	1042757
23,63008	970644
23,63422	890370
23,63833	813328
23,64245	730337
23,64658	660644
23,65070	602538
23,65482	539694
23,65895	492303
23,66307	436507
23,66718	395438
23,67132	363244
23,67543	332794
23,67955	304871
23,68368	274404
23,68780	258942
23,69192	237814
23,69605	224372
23,70017	206639
23,70428	191848
23,70840	181304
23,71253	164311
23,71665	158451
23,72077	151735
23,72490	138107
23,72902	134392
23,73313	131101
23,73727	118113
23,74138	115274
23,74550	109211
23,74963	104228
23,75375	99855
23,75787	95100
23,76200	91889
23,76612	91360
23,77023	86510
23,77437	83159
23,77848	79789
23,78260	77157
23,78673	73724
23,79085	70310
23,79497	71718
23,79908	64914
23,80322	66884
23,80733	64231
23,81145	62039
23,81558	59151
23,81970	58336
23,82382	55538
23,82795	56317
23,83207	53124
23,83618	53454
23,84032	49517
23,84443	49270
23,84855	49506
23,85268	46088
23,85680	44176
23,86092	45646
23,86505	44345
23,86917	43292
23,87328	42061
23,87742	41168
23,88153	38289
23,88565	36024
23,88978	36797
23,89390	37461
23,89802	37034
23,90213	37581
23,90627	34579
23,91038	34182
23,91450	36305
23,91863	33157
23,92275	35775
23,92687	32604
23,93100	33100
23,93512	31240
23,93923	32892
23,94337	31532
23,94748	31452
23,95160	30753
23,95573	30849
23,95985	30762
23,96397	27588
23,96810	28271
23,97222	30050
23,97633	27881
23,98047	27594
23,98458	30857
23,98870	28614
23,99282	31386
23,99695	35752
24,00107	38945
24,00518	45345
24,00932	55247
24,01343	71690
24,01755	90084
24,02168	117680
24,02580	159542
24,02992	211514
24,03405	277169
24,03817	353299
24,04228	443818
24,04642	544927
24,05053	652016
24,05465	765681
24,05878	865444
24,06290	972654
24,06702	1052225
24,07115	1139847
24,07527	1198001
24,07938	1250734
24,08350	1289700
24,08763	1297508
24,09175	1288252
24,09587	1276122
24,10000	1256760
24,10412	1224273
24,10823	1172232
24,11237	1122259
24,11648	1058953
24,12060	988956
24,12473	924069
24,12885	853323
24,13297	787138
24,13710	718424
24,14122	647031
24,14533	587960
24,14947	530373
24,15358	488623
24,15770	453042
24,16183	407418
24,16595	366981
24,17007	340416
24,17418	313782
24,17832	289833
24,18243	265743
24,18655	242386
24,19068	233606
24,19480	215946
24,19892	199493
24,20305	188193
24,20717	175455
24,21128	166365
24,21542	158624
24,21953	147675
24,22365	141216
24,22778	132961
24,23190	127662
24,23602	123235
24,24015	116249
24,24427	109909
24,24838	104910
24,25252	101955
24,25663	100019
24,26075	92858
24,26487	89666
24,26900	89073
24,27312	84833
24,27723	78591
24,28137	75856
24,28548	77293
24,28960	72713
24,29373	69405
24,29785	67184
24,30197	68370
24,30610	64331
24,31022	62319
24,31433	59388
24,31847	58891
24,32258	56131
24,32670	54687
24,33083	54892
24,33495	52792
24,33907	51530
24,34320	48662
24,34732	50262
24,35143	48036
24,35555	47616
24,35968	47570
24,36380	43404
24,36792	43756
24,37205	42657
24,37617	41460
24,38028	42223
24,38442	40647
24,38853	39657
24,39265	38688
24,39678	40296
24,40090	39167
24,40502	35466
24,40915	35314
24,41327	36222
24,41738	37761
24,42152	36085
24,42563	36402
24,42975	35796
24,43388	34673
24,43800	34736
24,44212	34050
24,44623	32867
24,45037	32389
24,45448	31294
24,45860	30589
24,46273	32232
24,46685	31169
24,47097	31821
24,47510	31033
24,47922	30586
24,48333	29264
24,48747	29273
24,49158	30363
24,49570	28428
24,49983	29985
24,50395	30447
24,50807	29402
24,51220	29345
24,51632	28368
24,52043	28233
24,52457	29257
24,52868	27966
24,53280	28824
24,53692	28294
24,54105	27720
24,54517	29350
24,54928	27823
24,55342	26508
24,55753	26610
24,56165	26763
24,56578	27415
24,56990	28594
24,57402	25938
24,57815	25696
24,58227	26754
24,58638	25532
24,59052	25082
24,59463	24611
24,59875	23346
24,60288	23762
24,60700	22586
24,61112	23338
24,61525	24344
24,61937	23252
24,62348	24060
24,62760	22280
24,63173	22749
24,63585	21665
24,63997	22609
24,64410	21293
24,64822	20644
24,65233	21251
24,65647	21792
24,66058	21116
24,66470	19622
24,66883	21572
24,67295	20098
24,67707	21550
24,68120	20840
24,68532	19384
24,68943	20376
24,69357	21507
24,69768	20600
24,70180	19738
24,70593	20602
24,71005	20301
24,71417	20544
24,71828	20991
24,72242	19886
24,72653	21162
24,73065	20440
24,73478	21555
24,73890	18700
24,74302	20516
24,74715	20944
24,75127	21440
24,75538	21941
24,75952	19582
24,76363	22272
24,76775	20716
24,77188	22011
24,77600	20776
24,78012	20536
24,78425	21439
24,78837	21440
24,79248	21404
24,79662	20407
24,80073	21484
24,80485	20172
24,80897	21415
24,81310	20866
24,81722	19806
24,82133	20976
24,82547	20866
24,82958	21323
24,83370	23836
24,83783	23983
24,84195	26969
24,84607	28811
24,85020	36920
24,85432	45043
24,85843	54662
24,86257	73937
24,86668	99547
24,87080	133369
24,87493	177115
24,87905	239690
24,88317	316231
24,88730	414999
24,89142	535635
24,89553	665709
24,89965	808239
24,90378	970973
24,90790	1158971
24,91202	1354544
24,91615	1538913
24,92027	1744203
24,92438	1910688
24,92852	2067283
24,93263	2191106
24,93675	2257663
24,94088	2278100
24,94500	2228429
24,94912	2134792
24,95325	2016249
24,95737	1850406
24,96148	1670302
24,96562	1517826
24,96973	1351633
24,97385	1204952
24,97798	1084526
24,98210	964293
24,98622	874395
24,99033	783925
24,99447	708150
24,99858	643959
25,00270	589450
25,00683	536858
25,01095	489596
25,01507	455656
25,01920	419328
25,02332	387360
25,02743	365619
25,03157	339001
25,03568	324026
25,03980	298372
25,04393	276378
25,04805	264055
25,05217	247670
25,05630	238230
25,06042	226883
25,06453	216148
25,06867	203945
25,07278	194159
25,07690	185723
25,08102	176838
25,08515	169755
25,08927	162963
25,09338	158639
25,09752	148873
25,10163	146946
25,10575	138263
25,10988	131790
25,11400	130091
25,11812	124966
25,12225	121155
25,12637	116974
25,13048	111320
25,13462	108076
25,13873	106165
25,14285	100553
25,14698	100734
25,15110	97934
25,15522	92514
25,15935	89947
25,16347	88731
25,16758	85967
25,17170	82603
25,17583	80615
25,17995	78022
25,18407	76546
25,18820	75733
25,19232	74344
25,19643	73602
25,20057	70074
25,20468	68765
25,20880	66334
25,21293	63982
25,21705	61867
25,22117	62567
25,22530	60125
25,22942	61966
25,23353	58145
25,23767	56959
25,24178	55288
25,24590	57044
25,25003	56503
25,25415	53582
25,25827	53436
25,26238	51552
25,26652	51548
25,27063	50656
25,27475	52347
25,27888	49436
25,28300	47308
25,28712	45740
25,29125	44008
25,29537	45212
25,29948	45332
25,30362	45210
25,30773	42750
25,31185	44487
25,31598	44183
25,32010	44410
25,32422	42362
25,32835	41325
25,33247	40124
25,33658	41575
25,34072	40827
25,34483	41475
25,34895	38846
25,35307	39890
25,35720	38179
25,36132	38918
25,36543	39608
25,36957	36525
25,37368	36213
25,37780	37599
25,38193	36026
25,38605	37404
25,39017	37821
25,39430	35221
25,39842	35984
25,40253	35259
25,40667	33513
25,41078	34439
25,41490	32309
25,41903	32223
25,42315	32220
25,42727	34189
25,43140	31476
25,43552	33584
25,43963	31613
25,44375	29770
25,44788	30348
25,45200	29774
25,45612	30083
25,46025	28755
25,46437	31304
25,46848	27806
25,47262	28915
25,47673	29773
25,48085	26819
25,48498	30068
25,48910	29241
25,49322	29376
25,49735	29608
25,50147	31959
25,50558	31774
25,50972	38439
25,51383	39921
25,51795	46172
25,52208	58423
25,52620	71379
25,53032	91058
25,53445	121234
25,53857	151179
25,54268	198824
25,54680	257227
25,55093	327876
25,55505	408374
25,55917	502675
25,56330	597104
25,56742	695235
25,57153	792916
25,57567	888990
25,57978	962706
25,58390	1009875
25,58803	1027023
25,59215	1039143
25,59627	1013795
25,60040	982084
25,60452	929130
25,60863	876167
25,61277	816218
25,61688	739982
25,62100	679596
25,62513	620406
25,62925	562007
25,63337	514204
25,63748	464903
25,64162	422844
25,64573	391801
25,64985	352940
25,65398	328530
25,65810	298870
25,66222	284872
25,66635	260873
25,67047	240559
25,67458	226666
25,67872	209169
25,68283	202341
25,68695	184471
25,69108	176231
25,69520	166497
25,69932	159891
25,70345	148143
25,70757	143609
25,71168	139379
25,71582	131903
25,71993	124084
25,72405	119258
25,72817	117468
25,73230	113447
25,73642	106261
25,74053	102078
25,74467	99660
25,74878	96610
25,75290	90500
25,75703	89809
25,76115	88034
25,76527	81740
25,76940	83178
25,77352	82748
25,77763	78085
25,78177	76659
25,78588	77193
25,79000	77094
25,79413	77500
25,79825	80602
25,80237	79892
25,80650	84122
25,81062	82430
25,81473	87139
25,81885	90755
25,82298	93426
25,82710	93994
25,83122	96399
25,83535	98156
25,83947	96480
25,84358	100374
25,84772	97319
25,85183	93925
25,85595	88326
25,86008	89574
25,86420	87227
25,86832	82893
25,87245	79456
25,87657	77565
25,88068	70604
25,88482	71679
25,88893	66702
25,89305	66091
25,89718	64644
25,90130	60888
25,90542	57509
25,90953	57992
25,91367	54986
25,91778	54201
25,92190	51029
25,92603	49487
25,93015	48372
25,93427	48803
25,93840	46592
25,94252	44399
25,94663	40964
25,95077	41547
25,95488	41985
25,95900	41661
25,96313	40591
25,96725	41077
25,97137	38098
25,97550	36604
25,97962	38343
25,98373	37707
25,98787	37065
25,99198	35902
25,99610	33025
26,00022	33991
26,00435	33942
26,00847	33024
26,01258	32794
26,01672	32310
26,02083	32059
26,02495	31955
26,02908	30994
26,03320	31885
26,03732	31062
26,04145	29951
26,04557	32483
26,04968	29637
26,05382	29716
26,05793	29378
26,06205	29264
26,06618	28271
26,07030	29118
26,07442	31055
26,07855	29292
26,08267	29862
26,08678	28366
26,09090	26955
26,09503	28769
26,09915	29186
26,10327	28189
26,10740	27705
26,11152	28162
26,11563	28785
26,11977	28920
26,12388	27680
26,12800	25959
26,13213	28327
26,13625	27320
26,14037	26823
26,14450	28757
26,14862	28070
26,15273	28905
26,15687	27753
26,16098	26521
26,16510	27630
26,16923	26760
26,17335	26518
26,17747	27126
26,18158	28692
26,18572	27522
26,18983	27841
26,19395	27673
26,19808	26379
26,20220	24615
26,20632	26326
26,21045	26067
26,21457	26504
26,21868	25341
26,22282	25028
26,22693	26330
26,23105	26579
26,23518	26338
26,23930	25489
26,24342	25464
26,24755	24492
26,25167	24773
26,25578	26150
26,25992	24601
26,26403	25883
26,26815	24465
26,27227	26387
26,27640	25775
26,28052	27889
26,28463	26626
26,28877	24554
26,29288	24049
26,29700	25321
26,30113	24778
26,30525	23686
26,30937	24924
26,31350	24464
26,31762	26434
26,32173	24506
26,32587	23034
26,32998	25124
26,33410	25756
26,33823	24839
26,34235	24327
26,34647	23862
26,35060	24664
26,35472	24288
26,35883	23485
26,36295	23106
26,36708	24133
26,37120	23112
26,37532	23872
26,37945	22936
26,38357	23721
26,38768	22392
26,39182	23146
26,39593	23749
26,40005	22771
26,40418	23373
26,40830	21969
26,41242	24431
26,41655	22786
26,42067	22009
26,42478	23505
26,42892	22923
26,43303	23503
26,43715	22738
26,44128	22746
26,44540	22357
26,44952	22907
26,45363	23951
26,45777	24237
26,46188	22450
26,46600	24142
26,47013	24722
26,47425	23528
26,47837	22977
26,48250	25259
26,48662	23380
26,49073	24931
26,49487	23482
26,49898	22559
26,50310	22975
26,50723	23255
26,51135	22529
26,51547	21122
26,51960	21948
26,52372	21795
26,52783	23466
26,53197	23324
26,53608	22686
26,54020	22331
26,54432	22687
26,54845	21622
26,55257	22876
26,55668	22224
26,56082	21062
26,56493	20632
26,56905	20358
26,57318	22242
26,57730	21021
26,58142	20713
26,58555	21638
26,58967	20437
26,59378	20905
26,59792	22605
26,60203	21958
26,60615	21058
26,61028	21248
26,61440	21198
26,61852	22885
26,62265	22868
26,62677	23434
26,63088	21515
26,63500	23391
26,63913	23398
26,64325	22165
26,64737	21059
26,65150	23054
26,65562	23340
26,65973	24023
26,66387	23266
26,66798	22644
26,67210	22890
26,67623	23706
26,68035	24029
26,68447	23284
26,68860	23633
26,69272	21406
26,69683	23138
26,70097	22174
26,70508	22819
26,70920	24150
26,71333	23409
26,71745	22616
26,72157	22257
26,72568	22731
26,72982	21341
26,73393	21006
26,73805	22321
26,74218	21614
26,74630	21095
26,75042	22125
26,75455	21437
26,75867	22273
26,76278	22088
26,76692	21327
26,77103	22157
26,77515	21560
26,77928	19033
26,78340	21308
26,78752	22206
26,79165	21996
26,79577	22294
26,79988	21071
26,80402	22053
26,80813	22808
26,81225	20602
26,81637	22166
26,82050	20696
26,82462	21241
26,82873	20755
26,83287	21255
26,83698	21335
26,84110	22569
26,84523	21234
26,84935	22211
26,85347	21911
26,85760	21145
26,86172	23851
26,86583	20218
26,86997	22919
26,87408	21745
26,87820	20681
26,88233	19546
26,88645	21106
26,89057	23333
26,89470	21347
26,89882	22743
26,90293	21954
26,90705	20454
26,91118	20493
26,91530	20235
26,91942	21823
26,92355	19319
26,92767	20043
26,93178	21126
26,93592	22815
26,94003	22203
26,94415	20374
26,94828	21011
26,95240	20970
26,95652	20401
26,96065	22194
26,96477	20170
26,96888	21390
26,97302	19266
26,97713	21276
26,98125	21311
26,98538	22613
26,98950	22299
26,99362	23287
26,99773	21795
27,00187	22530
27,00598	21071
27,01010	21969
27,01423	20315
27,01835	23168
27,02247	21454
27,02660	21700
27,03072	22999
27,03483	22801
27,03897	22861
27,04308	22818
27,04720	22929
27,05133	22698
27,05545	22593
27,05957	20737
27,06370	21686
27,06782	22451
27,07193	21773
27,07607	22205
27,08018	21713
27,08430	22110
27,08842	21238
27,09255	20184
27,09667	21759
27,10078	22337
27,10492	20982
27,10903	21468
27,11315	19408
27,11728	21951
27,12140	20281
27,12552	21741
27,12965	20970
27,13377	21615
27,13788	22963
27,14202	21497
27,14613	21833
27,15025	21843
27,15438	24263
27,15850	22570
27,16262	21071
27,16675	22847
27,17087	22941
27,17498	20491
27,17912	21768
27,18323	20949
27,18735	21145
27,19147	20187
27,19560	21832
27,19972	20653
27,20383	20640
27,20797	20547
27,21208	22106
27,21620	20293
27,22033	20682
27,22445	22017
27,22857	20750
27,23270	19190
27,23682	21609
27,24093	22446
27,24507	22075
27,24918	22271
27,25330	20724
27,25743	22520
27,26155	23214
27,26567	25137
27,26980	26652
27,27392	31027
27,27803	34113
27,28215	40795
27,28628	50698
27,29040	62055
27,29452	78799
27,29865	96887
27,30277	127341
27,30688	162355
27,31102	199390
27,31513	238161
27,31925	283891
27,32338	341675
27,32750	381377
27,33162	429402
27,33575	472078
27,33987	497335
27,34398	516595
27,34812	528148
27,35223	526228
27,35635	512044
27,36048	501711
27,36460	470173
27,36872	444845
27,37283	411604
27,37697	383591
27,38108	356443
27,38520	320679
27,38933	295548
27,39345	268231
27,39757	250999
27,40170	225810
27,40582	205342
27,40993	191355
27,41407	182796
27,41818	164761
27,42230	154456
27,42643	140769
27,43055	135393
27,43467	123358
27,43880	115858
27,44292	112364
27,44703	102585
27,45117	97385
27,45528	94376
27,45940	91162
27,46352	82744
27,46765	79453
27,47177	75445
27,47588	75098
27,48002	69507
27,48413	66350
27,48825	66276
27,49238	63680
27,49650	60956
27,50062	58291
27,50475	55200
27,50887	56178
27,51298	52259
27,51712	53437
27,52123	52007
27,52535	49295
27,52948	48326
27,53360	47527
27,53772	45897
27,54185	44391
27,54597	44972
27,55008	45011
27,55420	42680
27,55833	42112
27,56245	42388
27,56657	39092
27,57070	41218
27,57482	38998
27,57893	40157
27,58307	40817
27,58718	38952
27,59130	38998
27,59543	37713
27,59955	37985
27,60367	39289
27,60780	39118
27,61192	38084
27,61603	34347
27,62017	35042
27,62428	37154
27,62840	33425
27,63253	34556
27,63665	32304
27,64077	33517
27,64488	34510
27,64902	32679
27,65313	33230
27,65725	32647
27,66138	31943
27,66550	31429
27,66962	31936
27,67375	28075
27,67787	32090
27,68198	28546
27,68612	30176
27,69023	30140
27,69435	30258
27,69848	30880
27,70260	31173
27,70672	29166
27,71085	28498
27,71497	31350
27,71908	29426
27,72322	28936
27,72733	28423
27,73145	27647
27,73557	28349
27,73970	27526
27,74382	27268
27,74793	28708
27,75207	27932
27,75618	28976
27,76030	27166
27,76443	25617
27,76855	26518
27,77267	26731
27,77680	26255
27,78092	26816
27,78503	25878
27,78917	25671
27,79328	25226
27,79740	27586
27,80153	28846
27,80565	27029
27,80977	26837
27,81390	27946
27,81802	26513
27,82213	28975
27,82625	27612
27,83038	28030
27,83450	25773
27,83862	26215
27,84275	27403
27,84687	26197
27,85098	25723
27,85512	27933
27,85923	26284
27,86335	27826
27,86748	27691
27,87160	25621
27,87572	27485
27,87985	28841
27,88397	26556
27,88808	28168
27,89222	25289
27,89633	25205
27,90045	26522
27,90458	25804
27,90870	25628
27,91282	28778
27,91693	24813
27,92107	26291
27,92518	24331
27,92930	26393
27,93343	25490
27,93755	25872
27,94167	26026
27,94580	25597
27,94992	24895
27,95403	27180
27,95817	26892
27,96228	25795
27,96640	25793
27,97053	26753
27,97465	27739
27,97877	24235
27,98290	25653
27,98702	26492
27,99113	25578
27,99527	25214
27,99938	25907
28,00350	27745
28,00762	27936
28,01175	28244
28,01587	26334
28,01998	24730
28,02412	24950
28,02823	28278
28,03235	25923
28,03648	27813
28,04060	26675
28,04472	26208
28,04885	25769
28,05297	27224
28,05708	27921
28,06122	24679
28,06533	24945
28,06945	25934
28,07358	27443
28,07770	24496
28,08182	27422
28,08595	26677
28,09007	24010
28,09418	26513
28,09830	26462
28,10243	26929
28,10655	24405
28,11067	26193
28,11480	25142
28,11892	24649
28,12303	25781
28,12717	26092
28,13128	25957
28,13540	26439
28,13953	24571
28,14365	25926
28,14777	25878
28,15190	25225
28,15602	23613
28,16013	25866
28,16427	25697
28,16838	24736
28,17250	26083
28,17663	25317
28,18075	26144
28,18487	24456
28,18898	25497
28,19312	26543
28,19723	26202
28,20135	25376
28,20548	26554
28,20960	27850
28,21372	28350
28,21785	28080
28,22197	25911
28,22608	26494
28,23022	24532
28,23433	29916
28,23845	28286
28,24258	27229
28,24670	26293
28,25082	28767
28,25495	24481
28,25907	27773
28,26318	28442
28,26732	28580
28,27143	25795
28,27555	27936
28,27967	29587
28,28380	29279
28,28792	27152
28,29203	25956
28,29617	26440
28,30028	26134
28,30440	27914
28,30853	27300
28,31265	27405
28,31677	26231
28,32090	27714
28,32502	28622
28,32913	28832
28,33327	25228
28,33738	26829
28,34150	25654
28,34563	25392
28,34975	27593
28,35387	27121
28,35800	27461
28,36212	27528
28,36623	27604
28,37035	26120
28,37448	26863
28,37860	25416
28,38272	27702
28,38685	27340
28,39097	27745
28,39508	27881
28,39922	29268
28,40333	27456
28,40745	27088
28,41158	27804
28,41570	27012
28,41982	28019
28,42395	27863
28,42807	27007
28,43218	29109
28,43632	28941
28,44043	27840
28,44455	28380
28,44868	29630
28,45280	28547
28,45692	28731
28,46103	29400
28,46517	29593
28,46928	29354
28,47340	28261
28,47753	29704
28,48165	29150
28,48577	25666
28,48990	29137
28,49402	29776
28,49813	29086
28,50227	29361
28,50638	30421
28,51050	27519
28,51463	28684
28,51875	26908
28,52287	28291
28,52700	28053
28,53112	28837
28,53523	28480
28,53937	29246
28,54348	28128
28,54760	27587
28,55172	28726
28,55585	29043
28,55997	28385
28,56408	25447
28,56822	27513
28,57233	27767
28,57645	26921
28,58058	27375
28,58470	28608
28,58882	27726
28,59295	28361
28,59707	27155
28,60118	27297
28,60532	27419
28,60943	28516
28,61355	26748
28,61768	27024
28,62180	27809
28,62592	24668
28,63005	29202
28,63417	27737
28,63828	25391
28,64240	26452
28,64653	27563
28,65065	28055
28,65477	26161
28,65890	27272
28,66302	28362
28,66713	25649
28,67127	28823
28,67538	26676
28,67950	27521
28,68363	27559
28,68775	27727
28,69187	30689
28,69600	28078
28,70012	27943
28,70423	27843
28,70837	26531
28,71248	26624
28,71660	27355
28,72073	26580
28,72485	28282
28,72897	29181
28,73310	30274
28,73722	28702
28,74133	28644
28,74545	29077
28,74958	28563
28,75370	29501
28,75782	27512
28,76195	28234
28,76607	28737
28,77018	29841
28,77432	27258
28,77843	27213
28,78255	26558
28,78668	27598
28,79080	27455
28,79492	27442
28,79905	28733
28,80317	28730
28,80728	29905
28,81142	29172
28,81553	30625
28,81965	27569
28,82378	28971
28,82790	29834
28,83202	28698
28,83613	30175
28,84027	29142
28,84438	27920
28,84850	28816
28,85263	29128
28,85675	27875
28,86087	28340
28,86500	29495
28,86912	30031
28,87323	27549
28,87737	28805
28,88148	27737
28,88560	28044
28,88973	28354
28,89385	27707
28,89797	30062
28,90210	27698
28,90622	28270
28,91033	29543
28,91447	27472
28,91858	30524
28,92270	27416
28,92682	28713
28,93095	31321
28,93507	29102
28,93918	28961
28,94332	27691
28,94743	28428
28,95155	28253
28,95568	28635
28,95980	29014
28,96392	30417
28,96805	30544
28,97217	30935
28,97628	30918
28,98042	31028
28,98453	31786
28,98865	29940
28,99278	29260
28,99690	29103
29,00102	29549
29,00515	30663
29,00927	30798
29,01338	30901
29,01750	30921
29,02163	30958
29,02575	30894
29,02987	30598
29,03400	31695
29,03812	29359
29,04223	30413
29,04637	28581
29,05048	30077
29,05460	30171
29,05873	30034
29,06285	29904
29,06697	29307
29,07110	28320
29,07522	29670
29,07933	30029
29,08347	31156
29,08758	29544
29,09170	29003
29,09583	29354
29,09995	29855
29,10407	29192
29,10818	29015
29,11232	30675
29,11643	30507
29,12055	30772
29,12468	31658
29,12880	30497
29,13292	28186
29,13705	27730
29,14117	30719
29,14528	27843
29,14942	31971
29,15353	29089
29,15765	30978
29,16178	30041
29,16590	29834
29,17002	29294
29,17415	30458
29,17827	30516
29,18238	30137
29,18652	29052
29,19063	29742
29,19475	30184
29,19887	30555
29,20300	30423
29,20712	30602
29,21123	30986
29,21537	30534
29,21948	32424
29,22360	29527
29,22773	31518
29,23185	31541
29,23597	30383
29,24010	31317
29,24422	31610
29,24833	30587
29,25247	31185
29,25658	31438
29,26070	30156
29,26483	29709
29,26895	28523
29,27307	30545
29,27720	30581
29,28132	30318
29,28543	30547
29,28955	30035
29,29368	30499
29,29780	30387
29,30192	30231
29,30605	31048
29,31017	31303
29,31428	30325
29,31842	30447
29,32253	31487
29,32665	28504
29,33078	30811
29,33490	31933
29,33902	29313
29,34315	30043
29,34727	31758
29,35138	32075
29,35552	31393
29,35963	30669
29,36375	31009
29,36788	32413
29,37200	32899
29,37612	30409
29,38023	32098
29,38437	30842
29,38848	30676
29,39260	32119
29,39673	32366
29,40085	30768
29,40497	31896
29,40910	32028
29,41322	32674
29,41733	30184
