D:\MassHunter\GCMS\1\data\Amal\Constant flow\150C\150C_1ml-min_9C-min_2.D Fri Aug 30 13:14:44 2024
Start of data points
4,84103	1587939
4,84517	1509306
4,84928	1436064
4,85340	1355427
4,85753	1290541
4,86165	1225420
4,86577	1170322
4,86990	1118754
4,87402	1051573
4,87813	1000323
4,88227	951094
4,88638	910903
4,89050	866308
4,89462	825015
4,89875	790015
4,90287	749600
4,90698	722793
4,91112	687819
4,91523	654035
4,91935	617705
4,92348	595261
4,92760	569446
4,93172	544430
4,93585	525177
4,93997	500041
4,94408	473943
4,94822	456839
4,95233	441207
4,95645	424585
4,96058	413943
4,96470	389056
4,96882	388087
4,97295	380670
4,97707	411669
4,98118	491251
4,98530	634297
4,98943	820924
4,99355	1022880
4,99767	1185929
5,00180	1295653
5,00592	1345195
5,01003	1332034
5,01417	1288935
5,01828	1264170
5,02240	1222136
5,02653	1164552
5,03065	1125602
5,03477	1084155
5,03890	1047771
5,04302	999237
5,04713	965997
5,05127	929254
5,05538	894488
5,05950	857773
5,06363	831159
5,06775	796543
5,07187	762470
5,07598	733730
5,08012	705004
5,08423	682072
5,08835	654497
5,09248	623335
5,09660	603915
5,10072	581637
5,10485	560364
5,10897	534560
5,11308	508751
5,11722	494338
5,12133	461767
5,12545	448765
5,12958	428618
5,13370	409077
5,13782	388184
5,14195	376278
5,14607	352137
5,15018	329148
5,15432	312621
5,15843	296731
5,16255	277967
5,16668	260591
5,17080	245661
5,17492	232720
5,17903	220882
5,18317	211176
5,18728	197155
5,19140	187414
5,19553	176633
5,19965	167579
5,20377	164291
5,20790	158008
5,21202	151354
5,21613	146119
5,22027	140662
5,22438	138434
5,22850	134214
5,23263	126257
5,23675	123559
5,24087	124483
5,24500	118330
5,24912	119997
5,25323	135324
5,25737	163753
5,26148	223987
5,26560	312868
5,26972	422878
5,27385	535211
5,27797	617993
5,28208	666143
5,28622	695989
5,29033	701107
5,29445	692203
5,29858	680593
5,30270	643772
5,30682	623222
5,31095	597830
5,31507	579187
5,31918	554083
5,32332	528086
5,32743	513046
5,33155	488106
5,33568	472688
5,33980	455755
5,34392	437271
5,34805	415749
5,35217	407020
5,35628	383215
5,36040	369217
5,36453	357071
5,36865	341979
5,37277	324706
5,37690	316257
5,38102	301483
5,38513	291618
5,38927	280550
5,39338	265682
5,39750	253811
5,40163	239555
5,40575	231978
5,40987	221658
5,41400	207660
5,41812	194144
5,42223	184230
5,42637	172320
5,43048	161545
5,43460	151332
5,43873	145066
5,44285	142023
5,44697	129462
5,45108	123219
5,45522	119752
5,45933	114262
5,46345	110385
5,46758	105724
5,47170	101807
5,47582	100380
5,47995	95563
5,48407	93311
5,48818	89859
5,49232	89857
5,49643	88892
5,50055	86096
5,50468	81870
5,50880	82439
5,51292	79575
5,51705	79722
5,52117	76032
5,52528	76283
5,52942	75245
5,53353	76763
5,53765	73194
5,54177	73057
5,54590	69493
5,55002	70761
5,55413	72193
5,55827	70632
5,56238	70632
5,56650	69766
5,57063	70324
5,57475	69245
5,57887	71051
5,58300	74686
5,58712	86323
5,59123	118930
5,59537	188520
5,59948	311576
5,60360	502412
5,60773	738652
5,61185	989822
5,61597	1205847
5,62010	1341480
5,62422	1410556
5,62833	1430523
5,63245	1414651
5,63658	1392921
5,64070	1352188
5,64482	1290501
5,64895	1232629
5,65307	1173662
5,65718	1124388
5,66132	1067282
5,66543	1010404
5,66955	956556
5,67368	913050
5,67780	868190
5,68192	816199
5,68605	788086
5,69017	738446
5,69428	694939
5,69842	660433
5,70253	626998
5,70665	588842
5,71078	555171
5,71490	518384
5,71902	493141
5,72313	457245
5,72727	422878
5,73138	400834
5,73550	365717
5,73963	337221
5,74375	306919
5,74787	278505
5,75200	258093
5,75612	233864
5,76023	212930
5,76437	192709
5,76848	177278
5,77260	164618
5,77673	150786
5,78085	140224
5,78497	131118
5,78910	121461
5,79322	113095
5,79733	104630
5,80147	99304
5,80558	95018
5,80970	91772
5,81382	86438
5,81795	84256
5,82207	82033
5,82618	77682
5,83032	74614
5,83443	75786
5,83855	70700
5,84268	68123
5,84680	68455
5,85092	64241
5,85505	65261
5,85917	63354
5,86328	63320
5,86742	61534
5,87153	60455
5,87565	60926
5,87978	58057
5,88390	58749
5,88802	58948
5,89215	57179
5,89627	57643
5,90038	57686
5,90450	55579
5,90863	54756
5,91275	58512
5,91687	53877
5,92100	55267
5,92512	55327
5,92923	56749
5,93337	55201
5,93748	55206
5,94160	52998
5,94573	55016
5,94985	53524
5,95397	51597
5,95810	51044
5,96222	52109
5,96633	53116
5,97047	52382
5,97458	51551
5,97870	53063
5,98283	54623
5,98695	66283
5,99107	85687
5,99518	126537
5,99932	201929
6,00343	308175
6,00755	433766
6,01168	567484
6,01580	690311
6,01992	779852
6,02405	826301
6,02817	846279
6,03228	838791
6,03642	814066
6,04053	785607
6,04465	750504
6,04878	712994
6,05290	666184
6,05702	639434
6,06115	603129
6,06527	574808
6,06938	539786
6,07352	503932
6,07763	475260
6,08175	447575
6,08587	423198
6,09000	391657
6,09412	360451
6,09823	338029
6,10237	317415
6,10648	294823
6,11060	266149
6,11473	254021
6,11885	229909
6,12297	207222
6,12710	191488
6,13122	167695
6,13533	155591
6,13947	142255
6,14358	127250
6,14770	115771
6,15183	105139
6,15595	99804
6,16007	92116
6,16420	88992
6,16832	82104
6,17243	77493
6,17655	74128
6,18068	69054
6,18480	68058
6,18892	64366
6,19305	62000
6,19717	59154
6,20128	59206
6,20542	58371
6,20953	53903
6,21365	54269
6,21778	55170
6,22190	53347
6,22602	56335
6,23015	53848
6,23427	52036
6,23838	52904
6,24252	50679
6,24663	50616
6,25075	48970
6,25488	48326
6,25900	49188
6,26312	48977
6,26723	47887
6,27137	47522
6,27548	47297
6,27960	46043
6,28373	46540
6,28785	46513
6,29197	46701
6,29610	45785
6,30022	42452
6,30433	44409
6,30847	43137
6,31258	42568
6,31670	41778
6,32083	42905
6,32495	41680
6,32907	43244
6,33320	42471
6,33732	40365
6,34143	41189
6,34557	40206
6,34968	40952
6,35380	36687
6,35792	40280
6,36205	38577
6,36617	40722
6,37028	39130
6,37442	40010
6,37853	37507
6,38265	40056
6,38678	38907
6,39090	38417
6,39502	40240
6,39915	39732
6,40327	40927
6,40738	41645
6,41152	39426
6,41563	40019
6,41975	40575
6,42388	39750
6,42800	40088
6,43212	40451
6,43625	44115
6,44037	52556
6,44448	73468
6,44860	123741
6,45273	225634
6,45685	388814
6,46097	619964
6,46510	919319
6,46922	1218526
6,47333	1496867
6,47747	1726223
6,48158	1841465
6,48570	1891182
6,48983	1883158
6,49395	1834196
6,49807	1759770
6,50220	1665294
6,50632	1563154
6,51043	1465344
6,51457	1368410
6,51868	1276137
6,52280	1191808
6,52693	1103303
6,53105	1015971
6,53517	939921
6,53928	847905
6,54342	782208
6,54753	716682
6,55165	642118
6,55578	577046
6,55990	512274
6,56402	454655
6,56815	401433
6,57227	344965
6,57638	304110
6,58052	262937
6,58463	229586
6,58875	200413
6,59288	174985
6,59700	156396
6,60112	136774
6,60525	122378
6,60937	112587
6,61348	101279
6,61762	93611
6,62173	84116
6,62585	77190
6,62997	73072
6,63410	69587
6,63822	63492
6,64233	61449
6,64647	59401
6,65058	54156
6,65470	51212
6,65883	52771
6,66295	48673
6,66707	48268
6,67120	46130
6,67532	45078
6,67943	42686
6,68357	45117
6,68768	43812
6,69180	42101
6,69593	42529
6,70005	39955
6,70417	43180
6,70830	43437
6,71242	42897
6,71653	45273
6,72065	44768
6,72478	46286
6,72890	45453
6,73302	45356
6,73715	47539
6,74127	47105
6,74538	44998
6,74952	48885
6,75363	46997
6,75775	46638
6,76188	46482
6,76600	44726
6,77012	47052
6,77425	48115
6,77837	49123
6,78248	47365
6,78662	46503
6,79073	47670
6,79485	49951
6,79898	49370
6,80310	45654
6,80722	46094
6,81133	46388
6,81547	45232
6,81958	46764
6,82370	44310
6,82783	42314
6,83195	42895
6,83607	44960
6,84020	52175
6,84432	63412
6,84843	94515
6,85257	144586
6,85668	235220
6,86080	354042
6,86493	497396
6,86905	634317
6,87317	778294
6,87730	869110
6,88142	938196
6,88553	970775
6,88967	958557
6,89378	930368
6,89790	883943
6,90203	835858
6,90615	787189
6,91027	740408
6,91438	684024
6,91852	634999
6,92263	575142
6,92675	527276
6,93088	483396
6,93500	438604
6,93912	396221
6,94325	352963
6,94737	319339
6,95148	297050
6,95562	284555
6,95973	303209
6,96385	355329
6,96798	453389
6,97210	583557
6,97622	734975
6,98035	880469
6,98447	1003202
6,98858	1087684
6,99272	1126947
6,99683	1136605
7,00095	1098198
7,00507	1064322
7,00920	1005542
7,01332	931202
7,01743	872248
7,02157	787870
7,02568	736724
7,02980	665625
7,03393	602652
7,03805	543835
7,04217	485395
7,04630	434450
7,05042	378570
7,05453	327881
7,05867	288597
7,06278	245692
7,06690	215126
7,07103	183708
7,07515	162355
7,07927	140873
7,08340	119897
7,08752	107891
7,09163	92978
7,09575	83951
7,09988	74552
7,10400	72374
7,10812	64386
7,11225	58176
7,11637	55219
7,12048	52507
7,12462	49331
7,12873	50024
7,13285	47570
7,13698	43553
7,14110	44092
7,14522	42363
7,14935	44463
7,15347	38629
7,15758	38190
7,16172	40174
7,16583	39342
7,16995	38107
7,17408	38221
7,17820	37614
7,18232	34777
7,18643	35737
7,19057	35837
7,19468	35069
7,19880	34186
7,20293	33134
7,20705	34965
7,21117	34457
7,21530	33792
7,21942	31878
7,22353	31482
7,22767	31569
7,23178	32547
7,23590	30481
7,24003	31663
7,24415	31789
7,24827	31870
7,25240	31871
7,25652	30288
7,26063	29222
7,26477	29445
7,26888	29360
7,27300	29043
7,27712	27514
7,28125	28872
7,28537	28561
7,28948	29807
7,29362	30191
7,29773	28889
7,30185	29616
7,30598	29481
7,31010	28593
7,31422	28557
7,31835	27324
7,32247	27676
7,32658	28043
7,33072	29454
7,33483	28844
7,33895	28570
7,34308	27116
7,34720	27964
7,35132	27552
7,35545	28251
7,35957	29335
7,36368	27369
7,36780	29234
7,37193	29573
7,37605	30712
7,38017	35243
7,38430	43871
7,38842	63676
7,39253	105232
7,39667	175678
7,40078	276239
7,40490	424140
7,40903	582750
7,41315	762773
7,41727	916122
7,42140	1036440
7,42552	1101920
7,42963	1118437
7,43377	1095348
7,43788	1055281
7,44200	994869
7,44613	917328
7,45025	848618
7,45437	782641
7,45848	703938
7,46262	629320
7,46673	560161
7,47085	497038
7,47498	428724
7,47910	377295
7,48322	315512
7,48735	279349
7,49147	238742
7,49558	213994
7,49972	219176
7,50383	265291
7,50795	383899
7,51208	598128
7,51620	936277
7,52032	1385041
7,52445	1919712
7,52857	2486783
7,53268	3050487
7,53682	3444768
7,54093	3688740
7,54505	3796693
7,54917	3767097
7,55330	3592792
7,55742	3379286
7,56153	3127746
7,56567	2825627
7,56978	2519043
7,57390	2227927
7,57803	1969217
7,58215	1711460
7,58627	1480649
7,59040	1253738
7,59452	1054819
7,59863	875170
7,60277	728395
7,60688	596369
7,61100	494682
7,61513	411708
7,61925	348734
7,62337	289637
7,62750	247918
7,63162	216352
7,63573	185610
7,63985	160179
7,64398	144037
7,64810	127967
7,65222	112687
7,65635	106349
7,66047	96289
7,66458	87257
7,66872	83437
7,67283	75424
7,67695	72981
7,68108	66395
7,68520	65283
7,68932	61731
7,69345	59240
7,69757	56092
7,70168	53438
7,70582	51813
7,70993	48975
7,71405	49620
7,71818	47459
7,72230	45402
7,72642	42926
7,73053	45921
7,73467	41948
7,73878	42131
7,74290	40379
7,74703	39529
7,75115	39333
7,75527	39377
7,75940	39268
7,76352	38074
7,76763	37249
7,77177	36780
7,77588	39068
7,78000	39548
7,78413	38581
7,78825	39291
7,79237	38899
7,79650	37007
7,80062	37140
7,80473	36465
7,80887	36745
7,81298	35116
7,81710	35899
7,82122	34930
7,82535	33724
7,82947	31757
7,83358	33471
7,83772	31440
7,84183	31961
7,84595	30680
7,85008	31706
7,85420	32311
7,85832	33948
7,86245	33143
7,86657	31591
7,87068	33412
7,87482	34841
7,87893	42051
7,88305	53061
7,88718	81141
7,89130	128421
7,89542	215277
7,89955	335925
7,90367	494919
7,90778	692847
7,91190	869991
7,91603	1047509
7,92015	1166795
7,92427	1228389
7,92840	1256736
7,93252	1218894
7,93663	1163815
7,94077	1073662
7,94488	972744
7,94900	882617
7,95313	776762
7,95725	676324
7,96137	578890
7,96550	496562
7,96962	423055
7,97373	354703
7,97787	289598
7,98198	252465
7,98610	211484
7,99023	178673
7,99435	153922
7,99847	135159
8,00258	118684
8,00672	102108
8,01083	91213
8,01495	81842
8,01908	76027
8,02320	69826
8,02732	64939
8,03145	60185
8,03557	55530
8,03968	53887
8,04382	49003
8,04793	47916
8,05205	46246
8,05618	44737
8,06030	40162
8,06442	40905
8,06855	41380
8,07267	42292
8,07678	52151
8,08092	72711
8,08503	113108
8,08915	190982
8,09327	307700
8,09740	479706
8,10152	687732
8,10563	911287
8,10977	1112464
8,11388	1277833
8,11800	1368973
8,12213	1413790
8,12625	1402010
8,13037	1325944
8,13450	1240957
8,13862	1133515
8,14273	1014703
8,14687	891134
8,15098	757523
8,15510	640492
8,15923	539658
8,16335	449394
8,16747	373283
8,17160	301078
8,17572	248588
8,17983	209494
8,18395	178443
8,18808	150616
8,19220	128633
8,19632	115559
8,20045	104620
8,20457	93232
8,20868	86066
8,21282	78103
8,21693	73541
8,22105	69120
8,22518	64647
8,22930	64410
8,23342	58382
8,23755	56413
8,24167	55389
8,24578	51747
8,24992	48933
8,25403	48152
8,25815	45806
8,26228	44948
8,26640	44311
8,27052	40558
8,27463	41501
8,27877	40530
8,28288	38539
8,28700	37649
8,29113	37067
8,29525	35273
8,29937	36675
8,30350	34592
8,30762	33673
8,31173	34015
8,31587	33538
8,31998	33218
8,32410	28167
8,32823	32273
8,33235	30273
8,33647	29859
8,34060	28814
8,34472	26990
8,34883	29794
8,35297	30381
8,35708	28601
8,36120	28426
8,36532	28327
8,36945	28649
8,37357	28874
8,37768	26780
8,38182	28558
8,38593	26809
8,39005	26516
8,39418	27119
8,39830	28090
8,40242	28534
8,40655	25495
8,41067	25270
8,41478	24655
8,41892	25280
8,42303	26929
8,42715	26066
8,43128	23981
8,43540	25316
8,43952	24200
8,44365	25134
8,44777	24820
8,45188	24227
8,45602	24220
8,46013	24887
8,46425	25527
8,46837	30947
8,47250	38276
8,47662	56692
8,48073	98682
8,48487	172750
8,48898	281680
8,49310	442840
8,49723	649463
8,50135	870964
8,50547	1082214
8,50960	1269466
8,51372	1387618
8,51783	1430282
8,52197	1415690
8,52608	1354272
8,53020	1252293
8,53433	1118200
8,53845	979009
8,54257	837287
8,54670	717133
8,55082	587942
8,55493	486382
8,55905	403678
8,56318	325001
8,56730	270675
8,57142	224587
8,57555	190346
8,57967	159749
8,58378	135214
8,58792	118981
8,59203	105756
8,59615	91505
8,60028	82782
8,60440	76520
8,60852	72256
8,61265	66863
8,61677	61586
8,62088	59644
8,62502	57992
8,62913	51607
8,63325	50706
8,63738	46991
8,64150	45854
8,64562	44901
8,64973	43934
8,65387	42757
8,65798	40044
8,66210	40557
8,66623	43803
8,67035	53552
8,67447	77473
8,67860	130528
8,68272	237324
8,68683	427010
8,69097	716032
8,69508	1115067
8,69920	1586243
8,70333	2097467
8,70745	2601040
8,71157	2985301
8,71570	3238257
8,71982	3339803
8,72393	3233198
8,72807	3046119
8,73218	2718335
8,73630	2374307
8,74042	2005383
8,74455	1657815
8,74867	1351444
8,75278	1091616
8,75692	879629
8,76103	704693
8,76515	575259
8,76928	466828
8,77340	384896
8,77752	322260
8,78165	275462
8,78577	237875
8,78988	205582
8,79402	182456
8,79813	162656
8,80225	144284
8,80638	129656
8,81050	118851
8,81462	111196
8,81875	104158
8,82287	91899
8,82698	87259
8,83110	81582
8,83523	78861
8,83935	74060
8,84347	68568
8,84760	63192
8,85172	64657
8,85583	60680
8,85997	56462
8,86408	55141
8,86820	55725
8,87233	55527
8,87645	50763
8,88057	53427
8,88470	56170
8,88882	55835
8,89293	58601
8,89707	57058
8,90118	64617
8,90530	75874
8,90943	112467
8,91355	173201
8,91767	275872
8,92178	430050
8,92592	639778
8,93003	888837
8,93415	1145350
8,93828	1370742
8,94240	1525543
8,94652	1603299
8,95065	1594682
8,95477	1525881
8,95888	1387428
8,96302	1237665
8,96713	1060239
8,97125	896182
8,97538	752342
8,97950	619236
8,98362	503250
8,98775	415246
8,99187	342080
8,99598	282450
9,00012	238820
9,00423	202664
9,00835	170027
9,01247	153699
9,01660	137459
9,02072	130770
9,02483	137537
9,02897	170119
9,03308	245436
9,03720	383853
9,04133	614883
9,04545	952426
9,04957	1387147
9,05370	1894088
9,05782	2414200
9,06193	2847923
9,06607	3160294
9,07018	3300698
9,07430	3274740
9,07843	3052324
9,08255	2745497
9,08667	2381024
9,09080	2003619
9,09492	1645843
9,09903	1353542
9,10315	1088954
9,10728	882707
9,11140	705413
9,11552	574551
9,11965	471508
9,12377	391295
9,12788	328126
9,13202	287429
9,13613	249107
9,14025	220803
9,14438	191702
9,14850	170742
9,15262	155569
9,15675	139260
9,16087	129776
9,16498	123078
9,16912	111822
9,17323	102597
9,17735	97166
9,18148	90410
9,18560	86092
9,18972	80523
9,19383	75524
9,19797	75399
9,20208	68600
9,20620	70064
9,21033	66287
9,21445	62688
9,21857	60371
9,22270	56677
9,22682	56195
9,23093	56835
9,23507	54165
9,23918	51546
9,24330	49687
9,24743	47638
9,25155	47842
9,25567	48297
9,25980	48312
9,26392	52655
9,26803	67131
9,27217	95690
9,27628	154512
9,28040	278943
9,28452	486575
9,28865	817845
9,29277	1309902
9,29688	1901800
9,30102	2585096
9,30513	3285450
9,30925	3900514
9,31338	4432064
9,31750	4727411
9,32162	4779547
9,32575	4581028
9,32987	4141557
9,33398	3641893
9,33812	3069997
9,34223	2511107
9,34635	2028191
9,35048	1615187
9,35460	1288504
9,35872	1031618
9,36285	844606
9,36697	693610
9,37108	580174
9,37520	486334
9,37933	417455
9,38345	364503
9,38757	322200
9,39170	286376
9,39582	256263
9,39993	228661
9,40407	203505
9,40818	188036
9,41230	172056
9,41643	159082
9,42055	148359
9,42467	137070
9,42880	127370
9,43292	121253
9,43703	116148
9,44117	108275
9,44528	101902
9,44940	97918
9,45353	95834
9,45765	91961
9,46177	87628
9,46588	88304
9,47002	82882
9,47413	79901
9,47825	75591
9,48238	75242
9,48650	70898
9,49062	70272
9,49475	69377
9,49887	66704
9,50298	63255
9,50712	62455
9,51123	62209
9,51535	58054
9,51948	57171
9,52360	55904
9,52772	53734
9,53185	51972
9,53597	52344
9,54008	50471
9,54422	54737
9,54833	62721
9,55245	80123
9,55657	119833
9,56070	183468
9,56482	298077
9,56893	463522
9,57307	667153
9,57718	901238
9,58130	1140312
9,58543	1348944
9,58955	1466314
9,59367	1511419
9,59780	1470831
9,60192	1356712
9,60603	1197950
9,61017	1032030
9,61428	856835
9,61840	704108
9,62253	574436
9,62665	462833
9,63077	381889
9,63490	308936
9,63902	260361
9,64313	217121
9,64725	191707
9,65138	163533
9,65550	145415
9,65962	128766
9,66375	118142
9,66787	106028
9,67198	98078
9,67612	91759
9,68023	84913
9,68435	76401
9,68848	75036
9,69260	72300
9,69672	66546
9,70085	65355
9,70497	60089
9,70908	61226
9,71322	55643
9,71733	54660
9,72145	51897
9,72558	51306
9,72970	48994
9,73382	48234
9,73793	43934
9,74207	45694
9,74618	44268
9,75030	42262
9,75443	40818
9,75855	40503
9,76267	43515
9,76680	41721
9,77092	39263
9,77503	37314
9,77917	38655
9,78328	38453
9,78740	37595
9,79153	38574
9,79565	37126
9,79977	36002
9,80390	34640
9,80802	33796
9,81213	34250
9,81627	34531
9,82038	34234
9,82450	33394
9,82862	35262
9,83275	34518
9,83687	32775
9,84098	32735
9,84512	35261
9,84923	33144
9,85335	32863
9,85748	33401
9,86160	33160
9,86572	32598
9,86985	34129
9,87397	34451
9,87808	42144
9,88222	60511
9,88633	98198
9,89045	176361
9,89458	319348
9,89870	571598
9,90282	933053
9,90695	1457124
9,91107	2066588
9,91518	2749825
9,91932	3369087
9,92343	3789977
9,92755	3954632
9,93167	3881091
9,93580	3584621
9,93992	3234065
9,94403	2859149
9,94817	2548871
9,95228	2347111
9,95640	2244712
9,96053	2202471
9,96465	2143838
9,96877	2062519
9,97290	1937708
9,97702	1770889
9,98113	1555367
9,98527	1354929
9,98938	1156111
9,99350	953882
9,99763	800854
10,00175	661069
10,00587	552128
10,01000	466708
10,01412	397846
10,01823	337659
10,02235	299165
10,02648	265420
10,03060	235547
10,03472	214244
10,03885	190999
10,04297	182178
10,04708	162087
10,05122	151176
10,05533	138611
10,05945	137076
10,06358	122246
10,06770	118343
10,07182	109246
10,07595	107970
10,08007	100386
10,08418	98253
10,08832	92680
10,09243	89386
10,09655	86399
10,10068	84294
10,10480	79842
10,10892	78456
10,11303	75886
10,11717	71485
10,12128	73977
10,12540	72342
10,12953	66967
10,13365	68671
10,13777	65059
10,14190	66451
10,14602	66931
10,15013	63198
10,15427	71444
10,15838	82905
10,16250	106814
10,16663	156985
10,17075	239966
10,17487	368664
10,17900	544558
10,18312	757465
10,18723	984955
10,19137	1180806
10,19548	1337693
10,19960	1397449
10,20372	1362956
10,20785	1261994
10,21197	1114162
10,21608	950095
10,22022	791959
10,22433	662500
10,22845	544755
10,23258	455877
10,23670	418683
10,24082	422917
10,24495	472095
10,24907	599686
10,25318	795959
10,25732	1070802
10,26143	1361210
10,26555	1621838
10,26968	1813550
10,27380	1898916
10,27792	1846964
10,28205	1702935
10,28617	1493212
10,29028	1267205
10,29440	1045654
10,29853	876768
10,30265	722825
10,30677	592150
10,31090	500278
10,31502	423044
10,31913	358110
10,32327	318585
10,32738	280182
10,33150	249894
10,33563	221140
10,33975	202099
10,34387	184717
10,34800	168433
10,35212	157104
10,35623	146585
10,36037	132500
10,36448	125497
10,36860	116635
10,37273	109296
10,37685	105754
10,38097	101733
10,38508	95261
10,38922	91806
10,39333	87246
10,39745	84304
10,40158	79319
10,40570	78443
10,40982	74062
10,41395	73456
10,41807	73089
10,42218	70291
10,42632	66765
10,43043	63817
10,43455	64042
10,43868	61915
10,44280	59727
10,44692	62047
10,45105	57540
10,45517	58118
10,45928	55307
10,46342	54203
10,46753	55451
10,47165	53791
10,47577	57064
10,47990	63234
10,48402	77959
10,48813	106719
10,49227	160161
10,49638	266746
10,50050	418768
10,50463	655187
10,50875	947405
10,51287	1284348
10,51700	1597116
10,52112	1818396
10,52523	1904509
10,52937	1862067
10,53348	1706084
10,53760	1495452
10,54173	1278553
10,54585	1064085
10,54997	884059
10,55410	730731
10,55822	616618
10,56233	527913
10,56645	453339
10,57058	393380
10,57470	348631
10,57882	312346
10,58295	279330
10,58707	252032
10,59118	226105
10,59532	210315
10,59943	192475
10,60355	176629
10,60768	165817
10,61180	153988
10,61592	142832
10,62005	134017
10,62417	124472
10,62828	118598
10,63242	113108
10,63653	113889
10,64065	107558
10,64478	103140
10,64890	100771
10,65302	96262
10,65713	90337
10,66127	87781
10,66538	88113
10,66950	87039
10,67363	83347
10,67775	81447
10,68187	78710
10,68600	74597
10,69012	75668
10,69423	73177
10,69837	72135
10,70248	66902
10,70660	67469
10,71073	63656
10,71485	62467
10,71897	64500
10,72310	60599
10,72722	62060
10,73133	59036
10,73547	57809
10,73958	57711
10,74370	57349
10,74782	63459
10,75195	73768
10,75607	93419
10,76018	139962
10,76432	221675
10,76843	351728
10,77255	542591
10,77668	777237
10,78080	1048925
10,78492	1290680
10,78905	1500893
10,79317	1601157
10,79728	1591363
10,80142	1489843
10,80553	1316752
10,80965	1133488
10,81378	952311
10,81790	783153
10,82202	652852
10,82615	536815
10,83027	440041
10,83438	372233
10,83850	319208
10,84263	279448
10,84675	247617
10,85087	218152
10,85500	194590
10,85912	175241
10,86323	161073
10,86737	146396
10,87148	137896
10,87560	125407
10,87973	116212
10,88385	112215
10,88797	106845
10,89210	99864
10,89622	92514
10,90033	91910
10,90447	89338
10,90858	87575
10,91270	81936
10,91683	78613
10,92095	76634
10,92507	73165
10,92918	71520
10,93332	70123
10,93743	66237
10,94155	66765
10,94568	64386
10,94980	64761
10,95392	63024
10,95805	60999
10,96217	59996
10,96628	61238
10,97042	59546
10,97453	59231
10,97865	53516
10,98278	57297
10,98690	56640
10,99102	53210
10,99515	52568
10,99927	51426
11,00338	49631
11,00752	50288
11,01163	50102
11,01575	50918
11,01987	48299
11,02400	49850
11,02812	48426
11,03223	49075
11,03637	48596
11,04048	48166
11,04460	48003
11,04873	47966
11,05285	47400
11,05697	49238
11,06110	53022
11,06522	53920
11,06933	61006
11,07347	77974
11,07758	112988
11,08170	181052
11,08583	298089
11,08995	499711
11,09407	819899
11,09820	1280434
11,10232	1865841
11,10643	2542064
11,11055	3195131
11,11468	3724641
11,11880	3965874
11,12292	3918555
11,12705	3589567
11,13117	3171561
11,13528	2713274
11,13942	2353553
11,14353	2109763
11,14765	2026617
11,15178	2024113
11,15590	2092213
11,16002	2154066
11,16415	2169194
11,16827	2120088
11,17238	1992304
11,17652	1791718
11,18063	1591005
11,18475	1375629
11,18888	1153815
11,19300	974953
11,19712	823008
11,20123	700235
11,20537	597344
11,20948	523740
11,21360	464524
11,21773	412143
11,22185	370087
11,22597	334566
11,23010	306097
11,23422	285372
11,23833	266046
11,24247	246054
11,24658	229861
11,25070	218161
11,25483	200657
11,25895	193337
11,26307	182336
11,26720	172474
11,27132	165104
11,27543	158907
11,27957	152241
11,28368	147998
11,28780	142979
11,29192	135134
11,29605	131658
11,30017	128276
11,30428	126868
11,30842	122491
11,31253	120790
11,31665	117992
11,32078	115516
11,32490	114423
11,32902	112399
11,33315	109235
11,33727	107050
11,34138	105885
11,34552	108339
11,34963	118329
11,35375	137070
11,35788	180908
11,36200	255692
11,36612	372362
11,37025	543675
11,37437	776194
11,37848	1008399
11,38260	1239985
11,38673	1415828
11,39085	1495101
11,39497	1472596
11,39910	1376715
11,40322	1236850
11,40733	1083075
11,41147	932512
11,41558	829404
11,41970	780341
11,42383	810947
11,42795	939586
11,43207	1180932
11,43620	1524357
11,44032	1960169
11,44443	2430924
11,44857	2835975
11,45268	3101342
11,45680	3186720
11,46093	3097885
11,46505	2875270
11,46917	2548089
11,47328	2179563
11,47742	1831723
11,48153	1539874
11,48565	1282582
11,48978	1084889
11,49390	923657
11,49802	798842
11,50215	689808
11,50627	604976
11,51038	546149
11,51452	488368
11,51863	436821
11,52275	396031
11,52688	366361
11,53100	334480
11,53512	308303
11,53925	290864
11,54337	275630
11,54748	255359
11,55162	242201
11,55573	229328
11,55985	212047
11,56398	207746
11,56810	192497
11,57222	185029
11,57633	178592
11,58047	170681
11,58458	161633
11,58870	155018
11,59283	146836
11,59695	144652
11,60107	139556
11,60520	131821
11,60932	128053
11,61343	126941
11,61757	123383
11,62168	114847
11,62580	114749
11,62993	114461
11,63405	110486
11,63817	106502
11,64230	106037
11,64642	102537
11,65053	102455
11,65467	103600
11,65878	107475
11,66290	115433
11,66702	134548
11,67115	163702
11,67527	221609
11,67938	312436
11,68352	446629
11,68763	639721
11,69175	876583
11,69588	1153616
11,70000	1402175
11,70412	1588660
11,70825	1650200
11,71237	1643871
11,71648	1534568
11,72062	1378040
11,72473	1214813
11,72885	1058564
11,73298	918180
11,73710	794925
11,74122	706075
11,74535	630746
11,74947	555404
11,75358	497826
11,75770	449453
11,76183	422770
11,76595	373865
11,77007	348582
11,77420	317838
11,77832	304693
11,78243	281328
11,78657	265188
11,79068	250057
11,79480	237707
11,79893	222825
11,80305	213406
11,80717	204301
11,81130	196364
11,81542	192983
11,81953	178979
11,82367	175679
11,82778	169977
11,83190	164083
11,83603	157166
11,84015	155008
11,84427	148755
11,84838	149048
11,85252	146363
11,85663	140728
11,86075	139773
11,86488	135189
11,86900	133515
11,87312	129279
11,87725	122370
11,88137	123409
11,88548	121666
11,88962	115310
11,89373	114396
11,89785	111783
11,90198	109250
11,90610	106926
11,91022	104411
11,91435	101100
11,91847	97189
11,92258	96190
11,92672	95294
11,93083	93010
11,93495	93689
11,93907	96466
11,94320	106025
11,94732	121811
11,95143	150939
11,95557	203977
11,95968	295089
11,96380	422561
11,96793	613488
11,97205	840119
11,97617	1087360
11,98030	1269527
11,98442	1406193
11,98853	1458477
11,99267	1434625
11,99678	1328773
12,00090	1203772
12,00503	1060427
12,00915	916174
12,01327	805039
12,01740	696573
12,02152	600892
12,02563	531213
12,02975	467489
12,03388	420218
12,03800	374656
12,04212	341785
12,04625	316701
12,05037	281898
12,05448	275949
12,05862	272629
12,06273	282602
12,06685	315684
12,07098	375969
12,07510	470889
12,07922	604657
12,08335	755594
12,08747	916067
12,09158	1068525
12,09572	1176987
12,09983	1232531
12,10395	1238486
12,10808	1177315
12,11220	1085876
12,11632	970665
12,12043	848688
12,12457	724597
12,12868	626037
12,13280	534762
12,13693	463025
12,14105	403208
12,14517	355121
12,14930	317706
12,15342	282709
12,15753	252701
12,16167	233810
12,16578	211155
12,16990	197472
12,17403	183050
12,17815	172841
12,18227	162549
12,18640	156169
12,19052	144623
12,19463	140573
12,19877	135650
12,20288	131193
12,20700	124534
12,21112	120851
12,21525	115110
12,21937	113338
12,22348	109029
12,22762	106945
12,23173	102302
12,23585	99505
12,23998	97885
12,24410	100368
12,24822	94663
12,25235	96614
12,25647	92625
12,26058	93070
12,26472	97116
12,26883	98211
12,27295	109200
12,27708	129684
12,28120	156686
12,28532	202466
12,28945	273870
12,29357	386579
12,29768	556574
12,30180	788734
12,30593	1109749
12,31005	1499555
12,31417	1945636
12,31830	2387930
12,32242	2763533
12,32653	2997203
12,33067	3066991
12,33478	2949356
12,33890	2700993
12,34303	2401408
12,34715	2101937
12,35127	1811190
12,35540	1564827
12,35952	1360888
12,36363	1202019
12,36777	1060948
12,37188	939962
12,37600	851793
12,38013	769482
12,38425	706765
12,38837	648433
12,39248	591582
12,39662	549358
12,40073	508031
12,40485	471876
12,40898	440132
12,41310	416546
12,41722	390975
12,42135	368173
12,42547	353396
12,42958	332683
12,43372	319419
12,43783	301503
12,44195	289171
12,44608	282192
12,45020	263881
12,45432	252666
12,45845	248040
12,46257	237216
12,46668	232243
12,47082	218755
12,47493	211905
12,47905	206967
12,48317	197702
12,48730	195458
12,49142	189190
12,49553	183187
12,49967	179696
12,50378	174796
12,50790	166972
12,51203	164295
12,51615	159201
12,52027	153951
12,52440	151779
12,52852	149903
12,53263	149523
12,53677	142207
12,54088	140157
12,54500	138675
12,54913	136314
12,55325	135405
12,55737	130477
12,56150	129836
12,56562	129179
12,56973	124628
12,57385	120175
12,57798	124129
12,58210	117620
12,58622	113977
12,59035	117394
12,59447	111772
12,59858	110964
12,60272	108303
12,60683	108434
12,61095	103647
12,61508	103252
12,61920	105629
12,62332	105062
12,62745	103529
12,63157	102479
12,63568	104764
12,63982	110854
12,64393	120498
12,64805	141147
12,65218	176703
12,65630	220075
12,66042	298459
12,66453	401010
12,66867	529639
12,67278	699436
12,67690	872169
12,68103	1046961
12,68515	1194374
12,68927	1294994
12,69340	1312358
12,69752	1303173
12,70163	1224715
12,70577	1149628
12,70988	1051419
12,71400	948706
12,71813	844765
12,72225	766913
12,72637	683668
12,73050	622916
12,73462	562715
12,73873	513760
12,74287	471959
12,74698	434601
12,75110	405861
12,75522	381246
12,75935	358512
12,76347	329193
12,76758	310901
12,77172	300625
12,77583	277130
12,77995	264027
12,78408	252479
12,78820	242638
12,79232	235813
12,79645	221929
12,80057	215274
12,80468	207231
12,80882	196773
12,81293	195500
12,81705	190664
12,82118	180728
12,82530	173194
12,82942	167785
12,83355	164357
12,83767	165145
12,84178	157210
12,84590	153158
12,85003	150180
12,85415	148866
12,85827	142429
12,86240	138503
12,86652	138716
12,87063	135847
12,87477	127158
12,87888	127786
12,88300	126217
12,88713	121541
12,89125	124115
12,89537	120393
12,89950	115351
12,90362	117269
12,90773	111876
12,91187	113474
12,91598	108438
12,92010	106967
12,92423	105029
12,92835	106837
12,93247	103822
12,93658	102862
12,94072	101054
12,94483	101459
12,94895	101553
12,95308	96513
12,95720	96770
12,96132	96459
12,96545	96492
12,96957	93691
12,97368	91682
12,97782	93481
12,98193	92205
12,98605	87953
12,99018	84214
12,99430	88541
12,99842	88538
13,00255	86800
13,00667	86586
13,01078	86807
13,01492	83930
13,01903	83321
13,02315	84606
13,02727	83511
13,03140	83035
13,03552	82994
13,03963	81235
13,04377	79044
13,04788	78584
13,05200	78826
13,05613	76702
13,06025	77741
13,06437	75623
13,06850	76059
13,07262	75574
13,07673	75474
13,08087	73186
13,08498	74829
13,08910	75494
13,09323	73046
13,09735	75426
13,10147	73528
13,10560	71957
13,10972	71565
13,11383	70935
13,11795	71019
13,12208	70564
13,12620	74105
13,13032	70006
13,13445	68725
13,13857	71334
13,14268	71487
13,14682	76281
13,15093	74789
13,15505	76352
13,15918	84387
13,16330	87025
13,16742	96475
13,17155	108196
13,17567	117230
13,17978	124416
13,18392	130077
13,18803	137652
13,19215	137541
13,19628	138219
13,20040	131677
13,20452	128369
13,20865	123989
13,21277	116725
13,21688	110980
13,22100	103497
13,22513	93258
13,22925	92896
13,23337	88534
13,23750	83190
13,24162	78644
13,24573	76496
13,24987	76559
13,25398	73344
13,25810	70496
13,26223	69383
13,26635	68116
13,27047	70542
13,27460	66332
13,27872	65791
13,28283	65935
13,28697	67027
13,29108	65226
13,29520	64759
13,29933	64275
13,30345	61667
13,30757	62932
13,31168	61779
13,31582	63128
13,31993	62918
13,32405	61195
13,32818	60110
13,33230	61741
13,33642	60915
13,34055	60775
13,34467	60809
13,34878	63021
13,35292	61378
13,35703	60187
13,36115	61230
13,36528	59687
13,36940	61757
13,37352	58692
13,37765	61086
13,38177	59730
13,38588	59592
13,39002	59744
13,39413	60667
13,39825	61073
13,40237	58517
13,40650	57763
13,41062	58023
13,41473	60189
13,41887	56134
13,42298	60488
13,42710	58565
13,43123	58746
13,43535	58929
13,43947	57667
13,44360	56716
13,44772	53075
13,45183	55012
13,45597	56011
13,46008	58335
13,46420	57887
13,46833	57149
13,47245	56879
13,47657	55905
13,48070	57798
13,48482	58406
13,48893	56114
13,49305	56656
13,49718	54252
13,50130	56303
13,50542	55562
13,50955	54355
13,51367	54245
13,51778	53162
13,52192	54379
13,52603	53108
13,53015	57053
13,53428	55378
13,53840	55374
13,54252	56354
13,54665	53567
13,55077	54358
13,55488	53673
13,55902	56464
13,56313	55575
13,56725	54792
13,57138	56723
13,57550	56638
13,57962	52569
13,58373	54437
13,58787	55259
13,59198	55136
13,59610	55695
13,60023	55359
13,60435	54008
13,60847	55120
13,61260	55500
13,61672	54463
13,62083	56294
13,62497	54627
13,62908	53826
13,63320	56886
13,63733	56369
13,64145	56147
13,64557	54940
13,64970	54128
13,65382	55233
13,65793	56465
13,66207	54393
13,66618	54714
13,67030	52555
13,67442	54837
13,67855	54435
13,68267	55673
13,68678	56035
13,69092	55580
13,69503	54086
13,69915	57450
13,70328	53823
13,70740	55895
13,71152	54577
13,71565	54949
13,71977	52989
13,72388	53381
13,72802	55989
13,73213	53532
13,73625	56116
13,74038	54716
13,74450	63630
13,74862	71211
13,75275	83135
13,75687	101690
13,76098	134989
13,76510	176044
13,76923	233292
13,77335	305261
13,77747	394737
13,78160	467460
13,78572	551474
13,78983	621120
13,79397	669748
13,79808	701671
13,80220	711442
13,80633	689849
13,81045	665033
13,81457	627180
13,81870	575612
13,82282	528525
13,82693	482795
13,83107	435005
13,83518	386611
13,83930	352805
13,84343	317242
13,84755	291126
13,85167	263717
13,85578	243727
13,85992	225020
13,86403	208913
13,86815	192708
13,87228	182182
13,87640	170480
13,88052	160052
13,88465	152019
13,88877	142073
13,89288	135617
13,89702	131943
13,90113	123143
13,90525	123528
13,90938	118633
13,91350	112528
13,91762	108559
13,92175	106197
13,92587	103958
13,92998	100072
13,93412	98496
13,93823	93237
13,94235	92661
13,94647	89659
13,95060	86660
13,95472	85635
13,95883	85041
13,96297	82512
13,96708	82851
13,97120	81930
13,97533	79815
13,97945	80295
13,98357	79278
13,98770	78658
13,99182	78106
13,99593	78130
14,00007	72825
14,00418	73912
14,00830	74279
14,01243	70216
14,01655	72278
14,02067	70781
14,02480	70116
14,02892	70845
14,03303	69139
14,03715	68177
14,04128	68050
14,04540	65075
14,04952	67684
14,05365	65776
14,05777	63731
14,06188	64247
14,06602	63605
14,07013	65392
14,07425	64774
14,07838	63766
14,08250	64031
14,08662	63863
14,09075	65073
14,09487	64996
14,09898	61551
14,10312	64887
14,10723	61483
14,11135	62589
14,11548	63659
14,11960	60431
14,12372	58239
14,12783	59703
14,13197	60588
14,13608	56749
14,14020	61958
14,14433	61722
14,14845	60188
14,15257	58736
14,15670	59350
14,16082	59767
14,16493	58390
14,16907	58635
14,17318	59252
14,17730	57962
14,18143	56440
14,18555	56073
14,18967	57586
14,19380	59203
14,19792	56029
14,20203	57588
14,20617	56765
14,21028	56239
14,21440	59250
14,21852	57595
14,22265	55381
14,22677	57192
14,23088	56841
14,23502	54882
14,23913	55007
14,24325	55928
14,24738	56265
14,25150	56583
14,25562	55645
14,25975	56954
14,26387	55056
14,26798	53895
14,27212	54879
14,27623	56542
14,28035	56493
14,28448	54890
14,28860	52986
14,29272	53927
14,29685	55250
14,30097	54520
14,30508	54956
14,30920	54560
14,31333	54887
14,31745	53336
14,32157	55187
14,32570	56401
14,32982	53977
14,33393	55704
14,33807	55533
14,34218	55212
14,34630	54348
14,35043	54697
14,35455	54582
14,35867	53580
14,36280	52636
14,36692	54246
14,37103	55179
14,37517	55380
14,37928	53081
14,38340	52411
14,38753	51492
14,39165	53155
14,39577	53154
14,39988	52473
14,40402	54371
14,40813	55425
14,41225	53519
14,41638	52975
14,42050	53306
14,42462	52212
14,42875	54579
14,43287	54066
14,43698	53915
14,44112	54969
14,44523	53330
14,44935	54559
14,45348	55540
14,45760	55673
14,46172	51841
14,46585	55510
14,46997	54289
14,47408	55105
14,47822	55330
14,48233	51818
14,48645	55314
14,49057	53566
14,49470	53549
14,49882	51802
14,50293	52375
14,50707	52972
14,51118	51009
14,51530	54203
14,51943	52017
14,52355	55445
14,52767	54209
14,53180	53362
14,53592	53407
14,54003	51532
14,54417	53135
