D:\MassHunter\GCMS\1\data\Amal\Constant flow\100C\100C_1ml-min_9C-min_2.D Wed Sep 04 18:15:25 2024
Start of data points
5,59093,88083
5,59507,91668
5,59918,87407
5,60330,88303
5,60743,86380
5,61155,88745
5,61567,86525
5,61980,87085
5,62392,85912
5,62803,84320
5,63217,82107
5,63628,81777
5,64040,81968
5,64453,81254
5,64865,85049
5,65277,81970
5,65688,81555
5,66102,80567
5,66513,82005
5,66925,80984
5,67338,82263
5,67750,78917
5,68162,76243
5,68575,78780
5,68987,79975
5,69398,77004
5,69812,77821
5,70223,78487
5,70635,76962
5,71048,77390
5,71460,75945
5,71872,77373
5,72285,76528
5,72697,76389
5,73108,74435
5,73522,74623
5,73933,74016
5,74345,74082
5,74757,73950
5,75170,72545
5,75582,72411
5,75993,72378
5,76407,73408
5,76818,73859
5,77230,72725
5,77643,68807
5,78055,70484
5,78467,70858
5,78880,70297
5,79292,70428
5,79703,68774
5,80117,69534
5,80528,69345
5,80940,69453
5,81353,68735
5,81765,68447
5,82177,68950
5,82590,69202
5,83002,67705
5,83413,67253
5,83825,68260
5,84238,65369
5,84650,66125
5,85062,65530
5,85475,63334
5,85887,64944
5,86298,65141
5,86712,67076
5,87123,64198
5,87535,63414
5,87948,65508
5,88360,65422
5,88772,62515
5,89185,63151
5,89597,63354
5,90008,64538
5,90422,62137
5,90833,65581
5,91245,64602
5,91658,64639
5,92070,67259
5,92482,70558
5,92893,69690
5,93307,71032
5,93718,71859
5,94130,74168
5,94543,71825
5,94955,70118
5,95367,70942
5,95780,70130
5,96192,71231
5,96603,70182
5,97017,72520
5,97428,73951
5,97840,72679
5,98253,72796
5,98665,74347
5,99077,75161
5,99490,78691
5,99902,77854
6,00313,79186
6,00727,76202
6,01138,75635
6,01550,76845
6,01962,76449
6,02375,76412
6,02787,76119
6,03198,75100
6,03612,72881
6,04023,74018
6,04435,71749
6,04848,72141
6,05260,70721
6,05672,71641
6,06085,69853
6,06497,69840
6,06908,69176
6,07322,71185
6,07733,69739
6,08145,68148
6,08558,66722
6,08970,66350
6,09382,65506
6,09795,66412
6,10207,61119
6,10618,60982
6,11030,62280
6,11443,62618
6,11855,61963
6,12267,61034
6,12680,59896
6,13092,60193
6,13503,58921
6,13917,60381
6,14328,58640
6,14740,59363
6,15153,58961
6,15565,55240
6,15977,58913
6,16390,57244
6,16802,57001
6,17213,56460
6,17627,57997
6,18038,59374
6,18450,65271
6,18863,78629
6,19275,112916
6,19687,174851
6,20098,264641
6,20512,397642
6,20923,557121
6,21335,733056
6,21748,890610
6,22160,1018772
6,22572,1107719
6,22985,1144394
6,23397,1136624
6,23808,1104451
6,24222,1047699
6,24633,988555
6,25045,925582
6,25458,852739
6,25870,788312
6,26282,735084
6,26695,683268
6,27107,637335
6,27518,584656
6,27932,549425
6,28343,510774
6,28755,474100
6,29167,445145
6,29580,413468
6,29992,381898
6,30403,359969
6,30817,328738
6,31228,312507
6,31640,281936
6,32053,263078
6,32465,237957
6,32877,217250
6,33290,200441
6,33702,183507
6,34113,168617
6,34527,152752
6,34938,139756
6,35350,129115
6,35763,118444
6,36175,109195
6,36587,102727
6,37000,93297
6,37412,90073
6,37823,83715
6,38237,81241
6,38648,75137
6,39060,73085
6,39472,69328
6,39885,65497
6,40297,62190
6,40708,62516
6,41122,59915
6,41533,59632
6,41945,56098
6,42358,54676
6,42770,54005
6,43182,54806
6,43595,52370
6,44007,49671
6,44418,50653
6,44832,49875
6,45243,48266
6,45655,48644
6,46068,46655
6,46480,44864
6,46892,46096
6,47305,44345
6,47717,44813
6,48128,44220
6,48540,42433
6,48953,42428
6,49365,43407
6,49777,42443
6,50190,41928
6,50602,42590
6,51013,41022
6,51427,40324
6,51838,41003
6,52250,41683
6,52663,38492
6,53075,40446
6,53487,40541
6,53900,38751
6,54312,39945
6,54723,37331
6,55137,38368
6,55548,38248
6,55960,38275
6,56373,38911
6,56785,38227
6,57197,38869
6,57608,37890
6,58022,38425
6,58433,37742
6,58845,37829
6,59258,40010
6,59670,37587
6,60082,37271
6,60495,36095
6,60907,35946
6,61318,35648
6,61732,37322
6,62143,37482
6,62555,36850
6,62968,35795
6,63380,34867
6,63792,35171
6,64205,36083
6,64617,36272
6,65028,35542
6,65442,36532
6,65853,37983
6,66265,36994
6,66677,38724
6,67090,37740
6,67502,37602
6,67913,37517
6,68327,37477
6,68738,36556
6,69150,36289
6,69563,35786
6,69975,35930
6,70387,36159
6,70800,33558
6,71212,36714
6,71623,34836
6,72037,36277
6,72448,36493
6,72860,36605
6,73273,38186
6,73685,35590
6,74097,35276
6,74510,34030
6,74922,33512
6,75333,35579
6,75745,33460
6,76158,34536
6,76570,34883
6,76982,32212
6,77395,33518
6,77807,34187
6,78218,33673
6,78632,33158
6,79043,33357
6,79455,31876
6,79868,31557
6,80280,32739
6,80692,33973
6,81105,32918
6,81517,33416
6,81928,31851
6,82342,33005
6,82753,30950
6,83165,32769
6,83578,33160
6,83990,34445
6,84402,31014
6,84813,31382
6,85227,32159
6,85638,33155
6,86050,32848
6,86463,33577
6,86875,32654
6,87287,32639
6,87700,32308
6,88112,32419
6,88523,32798
6,88937,32678
6,89348,32179
6,89760,33016
6,90173,33477
6,90585,32745
6,90997,32841
6,91410,33092
6,91822,31140
6,92233,31707
6,92647,33068
6,93058,32680
6,93470,33349
6,93882,33699
6,94295,33186
6,94707,33128
6,95118,34043
6,95532,34607
6,95943,32216
6,96355,31081
6,96768,32073
6,97180,32745
6,97592,31636
6,98005,29875
6,98417,31815
6,98828,30562
6,99242,30586
6,99653,29636
7,00065,30575
7,00478,30471
7,00890,30320
7,01302,30932
7,01715,29845
7,02127,28576
7,02538,28879
7,02950,29570
7,03363,28361
7,03775,29899
7,04187,28836
7,04600,30767
7,05012,30022
7,05423,29419
7,05837,31268
7,06248,30966
7,06660,31618
7,07073,32539
7,07485,32123
7,07897,32158
7,08310,32069
7,08722,33531
7,09133,31279
7,09547,31816
7,09958,31995
7,10370,32192
7,10783,31610
7,11195,30801
7,11607,29322
7,12018,30320
7,12432,30735
7,12843,29391
7,13255,28517
7,13668,27747
7,14080,29793
7,14492,29305
7,14905,28081
7,15317,27747
7,15728,28373
7,16142,29305
7,16553,29158
7,16965,28382
7,17378,28046
7,17790,27703
7,18202,25843
7,18615,27915
7,19027,26819
7,19438,26983
7,19852,27441
7,20263,26755
7,20675,25875
7,21087,28655
7,21500,27241
7,21912,27489
7,22323,25882
7,22737,26869
7,23148,28169
7,23560,26619
7,23973,26460
7,24385,25370
7,24797,25781
7,25210,26281
7,25622,27068
7,26033,26964
7,26447,24339
7,26858,26003
7,27270,25754
7,27683,24527
7,28095,25615
7,28507,25842
7,28920,25534
7,29332,25848
7,29743,25788
7,30155,24993
7,30568,23890
7,30980,26458
7,31392,26076
7,31805,25120
7,32217,24657
7,32628,25003
7,33042,23668
7,33453,24956
7,33865,27232
7,34278,25741
7,34690,25467
7,35102,25370
7,35515,25085
7,35927,25306
7,36338,25896
7,36752,25240
7,37163,26497
7,37575,25691
7,37988,23311
7,38400,25516
7,38812,25749
7,39223,26386
7,39637,24768
7,40048,25235
7,40460,25590
7,40873,25064
7,41285,24924
7,41697,24660
7,42110,24870
7,42522,24610
7,42933,25497
7,43347,24859
7,43758,23928
7,44170,25137
7,44583,23788
7,44995,24204
7,45407,23685
7,45820,24182
7,46232,26561
7,46643,24468
7,47057,26700
7,47468,24957
7,47880,24924
7,48292,23523
7,48705,25222
7,49117,25660
7,49528,24769
7,49942,24674
7,50353,22209
7,50765,24127
7,51178,24077
7,51590,24881
7,52002,25787
7,52415,23176
7,52827,22988
7,53238,23155
7,53652,23771
7,54063,22590
7,54475,22617
7,54888,24055
7,55300,23125
7,55712,23649
7,56125,24273
7,56537,25701
7,56948,29513
7,57360,44183
7,57773,70429
7,58185,118968
7,58597,205707
7,59010,341115
7,59422,532820
7,59833,773810
7,60247,1042374
7,60658,1295937
7,61070,1507543
7,61483,1662661
7,61895,1744903
7,62307,1750787
7,62720,1697928
7,63132,1605996
7,63543,1465690
7,63957,1352698
7,64368,1205648
7,64780,1085125
7,65193,962869
7,65605,836861
7,66017,732138
7,66428,637015
7,66842,547047
7,67253,472322
7,67665,403076
7,68078,346664
7,68490,289360
7,68902,252235
7,69315,213046
7,69727,181205
7,70138,157943
7,70552,137427
7,70963,119791
7,71375,105579
7,71788,96434
7,72200,85960
7,72612,76783
7,73025,70405
7,73437,63649
7,73848,62235
7,74262,57189
7,74673,52302
7,75085,50388
7,75497,48893
7,75910,45148
7,76322,42819
7,76733,41877
7,77147,41272
7,77558,39764
7,77970,37075
7,78383,39058
7,78795,37458
7,79207,36019
7,79620,34141
7,80032,33704
7,80443,32954
7,80857,33308
7,81268,32388
7,81680,31755
7,82093,31736
7,82505,32370
7,82917,29460
7,83330,29416
7,83742,28991
7,84153,29556
7,84565,27369
7,84978,27688
7,85390,26043
7,85802,26483
7,86215,26490
7,86627,26167
7,87038,25132
7,87452,27064
7,87863,24154
7,88275,25601
7,88688,24737
7,89100,25500
7,89512,26068
7,89925,24817
7,90337,25561
7,90748,24243
7,91162,23085
7,91573,23562
7,91985,24837
7,92398,22194
7,92810,23476
7,93222,24774
7,93633,24374
7,94047,22480
7,94458,23862
7,94870,25508
7,95283,25924
7,95695,25087
7,96107,25092
7,96520,26118
7,96932,23938
7,97343,25797
7,97757,25329
7,98168,24971
7,98580,27278
7,98993,24470
7,99405,24925
7,99817,25288
8,00230,23295
8,00642,22503
8,01053,24417
8,01467,24429
8,01878,23675
8,02290,22880
8,02702,22104
8,03115,22589
8,03527,23411
8,03938,22290
8,04352,22644
8,04763,21309
8,05175,20994
8,05588,22246
8,06000,22459
8,06412,21581
8,06825,20181
8,07237,22004
8,07648,21953
8,08062,22387
8,08473,22176
8,08885,20450
8,09298,20930
8,09710,21278
8,10122,21064
8,10535,19845
8,10947,21163
8,11358,19647
8,11772,19112
8,12183,19593
8,12595,20207
8,13007,20122
8,13420,19865
8,13832,20614
8,14243,21001
8,14657,20108
8,15068,21025
8,15480,22258
8,15893,21259
8,16305,20929
8,16717,22467
8,17130,21496
8,17542,21926
8,17953,21944
8,18367,21999
8,18778,21861
8,19190,21692
8,19603,20544
8,20015,21230
8,20427,20944
8,20840,21742
8,21252,21125
8,21663,21387
8,22075,18365
8,22488,21440
8,22900,20219
8,23312,18413
8,23725,19793
8,24137,18912
8,24548,18583
8,24962,19416
8,25373,19112
8,25785,19851
8,26198,19361
8,26610,19708
8,27022,19534
8,27435,18917
8,27847,19109
8,28258,19395
8,28672,18426
8,29083,19911
8,29495,18926
8,29908,19681
8,30320,20674
8,30732,19734
8,31143,18826
8,31557,19889
8,31968,19667
8,32380,20415
8,32793,19903
8,33205,19549
8,33617,19404
8,34030,19804
8,34442,20710
8,34853,20957
8,35267,18751
8,35678,18262
8,36090,19974
8,36503,21585
8,36915,23203
8,37327,30472
8,37740,44789
8,38152,72064
8,38563,119643
8,38977,202535
8,39388,310032
8,39800,458296
8,40212,614875
8,40625,794149
8,41037,910967
8,41448,1024604
8,41862,1064050
8,42273,1076927
8,42685,1035813
8,43098,956760
8,43510,864332
8,43922,758211
8,44335,655886
8,44747,551921
8,45158,471204
8,45572,391761
8,45983,323096
8,46395,265888
8,46808,218119
8,47220,178075
8,47632,152219
8,48045,124170
8,48457,108884
8,48868,93946
8,49280,82562
8,49693,72577
8,50105,63792
8,50517,54130
8,50930,54543
8,51342,47493
8,51753,44445
8,52167,43069
8,52578,40558
8,52990,36416
8,53403,38076
8,53815,35332
8,54227,33972
8,54640,30828
8,55052,29643
8,55463,29201
8,55877,28360
8,56288,27931
8,56700,26654
8,57113,25004
8,57525,25976
8,57937,25419
8,58348,25473
8,58762,26489
8,59173,25889
8,59585,26375
8,59998,26219
8,60410,25005
8,60822,26093
8,61235,24330
8,61647,24422
8,62058,24449
8,62472,24664
8,62883,23715
8,63295,24709
8,63708,22984
8,64120,22721
8,64532,20996
8,64945,22574
8,65357,20508
8,65768,21432
8,66182,21044
8,66593,20301
8,67005,20232
8,67417,19630
8,67830,19084
8,68242,20244
8,68653,19259
8,69067,20264
8,69478,19636
8,69890,20680
8,70303,21615
8,70715,21186
8,71127,23118
8,71540,22840
8,71952,23971
8,72363,24153
8,72777,21786
8,73188,23727
8,73600,21314
8,74013,22350
8,74425,20926
8,74837,21593
8,75250,20168
8,75662,18830
8,76073,19895
8,76485,18167
8,76898,17742
8,77310,17925
8,77722,15902
8,78135,16830
8,78547,17242
8,78958,15925
8,79372,16311
8,79783,16780
8,80195,15556
8,80608,17594
8,81020,17003
8,81432,14798
8,81845,16716
8,82257,15586
8,82668,17330
8,83082,16257
8,83493,15629
8,83905,15821
8,84318,16044
8,84730,16457
8,85142,17066
8,85553,14918
8,85967,16602
8,86378,16087
8,86790,15808
8,87203,15777
8,87615,16156
8,88027,15877
8,88440,16155
8,88852,15978
8,89263,15577
8,89677,15163
8,90088,16029
8,90500,16207
8,90913,16017
8,91325,15565
8,91737,16845
8,92150,15274
8,92562,16066
8,92973,16170
8,93387,15848
8,93798,16273
8,94210,16236
8,94622,16697
8,95035,15098
8,95447,14542
8,95858,16613
8,96272,16026
8,96683,14335
8,97095,16291
8,97508,15658
8,97920,15791
8,98332,16760
8,98745,15668
8,99157,16335
8,99568,16068
8,99982,17231
9,00393,17186
9,00805,15721
9,01218,16344
9,01630,16026
9,02042,16309
9,02455,14234
9,02867,15903
9,03278,14634
9,03690,15937
9,04103,16425
9,04515,14587
9,04927,15156
9,05340,15557
9,05752,16315
9,06163,15469
9,06577,15403
9,06988,15801
9,07400,16265
9,07813,15743
9,08225,15653
9,08637,16715
9,09050,17356
9,09462,16079
9,09873,15121
9,10287,15798
9,10698,14821
9,11110,15335
9,11523,14312
9,11935,13586
9,12347,14997
9,12758,14902
9,13172,14825
9,13583,14153
9,13995,14881
9,14408,13738
9,14820,15098
9,15232,14597
9,15645,14759
9,16057,13679
9,16468,14163
9,16882,14019
9,17293,14375
9,17705,15866
9,18118,14126
9,18530,15573
9,18942,14914
9,19355,17206
9,19767,21875
9,20178,30782
9,20592,54544
9,21003,103102
9,21415,193243
9,21827,346191
9,22240,575670
9,22652,905260
9,23063,1292077
9,23477,1688926
9,23888,2070287
9,24300,2364177
9,24713,2542647
9,25125,2579672
9,25537,2481624
9,25950,2264255
9,26362,1972900
9,26773,1673808
9,27187,1370745
9,27598,1110815
9,28010,867142
9,28423,689391
9,28835,546853
9,29247,439008
9,29660,348909
9,30072,281236
9,30483,227596
9,30895,188633
9,31308,159980
9,31720,137999
9,32132,118257
9,32545,103681
9,32957,95398
9,33368,83420
9,33782,75077
9,34193,72165
9,34605,63379
9,35018,57337
9,35430,56618
9,35842,52085
9,36255,49090
9,36667,45185
9,37078,42506
9,37492,42750
9,37903,39017
9,38315,37838
9,38728,36417
9,39140,35263
9,39552,35475
9,39963,30624
9,40377,29765
9,40788,30015
9,41200,28882
9,41613,29414
9,42025,26630
9,42437,25486
9,42850,26049
9,43262,24970
9,43673,23357
9,44087,25018
9,44498,23674
9,44910,21910
9,45323,22378
9,45735,23344
9,46147,21454
9,46560,22397
9,46972,21939
9,47383,20640
9,47797,20949
9,48208,21604
9,48620,20878
9,49032,18152
9,49445,19071
9,49857,19121
9,50268,18133
9,50682,18477
9,51093,18452
9,51505,17350
9,51918,17031
9,52330,17546
9,52742,17896
9,53155,16590
9,53567,16484
9,53978,17836
9,54392,17504
9,54803,16566
9,55215,16441
9,55628,16735
9,56040,16038
9,56452,16516
9,56865,15567
9,57277,16485
9,57688,15640
9,58100,15299
9,58513,16447
9,58925,14900
9,59337,15854
9,59750,16077
9,60162,15857
9,60573,15965
9,60987,16264
9,61398,17201
9,61810,15537
9,62223,15219
9,62635,14841
9,63047,15996
9,63460,15003
9,63872,16930
9,64283,14970
9,64697,14700
9,65108,14590
9,65520,14926
9,65933,15515
9,66345,13967
9,66757,14723
9,67168,15499
9,67582,14268
9,67993,13643
9,68405,14467
9,68818,17069
9,69230,13197
9,69642,13938
9,70055,14038
9,70467,14960
9,70878,15312
9,71292,14500
9,71703,15061
9,72115,14825
9,72528,15380
9,72940,14896
9,73352,14816
9,73765,14886
9,74177,14679
9,74588,14476
9,75002,15062
9,75413,14663
9,75825,14280
9,76238,14417
9,76650,14453
9,77062,12703
9,77473,14548
9,77887,15023
9,78298,14003
9,78710,13954
9,79123,13817
9,79535,15657
9,79947,14096
9,80360,15766
9,80772,15945
9,81183,17432
9,81597,20666
9,82008,20154
9,82420,20244
9,82833,21977
9,83245,20480
9,83657,21132
9,84070,20111
9,84482,21541
9,84893,20964
9,85307,18830
9,85718,17834
9,86130,19967
9,86542,17852
9,86955,17271
9,87367,15171
9,87778,14810
9,88192,15355
9,88603,14793
9,89015,14532
9,89428,15021
9,89840,13668
9,90252,13819
9,90665,13415
9,91077,11826
9,91488,14377
9,91902,12965
9,92313,12760
9,92725,13325
9,93138,13428
9,93550,13914
9,93962,12581
9,94375,11705
9,94787,13230
9,95198,13992
9,95610,11934
9,96023,12381
9,96435,12986
9,96847,13684
9,97260,12860
9,97672,12464
9,98083,12830
9,98497,10969
9,98908,11529
9,99320,12432
9,99733,13152
10,00145,12234
10,00557,12512
10,00970,12258
10,01382,11692
10,01793,14043
10,02207,12711
10,02618,12017
10,03030,14138
10,03443,15773
10,03855,21544
10,04267,33063
10,04678,58929
10,05092,109229
10,05503,202385
10,05915,342407
10,06328,529424
10,06740,761488
10,07152,1008071
10,07565,1240072
10,07977,1397794
10,08388,1474013
10,08802,1442192
10,09213,1335283
10,09625,1174522
10,10038,988325
10,10450,798059
10,10862,622915
10,11275,487215
10,11687,374199
10,12098,295922
10,12512,228659
10,12923,186376
10,13335,147775
10,13747,126838
10,14160,102962
10,14572,86692
10,14983,78072
10,15397,68553
10,15808,60557
10,16220,51651
10,16633,50825
10,17045,45691
10,17457,41883
10,17870,39448
10,18282,36311
10,18693,34520
10,19107,34516
10,19518,30786
10,19930,28802
10,20343,28155
10,20755,25973
10,21167,25599
10,21580,23909
10,21992,24051
10,22403,21885
10,22815,21578
10,23228,20668
10,23640,20526
10,24052,20462
10,24465,19439
10,24877,20407
10,25288,18738
10,25702,17733
10,26113,16488
10,26525,18161
10,26938,16392
10,27350,17213
10,27762,17197
10,28175,17904
10,28587,16584
10,28998,16192
10,29412,16004
10,29823,16211
10,30235,15925
10,30648,16003
10,31060,15351
10,31472,14699
10,31883,15780
10,32297,14182
10,32708,14668
10,33120,15242
10,33533,14263
10,33945,15330
10,34357,14946
10,34770,14145
10,35182,14313
10,35593,14868
10,36007,13584
10,36418,13850
10,36830,12824
10,37243,13507
10,37655,13680
10,38067,13155
10,38480,13321
10,38892,12344
10,39303,13230
10,39717,12806
10,40128,13073
10,40540,13006
10,40952,12522
10,41365,12988
10,41777,12599
10,42188,11934
10,42602,12133
10,43013,12709
10,43425,12136
10,43838,13229
10,44250,13150
10,44662,12143
10,45075,13535
10,45487,12415
10,45898,12803
10,46312,12347
10,46723,11682
10,47135,14036
10,47548,15238
10,47960,14513
10,48372,16313
10,48785,16684
10,49197,18002
10,49608,16636
10,50020,19886
10,50433,19166
10,50845,17995
10,51257,17086
10,51670,15370
10,52082,15885
10,52493,15219
10,52907,13665
10,53318,13449
10,53730,13659
10,54143,13016
10,54555,13210
10,54967,13960
10,55380,11438
10,55792,12724
10,56203,12671
10,56617,11032
10,57028,12134
10,57440,12051
10,57853,11848
10,58265,11268
10,58677,11937
10,59088,12050
10,59502,10869
10,59913,11476
10,60325,11322
10,60738,10279
10,61150,11389
10,61562,11610
10,61975,11829
10,62387,11368
10,62798,13061
10,63212,13116
10,63623,13163
10,64035,13821
10,64448,16999
10,64860,18059
10,65272,19925
10,65685,20787
10,66097,20143
10,66508,21841
10,66922,21587
10,67333,19351
10,67745,20140
10,68157,17523
10,68570,15517
10,68982,15990
10,69393,14416
10,69807,13463
10,70218,12983
10,70630,12409
10,71043,13305
10,71455,12601
10,71867,13535
10,72280,14109
10,72692,13583
10,73103,13125
10,73517,12241
10,73928,13815
10,74340,12699
10,74753,11621
10,75165,11655
10,75577,11862
10,75990,12627
10,76402,10908
10,76813,11047
10,77225,10437
10,77638,11343
10,78050,11816
10,78462,11451
10,78875,11493
10,79287,11283
10,79698,11617
10,80112,11704
10,80523,12515
10,80935,11323
10,81348,10959
10,81760,9260
10,82172,11202
10,82585,11011
10,82997,10128
10,83408,9961
10,83822,12097
10,84233,9671
10,84645,10814
10,85058,9631
10,85470,12056
10,85882,14159
10,86293,17378
10,86707,33079
10,87118,65966
10,87530,135364
10,87943,274175
10,88355,502450
10,88767,855712
10,89180,1322887
10,89592,1873430
10,90003,2403550
10,90417,2868626
10,90828,3175524
10,91240,3281181
10,91653,3115018
10,92065,2782839
10,92477,2335616
10,92890,1872246
10,93302,1472261
10,93713,1117420
10,94127,843610
10,94538,644663
10,94950,495833
10,95362,389116
10,95775,311549
10,96187,260071
10,96598,221171
10,97012,188230
10,97423,161012
10,97835,141365
10,98248,127352
10,98660,112805
10,99072,101127
10,99485,89723
10,99897,82214
11,00308,74199
11,00722,68572
11,01133,63540
11,01545,56836
11,01958,52646
11,02370,48152
11,02782,45799
11,03195,42247
11,03607,39998
11,04018,37110
11,04430,34728
11,04843,34118
11,05255,33422
11,05667,31400
11,06080,29753
11,06492,28390
11,06903,27432
11,07317,24658
11,07728,26175
11,08140,27437
11,08553,23942
11,08965,23217
11,09377,24562
11,09790,23445
11,10202,22419
11,10613,22113
11,11027,22645
11,11438,23336
11,11850,23229
11,12263,24229
11,12675,24899
11,13087,24847
11,13498,24748
11,13912,24601
11,14323,23874
11,14735,21493
11,15148,22518
11,15560,21459
11,15972,20538
11,16385,19216
11,16797,18800
11,17208,17991
11,17622,15876
11,18033,16766
11,18445,15302
11,18858,15978
11,19270,14767
11,19682,14806
11,20095,13478
11,20507,14096
11,20918,15788
11,21332,14468
11,21743,14083
11,22155,15125
11,22567,14036
11,22980,13182
11,23392,13710
11,23803,12552
11,24217,14054
11,24628,12507
11,25040,12701
11,25453,11341
11,25865,14601
11,26277,12438
11,26690,13876
11,27102,13777
11,27513,13333
11,27927,14200
11,28338,13983
11,28750,13897
11,29163,15400
11,29575,16365
11,29987,16538
11,30400,16304
11,30812,18040
11,31223,16127
11,31635,17187
11,32048,16688
11,32460,15233
11,32872,15974
11,33285,13911
11,33697,13543
11,34108,15059
11,34522,12307
11,34933,12716
11,35345,12113
11,35758,12231
11,36170,12418
11,36582,11628
11,36995,10833
11,37407,11507
11,37818,11476
11,38232,10816
11,38643,11903
11,39055,11893
11,39468,11707
11,39880,10857
11,40292,11092
11,40703,10377
11,41117,10513
11,41528,10008
11,41940,11119
11,42353,10262
11,42765,9982
11,43177,11940
11,43590,10681
11,44002,12091
11,44413,13019
11,44827,16752
11,45238,25850
11,45650,46141
11,46063,90945
11,46475,168000
11,46887,294756
11,47300,484400
11,47712,706732
11,48123,974622
11,48537,1238372
11,48948,1420811
11,49360,1507768
11,49773,1500080
11,50185,1405756
11,50597,1233872
11,51008,1014310
11,51422,820006
11,51833,640410
11,52245,491494
11,52658,386017
11,53070,294245
11,53482,224907
11,53895,187388
11,54307,155425
11,54718,133415
11,55132,121148
11,55543,105981
11,55955,96537
11,56368,86997
11,56780,77054
11,57192,70536
11,57605,61460
11,58017,56464
11,58428,49894
11,58842,44148
11,59253,43066
11,59665,37624
11,60077,35857
11,60490,34485
11,60902,32970
11,61313,30787
11,61727,28877
11,62138,27464
11,62550,27844
11,62963,24149
11,63375,23724
11,63787,22945
11,64200,21434
11,64612,20601
11,65023,21266
11,65437,21072
11,65848,20035
11,66260,19685
11,66673,18894
11,67085,23242
11,67497,34686
11,67910,55164
11,68322,106304
11,68733,194074
11,69145,344263
11,69558,553086
11,69970,848118
11,70382,1146228
11,70795,1425287
11,71207,1653317
11,71618,1733865
11,72032,1707442
11,72443,1554203
11,72855,1315033
11,73268,1071362
11,73680,851273
11,74092,645965
11,74505,485986
11,74917,369673
11,75328,289879
11,75742,220165
11,76153,176531
11,76565,141527
11,76978,123145
11,77390,102403
11,77802,91223
11,78213,76555
11,78627,70011
11,79038,63334
11,79450,55230
11,79863,49627
11,80275,48324
11,80687,41982
11,81100,39357
11,81512,37724
11,81923,34546
11,82337,33210
11,82748,31143
11,83160,29727
11,83573,27730
11,83985,28276
11,84397,25054
11,84810,23667
11,85222,21519
11,85633,23085
11,86047,21923
11,86458,21822
11,86870,20773
11,87282,19292
11,87695,19876
11,88107,19759
11,88518,18806
11,88932,17857
11,89343,16735
11,89755,17823
11,90168,17078
11,90580,16044
11,90992,17469
11,91405,15667
11,91817,15565
11,92228,14744
11,92642,15394
11,93053,14770
11,93465,14162
11,93878,14758
11,94290,15057
11,94702,14244
11,95115,13301
11,95527,13840
11,95938,13727
11,96350,12291
11,96763,13689
11,97175,11638
11,97587,12406
11,98000,14460
11,98412,13354
11,98823,13811
11,99237,12848
11,99648,12649
12,00060,13181
12,00473,12526
12,00885,12703
12,01297,12851
12,01710,10805
12,02122,13145
12,02533,11568
12,02947,12170
12,03358,11644
12,03770,11421
12,04183,12610
12,04595,11981
12,05007,10251
12,05418,11027
12,05832,11406
12,06243,10395
12,06655,11343
12,07068,11649
12,07480,12328
12,07892,11571
12,08305,11216
12,08717,10432
12,09128,12517
12,09542,11658
12,09953,10714
12,10365,11975
12,10778,11952
12,11190,11436
12,11602,11813
12,12015,12104
12,12427,11367
12,12838,11429
12,13252,10379
12,13663,11361
12,14075,10712
12,14487,11065
12,14900,11799
12,15312,11145
12,15723,12240
12,16137,11408
12,16548,11021
12,16960,10338
12,17373,10522
12,17785,9292
12,18197,12020
12,18610,9845
12,19022,12158
12,19433,10870
12,19847,10338
12,20258,10429
12,20670,9537
12,21083,10171
12,21495,10238
12,21907,10060
12,22320,10824
12,22732,10649
12,23143,10703
12,23555,9735
12,23968,11532
12,24380,15222
12,24792,18543
12,25205,33659
12,25617,59662
12,26028,114105
12,26442,208491
12,26853,365019
12,27265,586176
12,27678,859908
12,28090,1153361
12,28502,1418314
12,28915,1597147
12,29327,1661427
12,29738,1600771
12,30152,1419514
12,30563,1217778
12,30975,981238
12,31388,765741
12,31800,585818
12,32212,440434
12,32623,339124
12,33037,264544
12,33448,209194
12,33860,165211
12,34273,137815
12,34685,113899
12,35097,98887
12,35510,84927
12,35922,77366
12,36333,65786
12,36747,60997
12,37158,56669
12,37570,47364
12,37983,45852
12,38395,42831
12,38807,39212
12,39220,37179
12,39632,33614
12,40043,30264
12,40457,29977
12,40868,30288
12,41280,28068
12,41692,26634
12,42105,25098
12,42517,25358
12,42928,22706
12,43342,22842
12,43753,23257
12,44165,22618
12,44578,23019
12,44990,27969
12,45402,41589
12,45815,72694
12,46227,150548
12,46638,292748
12,47052,558264
12,47463,1002336
12,47875,1644397
12,48288,2454387
12,48700,3351490
12,49112,4289602
12,49525,5019245
12,49937,5517253
12,50348,5522093
12,50760,5159274
12,51173,4487482
12,51585,3646124
12,51997,2828412
12,52410,2121779
12,52822,1573230
12,53233,1166450
12,53647,888433
12,54058,684729
12,54470,544838
12,54883,436363
12,55295,362878
12,55707,301677
12,56120,258865
12,56532,226140
12,56943,197618
12,57357,172885
12,57768,154434
12,58180,138624
12,58593,124939
12,59005,112466
12,59417,101216
12,59828,96785
12,60242,88800
12,60653,82434
12,61065,75146
12,61478,72580
12,61890,65612
12,62302,61770
12,62715,57576
12,63127,55835
12,63538,53495
12,63952,49780
12,64363,47002
12,64775,46304
12,65188,41745
12,65600,41823
12,66012,38319
12,66425,37792
12,66837,35835
12,67248,33281
12,67662,34232
12,68073,31425
12,68485,32255
12,68897,29009
12,69310,29593
12,69722,27599
12,70133,27960
12,70547,25013
12,70958,24774
12,71370,24106
12,71783,22719
12,72195,24488
12,72607,22178
12,73020,23491
12,73432,21964
12,73843,20746
12,74257,20387
12,74668,19726
12,75080,19218
12,75493,20028
12,75905,20236
12,76317,17952
12,76730,17636
12,77142,18974
12,77553,17551
12,77965,17913
12,78378,18904
12,78790,20050
12,79202,21425
12,79615,19856
12,80027,20246
12,80438,20071
12,80852,18957
12,81263,18242
12,81675,17840
12,82088,18022
12,82500,15602
12,82912,17581
12,83325,16287
12,83737,14766
12,84148,15539
12,84562,15987
12,84973,15380
12,85385,15304
12,85798,14611
12,86210,14421
12,86622,15377
12,87033,14872
12,87447,15918
12,87858,17101
12,88270,15278
12,88683,17529
12,89095,18611
12,89507,16653
12,89920,14514
12,90332,17148
12,90743,16236
12,91157,16101
12,91568,19016
12,91980,28207
12,92393,48512
12,92805,91024
12,93217,168435
12,93630,301968
12,94042,506422
12,94453,781122
12,94867,1083529
12,95278,1373409
12,95690,1609787
12,96102,1722040
12,96515,1697572
12,96927,1544603
12,97338,1338464
12,97752,1112199
12,98163,863464
12,98575,662691
12,98988,506756
12,99400,393032
12,99812,301641
13,00225,235307
13,00637,192620
13,01048,158230
13,01462,134913
13,01873,113273
13,02285,98327
13,02698,88310
13,03110,79324
13,03522,69699
13,03935,68110
13,04347,64252
13,04758,57407
13,05170,56379
13,05583,59444
13,05995,57978
13,06407,55281
13,06820,54105
13,07232,52083
13,07643,50903
13,08057,51317
13,08468,46108
13,08880,45161
13,09293,42636
13,09705,37995
13,10117,38457
13,10530,33954
13,10942,31508
13,11353,30747
13,11767,26468
13,12178,26218
13,12590,23825
13,13003,24070
13,13415,22918
13,13827,20531
13,14240,21250
13,14652,20199
13,15063,21045
13,15475,17481
13,15888,18468
13,16300,19347
13,16712,19512
13,17125,19098
13,17537,20152
13,17948,19649
13,18362,20639
13,18773,19887
13,19185,17651
13,19598,18211
13,20010,18944
13,20422,21061
13,20835,27817
13,21247,46734
13,21658,89762
13,22072,170502
13,22483,309505
13,22895,525732
13,23308,832060
13,23720,1188689
13,24132,1527245
13,24543,1830102
13,24957,1965544
13,25368,1959239
13,25780,1803418
13,26193,1538639
13,26605,1257075
13,27017,993469
13,27430,764833
13,27842,572292
13,28253,439211
13,28667,335982
13,29078,262396
13,29490,212571
13,29903,175130
13,30315,150477
13,30727,124677
13,31140,108589
13,31552,94936
13,31963,86833
13,32377,77261
13,32788,68638
13,33200,63528
13,33612,56034
13,34025,51998
13,34437,48721
13,34848,46425
13,35262,45806
13,35673,39304
13,36085,38317
13,36498,35339
13,36910,35251
13,37322,34706
13,37735,32479
13,38147,29829
13,38558,28873
13,38972,29316
13,39383,27914
13,39795,26332
13,40208,24984
13,40620,25748
13,41032,23611
13,41445,23728
13,41857,22185
13,42268,23855
13,42680,22065
13,43093,22007
13,43505,21169
13,43917,21295
13,44330,20028
13,44742,20771
13,45153,19569
13,45567,18706
13,45978,19080
13,46390,19117
13,46803,19831
13,47215,17243
13,47627,18121
13,48040,16037
13,48452,16191
13,48863,15536
13,49277,16477
13,49688,16143
13,50100,13827
13,50513,15356
13,50925,14609
13,51337,16480
13,51748,15341
13,52162,16165
13,52573,17169
13,52985,15849
13,53398,16022
13,53810,15914
13,54222,16415
13,54635,14279
13,55047,13879
13,55458,16452
13,55872,14919
13,56283,15243
13,56695,16412
13,57108,16309
13,57520,14116
13,57932,13034
13,58345,13609
13,58757,14721
13,59168,13543
13,59582,13291
13,59993,13892
13,60405,15166
13,60817,14414
13,61230,13596
13,61642,14616
13,62053,13420
13,62467,15409
13,62878,13039
13,63290,12957
13,63703,12309
13,64115,13767
13,64527,14046
13,64940,15765
13,65352,16134
13,65763,20133
13,66177,31403
13,66588,50454
13,67000,92760
13,67413,176952
13,67825,320795
13,68237,545015
13,68650,838278
13,69062,1182313
13,69473,1499522
13,69885,1753086
13,70298,1874727
13,70710,1846977
13,71122,1693238
13,71535,1462406
13,71947,1194237
13,72358,927589
13,72772,729111
13,73183,555013
13,73595,431048
13,74008,333540
13,74420,257551
13,74832,209279
13,75245,174497
13,75657,145263
13,76068,124458
13,76482,105412
13,76893,95159
13,77305,84130
13,77718,71198
13,78130,67333
13,78542,61336
13,78953,58570
13,79367,54402
13,79778,50893
13,80190,47403
13,80603,45627
13,81015,41072
13,81427,39173
13,81840,37955
13,82252,35036
13,82663,32597
13,83077,30934
13,83488,28601
13,83900,28910
13,84313,27309
13,84725,28415
13,85137,26554
13,85550,26150
13,85962,24477
13,86373,24782
13,86787,23893
13,87198,21973
13,87610,22729
13,88022,22679
13,88435,20805
13,88847,21518
13,89258,22694
13,89672,20715
13,90083,18491
13,90495,20321
13,90908,19650
13,91320,18827
13,91732,18745
13,92145,18997
13,92557,20453
13,92968,23864
13,93382,31384
13,93793,56321
13,94205,108234
13,94618,206619
13,95030,390911
13,95442,698878
13,95855,1148879
13,96267,1751157
13,96678,2457596
13,97090,3174713
13,97503,3810843
13,97915,4244057
13,98327,4334482
13,98740,4056672
13,99152,3585100
13,99563,2926631
13,99977,2285304
14,00388,1734836
14,00800,1314855
14,01213,989740
14,01625,756573
14,02037,590797
14,02450,474225
14,02862,387714
14,03273,326213
14,03687,272696
14,04098,233151
14,04510,206382
14,04923,179187
14,05335,161109
14,05747,145031
14,06158,126294
14,06572,118961
14,06983,109314
14,07395,100380
14,07808,92838
14,08220,84897
14,08632,81420
14,09045,78204
14,09457,72348
14,09868,69626
14,10282,64260
14,10693,62826
14,11105,58582
14,11518,55371
14,11930,53619
14,12342,49765
14,12755,47848
14,13167,44458
14,13578,44533
14,13992,41102
14,14403,38565
14,14815,39078
14,15227,37129
14,15640,34801
14,16052,33948
14,16463,33243
14,16877,31409
14,17288,31320
14,17700,32365
14,18113,31370
14,18525,39495
14,18937,51906
14,19350,84723
14,19762,146422
14,20173,254510
14,20587,438617
14,20998,685532
14,21410,1033725
14,21823,1391415
14,22235,1711751
14,22647,1939452
14,23060,2029612
14,23472,1945687
14,23883,1756375
14,24295,1483541
14,24708,1208043
14,25120,947099
14,25532,734787
14,25945,566277
14,26357,442915
14,26768,348715
14,27182,275126
14,27593,231217
14,28005,193014
14,28418,162842
14,28830,143307
14,29242,122787
14,29655,113602
14,30067,101570
14,30478,91535
14,30892,86802
14,31303,84463
14,31715,94531
14,32128,113593
14,32540,181622
14,32952,307053
14,33363,531966
14,33777,884091
14,34188,1405924
14,34600,2045037
14,35013,2765797
14,35425,3382059
14,35837,3864431
14,36250,4051239
14,36662,3988011
14,37073,3587650
14,37487,3033333
14,37898,2439312
14,38310,1879279
14,38723,1435350
14,39135,1089206
14,39547,838545
14,39960,652153
14,40372,521857
14,40783,429785
14,41197,356179
14,41608,304889
14,42020,263563
14,42432,229552
14,42845,197455
14,43257,177054
14,43668,160484
14,44082,145978
14,44493,132357
14,44905,120658
14,45318,110302
14,45730,104673
14,46142,99154
14,46555,90107
14,46967,84241
14,47378,81083
14,47792,79411
14,48203,74954
14,48615,70063
14,49028,66096
14,49440,62384
14,49852,58762
14,50265,57669
14,50677,54793
14,51088,53496
14,51500,50801
14,51913,46664
14,52325,45415
14,52737,44727
14,53150,44491
14,53562,40761
14,53973,40537
14,54387,39509
14,54798,38894
14,55210,36829
14,55623,37335
14,56035,36195
14,56447,36545
14,56860,34817
14,57272,33618
14,57683,33885
14,58097,31516
14,58508,33180
14,58920,32541
14,59333,35746
14,59745,44734
14,60157,62485
14,60568,100692
14,60982,181350
14,61393,319669
14,61805,540928
14,62218,824420
14,62630,1160933
14,63042,1525249
14,63455,1817700
14,63867,1995463
14,64278,2078604
14,64692,2123240
14,65103,2226429
14,65515,2438878
14,65928,2802010
14,66340,3324702
14,66752,3878754
14,67165,4366205
14,67577,4642849
14,67988,4582123
14,68402,4150044
14,68813,3549202
14,69225,2859820
14,69637,2239359
14,70050,1713943
14,70462,1310202
14,70873,1009842
14,71287,788284
14,71698,634476
14,72110,523616
14,72523,437499
14,72935,369958
14,73347,324900
14,73760,285532
14,74172,255641
14,74583,224678
14,74997,204856
14,75408,182657
14,75820,170872
14,76233,157253
14,76645,145228
14,77057,137704
14,77470,126405
14,77882,121275
14,78293,113411
14,78707,107788
14,79118,100857
14,79530,97506
14,79942,93338
14,80355,89632
14,80767,85444
14,81178,79068
14,81592,79220
14,82003,72448
14,82415,70355
14,82828,64159
14,83240,64517
14,83652,63840
14,84065,59336
14,84477,58394
14,84888,55218
14,85302,55484
14,85713,53293
14,86125,52768
14,86538,49728
14,86950,49601
14,87362,46888
14,87775,44503
14,88187,44325
14,88598,43348
14,89010,44536
14,89423,50770
14,89835,63073
14,90247,92135
14,90660,153354
14,91072,258267
14,91483,440140
14,91897,685596
14,92308,994478
14,92720,1315977
14,93133,1583320
14,93545,1750361
14,93957,1785407
14,94370,1697644
14,94782,1497275
14,95193,1275843
14,95607,1026717
14,96018,800567
14,96430,616249
14,96843,484724
14,97255,380269
14,97667,309550
14,98078,250597
14,98492,208149
14,98903,175443
14,99315,151996
14,99728,131835
15,00140,118880
15,00552,107081
15,00965,95365
15,01377,92358
15,01788,83531
15,02202,79849
15,02613,73225
15,03025,71303
15,03438,69234
15,03850,63884
15,04262,61642
15,04675,60817
15,05087,57423
15,05498,54397
15,05912,50036
15,06323,50297
15,06735,48145
15,07147,43352
15,07560,45522
15,07972,43586
15,08383,39023
15,08797,39311
15,09208,40657
15,09620,39375
15,10033,36178
15,10445,36209
15,10857,37218
15,11270,35037
15,11682,33542
15,12093,33668
15,12507,33496
15,12918,33131
15,13330,35079
15,13743,31722
15,14155,30324
15,14567,31635
15,14980,32218
15,15392,32050
15,15803,29968
15,16215,29704
15,16628,30120
15,17040,28328
15,17452,28638
15,17865,27673
15,18277,27969
15,18688,27056
15,19102,25819
15,19513,25262
15,19925,26679
15,20338,24476
15,20750,26395
15,21162,24435
15,21575,25682
15,21987,26547
15,22398,23885
15,22812,25000
15,23223,24592
15,23635,24364
15,24048,24730
15,24460,25656
15,24872,23844
15,25283,22304
15,25697,22937
15,26108,24723
15,26520,24570
15,26933,24773
15,27345,22988
15,27757,23136
15,28170,23276
15,28582,24741
15,28993,23491
15,29407,23948
15,29818,28129
15,30230,42312
15,30643,76606
15,31055,147904
15,31467,299139
15,31880,585262
15,32292,1086517
15,32703,1781554
15,33117,2702727
15,33528,3788088
15,33940,4825894
15,34352,5731627
15,34765,6280857
15,35177,6337063
15,35588,5921016
15,36002,5150907
15,36413,4215016
15,36825,3295721
15,37238,2531000
15,37650,1917505
15,38062,1489221
15,38475,1157969
15,38887,924245
15,39298,754606
15,39712,627341
15,40123,531916
15,40535,459639
15,40948,398510
15,41360,349053
15,41772,305982
15,42185,275456
15,42597,251318
15,43008,229417
15,43420,211942
15,43833,192103
15,44245,181448
15,44657,171217
15,45070,155142
15,45482,146777
15,45893,134406
15,46307,125579
15,46718,120526
15,47130,114550
15,47543,105065
15,47955,103441
15,48367,96861
15,48780,91963
15,49192,91084
15,49603,84815
15,50017,82122
15,50428,78584
15,50840,73538
15,51253,74393
15,51665,71394
15,52077,71254
15,52488,70398
15,52902,70022
15,53313,73774
15,53725,76851
15,54138,78107
15,54550,82223
15,54962,80665
15,55375,86057
15,55787,94779
15,56198,112194
15,56612,159454
15,57023,242072
15,57435,378198
15,57848,581177
15,58260,832602
15,58672,1112307
15,59085,1363922
15,59497,1531235
15,59908,1587938
15,60322,1519957
15,60733,1384354
15,61145,1190142
15,61557,980260
15,61970,777850
15,62382,609492
15,62793,484360
15,63207,379621
15,63618,304800
15,64030,248434
15,64443,208240
15,64855,183726
15,65267,159917
15,65680,141463
15,66092,133173
15,66503,137701
15,66917,169422
15,67328,235577
15,67740,364736
15,68153,568953
15,68565,865167
15,68977,1224116
15,69390,1624363
15,69802,1961319
15,70213,2185081
15,70625,2243600
15,71038,2125132
15,71450,1899593
15,71862,1603566
15,72275,1305624
15,72687,1046032
15,73098,821248
15,73512,651979
15,73923,522199
15,74335,424936
15,74748,359058
15,75160,301658
15,75572,258258
15,75985,227889
15,76397,200536
15,76808,182789
15,77222,166628
15,77633,151204
15,78045,139621
15,78458,129045
15,78870,120581
15,79282,114692
15,79693,106122
15,80107,99924
15,80518,92312
15,80930,90977
15,81343,82513
15,81755,79022
15,82167,75011
15,82580,72766
15,82992,71272
15,83403,65847
15,83817,66071
15,84228,63804
15,84640,58658
15,85053,60377
15,85465,59297
15,85877,55710
15,86290,56940
15,86702,57086
15,87113,52964
15,87527,52616
15,87938,51752
15,88350,48958
15,88762,50284
15,89175,46717
15,89587,48322
15,89998,44678
15,90412,45745
15,90823,44899
15,91235,45345
15,91648,44100
15,92060,43499
15,92472,44216
15,92885,43730
15,93297,42103
15,93708,41849
15,94122,41956
15,94533,47173
15,94945,57595
15,95358,90081
15,95770,152910
15,96182,269070
15,96595,474364
15,97007,784130
15,97418,1176964
15,97830,1621957
15,98243,2046729
15,98655,2360075
15,99067,2493867
15,99480,2415656
15,99892,2158126
16,00303,1813540
16,00717,1468333
16,01128,1148865
16,01540,903540
16,01953,717555
16,02365,574736
16,02777,468019
16,03190,403312
16,03602,337947
16,04013,292316
16,04427,250423
16,04838,226971
16,05250,204167
16,05663,181323
16,06075,168124
16,06487,154585
16,06898,144708
16,07312,135701
16,07723,126950
16,08135,121451
16,08548,110750
16,08960,106818
16,09372,102788
16,09785,100314
16,10197,93252
16,10608,91161
16,11022,86737
16,11433,86115
16,11845,83177
16,12258,79931
16,12670,76366
16,13082,73479
16,13495,69190
16,13907,68088
16,14318,64779
16,14732,63355
16,15143,65281
16,15555,61856
16,15967,58400
16,16380,60026
16,16792,58173
16,17203,59081
16,17617,55029
16,18028,54328
16,18440,53511
16,18853,51333
16,19265,50048
16,19677,49791
16,20090,48997
16,20502,52207
16,20913,59429
16,21327,76820
16,21738,116485
16,22150,186800
16,22563,315567
16,22975,517637
16,23387,817608
16,23800,1140792
16,24212,1516011
16,24623,1774461
16,25035,1934521
16,25448,1940819
16,25860,1823714
16,26272,1613740
16,26685,1335736
16,27097,1071924
16,27508,859947
16,27922,682498
16,28333,545601
16,28745,434813
16,29158,359039
16,29570,300155
16,29982,258173
16,30395,223769
16,30807,194897
16,31218,177369
16,31632,154752
16,32043,144634
16,32455,132852
16,32868,127196
16,33280,113594
16,33692,109948
16,34103,100266
16,34517,93845
16,34928,93165
16,35340,86583
16,35753,82576
16,36165,79145
16,36577,76006
16,36990,73068
16,37402,75516
16,37813,69605
16,38227,67230
16,38638,65620
16,39050,66456
16,39463,62528
16,39875,61926
16,40287,58219
16,40700,57558
16,41112,56270
16,41523,56962
16,41937,55773
16,42348,53679
16,42760,53703
16,43173,52194
16,43585,51626
16,43997,50106
16,44408,52366
16,44822,51372
16,45233,48989
16,45645,48605
16,46058,49501
16,46470,45720
16,46882,48603
16,47295,45962
16,47707,44413
16,48118,45891
16,48532,45303
16,48943,45952
16,49355,44166
16,49768,43998
16,50180,46051
16,50592,42782
16,51005,41386
16,51417,41967
16,51828,44950
16,52242,43259
16,52653,44390
16,53065,43850
16,53477,40222
16,53890,42922
16,54302,41452
16,54713,40906
16,55127,42752
16,55538,39333
16,55950,41710
16,56363,44075
16,56775,49275
16,57187,59801
16,57600,80926
16,58012,133950
16,58423,233102
16,58837,414655
16,59248,719180
16,59660,1174890
16,60073,1803390
16,60485,2584199
16,60897,3518372
16,61310,4434803
16,61722,5282338
16,62133,5866378
16,62545,6072207
16,62958,5884949
16,63370,5376640
16,63782,4724797
16,64195,4038107
16,64607,3367174
16,65018,2747785
16,65432,2244875
16,65843,1810897
16,66255,1457848
16,66668,1190905
16,67080,981802
16,67492,821643
16,67905,700482
16,68317,605867
16,68728,528841
16,69142,479248
16,69553,421154
16,69965,385313
16,70378,350632
16,70790,321442
16,71202,293013
16,71613,276280
16,72027,257688
16,72438,234903
16,72850,228649
16,73263,208696
16,73675,200696
16,74087,187676
16,74500,180088
16,74912,169749
16,75323,167774
16,75737,163807
16,76148,148583
16,76560,147740
16,76973,137625
16,77385,132301
16,77797,130172
16,78210,125872
16,78622,122003
16,79033,119746
16,79447,113875
16,79858,112969
16,80270,112083
16,80682,108834
16,81095,106391
16,81507,106277
16,81918,104338
16,82332,106129
16,82743,112621
16,83155,118177
16,83568,143303
16,83980,188119
16,84392,286539
16,84805,429926
16,85217,647804
16,85628,923013
16,86042,1244672
16,86453,1516428
16,86865,1712356
16,87278,1782424
16,87690,1739160
16,88102,1595364
16,88515,1393359
16,88927,1187301
16,89338,1020722
16,89750,890524
16,90163,850020
16,90575,882807
16,90987,1010209
16,91400,1202894
16,91812,1445347
16,92223,1689685
16,92637,1907510
16,93048,2100898
16,93460,2247736
16,93873,2367782
16,94285,2506749
16,94697,2660117
16,95110,2800803
16,95522,2870823
16,95933,2815305
16,96347,2623989
16,96758,2357966
16,97170,2029991
16,97583,1703218
16,97995,1394132
16,98407,1140717
16,98818,960805
16,99232,787418
16,99643,671570
17,00055,574654
17,00468,507333
17,00880,449804
17,01292,405195
17,01705,361334
17,02117,333420
17,02528,305626
17,02942,285183
17,03353,263276
17,03765,242057
17,04178,225705
17,04590,217310
17,05002,205883
17,05415,192816
17,05827,182032
17,06238,175294
17,06652,165833
17,07063,158881
17,07475,151279
17,07887,144151
17,08300,141716
17,08712,132635
17,09123,129687
17,09537,120670
17,09948,120051
17,10360,118527
17,10773,114848
17,11185,108868
17,11597,110277
17,12010,103137
17,12422,101752
17,12833,98693
17,13247,97325
17,13658,95134
17,14070,92970
17,14483,88547
17,14895,90458
17,15307,87064
17,15720,84133
17,16132,81671
17,16543,84417
17,16955,84555
17,17368,82850
17,17780,92158
17,18192,104278
17,18605,130538
17,19017,172182
17,19428,271386
17,19842,421337
17,20253,654181
17,20665,966953
17,21078,1350261
17,21490,1745406
17,21902,2083726
17,22315,2303144
17,22727,2349611
17,23138,2225253
17,23552,1974730
17,23963,1703460
17,24375,1418801
17,24788,1164788
17,25200,959477
17,25612,795680
17,26023,664496
17,26437,574679
17,26848,497877
17,27260,439122
17,27673,387499
17,28085,346814
17,28497,320105
17,28910,293986
17,29322,268286
17,29733,254289
17,30147,234807
17,30558,225033
17,30970,205685
17,31383,201803
17,31795,191328
17,32207,181663
17,32620,177221
17,33032,166353
17,33443,159495
17,33857,161213
17,34268,148899
17,34680,145624
17,35092,139650
17,35505,134725
17,35917,131080
17,36328,125162
17,36742,118058
17,37153,116551
17,37565,111506
17,37978,108511
17,38390,105369
17,38802,102689
17,39215,104502
17,39627,99932
17,40038,96640
17,40452,97471
17,40863,93307
17,41275,93639
17,41688,91406
17,42100,90145
17,42512,89085
17,42925,84799
17,43337,88084
17,43748,85771
17,44160,80263
17,44573,83608
17,44985,84160
17,45397,88372
17,45810,100950
17,46222,135157
17,46633,189618
17,47047,291216
17,47458,447928
17,47870,673351
17,48283,971218
17,48695,1281535
17,49107,1583440
17,49520,1794191
17,49932,1915324
17,50343,1875771
17,50757,1752456
17,51168,1538768
17,51580,1332039
17,51993,1127490
17,52405,930720
17,52817,769096
17,53228,643185
17,53642,551713
17,54053,475366
17,54465,410992
17,54878,367832
17,55290,339257
17,55702,327922
17,56115,345191
17,56527,389851
17,56938,474536
17,57352,602259
17,57763,775690
17,58175,967510
17,58588,1176635
17,59000,1322639
17,59412,1430997
17,59825,1454908
17,60237,1398332
17,60648,1281819
17,61062,1134913
17,61473,981992
17,61885,836398
17,62297,692879
17,62710,575732
17,63122,486004
17,63533,413653
17,63947,367357
17,64358,319060
17,64770,282144
17,65183,254592
17,65595,231812
17,66007,207603
17,66420,192732
17,66832,181494
17,67243,164817
17,67657,157734
17,68068,151192
17,68480,141456
17,68893,140043
17,69305,132546
17,69717,126139
17,70130,121726
17,70542,119473
17,70953,112914
17,71365,110003
17,71778,105046
17,72190,104127
17,72602,99347
17,73015,96883
17,73427,96489
17,73838,94784
17,74252,92719
17,74663,91204
17,75075,88525
17,75488,86930
17,75900,85681
17,76312,87718
17,76725,82943
17,77137,78264
17,77548,80261
17,77962,79534
17,78373,77482
17,78785,76811
17,79198,81783
17,79610,78767
17,80022,79717
17,80433,85724
17,80847,96937
17,81258,121058
17,81670,173659
17,82083,256621
17,82495,396671
17,82907,610020
17,83320,921021
17,83732,1345051
17,84143,1836803
17,84557,2454311
17,84968,3026474
17,85380,3572071
17,85793,3982291
17,86205,4163978
17,86617,4069374
17,87030,3744578
17,87442,3287927
17,87853,2766888
17,88267,2289201
17,88678,1894020
17,89090,1566207
17,89502,1314621
17,89915,1119876
17,90327,965610
17,90738,844678
17,91152,751369
17,91563,663841
17,91975,603808
17,92388,550668
17,92800,493007
17,93212,459434
17,93625,424875
17,94037,401529
17,94448,376291
17,94862,347897
17,95273,324668
17,95685,303715
17,96098,286926
17,96510,272907
17,96922,266416
17,97335,251977
17,97747,239636
17,98158,227071
17,98570,217477
17,98983,207304
17,99395,200768
17,99807,191732
18,00220,187254
18,00632,183532
18,01043,173018
18,01457,169805
18,01868,162179
18,02280,155326
18,02693,155881
18,03105,153253
18,03517,148315
18,03930,141335
18,04342,139879
18,04753,133747
18,05167,133556
18,05578,129756
18,05990,128933
18,06403,126424
18,06815,123020
18,07227,120437
18,07640,115278
18,08052,116565
18,08463,111018
18,08875,107137
18,09288,107980
18,09700,109636
18,10112,105615
18,10525,107051
18,10937,103737
18,11348,101315
18,11762,101973
18,12173,102262
18,12585,98164
18,12998,96415
18,13410,98607
18,13822,96289
18,14235,94071
18,14647,93713
18,15058,92985
18,15472,95043
18,15883,92989
18,16295,90357
18,16708,93698
18,17120,102708
18,17532,111420
18,17943,137614
18,18357,176515
18,18768,250617
18,19180,357215
18,19593,511512
18,20005,724700
18,20417,976748
18,20830,1250657
18,21242,1521490
18,21653,1730018
18,22067,1863984
18,22478,1888985
18,22890,1801271
18,23303,1679631
18,23715,1484056
18,24127,1314126
18,24540,1125277
18,24952,964047
18,25363,821095
18,25777,716441
18,26188,626691
18,26600,554920
18,27012,491695
18,27425,444224
18,27837,403636
18,28248,368509
18,28662,341331
18,29073,314668
18,29485,295926
18,29898,272575
18,30310,262485
18,30722,241144
18,31135,236715
18,31547,222044
18,31958,211590
18,32372,196890
18,32783,191032
18,33195,182875
18,33608,179940
18,34020,171029
18,34432,161777
18,34845,158245
18,35257,150453
18,35668,146034
18,36080,144044
18,36493,142261
18,36905,137587
18,37317,130824
18,37730,129666
18,38142,127155
18,38553,121643
18,38967,117566
18,39378,118292
18,39790,115492
18,40203,113501
18,40615,108139
18,41027,107205
18,41440,106535
18,41852,103061
18,42263,102468
18,42677,99493
18,43088,97274
18,43500,97760
18,43913,96741
18,44325,94916
18,44737,94915
18,45148,92044
18,45562,91544
18,45973,88991
18,46385,88943
18,46798,88805
18,47210,89608
18,47622,86106
18,48035,83913
18,48447,84201
18,48858,85963
18,49272,82464
18,49683,80588
18,50095,83025
18,50508,82805
18,50920,80609
18,51332,82115
18,51745,80578
18,52157,76715
18,52568,78326
18,52982,76962
18,53393,75791
18,53805,78261
18,54217,78067
18,54630,75671
18,55042,77589
18,55453,77718
18,55867,76867
18,56278,76120
18,56690,74173
18,57103,71988
18,57515,73171
18,57927,72760
18,58340,70648
18,58752,67749
18,59163,70232
18,59577,70956
18,59988,69111
18,60400,69687
18,60813,68776
18,61225,64705
18,61637,64047
18,62050,65918
18,62462,64271
18,62873,65989
18,63285,67196
18,63698,66277
18,64110,65008
18,64522,67174
18,64935,70669
18,65347,75695
18,65758,82403
18,66172,91335
18,66583,99582
18,66995,109678
18,67408,117441
18,67820,128930
18,68232,133457
18,68645,139660
18,69057,138964
18,69468,134769
18,69882,132044
18,70293,126246
18,70705,119349
18,71118,111483
18,71530,100665
18,71942,97765
18,72353,91337
18,72767,82719
18,73178,79983
18,73590,75259
18,74003,74580
18,74415,70122
18,74827,71551
18,75240,67924
18,75652,68609
18,76063,66353
18,76477,65124
18,76888,63648
18,77300,60221
18,77713,63624
18,78125,65545
18,78537,63166
18,78950,61755
18,79362,60309
18,79773,59633
18,80187,61034
18,80598,60911
18,81010,57941
18,81422,57886
18,81835,59071
18,82247,61558
18,82658,59858
18,83072,56555
18,83483,59333
18,83895,59145
18,84308,58124
18,84720,57334
18,85132,58744
18,85545,56681
18,85957,56046
18,86368,58497
18,86782,56296
18,87193,59575
18,87605,56067
18,88018,56956
18,88430,57499
18,88842,58239
18,89255,56811
18,89667,54986
18,90078,58272
18,90490,57697
18,90903,55584
18,91315,56234
18,91727,57126
18,92140,57655
18,92552,55985
18,92963,57335
18,93377,57384
18,93788,55623
18,94200,54916
18,94613,55023
18,95025,51672
18,95437,54765
18,95850,54501
18,96262,52548
18,96673,55732
18,97087,55223
18,97498,52001
18,97910,50753
18,98323,52715
18,98735,55568
18,99147,54337
18,99558,51897
18,99972,52458
19,00383,55982
19,00795,54004
19,01208,55595
19,01620,54672
19,02032,52988
19,02445,50818
19,02857,53103
19,03268,52977
19,03682,51663
19,04093,56255
19,04505,51407
19,04918,51743
19,05330,53524
19,05742,53010
19,06155,53614
19,06567,53229
19,06978,51044
19,07392,54992
19,07803,51256
19,08215,55359
19,08627,53070
19,09040,52945
19,09452,54498
19,09863,52631
19,10277,54543
19,10688,53868
19,11100,52681
19,11513,55288
19,11925,53786
19,12337,52939
19,12750,52382
19,13162,52521
19,13573,53286
19,13987,53724
19,14398,53340
19,14810,50994
19,15223,50621
19,15635,49399
19,16047,53145
19,16460,50383
19,16872,49856
19,17283,49258
19,17695,52039
19,18108,50742
19,18520,50382
19,18932,49434
19,19345,50137
19,19757,51479
19,20168,48870
19,20582,51244
19,20993,51179
19,21405,51960
19,21818,53007
19,22230,52316
19,22642,49868
19,23055,51003
19,23467,53737
19,23878,53615
19,24292,53238
19,24703,52197
19,25115,50555
19,25528,50453
19,25940,51694
19,26352,52179
19,26763,53927
19,27177,55560
19,27588,58409
19,28000,69586
19,28413,82572
19,28825,108217
19,29237,136632
19,29650,191929
19,30062,274800
19,30473,360325
19,30887,468395
19,31298,599772
19,31710,712556
19,32123,814736
19,32535,884015
19,32947,927280
19,33360,925482
19,33772,902919
19,34183,859124
19,34597,789697
19,35008,709409
19,35420,632133
19,35832,554874
19,36245,495495
19,36657,441088
19,37068,390184
19,37482,344126
19,37893,312566
19,38305,274917
19,38718,252830
19,39130,228533
19,39542,210261
19,39955,196899
19,40367,182367
19,40778,168165
19,41192,159846
19,41603,151166
19,42015,144359
19,42428,136302
19,42840,130229
19,43252,123972
19,43665,117765
19,44077,116339
19,44488,112292
19,44900,106896
19,45313,102512
19,45725,102989
19,46137,99280
19,46550,96952
19,46962,96121
19,47373,95562
19,47787,90519
19,48198,87301
19,48610,88767
19,49023,86872
19,49435,83625
19,49847,82894
19,50260,81243
19,50672,80040
19,51083,80584
19,51497,77808
19,51908,75658
19,52320,73996
19,52733,73270
19,53145,71928
19,53557,70431
19,53968,73208
19,54382,72247
19,54793,69475
19,55205,72387
19,55618,68283
19,56030,70600
19,56442,71487
19,56855,72408
19,57267,65509
19,57678,68496
19,58092,68163
19,58503,65091
19,58915,66785
19,59328,62298
19,59740,65221
19,60152,64542
19,60565,63747
19,60977,61621
19,61388,63463
19,61802,60791
19,62213,59381
19,62625,60483
19,63037,60471
19,63450,62628
19,63862,58673
19,64273,60450
19,64687,58279
19,65098,59758
19,65510,59755
19,65923,57350
19,66335,57092
19,66747,59808
19,67160,56582
19,67572,56876
19,67983,57248
19,68397,57362
19,68808,57702
19,69220,57949
19,69633,56251
19,70045,54996
19,70457,57133
19,70870,55795
19,71282,56246
19,71693,56312
19,72107,57921
19,72518,56833
19,72930,55989
19,73342,58158
19,73755,57732
19,74167,54851
19,74578,55694
19,74992,53485
19,75403,53079
19,75815,52780
19,76228,54979
19,76640,57092
19,77052,54346
19,77465,55531
19,77877,57600
19,78288,54569
19,78702,55416
19,79113,55480
19,79525,52479
19,79938,53851
19,80350,52563
19,80762,54862
19,81175,52569
19,81587,53347
19,81998,54808
19,82410,55093
19,82823,51649
19,83235,54636
19,83647,54791
19,84060,53529
19,84472,54224
19,84883,52682
19,85297,54316
19,85708,53862
19,86120,53431
19,86533,52656
19,86945,53831
19,87357,54765
19,87770,49741
19,88182,49620
19,88593,52929
19,89007,52040
19,89418,50842
19,89830,51696
19,90243,50179
19,90655,48741
19,91067,54291
19,91478,50791
19,91892,49934
19,92303,51320
19,92715,50021
19,93128,52103
19,93540,50868
19,93952,51399
19,94365,52286
19,94777,52501
19,95188,51557
19,95602,52617
19,96013,54521
19,96425,52262
19,96838,53225
19,97250,51986
19,97662,52985
19,98075,54741
19,98487,52096
19,98898,53641
19,99312,54374
19,99723,52450
20,00135,54286
20,00547,51955
20,00960,52899
20,01372,52516
20,01783,53067
20,02197,48813
20,02608,52304
20,03020,53541
20,03433,50168
20,03845,51709
20,04257,53045
20,04670,51273
20,05082,52264
20,05493,49241
20,05907,50510
20,06318,50099
20,06730,50596
20,07143,50765
20,07555,51336
20,07967,49234
20,08380,53044
20,08792,50262
20,09203,48512
20,09615,51839
20,10028,49407
20,10440,50986
20,10852,52154
20,11265,52560
20,11677,50114
20,12088,51599
20,12502,49248
20,12913,50229
20,13325,49508
20,13738,50464
20,14150,50104
20,14562,49428
20,14975,51929
20,15387,51768
20,15798,51420
20,16212,51168
20,16623,50607
20,17035,51398
20,17448,51678
20,17860,49480
20,18272,49158
20,18683,50108
20,19097,52648
20,19508,50081
20,19920,48806
20,20333,50770
20,20745,50930
20,21157,51654
20,21570,49324
20,21982,50262
20,22393,49619
20,22807,49557
20,23218,49126
20,23630,50538
20,24043,49577
20,24455,49364
20,24867,48315
20,25280,50919
20,25692,50912
20,26103,47508
20,26517,50863
20,26928,49583
20,27340,49995
20,27752,48617
20,28165,48694
20,28577,49903
20,28988,52426
20,29402,49163
20,29813,52089
20,30225,50769
20,30638,52201
20,31050,49335
20,31462,49247
20,31875,49061
20,32287,51874
20,32698,50150
20,33112,49834
20,33523,47707
20,33935,51758
20,34348,50830
20,34760,54041
20,35172,53725
20,35585,50879
20,35997,51440
20,36408,49092
20,36820,51496
20,37233,51336
20,37645,53920
20,38057,48927
20,38470,51406
20,38882,50557
20,39293,50784
20,39707,50201
20,40118,53302
20,40530,51422
20,40943,49633
20,41355,50756
20,41767,52427
20,42180,51439
20,42592,51844
20,43003,52665
20,43417,51281
20,43828,48109
20,44240,51876
20,44653,50390
20,45065,51152
20,45477,48429
20,45888,52556
20,46302,51389
20,46713,50831
20,47125,49682
20,47538,48596
20,47950,51072
20,48362,49911
20,48775,48484
20,49187,49176
20,49598,47214
20,50012,48679
20,50423,50504
20,50835,47768
20,51248,49766
20,51660,50204
20,52072,48819
20,52485,45760
20,52897,47574
20,53308,45483
20,53722,47395
20,54133,46508
20,54545,48481
20,54957,49276
20,55370,45849
20,55782,48437
20,56193,48989
20,56607,49075
20,57018,46792
20,57430,46863
20,57843,47728
20,58255,48997
20,58667,48050
20,59080,50261
20,59492,50689
20,59903,47298
20,60317,49957
20,60728,49193
20,61140,48203
20,61553,45773
20,61965,54100
20,62377,46370
20,62790,46767
20,63202,49528
20,63613,47370
20,64025,47604
20,64438,43562
20,64850,44064
20,65262,46553
20,65675,48235
20,66087,48480
20,66498,44844
20,66912,46382
20,67323,46292
20,67735,46377
20,68148,46453
20,68560,45180
20,68972,47334
20,69385,46764
20,69797,47343
20,70208,47904
20,70622,43857
20,71033,44855
20,71445,47610
20,71858,46890
20,72270,46430
20,72682,47876
20,73093,47938
20,73507,46168
20,73918,49285
20,74330,47381
20,74743,49252
20,75155,49768
20,75567,50337
20,75980,49287
20,76392,50798
20,76803,50705
20,77217,50265
20,77628,48687
20,78040,50666
20,78453,48139
20,78865,50123
20,79277,52006
20,79690,48640
20,80102,49318
20,80513,49961
20,80927,49487
20,81338,49929
20,81750,48686
20,82162,49655
20,82575,49412
20,82987,48930
20,83398,49403
20,83812,50200
20,84223,50176
20,84635,47422
20,85048,49920
20,85460,48193
20,85872,50852
20,86285,49064
20,86697,48587
20,87108,47728
20,87522,46321
20,87933,49163
20,88345,47979
20,88758,49595
20,89170,47630
20,89582,50765
20,89995,46056
20,90407,46954
20,90818,46817
20,91230,48854
20,91643,47437
20,92055,48058
20,92467,46620
20,92880,48475
20,93292,45359
20,93703,45862
20,94117,48116
20,94528,47331
20,94940,48666
20,95353,46322
20,95765,45760
20,96177,47727
20,96590,45477
20,97002,45802
20,97413,45574
20,97827,48379
20,98238,45627
20,98650,44149
20,99063,44998
20,99475,48651
20,99887,45174
21,00298,48528
21,00712,47798
21,01123,45732
21,01535,47906
21,01948,47064
21,02360,43100
21,02772,44783
21,03185,45146
21,03597,48061
21,04008,47453
21,04422,45670
21,04833,48517
21,05245,47921
21,05658,49075
21,06070,46008
21,06482,45473
21,06895,48965
21,07307,47341
21,07718,45016
21,08132,45567
21,08543,46337
21,08955,46194
21,09367,44502
21,09780,47491
21,10192,47427
21,10603,44804
21,11017,49179
21,11428,45668
21,11840,48471
21,12253,47211
21,12665,48024
21,13077,48193
21,13490,46667
21,13902,49708
21,14313,45028
21,14727,43917
21,15138,47119
21,15550,45330
21,15963,41999
21,16375,44217
21,16787,45824
21,17200,43206
21,17612,46241
21,18023,46033
21,18435,46095
21,18848,43930
21,19260,44822
21,19672,44825
21,20085,46813
21,20497,48402
21,20908,46837
21,21322,46625
21,21733,47030
21,22145,46689
21,22558,47671
21,22970,47186
21,23382,46316
21,23795,45987
21,24207,48312
21,24618,45129
21,25032,46913
21,25443,47006
21,25855,46616
21,26268,48807
21,26680,47265
21,27092,48553
21,27503,49381
21,27917,47227
21,28328,46106
21,28740,50171
21,29153,46983
21,29565,44270
21,29977,46833
21,30390,45826
21,30802,45655
21,31213,46815
21,31627,45281
21,32038,44440
21,32450,45739
21,32863,45523
21,33275,46808
21,33687,45574
21,34100,47318
21,34512,47836
21,34923,47806
21,35337,46598
21,35748,45606
21,36160,45874
21,36573,46608
21,36985,48478
21,37397,48372
21,37808,47278
21,38222,49681
21,38633,48803
21,39045,49386
21,39458,46383
21,39870,50757
21,40282,47612
21,40695,50884
21,41107,49797
21,41518,48904
21,41932,50835
21,42343,50235
21,42755,49087
21,43168,49040
21,43580,47058
21,43992,49835
21,44405,48786
21,44817,48768
21,45228,47682
21,45642,46672
21,46053,48326
21,46465,47656
21,46877,47141
21,47290,49505
21,47702,47935
21,48113,48049
21,48527,46010
21,48938,47367
21,49350,47565
21,49763,47817
21,50175,46000
21,50587,47915
21,51000,45401
21,51412,46524
21,51823,47833
21,52237,48493
21,52648,47313
21,53060,47277
21,53473,44012
21,53885,47323
21,54297,45230
21,54710,45686
21,55122,43739
21,55533,44781
21,55945,45973
21,56358,45036
21,56770,46681
21,57182,47544
21,57595,46179
21,58007,46280
21,58418,49252
21,58832,45497
21,59243,46605
21,59655,48530
21,60068,44419
21,60480,45224
21,60892,45384
21,61305,46166
21,61717,45777
21,62128,44463
21,62542,45105
21,62953,46660
21,63365,46123
21,63778,46298
21,64190,45755
21,64602,46280
21,65013,46044
21,65427,47168
21,65838,46666
21,66250,44975
21,66663,44781
21,67075,46041
21,67487,48419
21,67900,47117
21,68312,46999
21,68723,45545
21,69137,45616
21,69548,44034
21,69960,44977
21,70373,44374
21,70785,45267
21,71197,46762
21,71610,46188
21,72022,45369
21,72433,45891
21,72847,42619
21,73258,48516
21,73670,45004
21,74082,46380
21,74495,44205
21,74907,44508
21,75318,43748
21,75732,44539
21,76143,49188
21,76555,46322
21,76968,45940
21,77380,44294
21,77792,48586
21,78205,45474
21,78617,46108
21,79028,47878
21,79442,47702
21,79853,49706
21,80265,46627
21,80678,49241
21,81090,46575
21,81502,49324
21,81915,51148
21,82327,48701
21,82738,48072
21,83150,51417
21,83563,50235
21,83975,48965
21,84387,50297
21,84800,48760
21,85212,48999
21,85623,48559
21,86037,49101
21,86448,47988
21,86860,47089
21,87273,46478
21,87685,46530
21,88097,47695
21,88510,43665
21,88922,45758
21,89333,46931
21,89747,45977
21,90158,44799
21,90570,44142
21,90983,46634
21,91395,46789
21,91807,46018
21,92218,44388
21,92632,43554
21,93043,44293
21,93455,44968
21,93868,47319
21,94280,45459
21,94692,47087
21,95105,45758
21,95517,43826
21,95928,45362
21,96342,45703
21,96753,45467
21,97165,47700
21,97578,46620
21,97990,46999
21,98402,45875
21,98815,44670
21,99227,44809
21,99638,44835
22,00052,42483
22,00463,43525
22,00875,45969
22,01287,45352
22,01700,44401
22,02112,45195
22,02523,47629
22,02937,44906
22,03348,43312
22,03760,48232
22,04173,46222
22,04585,46799
22,04997,45249
22,05410,45365
22,05822,43090
22,06233,44247
22,06647,45805
22,07058,46766
22,07470,46168
22,07883,46748
22,08295,46108
22,08707,43368
22,09120,47253
22,09532,44066
22,09943,45498
22,10355,45672
22,10768,47048
22,11180,45091
22,11592,44611
22,12005,43362
22,12417,43181
22,12828,45258
22,13242,43573
22,13653,43889
22,14065,46844
22,14478,44292
22,14890,44332
22,15302,45146
22,15715,46653
22,16127,45386
22,16538,46586
22,16952,45746
22,17363,44273
22,17775,44331
22,18188,45646
22,18600,48110
22,19012,48031
22,19423,43793
22,19837,46153
22,20248,46998
22,20660,45855
22,21073,45541
22,21485,46882
22,21897,44813
22,22310,45399
22,22722,44949
22,23133,44902
22,23547,44801
22,23958,43153
22,24370,46176
22,24783,45872
22,25195,46625
22,25607,47290
22,26020,46479
22,26432,48797
22,26843,43329
22,27257,43872
22,27668,42987
22,28080,47199
22,28492,46672
22,28905,45591
22,29317,44991
22,29728,44282
22,30142,46846
22,30553,45877
22,30965,45049
22,31378,46843
22,31790,46380
22,32202,43633
22,32615,46355
22,33027,44556
22,33438,46988
22,33852,45229
22,34263,41530
22,34675,43631
22,35088,44079
22,35500,44064
22,35912,43668
22,36325,41719
22,36737,45170
22,37148,45464
22,37560,44321
22,37973,45358
22,38385,45077
22,38797,42639
22,39210,43554
22,39622,43876
22,40033,44363
22,40447,44134
22,40858,43809
22,41270,45812
22,41683,44163
22,42095,43784
22,42507,44293
22,42920,46439
22,43332,42436
22,43743,46325
22,44157,45714
22,44568,45067
22,44980,44381
22,45393,41466
22,45805,46179
22,46217,43521
22,46628,45562
22,47042,44882
22,47453,45682
22,47865,45129
22,48278,44787
22,48690,45416
22,49102,42990
22,49515,47343
22,49927,46474
22,50338,44925
22,50752,42525
22,51163,43096
22,51575,46175
22,51988,45120
22,52400,45919
22,52812,44695
22,53225,43745
22,53637,45766
22,54048,45918
22,54462,43581
22,54873,42070
22,55285,43721
22,55697,44155
22,56110,46843
22,56522,44006
22,56933,43931
22,57347,46901
22,57758,43424
22,58170,43870
22,58583,47132
22,58995,43012
22,59407,46900
22,59820,44356
22,60232,43502
22,60643,43085
22,61057,43980
22,61468,45299
22,61880,44706
22,62293,46319
22,62705,44645
22,63117,43436
22,63530,47606
22,63942,44135
22,64353,44231
22,64765,46246
22,65178,46936
22,65590,45475
22,66002,44117
22,66415,43897
22,66827,44194
22,67238,45003
22,67652,46264
22,68063,45610
22,68475,43715
22,68888,44828
22,69300,45173
22,69712,43696
22,70125,43927
22,70537,43797
22,70948,40655
22,71362,45311
22,71773,42518
22,72185,42691
22,72598,45581
22,73010,43001
22,73422,44475
22,73833,46458
22,74247,43848
22,74658,46264
22,75070,46032
22,75483,45393
22,75895,46770
22,76307,43792
22,76720,43660
22,77132,45988
22,77543,45260
22,77957,43107
22,78368,44175
22,78780,41917
22,79193,45648
22,79605,44888
22,80017,43800
22,80430,45020
22,80842,43608
22,81253,44497
22,81667,45633
22,82078,46340
22,82490,46539
22,82902,43030
22,83315,47086
22,83727,43846
22,84138,50147
22,84552,47109
22,84963,49826
22,85375,47716
22,85788,47016
22,86200,47271
22,86612,46561
22,87025,46166
22,87437,50436
22,87848,49037
22,88262,46571
22,88673,43754
22,89085,45559
22,89498,47621
22,89910,42834
22,90322,46823
22,90735,48932
22,91147,46933
22,91558,46400
22,91970,45161
22,92383,46227
22,92795,46627
22,93207,48048
22,93620,45275
22,94032,45975
22,94443,45903
22,94857,44982
22,95268,43464
22,95680,46151
22,96093,44064
22,96505,45630
22,96917,44184
22,97330,43677
22,97742,44765
22,98153,45555
22,98567,46741
22,98978,46353
22,99390,43966
22,99803,43223
23,00215,46618
23,00627,45163
23,01040,46892
23,01452,45981
23,01863,45577
23,02275,43239
23,02688,46048
23,03100,45283
23,03512,44937
23,03925,44212
23,04337,46629
23,04748,45319
23,05162,45022
23,05573,46593
23,05985,45142
23,06398,45946
23,06810,44039
23,07222,41498
23,07635,46271
23,08047,46491
23,08458,44197
23,08872,45318
23,09283,45490
23,09695,46338
23,10108,44460
23,10520,46508
23,10932,45372
23,11343,45435
23,11757,43521
23,12168,43889
23,12580,47358
23,12993,42706
23,13405,46486
23,13817,46722
23,14230,46188
23,14642,47275
23,15053,46436
23,15467,44043
23,15878,48279
23,16290,43571
23,16703,44628
23,17115,44478
23,17527,45429
23,17940,46148
23,18352,45158
23,18763,43929
23,19177,41154
23,19588,44742
23,20000,44292
23,20412,45258
23,20825,44922
23,21237,44636
23,21648,43999
23,22062,42539
23,22473,46258
23,22885,44329
23,23298,45608
23,23710,49942
23,24122,46122
23,24535,44019
23,24947,45731
23,25358,42288
23,25772,45061
23,26183,44196
23,26595,45363
23,27008,45144
23,27420,45315
23,27832,42961
23,28245,44028
23,28657,43972
23,29068,44799
23,29480,43677
23,29893,42724
23,30305,43640
23,30717,46187
23,31130,44088
23,31542,45267
23,31953,45332
23,32367,45769
23,32778,44958
23,33190,45500
23,33603,42880
23,34015,44268
23,34427,45311
23,34840,46630
23,35252,45072
23,35663,44387
23,36077,47048
23,36488,43763
23,36900,44769
23,37313,41063
23,37725,43552
23,38137,43805
23,38548,43091
23,38962,48026
23,39373,43896
23,39785,43115
23,40198,43760
23,40610,45733
23,41022,46009
23,41435,42362
23,41847,42307
23,42258,44335
23,42672,46436
23,43083,44623
23,43495,45601
23,43908,44238
23,44320,44305
23,44732,42892
23,45145,42500
23,45557,43071
23,45968,45248
23,46382,43770
23,46793,42157
23,47205,45940
23,47617,45456
23,48030,42945
23,48442,46624
23,48853,42036
23,49267,45032
23,49678,45323
23,50090,45160
23,50503,44200
23,50915,43707
23,51327,42881
23,51740,44381
23,52152,45102
23,52563,45848
23,52977,44019
23,53388,44342
23,53800,43276
23,54213,44229
23,54625,45422
23,55037,43091
23,55450,42167
23,55862,45541
23,56273,43055
23,56685,42325
23,57098,43511
23,57510,43451
23,57922,44393
23,58335,40949
23,58747,42182
23,59158,43700
23,59572,42008
23,59983,43647
23,60395,45378
23,60808,44245
23,61220,44749
23,61632,43264
23,62045,43327
23,62457,41252
23,62868,43978
23,63282,42957
23,63693,43356
23,64105,47282
23,64518,44749
23,64930,43549
23,65342,44689
23,65753,43798
23,66167,44265
