D:\MassHunter\GCMS\1\data\Amal\Constant flow\100C\100C_1ml-min_10C-min_2.D Wed Sep 04 17:48:03 2024
Start of data points
5,59095	85568
5,59507	85018
5,59918	84000
5,60332	81500
5,60743	82202
5,61155	83112
5,61568	81213
5,61980	83812
5,62392	80550
5,62805	82112
5,63217	81060
5,63628	80501
5,64042	77614
5,64453	78995
5,64865	77001
5,65278	77505
5,65690	77209
5,66102	76870
5,66515	80148
5,66927	75895
5,67338	73802
5,67750	74110
5,68163	74200
5,68575	75285
5,68987	73100
5,69400	72844
5,69812	72939
5,70223	72969
5,70637	71376
5,71048	71208
5,71460	71681
5,71873	69113
5,72285	70780
5,72697	69920
5,73110	69599
5,73522	69863
5,73933	68811
5,74347	71461
5,74758	67385
5,75170	69422
5,75583	67746
5,75995	66702
5,76407	66832
5,76818	66618
5,77232	65526
5,77643	68457
5,78055	66805
5,78468	63739
5,78880	68181
5,79292	65701
5,79705	65749
5,80117	65079
5,80528	66934
5,80942	65597
5,81353	66403
5,81765	68973
5,82178	70411
5,82590	69481
5,83002	67888
5,83415	71678
5,83827	69876
5,84238	72298
5,84652	71507
5,85063	72002
5,85475	72695
5,85887	70658
5,86300	70919
5,86712	72713
5,87123	75216
5,87537	75932
5,87948	77332
5,88360	78995
5,88773	78825
5,89185	78550
5,89597	76518
5,90010	78294
5,90422	76629
5,90833	77452
5,91247	77770
5,91658	75675
5,92070	76269
5,92483	74763
5,92895	75512
5,93307	75243
5,93720	76264
5,94132	75419
5,94543	74401
5,94955	74605
5,95368	70107
5,95780	70337
5,96192	68854
5,96605	68953
5,97017	69607
5,97428	65017
5,97842	64305
5,98253	66193
5,98665	66111
5,99078	65982
5,99490	65118
5,99902	63499
6,00315	62938
6,00727	61144
6,01138	62778
6,01552	63425
6,01963	62743
6,02375	60666
6,02788	59633
6,03200	61597
6,03612	60442
6,04023	60722
6,04437	60941
6,04848	58949
6,05260	61845
6,05673	77285
6,06085	98105
6,06497	146307
6,06910	230064
6,07322	349979
6,07733	513226
6,08147	693653
6,08558	865825
6,08970	1020498
6,09383	1101717
6,09795	1156252
6,10207	1162096
6,10620	1137740
6,11032	1084423
6,11443	1023526
6,11857	962657
6,12268	897730
6,12680	838225
6,13092	783195
6,13505	729277
6,13917	665568
6,14328	630657
6,14742	583765
6,15153	546118
6,15565	511706
6,15978	472576
6,16390	437183
6,16802	411198
6,17215	377624
6,17627	348509
6,18038	320408
6,18452	297042
6,18863	267359
6,19275	243550
6,19688	225390
6,20100	198789
6,20512	180130
6,20925	169380
6,21337	152909
6,21748	140071
6,22160	129576
6,22573	118113
6,22985	111140
6,23397	103319
6,23810	97402
6,24222	91132
6,24633	82253
6,25047	79325
6,25458	77316
6,25870	73491
6,26283	69779
6,26695	66112
6,27107	62528
6,27520	62285
6,27932	59208
6,28343	59721
6,28757	55237
6,29168	54150
6,29580	53391
6,29993	52790
6,30405	53362
6,30817	50218
6,31228	49848
6,31642	46342
6,32053	48355
6,32465	46273
6,32878	47010
6,33290	46300
6,33702	47217
6,34115	46245
6,34527	43724
6,34938	43655
6,35352	43688
6,35763	44584
6,36175	43510
6,36588	43875
6,37000	42538
6,37412	43715
6,37825	43207
6,38237	43726
6,38648	40906
6,39062	41709
6,39473	41886
6,39885	40744
6,40297	38694
6,40710	40283
6,41122	40724
6,41533	40458
6,41947	37226
6,42358	40515
6,42770	40211
6,43183	39923
6,43595	38385
6,44007	37549
6,44420	38790
6,44832	39407
6,45243	38679
6,45657	38101
6,46068	38614
6,46480	37997
6,46893	39663
6,47305	37307
6,47717	38501
6,48130	37809
6,48542	38967
6,48953	38668
6,49365	38038
6,49778	37627
6,50190	36744
6,50602	37799
6,51015	35899
6,51427	36095
6,51838	37400
6,52252	36802
6,52663	38372
6,53075	36536
6,53488	37328
6,53900	37821
6,54312	37082
6,54725	35656
6,55137	36622
6,55548	36366
6,55962	35559
6,56373	36113
6,56785	37471
6,57198	35284
6,57610	35833
6,58022	36071
6,58433	35787
6,58847	35480
6,59258	35826
6,59670	33299
6,60083	35008
6,60495	33576
6,60907	34768
6,61320	33955
6,61732	33582
6,62143	33032
6,62557	35460
6,62968	33999
6,63380	34112
6,63793	33536
6,64205	34962
6,64617	33354
6,65030	32443
6,65442	31927
6,65853	32316
6,66267	32681
6,66678	34234
6,67090	32861
6,67502	34994
6,67915	36031
6,68327	33194
6,68738	33989
6,69152	32395
6,69563	34061
6,69975	32323
6,70388	35431
6,70800	34424
6,71212	33010
6,71625	33870
6,72037	32826
6,72448	35025
6,72862	33064
6,73273	34592
6,73685	35467
6,74098	34500
6,74510	34452
6,74922	34438
6,75335	34739
6,75747	33225
6,76158	33452
6,76570	32040
6,76983	32887
6,77395	33332
6,77807	30562
6,78220	32737
6,78632	31395
6,79043	31060
6,79457	30596
6,79868	31099
6,80280	31246
6,80693	30668
6,81105	30245
6,81517	29741
6,81930	29461
6,82342	29810
6,82753	29850
6,83167	30840
6,83578	29869
6,83990	30744
6,84403	31582
6,84815	30151
6,85227	32199
6,85640	29931
6,86052	31314
6,86463	31384
6,86875	31865
6,87288	32802
6,87700	32615
6,88112	32155
6,88525	33642
6,88937	33662
6,89348	33615
6,89762	33057
6,90173	31969
6,90585	31928
6,90998	29869
6,91410	31611
6,91822	29942
6,92235	30122
6,92647	31301
6,93058	30025
6,93472	28808
6,93883	29504
6,94295	29599
6,94708	26734
6,95120	28616
6,95532	28905
6,95943	29929
6,96357	26849
6,96768	29331
6,97180	29085
6,97593	27334
6,98005	30211
6,98417	27942
6,98830	26284
6,99242	28364
6,99653	26730
7,00067	27353
7,00478	27081
7,00890	28119
7,01303	27442
7,01715	27246
7,02127	28286
7,02540	27945
7,02952	27422
7,03363	26692
7,03777	27606
7,04188	26080
7,04600	27563
7,05012	25783
7,05425	26692
7,05837	27547
7,06248	26873
7,06662	27098
7,07073	27286
7,07485	28285
7,07898	26696
7,08310	26917
7,08722	27343
7,09135	25468
7,09547	24720
7,09958	25154
7,10372	26118
7,10783	25628
7,11195	26002
7,11608	25834
7,12020	24922
7,12432	25319
7,12845	25289
7,13257	25259
7,13668	25772
7,14080	24864
7,14493	27294
7,14905	26770
7,15317	24908
7,15730	26159
7,16142	25577
7,16553	24402
7,16967	26569
7,17378	24801
7,17790	25639
7,18203	25741
7,18615	23899
7,19027	26392
7,19440	24329
7,19852	24936
7,20263	25380
7,20677	23926
7,21088	26834
7,21500	24336
7,21913	26593
7,22325	26923
7,22737	25471
7,23148	25281
7,23562	25251
7,23973	25714
7,24385	25491
7,24798	24058
7,25210	24622
7,25622	26517
7,26035	25105
7,26447	23656
7,26858	25293
7,27272	24070
7,27683	24962
7,28095	23191
7,28508	23502
7,28920	26166
7,29332	25141
7,29745	25051
7,30157	24471
7,30568	24848
7,30982	24989
7,31393	27587
7,31805	30893
7,32217	43561
7,32630	72194
7,33042	126042
7,33453	222903
7,33867	377634
7,34278	595547
7,34690	854518
7,35103	1136228
7,35515	1410650
7,35927	1627195
7,36340	1761557
7,36752	1797901
7,37163	1763125
7,37577	1687985
7,37988	1568620
7,38400	1438682
7,38813	1301296
7,39225	1163321
7,39637	1032554
7,40050	904032
7,40462	782405
7,40873	676569
7,41285	586360
7,41698	494470
7,42110	418850
7,42522	354994
7,42935	299818
7,43347	248997
7,43758	211540
7,44172	180565
7,44583	154682
7,44995	130163
7,45408	115300
7,45820	100562
7,46232	88248
7,46645	80072
7,47057	71275
7,47468	69108
7,47882	59676
7,48293	56428
7,48705	55431
7,49118	49987
7,49530	48699
7,49942	46542
7,50353	43790
7,50767	41078
7,51178	40679
7,51590	38062
7,52003	38224
7,52415	35896
7,52827	32877
7,53240	35645
7,53652	34352
7,54063	34391
7,54477	33143
7,54888	31396
7,55300	32929
7,55713	31494
7,56125	30706
7,56537	29985
7,56950	28691
7,57362	29710
7,57773	28518
7,58187	28872
7,58598	26968
7,59010	29258
7,59422	26450
7,59835	26768
7,60247	25868
7,60658	26627
7,61072	26174
7,61483	24070
7,61895	25655
7,62308	25388
7,62720	24390
7,63132	24235
7,63545	23022
7,63957	24052
7,64368	25915
7,64782	24681
7,65193	23369
7,65605	25687
7,66018	24383
7,66430	24775
7,66842	23665
7,67255	25446
7,67667	23936
7,68078	24373
7,68490	24834
7,68903	26353
7,69315	25985
7,69727	24452
7,70140	24770
7,70552	25115
7,70963	25465
7,71377	24542
7,71788	24640
7,72200	24966
7,72613	23393
7,73025	25001
7,73437	25502
7,73850	24334
7,74262	22590
7,74673	24185
7,75087	22685
7,75498	22291
7,75910	21907
7,76323	21764
7,76735	21372
7,77147	22968
7,77558	21887
7,77972	20554
7,78383	20520
7,78795	20966
7,79208	21046
7,79620	21382
7,80032	21828
7,80445	20334
7,80857	21647
7,81268	20260
7,81682	20534
7,82093	19818
7,82505	20091
7,82918	20953
7,83330	20589
7,83742	20067
7,84155	20720
7,84567	20922
7,84978	20730
7,85392	21260
7,85803	19850
7,86215	20213
7,86627	22900
7,87040	21765
7,87452	22535
7,87863	21629
7,88277	20747
7,88688	22536
7,89100	21565
7,89513	21479
7,89925	20119
7,90337	21347
7,90750	20646
7,91162	20653
7,91573	22023
7,91987	20238
7,92398	20286
7,92810	19970
7,93223	20936
7,93635	20103
7,94047	19046
7,94460	19504
7,94872	20102
7,95283	19293
7,95695	19634
7,96108	17461
7,96520	18652
7,96932	19096
7,97345	18822
7,97757	18667
7,98168	20139
7,98582	18943
7,98993	18916
7,99405	19001
7,99818	17991
8,00230	19695
8,00642	18828
8,01055	18686
8,01467	18444
8,01878	19650
8,02292	17962
8,02703	17334
8,03115	19489
8,03528	18802
8,03940	20996
8,04352	24847
8,04763	30957
8,05177	47956
8,05588	80825
8,06000	142642
8,06413	235301
8,06825	372459
8,07237	541256
8,07650	718516
8,08062	882993
8,08473	1010809
8,08887	1091510
8,09298	1103736
8,09710	1062947
8,10123	987179
8,10535	892161
8,10947	791674
8,11360	674041
8,11772	563544
8,12183	476885
8,12597	389447
8,13008	319049
8,13420	260661
8,13832	208850
8,14245	170622
8,14657	142280
8,15068	116415
8,15482	101274
8,15893	85383
8,16305	70370
8,16718	66312
8,17130	57478
8,17542	53065
8,17955	49499
8,18367	42619
8,18778	41472
8,19192	38690
8,19603	38630
8,20015	35661
8,20428	33090
8,20840	32100
8,21252	29159
8,21665	29323
8,22077	27886
8,22488	26638
8,22900	27259
8,23313	27942
8,23725	24109
8,24137	25918
8,24550	22592
8,24962	23937
8,25373	25358
8,25787	23689
8,26198	24065
8,26610	24527
8,27023	24358
8,27435	24967
8,27847	24416
8,28260	23297
8,28672	24935
8,29083	24877
8,29497	22099
8,29908	23195
8,30320	23060
8,30733	23367
8,31145	22095
8,31557	22793
8,31968	20649
8,32382	19998
8,32793	20292
8,33205	20596
8,33618	18941
8,34030	20571
8,34442	21669
8,34855	22256
8,35267	21899
8,35678	23082
8,36092	23023
8,36503	24086
8,36915	22795
8,37328	21468
8,37740	23109
8,38152	20648
8,38565	21852
8,38977	20314
8,39388	20162
8,39802	18375
8,40213	17150
8,40625	17443
8,41037	18723
8,41450	17153
8,41862	16668
8,42273	17283
8,42687	15888
8,43098	16968
8,43510	16393
8,43923	16143
8,44335	16385
8,44747	17397
8,45160	16077
8,45572	15438
8,45983	16316
8,46397	16109
8,46808	15759
8,47220	15522
8,47633	14684
8,48045	15742
8,48457	16295
8,48870	16015
8,49282	15996
8,49693	15533
8,50105	14817
8,50518	14907
8,50930	15338
8,51342	15857
8,51755	15872
8,52167	15116
8,52578	14821
8,52992	14733
8,53403	14090
8,53815	15588
8,54228	16047
8,54640	14924
8,55052	14292
8,55465	15285
8,55877	15263
8,56288	14886
8,56702	15123
8,57113	15049
8,57525	14618
8,57938	15227
8,58350	14714
8,58762	14508
8,59175	14723
8,59587	15671
8,59998	15368
8,60410	15200
8,60823	15183
8,61235	15346
8,61647	15018
8,62060	15835
8,62472	14683
8,62883	15408
8,63297	15942
8,63708	14550
8,64120	15324
8,64533	14557
8,64945	13709
8,65357	15600
8,65770	14382
8,66182	14502
8,66593	15075
8,67007	15373
8,67418	16299
8,67830	15045
8,68243	15055
8,68655	14324
8,69067	14870
8,69478	16281
8,69892	15323
8,70303	16168
8,70715	17760
8,71128	15349
8,71540	15969
8,71952	15757
8,72365	16353
8,72777	15649
8,73188	15366
8,73602	14428
8,74013	14944
8,74425	15221
8,74838	13968
8,75250	14840
8,75662	13104
8,76075	13530
8,76487	13002
8,76898	13885
8,77312	14895
8,77723	13970
8,78135	15116
8,78547	15692
8,78960	17536
8,79372	23625
8,79783	39342
8,80197	76017
8,80608	154882
8,81020	290874
8,81433	523405
8,81845	848860
8,82257	1258637
8,82670	1708699
8,83082	2114675
8,83493	2447988
8,83907	2611714
8,84318	2626760
8,84730	2454546
8,85143	2186575
8,85555	1870193
8,85967	1534693
8,86380	1233364
8,86792	959940
8,87203	746059
8,87615	579147
8,88028	449752
8,88440	345610
8,88852	277691
8,89265	218540
8,89677	181548
8,90088	151983
8,90502	129984
8,90913	113607
8,91325	96470
8,91738	84092
8,92150	76677
8,92562	70056
8,92975	63138
8,93387	59990
8,93798	52792
8,94212	49907
8,94623	46855
8,95035	43833
8,95448	41419
8,95860	39549
8,96272	37590
8,96683	35336
8,97097	33024
8,97508	33434
8,97920	29633
8,98333	31162
8,98745	28872
8,99157	28516
8,99570	27548
8,99982	26153
9,00393	25932
9,00807	24720
9,01218	24746
9,01630	23793
9,02043	23829
9,02455	22987
9,02867	23835
9,03280	21703
9,03692	21519
9,04103	20579
9,04517	21254
9,04928	18980
9,05340	19283
9,05752	19278
9,06165	18913
9,06577	18826
9,06988	17245
9,07402	19676
9,07813	17418
9,08225	17668
9,08638	17960
9,09050	17603
9,09462	17075
9,09875	16169
9,10287	18887
9,10698	16813
9,11112	15201
9,11523	17177
9,11935	16741
9,12348	15286
9,12760	15478
9,13172	16187
9,13585	16371
9,13997	14907
9,14408	15140
9,14820	15479
9,15233	14950
9,15645	15769
9,16057	14926
9,16470	14772
9,16882	14443
9,17293	16050
9,17707	15409
9,18118	15203
9,18530	13367
9,18943	13557
9,19355	16089
9,19767	15271
9,20180	14615
9,20592	14875
9,21003	13386
9,21417	13417
9,21828	15292
9,22240	13986
9,22653	14526
9,23065	14469
9,23477	12605
9,23888	14574
9,24302	13813
9,24713	13060
9,25125	12636
9,25538	13328
9,25950	12957
9,26362	13528
9,26775	14310
9,27187	13619
9,27598	15337
9,28012	15969
9,28423	13628
9,28835	13940
9,29248	15271
9,29660	13987
9,30072	15039
9,30485	13462
9,30897	14553
9,31308	13601
9,31722	13738
9,32133	12792
9,32545	13032
9,32957	12905
9,33370	14041
9,33782	13740
9,34193	14904
9,34607	13166
9,35018	12910
9,35430	12951
9,35843	13975
9,36255	14043
9,36667	13844
9,37080	15414
9,37492	15590
9,37903	16504
9,38317	18183
9,38728	17748
9,39140	18277
9,39553	20123
9,39965	20518
9,40377	20108
9,40790	19673
9,41202	20429
9,41613	19627
9,42025	18285
9,42438	17749
9,42850	18102
9,43262	16753
9,43675	16626
9,44087	16087
9,44498	13896
9,44912	15234
9,45323	14254
9,45735	14004
9,46148	14256
9,46560	13534
9,46972	12702
9,47385	13787
9,47797	12610
9,48208	12336
9,48622	12659
9,49033	12519
9,49445	12525
9,49858	12425
9,50270	11446
9,50682	11249
9,51093	11645
9,51507	12140
9,51918	11677
9,52330	11635
9,52743	11707
9,53155	11569
9,53567	11837
9,53980	12615
9,54392	14009
9,54803	15733
9,55217	25035
9,55628	44739
9,56040	84387
9,56453	161797
9,56865	296004
9,57277	487366
9,57690	742528
9,58102	994922
9,58513	1249864
9,58927	1410206
9,59338	1485742
9,59750	1439688
9,60162	1294781
9,60575	1123995
9,60987	912603
9,61398	717480
9,61812	544908
9,62223	410173
9,62635	312237
9,63048	237120
9,63460	186428
9,63872	148118
9,64285	117804
9,64697	98092
9,65108	83076
9,65522	72313
9,65933	61670
9,66345	56660
9,66758	48612
9,67170	44131
9,67582	40747
9,67995	36996
9,68407	35200
9,68818	32592
9,69230	30114
9,69643	28691
9,70055	27434
9,70467	25882
9,70880	24641
9,71292	25597
9,71703	23441
9,72117	22204
9,72528	20893
9,72940	21119
9,73353	19544
9,73765	20647
9,74177	19121
9,74590	17935
9,75002	18088
9,75413	17049
9,75827	17812
9,76238	16041
9,76650	15464
9,77063	15222
9,77475	14725
9,77887	16197
9,78298	15692
9,78712	15610
9,79123	15245
9,79535	14125
9,79948	14672
9,80360	14169
9,80772	15130
9,81185	13149
9,81597	13062
9,82008	13781
9,82422	13879
9,82833	12629
9,83245	13719
9,83658	11344
9,84070	13798
9,84482	12929
9,84895	13431
9,85307	12141
9,85718	12794
9,86132	12626
9,86543	11815
9,86955	12753
9,87367	14059
9,87780	11513
9,88192	11670
9,88603	13046
9,89017	11722
9,89428	12367
9,89840	12104
9,90253	12920
9,90665	12161
9,91077	11970
9,91490	12356
9,91902	10907
9,92313	12023
9,92727	10877
9,93138	12661
9,93550	11182
9,93963	12354
9,94375	13087
9,94787	15347
9,95200	15875
9,95612	16753
9,96023	17467
9,96435	18292
9,96848	16924
9,97260	17988
9,97672	17367
9,98085	15497
9,98497	14249
9,98908	14250
9,99322	13908
9,99733	12727
10,00145	12759
10,00558	13329
10,00970	11746
10,01382	12654
10,01795	11871
10,02207	11552
10,02618	11639
10,03032	10578
10,03443	11227
10,03855	10694
10,04268	10597
10,04680	10276
10,05092	10420
10,05503	10464
10,05917	11861
10,06328	10408
10,06740	11796
10,07153	10744
10,07565	10737
10,07977	10609
10,08390	10876
10,08802	10936
10,09213	10306
10,09627	11411
10,10038	11579
10,10450	12886
10,10863	11948
10,11275	14361
10,11687	13962
10,12100	16214
10,12512	16619
10,12923	17327
10,13337	19057
10,13748	19865
10,14160	19245
10,14573	18789
10,14985	18327
10,15397	16070
10,15808	15771
10,16222	15598
10,16633	13981
10,17045	13669
10,17458	13448
10,17870	12755
10,18282	14135
10,18695	13137
10,19107	12035
10,19518	11814
10,19932	12439
10,20343	12044
10,20755	11012
10,21168	12316
10,21580	11113
10,21992	10959
10,22405	10740
10,22817	10773
10,23228	11365
10,23642	9743
10,24053	10210
10,24465	9794
10,24877	10906
10,25290	10070
10,25702	9591
10,26113	10319
10,26527	10556
10,26938	11162
10,27350	9405
10,27763	10258
10,28175	10372
10,28587	10659
10,29000	13370
10,29412	22053
10,29823	43235
10,30237	91144
10,30648	197757
10,31060	401284
10,31473	732056
10,31885	1227918
10,32297	1810495
10,32710	2393582
10,33122	2904141
10,33533	3237121
10,33945	3271138
10,34358	3055753
10,34770	2629075
10,35182	2140833
10,35595	1667112
10,36007	1264005
10,36418	929302
10,36832	681920
10,37243	519914
10,37655	388519
10,38068	298165
10,38480	241696
10,38892	199313
10,39305	166066
10,39717	141220
10,40128	126092
10,40542	110874
10,40953	103477
10,41365	88507
10,41778	85645
10,42190	80467
10,42602	72268
10,43013	65177
10,43427	59680
10,43838	55038
10,44250	51966
10,44663	46450
10,45075	42591
10,45487	38594
10,45900	37340
10,46312	35298
10,46723	32080
10,47137	29473
10,47548	29517
10,47960	28220
10,48373	26716
10,48785	26187
10,49197	23895
10,49610	24760
10,50022	21726
10,50433	21926
10,50847	21025
10,51258	20020
10,51670	21482
10,52082	19908
10,52495	19182
10,52907	19051
10,53318	19578
10,53732	18222
10,54143	17409
10,54555	19445
10,54968	19127
10,55380	18188
10,55792	19406
10,56205	19503
10,56617	21422
10,57028	20781
10,57442	21954
10,57853	21374
10,58265	22959
10,58678	20356
10,59090	19408
10,59502	19947
10,59915	17925
10,60327	16703
10,60738	15677
10,61150	15948
10,61563	16285
10,61975	15196
10,62387	15582
10,62800	13907
10,63212	12150
10,63623	13122
10,64037	12858
10,64448	12737
10,64860	12540
10,65273	11317
10,65685	12055
10,66097	11137
10,66510	12591
10,66922	12171
10,67333	12461
10,67747	13555
10,68158	15236
10,68570	15041
10,68983	16424
10,69395	16933
10,69807	16805
10,70218	18475
10,70632	16641
10,71043	16700
10,71455	12941
10,71868	14857
10,72280	13616
10,72692	13657
10,73105	12432
10,73517	11268
10,73928	11720
10,74342	10880
10,74753	10299
10,75165	11995
10,75578	10438
10,75990	10690
10,76402	11555
10,76815	11275
10,77227	10383
10,77638	9997
10,78052	9820
10,78463	10269
10,78875	10995
10,79287	10096
10,79700	10870
10,80112	9764
10,80523	9605
10,80937	9353
10,81348	10769
10,81760	11983
10,82173	15011
10,82585	19988
10,82997	36198
10,83410	73876
10,83822	143420
10,84233	261725
10,84647	447871
10,85058	700231
10,85470	1004264
10,85883	1268886
10,86295	1457312
10,86707	1549433
10,87120	1491710
10,87532	1332142
10,87943	1126294
10,88355	901401
10,88768	695450
10,89180	522049
10,89592	390643
10,90005	297742
10,90417	233500
10,90828	190331
10,91242	152957
10,91653	133261
10,92065	111819
10,92478	96876
10,92890	81382
10,93302	69605
10,93715	60725
10,94127	53582
10,94538	45811
10,94952	43865
10,95363	38831
10,95775	35024
10,96188	32347
10,96600	29654
10,97012	27911
10,97423	27856
10,97837	25251
10,98248	24229
10,98660	23090
10,99073	22504
10,99485	23241
10,99897	20923
11,00310	23169
11,00722	20781
11,01133	20711
11,01547	20003
11,01958	24666
11,02370	36123
11,02783	64121
11,03195	121114
11,03607	231022
11,04020	417441
11,04432	682093
11,04843	1009807
11,05257	1320853
11,05668	1571917
11,06080	1707994
11,06492	1694166
11,06905	1554914
11,07317	1325860
11,07728	1067156
11,08142	816625
11,08553	608913
11,08965	445668
11,09378	334030
11,09790	250804
11,10202	192407
11,10615	151361
11,11027	125316
11,11438	103806
11,11852	87199
11,12263	74803
11,12675	63247
11,13088	58198
11,13500	49843
11,13912	46866
11,14325	42419
11,14737	38088
11,15148	35576
11,15560	35218
11,15973	32550
11,16385	30980
11,16797	27521
11,17210	26834
11,17622	24807
11,18033	25886
11,18447	24300
11,18858	22684
11,19270	21483
11,19683	20590
11,20095	18812
11,20507	18445
11,20920	18116
11,21332	17743
11,21743	18760
11,22157	16692
11,22568	17144
11,22980	18115
11,23393	16291
11,23805	15504
11,24217	14151
11,24628	15403
11,25042	15212
11,25453	14063
11,25865	12935
11,26278	13083
11,26690	12807
11,27102	12841
11,27515	12292
11,27927	13486
11,28338	13216
11,28752	12210
11,29163	13095
11,29575	12306
11,29988	12861
11,30400	11027
11,30812	12502
11,31225	11855
11,31637	11280
11,32048	11893
11,32462	11133
11,32873	13225
11,33285	11569
11,33697	11249
11,34110	10806
11,34522	10994
11,34933	11281
11,35347	10542
11,35758	10170
11,36170	10143
11,36583	9422
11,36995	10494
11,37407	11057
11,37820	11020
11,38232	11928
11,38643	11286
11,39057	11264
11,39468	11560
11,39880	10921
11,40293	11175
11,40705	10640
11,41117	10451
11,41530	11198
11,41942	10676
11,42353	10701
11,42765	10358
11,43178	11151
11,43590	11465
11,44002	10229
11,44415	11868
11,44827	11369
11,45238	11090
11,45652	10056
11,46063	12026
11,46475	11858
11,46888	9950
11,47300	10607
11,47712	11005
11,48125	11203
11,48537	11313
11,48948	12248
11,49362	10931
11,49773	9062
11,50185	9942
11,50598	10416
11,51010	9886
11,51422	9896
11,51833	9862
11,52247	10263
11,52658	9921
11,53070	10831
11,53483	11329
11,53895	13122
11,54307	19699
11,54720	34657
11,55132	70273
11,55543	138541
11,55957	261893
11,56368	458162
11,56780	729035
11,57193	1023081
11,57605	1320131
11,58017	1527032
11,58430	1625545
11,58842	1577191
11,59253	1424259
11,59667	1197170
11,60078	942141
11,60490	726134
11,60902	544453
11,61315	402067
11,61727	298007
11,62138	223816
11,62552	174875
11,62963	140564
11,63375	112855
11,63788	95171
11,64200	84136
11,64612	70247
11,65025	62152
11,65437	54638
11,65848	51069
11,66262	42922
11,66673	42364
11,67085	37258
11,67498	35288
11,67910	33366
11,68322	32362
11,68735	28407
11,69147	28841
11,69558	25357
11,69970	26075
11,70383	22810
11,70795	24072
11,71207	23433
11,71620	24614
11,72032	26514
11,72443	44158
11,72857	87009
11,73268	185472
11,73680	385105
11,74093	761765
11,74505	1340687
11,74917	2160906
11,75330	3120775
11,75742	4150854
11,76153	5016890
11,76567	5505043
11,76978	5482872
11,77390	4945495
11,77803	4189161
11,78215	3271021
11,78627	2443490
11,79040	1782470
11,79452	1281131
11,79863	950929
11,80275	707497
11,80688	553407
11,81100	434868
11,81512	353979
11,81925	285999
11,82337	246074
11,82748	208573
11,83162	181895
11,83573	155518
11,83985	139402
11,84398	121379
11,84810	108956
11,85222	102237
11,85635	91109
11,86047	86555
11,86458	77045
11,86872	72685
11,87283	63982
11,87695	61531
11,88108	60275
11,88520	54949
11,88932	53137
11,89343	48609
11,89757	46651
11,90168	43915
11,90580	40814
11,90993	37921
11,91405	38043
11,91817	35365
11,92230	34193
11,92642	32795
11,93053	31435
11,93467	31522
11,93878	28370
11,94290	26756
11,94703	26105
11,95115	26298
11,95527	26868
11,95940	25213
11,96352	23649
11,96763	22891
11,97177	21671
11,97588	21044
11,98000	20382
11,98412	19530
11,98825	20910
11,99237	21243
11,99648	19993
12,00062	19577
12,00473	18494
12,00885	18568
12,01298	18921
12,01710	17293
12,02122	19060
12,02535	17506
12,02947	18878
12,03358	17781
12,03772	19714
12,04183	18348
12,04595	18169
12,05008	17904
12,05420	17884
12,05832	16139
12,06245	16391
12,06657	16715
12,07068	15768
12,07480	14949
12,07893	15625
12,08305	14642
12,08717	14883
12,09130	13203
12,09542	13467
12,09953	15371
12,10367	15295
12,10778	14930
12,11190	15467
12,11603	17324
12,12015	15735
12,12427	15847
12,12840	15576
12,13252	17320
12,13663	16472
12,14077	16924
12,14488	23581
12,14900	39304
12,15313	73696
12,15725	146985
12,16137	274143
12,16548	488943
12,16962	776781
12,17373	1099004
12,17785	1409576
12,18198	1625400
12,18610	1691961
12,19022	1641855
12,19435	1451081
12,19847	1204343
12,20258	935740
12,20672	707168
12,21083	535732
12,21495	400405
12,21908	302640
12,22320	233580
12,22732	182695
12,23145	152637
12,23557	123375
12,23968	103627
12,24382	89429
12,24793	76735
12,25205	67901
12,25617	65524
12,26030	61692
12,26442	57716
12,26853	55326
12,27267	50999
12,27678	50322
12,28090	46909
12,28503	41814
12,28915	40639
12,29327	35525
12,29740	34112
12,30152	33682
12,30563	31784
12,30977	32417
12,31388	33234
12,31800	34013
12,32213	32790
12,32625	36015
12,33037	34558
12,33450	35874
12,33862	33860
12,34273	32599
12,34685	29719
12,35098	26255
12,35510	26285
12,35922	24466
12,36335	22290
12,36747	21091
12,37158	18917
12,37572	17609
12,37983	19393
12,38395	16589
12,38808	15813
12,39220	17152
12,39632	18782
12,40045	25421
12,40457	42356
12,40868	78195
12,41282	157667
12,41693	305877
12,42105	535933
12,42518	849227
12,42930	1213519
12,43342	1578049
12,43753	1838070
12,44167	1934814
12,44578	1837642
12,44990	1598021
12,45403	1315012
12,45815	1029526
12,46227	770973
12,46640	573633
12,47052	422263
12,47463	317154
12,47877	250218
12,48288	194364
12,48700	154122
12,49113	129695
12,49525	108276
12,49937	95345
12,50350	80853
12,50762	73589
12,51173	64690
12,51587	60056
12,51998	54191
12,52410	50629
12,52822	48454
12,53235	44158
12,53647	41820
12,54058	35958
12,54472	34089
12,54883	34736
12,55295	31602
12,55708	31044
12,56120	29582
12,56532	27020
12,56945	25071
12,57357	24392
12,57768	24214
12,58182	24200
12,58593	24129
12,59005	23250
12,59418	21758
12,59830	21530
12,60242	21867
12,60655	20377
12,61067	20642
12,61478	20049
12,61890	19719
12,62303	19372
12,62715	19723
12,63127	18449
12,63540	19455
12,63952	17353
12,64363	18873
12,64777	17577
12,65188	15640
12,65600	17400
12,66013	16360
12,66425	16506
12,66837	16275
12,67250	15325
12,67662	17142
12,68073	13939
12,68487	15829
12,68898	15537
12,69310	15260
12,69723	15186
12,70135	13538
12,70547	14666
12,70958	16366
12,71372	15763
12,71783	14389
12,72195	14330
12,72608	14395
12,73020	14400
12,73432	14550
12,73845	12882
12,74257	14092
12,74668	14136
12,75082	14228
12,75493	15111
12,75905	14038
12,76318	15155
12,76730	13475
12,77142	13501
12,77555	13972
12,77967	13670
12,78378	12464
12,78792	12860
12,79203	13531
12,79615	12978
12,80027	14446
12,80440	13986
12,80852	17302
12,81263	28082
12,81677	47536
12,82088	96170
12,82500	187699
12,82913	353430
12,83325	610379
12,83737	929494
12,84150	1282545
12,84562	1588846
12,84973	1778229
12,85387	1815930
12,85798	1698419
12,86210	1477201
12,86623	1187848
12,87035	931257
12,87447	707417
12,87860	526264
12,88272	392866
12,88683	301014
12,89095	231513
12,89508	185094
12,89920	152602
12,90332	125697
12,90745	107976
12,91157	93927
12,91568	83130
12,91982	71981
12,92393	66378
12,92805	59052
12,93218	55106
12,93630	49901
12,94042	45705
12,94455	41554
12,94867	39290
12,95278	37913
12,95692	37294
12,96103	32580
12,96515	32283
12,96928	30875
12,97340	29930
12,97752	28777
12,98163	27797
12,98577	27362
12,98988	26359
12,99400	23388
12,99813	23806
13,00225	23225
13,00637	23709
13,01050	22396
13,01462	21929
13,01873	22565
13,02287	20850
13,02698	21237
13,03110	19892
13,03523	19465
13,03935	18852
13,04347	18912
13,04760	21521
13,05172	26399
13,05583	42851
13,05997	82466
13,06408	176199
13,06820	357975
13,07232	679130
13,07645	1159830
13,08057	1820842
13,08468	2590854
13,08882	3308804
13,09293	3874343
13,09705	4124005
13,10118	3987493
13,10530	3565904
13,10942	2946998
13,11355	2282488
13,11767	1719801
13,12178	1266753
13,12592	936147
13,13003	715397
13,13415	550545
13,13828	430059
13,14240	345906
13,14652	286845
13,15065	242158
13,15477	204579
13,15888	177692
13,16300	156158
13,16713	139786
13,17125	125492
13,17537	114835
13,17950	101125
13,18362	97469
13,18773	87668
13,19187	81232
13,19598	75943
13,20010	70452
13,20423	63436
13,20835	62873
13,21247	57064
13,21660	54704
13,22072	52682
13,22483	51282
13,22897	48655
13,23308	46938
13,23720	46653
13,24133	42423
13,24545	42565
13,24957	38424
13,25368	38820
13,25782	36455
13,26193	35173
13,26605	35014
13,27018	34658
13,27430	35625
13,27842	34007
13,28255	40791
13,28667	61953
13,29078	113739
13,29492	208203
13,29903	380894
13,30315	628048
13,30728	947318
13,31140	1306677
13,31552	1647140
13,31965	1858528
13,32377	1909280
13,32788	1826835
13,33202	1605094
13,33613	1347341
13,34025	1057976
13,34438	813485
13,34850	610962
13,35262	461258
13,35673	358913
13,36087	280433
13,36498	223824
13,36910	188960
13,37323	156648
13,37735	132214
13,38147	118302
13,38560	103410
13,38972	94672
13,39383	86292
13,39797	85846
13,40208	91235
13,40620	125361
13,41033	200887
13,41445	370729
13,41857	669154
13,42270	1147477
13,42682	1778416
13,43093	2493462
13,43507	3190206
13,43918	3703465
13,44330	3934644
13,44742	3832647
13,45155	3387725
13,45567	2800238
13,45978	2199500
13,46392	1653320
13,46803	1232578
13,47215	923479
13,47628	696030
13,48040	540543
13,48452	430545
13,48865	351996
13,49277	294374
13,49688	248535
13,50102	213021
13,50513	187599
13,50925	167578
13,51338	150550
13,51750	136842
13,52162	119104
13,52575	113383
13,52987	103699
13,53398	97191
13,53810	89916
13,54223	83342
13,54635	77108
13,55047	73782
13,55460	68034
13,55872	64243
13,56283	61399
13,56697	58686
13,57108	57146
13,57520	53821
13,57933	52072
13,58345	48330
13,58757	50254
13,59170	45694
13,59582	43386
13,59993	41054
13,60407	40921
13,60818	38576
13,61230	39589
13,61643	35493
13,62055	38199
13,62467	35804
13,62878	37402
13,63292	33593
13,63703	33074
13,64115	33656
13,64528	32604
13,64940	38118
13,65352	48250
13,65765	77633
13,66177	137565
13,66588	261035
13,67002	453483
13,67413	737900
13,67825	1090164
13,68238	1466966
13,68650	1800254
13,69062	2063910
13,69475	2240046
13,69887	2433256
13,70298	2743834
13,70712	3173236
13,71123	3730262
13,71535	4222395
13,71947	4516937
13,72360	4457538
13,72772	4053093
13,73183	3414394
13,73597	2718364
13,74008	2074685
13,74420	1548371
13,74833	1159713
13,75245	887034
13,75657	689303
13,76070	552250
13,76482	445122
13,76893	377569
13,77307	325658
13,77718	273714
13,78130	244636
13,78543	219648
13,78955	196260
13,79367	174514
13,79780	155390
13,80192	144153
13,80603	136565
13,81015	123412
13,81428	118676
13,81840	110893
13,82252	102788
13,82665	98998
13,83077	93704
13,83488	91241
13,83902	85432
13,84313	78236
13,84725	78226
13,85138	74610
13,85550	72194
13,85962	69403
13,86375	66704
13,86787	63176
13,87198	61532
13,87612	59562
13,88023	57729
13,88435	54997
13,88848	53837
13,89260	52070
13,89672	50075
13,90083	48139
13,90497	46135
13,90908	44873
13,91320	45460
13,91733	44813
13,92145	47555
13,92557	56868
13,92970	79977
13,93382	139193
13,93793	248471
13,94207	435643
13,94618	686087
13,95030	1004577
13,95443	1335712
13,95855	1577533
13,96267	1704151
13,96680	1687292
13,97092	1531199
13,97503	1308396
13,97917	1049536
13,98328	821781
13,98740	629112
13,99152	480161
13,99565	370076
13,99977	287063
14,00388	237983
14,00802	193062
14,01213	157113
14,01625	139362
14,02038	120781
14,02450	108400
14,02862	97721
14,03275	92115
14,03687	84390
14,04098	80091
14,04512	71719
14,04923	69385
14,05335	65755
14,05748	61810
14,06160	61401
14,06572	57463
14,06985	54785
14,07397	50554
14,07808	48074
14,08220	46386
14,08633	44652
14,09045	44481
14,09457	42445
14,09870	40701
14,10282	40359
14,10693	36427
14,11107	37657
14,11518	36984
14,11930	36503
14,12343	35900
14,12755	35447
14,13167	33517
14,13580	33833
14,13992	29150
14,14403	30996
14,14817	31130
14,15228	31671
14,15640	29251
14,16053	30745
14,16465	29299
14,16877	30667
14,17288	28281
14,17702	28221
14,18113	28711
14,18525	29411
14,18938	28950
14,19350	28783
14,19762	28187
14,20175	28890
14,20587	29239
14,20998	27997
14,21412	27500
14,21823	28696
14,22235	27703
14,22648	28443
14,23060	27677
14,23472	25087
14,23885	25394
14,24297	26030
14,24708	26647
14,25122	24424
14,25533	23118
14,25945	25349
14,26357	25164
14,26770	26065
14,27182	27380
14,27593	25473
14,28007	34485
14,28418	47950
14,28830	87880
14,29243	172184
14,29655	360363
14,30067	721970
14,30480	1264623
14,30892	2083637
14,31303	3086510
14,31717	4185462
14,32128	5122467
14,32540	5755617
14,32953	5869068
14,33365	5491388
14,33777	4775471
14,34190	3902155
14,34602	3057740
14,35013	2321095
14,35425	1769131
14,35838	1348606
14,36250	1035844
14,36662	812495
14,37075	660622
14,37487	540180
14,37898	452368
14,38312	390850
14,38723	336501
14,39135	298784
14,39548	266787
14,39960	239534
14,40372	213833
14,40785	194528
14,41197	185514
14,41608	167380
14,42022	154759
14,42433	143559
14,42845	133211
14,43258	124720
14,43670	119827
14,44082	110303
14,44493	104890
14,44907	101955
14,45318	95815
14,45730	92718
14,46143	84413
14,46555	80942
14,46967	78758
14,47380	75242
14,47792	74881
14,48203	69812
14,48617	69546
14,49028	66599
14,49440	64330
14,49853	64238
14,50265	61761
14,50677	61261
14,51090	61053
14,51502	61628
14,51913	69098
14,52327	83739
14,52738	118280
14,53150	184158
14,53562	303745
14,53975	490450
14,54387	731414
14,54798	1019437
14,55212	1269188
14,55623	1456553
14,56035	1516869
14,56448	1467412
14,56860	1311866
14,57272	1105393
14,57685	881842
14,58097	688372
14,58508	537409
14,58922	411316
14,59333	323849
14,59745	259441
14,60158	214868
14,60570	188227
14,60982	170981
14,61395	178032
14,61807	225093
14,62218	318548
14,62630	510507
14,63043	784544
14,63455	1149792
14,63867	1533842
14,64280	1866378
14,64692	2071060
14,65103	2086686
14,65517	1944183
14,65928	1705430
14,66340	1394488
14,66753	1106495
14,67165	867655
14,67577	673810
14,67990	525929
14,68402	421585
14,68813	349916
14,69227	296343
14,69638	253841
14,70050	214896
14,70463	193706
14,70875	177467
14,71287	160878
14,71698	141546
14,72112	133674
14,72523	123499
14,72935	115830
14,73348	106932
14,73760	100380
14,74172	96069
14,74585	94492
14,74997	85076
14,75408	82071
14,75822	78435
14,76233	74609
14,76645	74950
14,77058	69616
14,77470	65463
14,77882	63994
14,78295	63174
14,78707	61404
14,79118	58939
14,79532	59469
14,79943	56905
14,80355	56628
14,80767	56570
14,81180	51890
14,81592	52269
14,82003	54906
14,82417	51864
14,82828	47817
14,83240	51242
14,83653	48021
14,84065	47155
14,84477	44834
14,84890	46692
14,85302	45681
14,85713	49553
14,86127	57437
14,86538	81310
14,86950	127392
14,87363	226330
14,87775	415783
14,88187	703741
14,88600	1109786
14,89012	1548302
14,89423	1947724
14,89835	2210702
14,90248	2271477
14,90660	2128392
14,91072	1838503
14,91485	1494825
14,91897	1178935
14,92308	930380
14,92722	729429
14,93133	581865
14,93545	470846
14,93958	388395
14,94370	328055
14,94782	286941
14,95195	252090
14,95607	217688
14,96018	192812
14,96432	174330
14,96843	161168
14,97255	145004
14,97668	137918
14,98080	129312
14,98492	118135
14,98903	111863
14,99317	108383
14,99728	103553
15,00140	100501
15,00553	95965
15,00965	92495
15,01377	91357
15,01790	88433
15,02202	83906
15,02613	82616
15,03027	76860
15,03438	76910
15,03850	71070
15,04263	68511
15,04675	66377
15,05087	66116
15,05500	62921
15,05912	66732
15,06323	63871
15,06737	62120
15,07148	58611
15,07560	58932
15,07973	55227
15,08385	56191
15,08797	54983
15,09208	53549
15,09622	54802
15,10033	57912
15,10445	66476
15,10858	84487
15,11270	134835
15,11682	220939
15,12095	378655
15,12507	622500
15,12918	934169
15,13332	1296358
15,13743	1587933
15,14155	1777043
15,14568	1814681
15,14980	1690774
15,15392	1473690
15,15805	1220979
15,16217	971859
15,16628	775164
15,17042	605823
15,17453	483825
15,17865	385079
15,18277	319086
15,18690	266044
15,19102	223437
15,19513	202143
15,19927	173183
15,20338	160161
15,20750	146758
15,21163	129900
15,21575	122848
15,21987	113074
15,22400	108488
15,22812	102280
15,23223	95230
15,23637	92772
15,24048	85531
15,24460	84752
15,24873	78206
15,25285	78980
15,25697	75328
15,26110	70988
15,26522	73076
15,26933	68181
15,27345	64238
15,27758	62486
15,28170	61851
15,28582	61826
15,28995	58296
15,29407	59362
15,29818	57272
15,30232	58123
15,30643	53202
15,31055	53800
15,31468	53040
15,31880	51211
15,32292	52460
15,32705	50324
15,33117	49635
15,33528	47177
15,33942	50306
15,34353	46731
15,34765	46720
15,35178	48478
15,35590	48475
15,36002	46962
15,36413	44885
15,36827	49770
15,37238	46772
15,37650	46073
15,38063	48503
15,38475	46794
15,38887	45755
15,39300	45956
15,39712	45016
15,40123	46856
15,40537	43285
15,40948	45523
15,41360	44251
15,41773	44040
15,42185	45597
15,42597	49603
15,43010	60606
15,43422	88877
15,43833	143274
15,44247	253595
15,44658	473119
15,45070	824216
15,45482	1346064
15,45895	2014253
15,46307	2804190
15,46718	3595852
15,47132	4278970
15,47543	4666873
15,47955	4731548
15,48368	4496639
15,48780	4120773
15,49192	3758277
15,49605	3403867
15,50017	3108493
15,50428	2827866
15,50842	2538601
15,51253	2207572
15,51665	1870049
15,52078	1550860
15,52490	1263137
15,52902	1032137
15,53315	855514
15,53727	715901
15,54138	605092
15,54550	527409
15,54963	453770
15,55375	405004
15,55787	359641
15,56200	325725
15,56612	304709
15,57023	275338
15,57437	256361
15,57848	240411
15,58260	223575
15,58673	209934
15,59085	198316
15,59497	185497
15,59910	175467
15,60322	167218
15,60733	156950
15,61147	155352
15,61558	141447
15,61970	140647
15,62383	132873
15,62795	127581
15,63207	124482
15,63618	120704
15,64032	119730
15,64443	113644
15,64855	112845
15,65268	107481
15,65680	108359
15,66092	105335
15,66505	100197
15,66917	102291
15,67328	100949
15,67742	101263
15,68153	108696
15,68565	120506
15,68978	159644
15,69390	218928
15,69802	330448
15,70215	502340
15,70627	736225
15,71038	1012051
15,71452	1257626
15,71863	1464881
15,72275	1572222
15,72687	1566727
15,73100	1446311
15,73512	1267830
15,73923	1089966
15,74337	915640
15,74748	797306
15,75160	742479
15,75573	767621
15,75985	890518
15,76397	1095251
15,76810	1403499
15,77222	1752134
15,77633	2142459
15,78047	2481059
15,78458	2790726
15,78870	2984074
15,79283	3036044
15,79695	2968700
15,80107	2764403
15,80520	2466953
15,80932	2085227
15,81343	1744660
15,81755	1430714
15,82168	1168769
15,82580	958727
15,82992	812583
15,83405	675532
15,83817	579432
15,84228	509826
15,84642	447560
15,85053	409598
15,85465	366507
15,85878	338286
15,86290	309467
15,86702	280854
15,87115	261349
15,87527	245065
15,87938	224269
15,88352	214241
15,88763	199461
15,89175	185429
15,89588	178832
15,90000	165322
15,90412	159066
15,90823	154553
15,91237	143614
15,91648	138484
15,92060	134383
15,92473	134421
15,92885	124455
15,93297	124341
15,93710	118047
15,94122	115950
15,94533	111649
15,94947	106345
15,95358	105158
15,95770	98915
15,96183	100061
15,96595	91920
15,97007	93541
15,97420	87095
15,97832	88852
15,98243	87372
15,98657	85105
15,99068	87174
15,99480	89316
15,99892	96709
16,00305	117281
16,00717	150284
16,01128	224584
16,01542	340473
16,01953	538796
16,02365	817611
16,02778	1146842
16,03190	1505409
16,03602	1807498
16,04015	2015644
16,04427	2039798
16,04838	1951695
16,05252	1745211
16,05663	1489082
16,06075	1247004
16,06488	1032727
16,06900	858055
16,07312	725025
16,07725	597695
16,08137	523854
16,08548	460571
16,08960	406523
16,09373	358792
16,09785	329378
16,10197	293320
16,10610	271353
16,11022	250318
16,11433	236711
16,11847	217884
16,12258	208188
16,12670	197689
16,13083	180517
16,13495	174437
16,13907	164526
16,14320	158336
16,14732	151426
16,15143	145418
16,15557	141550
16,15968	142458
16,16380	137791
16,16793	134695
16,17205	132471
16,17617	130874
16,18028	124197
16,18442	120175
16,18853	116424
16,19265	113207
16,19678	106614
16,20090	105724
16,20502	100218
16,20915	101774
16,21327	95622
16,21738	94409
16,22152	92504
16,22563	88930
16,22975	89272
16,23388	84680
16,23800	84262
16,24212	82799
16,24625	84493
16,25037	79999
16,25448	82702
16,25862	85418
16,26273	86918
16,26685	100888
16,27097	120533
16,27510	166484
16,27922	242840
16,28333	383419
16,28747	570346
16,29158	820827
16,29570	1094878
16,29983	1362385
16,30395	1546453
16,30807	1629123
16,31220	1633755
16,31632	1517422
16,32043	1343725
16,32457	1161687
16,32868	971814
16,33280	812884
16,33693	683436
16,34105	582377
16,34517	489039
16,34930	418696
16,35342	367092
16,35753	327589
16,36165	294769
16,36578	270266
16,36990	259593
16,37402	270843
16,37815	288578
16,38227	342867
16,38638	439748
16,39052	575593
16,39463	735031
16,39875	926484
16,40288	1082258
16,40700	1208144
16,41112	1274346
16,41525	1244419
16,41937	1180151
16,42348	1062350
16,42762	926723
16,43173	795445
16,43585	670408
16,43998	551641
16,44410	468897
16,44822	402226
16,45233	344056
16,45647	300247
16,46058	269335
16,46470	238609
16,46883	216974
16,47295	198380
16,47707	181534
16,48120	169419
16,48532	155625
16,48943	145805
16,49357	138896
16,49768	131920
16,50180	129326
16,50593	123597
16,51005	122655
16,51417	112111
16,51830	107806
16,52242	107360
16,52653	102060
16,53067	98778
16,53478	95082
16,53890	96357
16,54302	92271
16,54715	90249
16,55127	88191
16,55538	86929
16,55952	87338
16,56363	81568
16,56775	81901
16,57188	82541
16,57600	78922
16,58012	81666
16,58425	85551
16,58837	97412
16,59248	119839
16,59662	160218
16,60073	228706
16,60485	350550
16,60898	538542
16,61310	823779
16,61722	1203540
16,62135	1705706
16,62547	2274264
16,62958	2850914
16,63372	3359732
16,63783	3664509
16,64195	3729890
16,64607	3583898
16,65020	3220106
16,65432	2764020
16,65843	2315399
16,66257	1922453
16,66668	1587482
16,67080	1332765
16,67493	1121278
16,67905	967086
16,68317	845018
16,68730	747946
16,69142	666139
16,69553	591719
16,69967	535771
16,70378	488340
16,70790	452173
16,71203	412135
16,71615	386266
16,72027	364592
16,72440	340438
16,72852	319381
16,73263	298040
16,73675	281239
16,74088	264620
16,74500	254210
16,74912	247047
16,75325	231168
16,75737	220756
16,76148	214696
16,76562	205626
16,76973	199371
16,77385	188350
16,77798	181310
16,78210	177857
16,78622	171069
16,79035	166479
16,79447	155016
16,79858	151992
16,80272	149516
16,80683	141567
16,81095	140204
16,81508	136180
16,81920	136219
16,82332	129056
16,82743	128017
16,83157	124236
16,83568	122874
16,83980	120299
16,84393	120956
16,84805	117068
16,85217	114264
16,85630	108738
16,86042	108252
16,86453	107956
16,86867	104715
16,87278	102721
16,87690	99694
16,88103	96878
16,88515	96910
16,88927	96429
16,89340	98003
16,89752	93538
16,90163	90848
16,90577	92858
16,90988	90628
16,91400	89193
16,91812	85657
16,92225	88273
16,92637	85032
16,93048	87402
16,93462	87802
16,93873	95866
16,94285	112547
16,94698	142889
16,95110	186016
16,95522	261829
16,95935	372976
16,96347	541535
16,96758	761795
16,97172	1012044
16,97583	1270641
16,97995	1461183
16,98408	1597149
16,98820	1649642
16,99232	1610333
16,99645	1505493
17,00057	1340464
17,00468	1187820
17,00880	1040514
17,01293	903866
17,01705	779475
17,02117	672226
17,02530	597497
17,02942	527735
17,03353	466411
17,03767	415889
17,04178	384329
17,04590	348974
17,05003	325018
17,05415	296611
17,05827	279487
17,06240	258396
17,06652	247256
17,07063	230721
17,07477	217643
17,07888	208916
17,08300	194567
17,08713	185805
17,09125	181672
17,09537	176246
17,09948	165452
17,10362	157584
17,10773	155492
17,11185	145124
17,11598	141247
17,12010	142588
17,12422	136641
17,12835	132954
17,13247	126470
17,13658	125963
17,14072	125165
17,14483	120706
17,14895	118862
17,15308	116622
17,15720	114025
17,16132	110521
17,16545	106166
17,16957	105436
17,17368	104559
17,17782	102195
17,18193	98683
17,18605	96682
17,19017	96330
17,19430	93561
17,19842	92659
17,20253	92373
17,20667	89837
17,21078	87531
17,21490	88223
17,21903	87636
17,22315	86283
17,22727	85077
17,23140	83121
17,23552	81545
17,23963	82322
17,24377	83986
17,24788	79786
17,25200	80238
17,25613	79745
17,26025	79060
17,26437	77962
17,26850	78441
17,27262	78851
17,27673	76607
17,28085	75777
17,28498	74877
17,28910	75812
17,29322	72815
17,29735	71566
17,30147	71764
17,30558	73390
17,30972	71574
17,31383	72974
17,31795	71236
17,32208	71017
17,32620	68559
17,33032	70046
17,33445	67591
17,33857	69529
17,34268	67448
17,34682	67756
17,35093	65093
17,35505	65770
17,35918	65338
17,36330	66091
17,36742	63680
17,37153	64468
17,37567	63248
17,37978	64848
17,38390	61513
17,38803	62171
17,39215	63418
17,39627	64644
17,40040	63307
17,40452	60892
17,40863	61327
17,41277	59127
17,41688	61639
17,42100	57959
17,42513	60226
17,42925	58500
17,43337	62504
17,43750	66998
17,44162	71438
17,44573	74373
17,44987	81682
17,45398	88745
17,45810	99700
17,46222	110753
17,46635	116823
17,47047	121450
17,47458	126069
17,47872	126891
17,48283	127480
17,48695	121239
17,49108	117090
17,49520	108250
17,49932	99505
17,50345	94931
17,50757	87862
17,51168	84354
17,51582	80517
17,51993	74643
17,52405	68581
17,52818	67636
17,53230	66064
17,53642	64018
17,54055	65482
17,54467	60704
17,54878	62207
17,55290	62811
17,55703	60261
17,56115	57808
17,56527	58656
17,56940	58753
17,57352	56594
17,57763	60295
17,58177	56992
17,58588	56220
17,59000	55023
17,59413	58739
17,59825	55604
17,60237	56684
17,60650	56399
17,61062	56891
17,61473	54641
17,61887	57376
17,62298	53804
17,62710	53335
17,63123	54261
17,63535	53465
17,63947	55452
17,64358	53677
17,64772	54881
17,65183	53714
17,65595	51953
17,66008	54620
17,66420	53871
17,66832	53380
17,67245	53602
17,67657	52299
17,68068	56448
17,68482	52916
17,68893	51936
17,69305	50627
17,69718	51715
17,70130	49600
17,70542	49921
17,70955	49766
17,71367	51247
17,71778	50398
17,72192	53115
17,72603	50489
17,73015	51269
17,73427	48369
17,73840	51607
17,74252	51208
17,74663	50852
17,75077	50567
17,75488	51920
17,75900	51099
17,76313	50058
17,76725	52507
17,77137	49335
17,77550	49971
17,77962	50102
17,78373	49963
17,78787	51020
17,79198	51453
17,79610	50954
17,80023	52355
17,80435	49383
17,80847	51444
17,81260	49563
17,81672	49649
17,82083	50653
17,82495	47880
17,82908	48354
17,83320	49505
17,83732	49949
17,84145	48997
17,84557	52315
17,84968	50398
17,85382	50242
17,85793	49652
17,86205	49015
17,86618	48894
17,87030	48371
17,87442	50048
17,87855	46883
17,88267	45929
17,88678	48337
17,89092	48219
17,89503	47929
17,89915	48721
17,90328	49243
17,90740	48086
17,91152	47000
17,91563	49456
17,91977	50735
17,92388	50993
17,92800	47203
17,93213	50795
17,93625	47353
17,94037	50385
17,94450	47723
17,94862	48520
17,95273	46430
17,95687	48127
17,96098	48200
17,96510	49676
17,96923	49140
17,97335	48629
17,97747	49168
17,98160	48340
17,98572	49195
17,98983	49971
17,99397	47898
17,99808	49529
18,00220	50079
18,00632	52771
18,01045	53385
18,01457	58204
18,01868	66147
18,02282	81013
18,02693	105989
18,03105	142311
18,03518	194590
18,03930	259604
18,04342	345750
18,04755	445741
18,05167	549501
18,05578	643733
18,05992	729193
18,06403	773174
18,06815	800247
18,07228	792449
18,07640	748677
18,08052	698670
18,08465	639465
18,08877	568798
18,09288	515643
18,09700	457299
18,10113	403260
18,10525	357141
18,10937	315154
18,11350	281322
18,11762	253152
18,12173	225969
18,12587	212306
18,12998	192818
18,13410	175433
18,13823	170987
18,14235	155775
18,14647	144781
18,15060	136583
18,15472	131552
18,15883	125851
18,16297	119730
18,16708	115960
18,17120	109742
18,17533	107649
18,17945	100173
18,18357	99123
18,18768	97943
18,19182	92387
18,19593	90085
18,20005	88129
18,20418	85937
18,20830	83463
18,21242	83596
18,21655	79368
18,22067	84485
18,22478	76346
18,22892	76666
18,23303	75071
18,23715	77998
18,24128	71036
18,24540	69488
18,24952	70321
18,25365	72895
18,25777	67393
18,26188	68578
18,26602	68080
18,27013	67463
18,27425	66534
18,27838	64309
18,28250	64115
18,28662	64905
18,29073	63802
18,29487	62052
18,29898	59475
18,30310	59910
18,30723	62717
18,31135	60953
18,31547	61519
18,31960	59687
18,32372	60291
18,32783	60406
18,33197	60259
18,33608	60163
18,34020	58683
18,34433	58216
18,34845	57466
18,35257	57228
18,35670	56058
18,36082	54963
18,36493	55897
18,36907	57144
18,37318	55468
18,37730	54938
18,38142	59059
18,38555	57140
18,38967	54098
18,39378	56023
18,39792	53596
18,40203	51306
18,40615	53821
18,41028	52383
18,41440	53667
18,41852	52454
18,42265	52247
18,42677	53457
18,43088	52219
18,43502	50147
18,43913	55048
18,44325	52135
18,44738	52206
18,45150	51044
18,45562	52468
18,45975	50152
18,46387	51181
18,46798	52605
18,47210	51649
18,47623	47509
18,48035	52855
18,48447	52636
18,48860	51166
18,49272	50941
18,49683	50677
18,50097	49807
18,50508	52222
18,50920	50439
18,51333	53696
