D:\MassHunter\GCMS\1\data\Amal\Constant flow\120C\120C_1ml-min_4C-min_1.D Tue Jul 30 13:43:10 2024
Start of data points
5,59110,24579
5,59522,24596
5,59935,24541
5,60347,22746
5,60758,22655
5,61172,23837
5,61583,21931
5,61995,24081
5,62408,23509
5,62820,22572
5,63232,22374
5,63645,22843
5,64057,23316
5,64468,23242
5,64882,22525
5,65293,22543
5,65705,23699
5,66117,23067
5,66530,23343
5,66942,22165
5,67353,21423
5,67767,21676
5,68178,24193
5,68590,22496
5,69003,22486
5,69415,21743
5,69827,22487
5,70240,21866
5,70652,21959
5,71063,22799
5,71477,20984
5,71888,21293
5,72300,21383
5,72713,22667
5,73125,21023
5,73537,22608
5,73950,21463
5,74362,21739
5,74773,20477
5,75185,19958
5,75598,19796
5,76010,21051
5,76422,20850
5,76835,20052
5,77247,20083
5,77658,19905
5,78072,20217
5,78483,20283
5,78895,20050
5,79308,19436
5,79720,20890
5,80132,20118
5,80545,20596
5,80957,22224
5,81368,26340
5,81782,31883
5,82193,41157
5,82605,52163
5,83018,65856
5,83430,81260
5,83842,92586
5,84253,103041
5,84667,108110
5,85078,112899
5,85490,117502
5,85903,113000
5,86315,114913
5,86727,112146
5,87140,107319
5,87552,105262
5,87963,98828
5,88377,95479
5,88788,94725
5,89200,90529
5,89613,86033
5,90025,84935
5,90437,80881
5,90850,78557
5,91262,73960
5,91673,69531
5,92087,66374
5,92498,66107
5,92910,64222
5,93322,60748
5,93735,59068
5,94147,55021
5,94558,53807
5,94972,51974
5,95383,48772
5,95795,46839
5,96208,47196
5,96620,43195
5,97032,42778
5,97445,41542
5,97857,40404
5,98268,39588
5,98682,36946
5,99093,35716
5,99505,33834
5,99918,32680
6,00330,31787
6,00742,30510
6,01155,29537
6,01567,27807
6,01978,26434
6,02390,26974
6,02803,24591
6,03215,23556
6,03627,23825
6,04040,22350
6,04452,22140
6,04863,21210
6,05277,21718
6,05688,20026
6,06100,20042
6,06513,19105
6,06925,18820
6,07337,19984
6,07750,19154
6,08162,17170
6,08573,17314
6,08987,17727
6,09398,17641
6,09810,17574
6,10223,16825
6,10635,17770
6,11047,17693
6,11458,17921
6,11872,16597
6,12283,16712
6,12695,15776
6,13108,15599
6,13520,16473
6,13932,16141
6,14345,16865
6,14757,16983
6,15168,15086
6,15582,15204
6,15993,15439
6,16405,14932
6,16818,14966
6,17230,14540
6,17642,15670
6,18055,15569
6,18467,16107
6,18878,16472
6,19292,14814
6,19703,16004
6,20115,16261
6,20527,14906
6,20940,14789
6,21352,14348
6,21763,15083
6,22177,15197
6,22588,14175
6,23000,14459
6,23413,15069
6,23825,15021
6,24237,13542
6,24650,15452
6,25062,14269
6,25473,13737
6,25887,15013
6,26298,15013
6,26710,14849
6,27123,14071
6,27535,13961
6,27947,13339
6,28360,13363
6,28772,14276
6,29183,13490
6,29597,13660
6,30008,13769
6,30420,13777
6,30832,13543
6,31245,13282
6,31657,11979
6,32068,13598
6,32482,14328
6,32893,13904
6,33305,13327
6,33718,12523
6,34130,13109
6,34542,13267
6,34955,14564
6,35367,14612
6,35778,13760
6,36192,14323
6,36603,13630
6,37015,14088
6,37428,12696
6,37840,14426
6,38252,13754
6,38665,13629
6,39077,13424
6,39488,12739
6,39900,13109
6,40313,12125
6,40725,13006
6,41137,13918
6,41550,13392
6,41962,13065
6,42373,12839
6,42787,12563
6,43198,12179
6,43610,12715
6,44023,12292
6,44435,13029
6,44847,12690
6,45260,11591
6,45672,12248
6,46083,13062
6,46497,13003
6,46908,11640
6,47320,11318
6,47733,12341
6,48145,11714
6,48557,11782
6,48968,12149
6,49382,11443
6,49793,11568
6,50205,11778
6,50618,11989
6,51030,11940
6,51442,12539
6,51855,11542
6,52267,12573
6,52678,11830
6,53092,12841
6,53503,12560
6,53915,12182
6,54328,11749
6,54740,12339
6,55152,12128
6,55565,12244
6,55977,13597
6,56388,11923
6,56802,12801
6,57213,12105
6,57625,11833
6,58037,13057
6,58450,12494
6,58862,11199
6,59273,12450
6,59687,11688
6,60098,11824
6,60510,11576
6,60923,11123
6,61335,11379
6,61747,11228
6,62160,11013
6,62572,10599
6,62983,11078
6,63397,12061
6,63808,11434
6,64220,11573
6,64633,10948
6,65045,10452
6,65457,11875
6,65870,10817
6,66282,11375
6,66693,12157
6,67105,11057
6,67518,11838
6,67930,11576
6,68342,11253
6,68755,11112
6,69167,11464
6,69578,11698
6,69992,10004
6,70403,10677
6,70815,11451
6,71228,11159
6,71640,10685
6,72052,10815
6,72465,10091
6,72877,9877
6,73288,11174
6,73702,10768
6,74113,11396
6,74525,10922
6,74938,10670
6,75350,10901
6,75762,10600
6,76173,11452
6,76587,10873
6,76998,10444
6,77410,10972
6,77823,12217
6,78235,11762
6,78647,12233
6,79060,12663
6,79472,12191
6,79883,10903
6,80297,10948
6,80708,11587
6,81120,11263
6,81533,12078
6,81945,10222
6,82357,11093
6,82770,11606
6,83182,10998
6,83593,10853
6,84007,11583
6,84418,11185
6,84830,11163
6,85242,11059
6,85655,10404
6,86067,9438
6,86478,10172
6,86892,10665
6,87303,9635
6,87715,10271
6,88128,9861
6,88540,10093
6,88952,10273
6,89365,9222
6,89777,10208
6,90188,10216
6,90602,10033
6,91013,10062
6,91425,9711
6,91838,9938
6,92250,9156
6,92662,10279
6,93075,9979
6,93487,9608
6,93898,9743
6,94310,9881
6,94723,8865
6,95135,9790
6,95547,9930
6,95960,9532
6,96372,9641
6,96783,9396
6,97197,9077
6,97608,9386
6,98020,9183
6,98433,9597
6,98845,9395
6,99257,9182
6,99670,9305
7,00082,7861
7,00493,9846
7,00907,8998
7,01318,9606
7,01730,9039
7,02143,9163
7,02555,8825
7,02967,9133
7,03378,8780
7,03792,9161
7,04203,8466
7,04615,9169
7,05028,8361
7,05440,8440
7,05852,8821
7,06265,9482
7,06677,9208
7,07088,8033
7,07502,8350
7,07913,9397
7,08325,8702
7,08738,8461
7,09150,8526
7,09562,9015
7,09975,8915
7,10387,8666
7,10798,8348
7,11212,8272
7,11623,9052
7,12035,8842
7,12447,7587
7,12860,9057
7,13272,8860
7,13683,8601
7,14097,8845
7,14508,8319
7,14920,8643
7,15333,8491
7,15745,8356
7,16157,9193
7,16570,8827
7,16982,7996
7,17393,9023
7,17807,7962
7,18218,8165
7,18630,8307
7,19043,8671
7,19455,9396
7,19867,8073
7,20280,8037
7,20692,8489
7,21103,8739
7,21515,8226
7,21928,9345
7,22340,8877
7,22752,8102
7,23165,9094
7,23577,8015
7,23988,7834
7,24402,8742
7,24813,8679
7,25225,7962
7,25638,8444
7,26050,8228
7,26462,8139
7,26875,7864
7,27287,8408
7,27698,8119
7,28112,8496
7,28523,8841
7,28935,7721
7,29348,7430
7,29760,7853
7,30172,8617
7,30583,8536
7,30997,8320
7,31408,9418
7,31820,11101
7,32233,14399
7,32645,20402
7,33057,33082
7,33470,48828
7,33882,76188
7,34293,108600
7,34707,152118
7,35118,201528
7,35530,261536
7,35943,309526
7,36355,363051
7,36767,410152
7,37180,438686
7,37592,456784
7,38003,466082
7,38417,470325
7,38828,468076
7,39240,450675
7,39652,436583
7,40065,422151
7,40477,406461
7,40888,384235
7,41302,361145
7,41713,348627
7,42125,327744
7,42538,310625
7,42950,291303
7,43362,274592
7,43775,257371
7,44187,245458
7,44598,229040
7,45012,213367
7,45423,197252
7,45835,181414
7,46248,172794
7,46660,161059
7,47072,149345
7,47485,135527
7,47897,123869
7,48308,114164
7,48720,102872
7,49133,93825
7,49545,86170
7,49957,76916
7,50370,67294
7,50782,60790
7,51193,55728
7,51607,50881
7,52018,45331
7,52430,39905
7,52843,40039
7,53255,33792
7,53667,32578
7,54080,31015
7,54492,28108
7,54903,25670
7,55317,23654
7,55728,22549
7,56140,20871
7,56553,20726
7,56965,18945
7,57377,18922
7,57788,17382
7,58202,16264
7,58613,14722
7,59025,14378
7,59438,14320
7,59850,14595
7,60262,14087
7,60675,13235
7,61087,14412
7,61498,12293
7,61912,12414
7,62323,12098
7,62735,11114
7,63148,11442
7,63560,11753
7,63972,10580
7,64385,10930
7,64797,10529
7,65208,10069
7,65622,10602
7,66033,9658
7,66445,8648
7,66857,9166
7,67270,9290
7,67682,9056
7,68093,8139
7,68507,8424
7,68918,8299
7,69330,8276
7,69743,8067
7,70155,7592
7,70567,7964
7,70980,8360
7,71392,7447
7,71803,7278
7,72217,7513
7,72628,7782
7,73040,8413
7,73453,8124
7,73865,7233
7,74277,7777
7,74690,8045
7,75102,7443
7,75513,7962
7,75925,7165
7,76338,7978
7,76750,6610
7,77162,7584
7,77575,6701
7,77987,7549
7,78398,6909
7,78812,7267
7,79223,7011
7,79635,6708
7,80048,7259
7,80460,7402
7,80872,7153
7,81285,7091
7,81697,6783
7,82108,7207
7,82522,7130
7,82933,6957
7,83345,7027
7,83758,7232
7,84170,6589
7,84582,7431
7,84993,7449
7,85407,6522
7,85818,6307
7,86230,6299
7,86643,6460
7,87055,6188
7,87467,6775
7,87880,6372
7,88292,7000
7,88703,7128
7,89117,6624
7,89528,6999
7,89940,6691
7,90353,7304
7,90765,6296
7,91177,5731
7,91590,6631
7,92002,6447
7,92413,6623
7,92827,6430
7,93238,6192
7,93650,6890
7,94063,6411
7,94475,6387
7,94887,6471
7,95298,6557
7,95712,6883
7,96123,6914
7,96535,5973
7,96948,6503
7,97360,5898
7,97772,6001
7,98185,7458
7,98597,5515
7,99008,5899
7,99422,5232
7,99833,6684
8,00245,5808
8,00658,6873
8,01070,6088
8,01482,6599
8,01895,6215
8,02307,6025
8,02718,6156
8,03132,5440
8,03543,6578
8,03955,5861
8,04367,6553
8,04780,5913
8,05192,5882
8,05603,5960
8,06017,5744
8,06428,5732
8,06840,5280
8,07253,6697
8,07665,5932
8,08077,5842
8,08490,6136
8,08902,5905
8,09313,6538
8,09727,6025
8,10138,5141
8,10550,5524
8,10963,5339
8,11375,5878
8,11787,5704
8,12200,5892
8,12612,6433
8,13023,5426
8,13435,5578
8,13848,5810
8,14260,5954
8,14672,6147
8,15085,5840
8,15497,5504
8,15908,6001
8,16322,5339
8,16733,5878
8,17145,5201
8,17558,5420
8,17970,5376
8,18382,4794
8,18795,5490
8,19207,5757
8,19618,4599
8,20032,6076
8,20443,5540
8,20855,5819
8,21268,5652
8,21680,5506
8,22092,6044
8,22503,5593
8,22917,5173
8,23328,5221
8,23740,5196
8,24153,5286
8,24565,5491
8,24977,5653
8,25390,5780
8,25802,6508
8,26213,5274
8,26627,5601
8,27038,4788
8,27450,5765
8,27863,5386
8,28275,4990
8,28687,5497
8,29100,5657
8,29512,5404
8,29923,5366
8,30337,5756
8,30748,6553
8,31160,5433
8,31572,5188
8,31985,5645
8,32397,4736
8,32808,5026
8,33222,5092
8,33633,5511
8,34045,5595
8,34458,6067
8,34870,5014
8,35282,4894
8,35695,5165
8,36107,5171
8,36518,5227
8,36932,5008
8,37343,6973
8,37755,7636
8,38168,11458
8,38580,15714
8,38992,23199
8,39405,33529
8,39817,49702
8,40228,71724
8,40640,96929
8,41053,129174
8,41465,163884
8,41877,193629
8,42290,224984
8,42702,251773
8,43113,274482
8,43527,287516
8,43938,298635
8,44350,303973
8,44763,301983
8,45175,295353
8,45587,289023
8,46000,281140
8,46412,269220
8,46823,253891
8,47237,242576
8,47648,226814
8,48060,210632
8,48473,201806
8,48885,190649
8,49297,173255
8,49708,160861
8,50122,146441
8,50533,139124
8,50945,126093
8,51358,115552
8,51770,105483
8,52182,93084
8,52595,83536
8,53007,74849
8,53418,68150
8,53832,59826
8,54243,55794
8,54655,48668
8,55068,45573
8,55480,38534
8,55892,35630
8,56305,31810
8,56717,28521
8,57128,25458
8,57542,21801
8,57953,22409
8,58365,19846
8,58777,17728
8,59190,17902
8,59602,15415
8,60013,13505
8,60427,13445
8,60838,12438
8,61250,11952
8,61663,10945
8,62075,11402
8,62487,11425
8,62900,10266
8,63312,9415
8,63723,9721
8,64137,10099
8,64548,8991
8,64960,9155
8,65373,8717
8,65785,9644
8,66197,8992
8,66610,7812
8,67022,9680
8,67433,8565
8,67845,8442
8,68258,8898
8,68670,8706
8,69082,8312
8,69495,7986
8,69907,7796
8,70318,7098
8,70732,7061
8,71143,6900
8,71555,7017
8,71968,6743
8,72380,7353
8,72792,6954
8,73205,7036
8,73617,6602
8,74028,6344
8,74442,6622
8,74853,6931
8,75265,6610
8,75678,5529
8,76090,6232
8,76502,6262
8,76913,6185
8,77327,5386
8,77738,5591
8,78150,5713
8,78563,5554
8,78975,5507
8,79387,5249
8,79800,5379
8,80212,5519
8,80623,5565
8,81037,5536
8,81448,5177
8,81860,5019
8,82273,5151
8,82685,5036
8,83097,4710
8,83510,5248
8,83922,4958
8,84333,4922
8,84747,5172
8,85158,5194
8,85570,4739
8,85982,5612
8,86395,4968
8,86807,4894
8,87218,5672
8,87632,5511
8,88043,5390
8,88455,5551
8,88868,5339
8,89280,5332
8,89692,5876
8,90105,5583
8,90517,5293
8,90928,6189
8,91342,4558
8,91753,4940
8,92165,5012
8,92578,4553
8,92990,5187
8,93402,4859
8,93815,5516
8,94227,4669
8,94638,4591
8,95050,5236
8,95463,3609
8,95875,4679
8,96287,3807
8,96700,4808
8,97112,4809
8,97523,4497
8,97937,4440
8,98348,3652
8,98760,4634
8,99173,4447
8,99585,4062
8,99997,4129
9,00410,4558
9,00822,3933
9,01233,4455
9,01647,4012
9,02058,4207
9,02470,4768
9,02883,4127
9,03295,3974
9,03707,4315
9,04118,4075
9,04532,3438
9,04943,4566
9,05355,4281
9,05768,3517
9,06180,4288
9,06592,3495
9,07005,3902
9,07417,3936
9,07828,4162
9,08242,4324
9,08653,3971
9,09065,3748
9,09478,3493
9,09890,3699
9,10302,3902
9,10715,4289
9,11127,4497
9,11538,3601
9,11952,3219
9,12363,3871
9,12775,3583
9,13187,4441
9,13600,4322
9,14012,3945
9,14423,3366
9,14837,4482
9,15248,3728
9,15660,3465
9,16073,4297
9,16485,3646
9,16897,3956
9,17310,3780
9,17722,4043
9,18133,3443
9,18547,4049
9,18958,3607
9,19370,3458
9,19783,3923
9,20195,3177
9,20607,4517
9,21020,3779
9,21432,3923
9,21843,3891
9,22255,3715
9,22668,3517
9,23080,4208
9,23492,3608
9,23905,4414
9,24317,3872
9,24728,3684
9,25142,3953
9,25553,3494
9,25965,4095
9,26378,3773
9,26790,3769
9,27202,3727
9,27615,4297
9,28027,3995
9,28438,4374
9,28852,4227
9,29263,3708
9,29675,4275
9,30088,3643
9,30500,3894
9,30912,3676
9,31323,3917
9,31737,3387
9,32148,3405
9,32560,4042
9,32973,3696
9,33385,3641
9,33797,3618
9,34210,4126
9,34622,4223
9,35033,4014
9,35447,2985
9,35858,3406
9,36270,3816
9,36683,3335
9,37095,3973
9,37507,3823
9,37920,3725
9,38332,3821
9,38743,3357
9,39157,3268
9,39568,3195
9,39980,4091
9,40392,3923
9,40805,3896
9,41217,3869
9,41628,3892
9,42042,3966
9,42453,3610
9,42865,3364
9,43278,3367
9,43690,3437
9,44102,3665
9,44515,3384
9,44927,3885
9,45338,3367
9,45752,3129
9,46163,3847
9,46575,3319
9,46988,3787
9,47400,3951
9,47812,3485
9,48225,3209
9,48637,3707
9,49048,3542
9,49462,3124
9,49873,3420
9,50285,3576
9,50697,3396
9,51110,3863
9,51522,3237
9,51933,3543
9,52347,3021
9,52758,3346
9,53170,3548
9,53583,3478
9,53995,3368
9,54407,3436
9,54820,3352
9,55232,3630
9,55643,3424
9,56057,3628
9,56468,3431
9,56880,3569
9,57293,3520
9,57705,3754
9,58117,3561
9,58530,3937
9,58942,2778
9,59353,3388
9,59765,3573
9,60178,3432
9,60590,3673
9,61002,4969
9,61415,5756
9,61827,8520
9,62238,13079
9,62652,20678
9,63063,31522
9,63475,49639
9,63888,76832
9,64300,111705
9,64712,157237
9,65125,217768
9,65537,288275
9,65948,358873
9,66362,434523
9,66773,506297
9,67185,576716
9,67598,633564
9,68010,681537
9,68422,720035
9,68833,740652
9,69247,752905
9,69658,744879
9,70070,732097
9,70483,710283
9,70895,673474
9,71307,641498
9,71720,602146
9,72132,559693
9,72543,522814
9,72957,484392
9,73368,441960
9,73780,402582
9,74193,356582
9,74605,326100
9,75017,293521
9,75430,257138
9,75842,224089
9,76253,201609
9,76667,178062
9,77078,153664
9,77490,132330
9,77902,113081
9,78315,98745
9,78727,90180
9,79138,74823
9,79552,69388
9,79963,61028
9,80375,53932
9,80788,49054
9,81200,44474
9,81612,38480
9,82025,35471
9,82437,32511
9,82848,29816
9,83262,26501
9,83673,25407
9,84085,24702
9,84498,21187
9,84910,21834
9,85322,18982
9,85735,17498
9,86147,17244
9,86558,15645
9,86970,15060
9,87383,13676
9,87795,14421
9,88207,13088
9,88620,11476
9,89032,13298
9,89443,12457
9,89857,11797
9,90268,10724
9,90680,10485
9,91093,9272
9,91505,9106
9,91917,8571
9,92330,8805
9,92742,8903
9,93153,8702
9,93567,8574
9,93978,7813
9,94390,7943
9,94803,7874
9,95215,7168
9,95627,6139
9,96038,6133
9,96452,6713
9,96863,7244
9,97275,5851
9,97688,6069
9,98100,6563
9,98512,5411
9,98925,6311
9,99337,5794
9,99748,5705
10,00162,6090
10,00573,5265
10,00985,5546
10,01398,5878
10,01810,5156
10,02222,4569
10,02635,5740
10,03047,4971
10,03458,5253
10,03872,4665
10,04283,5112
10,04695,4466
10,05107,4241
10,05520,5179
10,05932,4316
10,06343,4042
10,06757,4543
10,07168,4847
10,07580,3939
10,07993,4200
10,08405,3663
10,08817,4378
10,09230,3762
10,09642,4325
10,10053,4032
10,10467,3375
10,10878,4079
10,11290,3820
10,11703,4305
10,12115,3773
10,12527,3830
10,12940,3801
10,13352,3473
10,13763,3903
10,14175,3413
10,14588,4382
10,15000,4070
10,15412,3680
10,15825,3335
10,16237,3728
10,16648,3266
10,17062,2987
10,17473,3144
10,17885,3345
10,18298,2801
10,18710,3465
10,19122,3353
10,19535,3068
10,19947,3722
10,20358,3440
10,20772,3456
10,21183,3327
10,21595,3367
10,22008,3579
10,22420,3118
10,22832,3189
10,23243,3006
10,23657,2970
10,24068,3105
10,24480,2834
10,24893,3099
10,25305,3217
10,25717,3600
10,26130,3274
10,26542,3362
10,26953,3471
10,27367,3499
10,27778,3132
10,28190,3055
10,28603,3528
10,29015,3214
10,29427,2960
10,29840,2736
10,30252,3035
10,30663,2794
10,31077,3580
10,31488,3351
10,31900,3281
10,32312,3188
10,32725,3121
10,33137,3152
10,33548,3348
10,33962,3172
10,34373,2786
10,34785,3173
10,35198,2673
10,35610,3047
10,36022,3108
10,36435,3698
10,36847,2253
10,37258,2523
10,37672,3394
10,38083,3621
10,38495,2645
10,38908,3189
10,39320,3091
10,39732,2832
10,40145,2961
10,40557,2980
10,40968,2831
10,41380,2830
10,41793,2886
10,42205,2669
10,42617,2672
10,43030,2707
10,43442,3142
10,43853,2658
10,44267,3635
10,44678,3004
10,45090,3062
10,45503,3399
10,45915,4465
10,46327,4208
10,46740,4811
10,47152,5318
10,47563,6071
10,47977,5877
10,48388,6467
10,48800,7177
10,49213,6190
10,49625,7425
10,50037,7049
10,50448,6718
10,50862,6636
10,51273,6504
10,51685,5917
10,52098,6198
10,52510,5350
10,52922,5792
10,53335,5114
10,53747,5156
10,54158,4405
10,54572,4834
10,54983,4377
10,55395,4767
10,55808,4210
10,56220,4311
10,56632,3818
10,57045,4158
10,57457,3324
10,57868,3631
10,58282,3592
10,58693,3638
10,59105,3650
10,59517,3155
10,59930,2919
10,60342,2558
10,60753,2718
10,61167,2925
10,61578,2769
10,61990,2490
10,62403,2854
10,62815,2379
10,63227,2511
10,63640,2843
10,64052,3460
10,64463,2590
10,64877,2617
10,65288,3132
10,65700,2541
10,66113,3182
10,66525,3039
10,66937,2649
10,67350,2623
10,67762,2238
10,68173,2921
10,68585,3070
10,68998,2478
10,69410,2542
10,69822,2630
10,70235,2485
10,70647,2506
10,71058,2434
10,71472,1999
10,71883,2492
10,72295,2581
10,72708,2400
10,73120,2266
10,73532,2666
10,73945,2197
10,74357,2279
10,74768,2006
10,75182,2528
10,75593,2628
10,76005,2515
10,76418,2100
10,76830,2309
10,77242,2417
10,77653,2037
10,78067,2282
10,78478,3148
10,78890,2647
10,79303,2375
10,79715,2371
10,80127,2817
10,80540,2530
10,80952,2306
10,81363,2071
10,81777,3064
10,82188,1725
10,82600,2169
10,83013,2768
10,83425,1803
10,83837,1841
10,84250,2073
10,84662,1955
10,85073,1987
10,85487,2100
10,85898,3174
10,86310,2313
10,86722,2282
10,87135,2006
10,87547,1723
10,87958,2435
10,88372,2217
10,88783,2083
10,89195,2486
10,89608,2155
10,90020,2775
10,90432,2292
10,90845,2122
10,91257,2071
10,91668,2113
10,92082,2192
10,92493,1886
10,92905,1792
10,93318,2059
10,93730,2311
10,94142,2219
10,94555,2277
10,94967,2313
10,95378,2330
10,95790,2316
10,96203,2217
10,96615,2404
10,97027,1926
10,97440,2457
10,97852,2167
10,98263,1979
10,98677,2275
10,99088,2257
10,99500,2030
10,99913,2593
11,00325,2702
11,00737,2839
11,01150,3715
11,01562,4421
11,01973,6646
11,02387,12237
11,02798,19226
11,03210,27857
11,03623,43498
11,04035,61410
11,04447,89578
11,04858,120933
11,05272,157552
11,05683,203538
11,06095,246006
11,06508,289393
11,06920,331132
11,07332,365825
11,07745,402392
11,08157,420539
11,08568,438980
11,08982,447275
11,09393,443583
11,09805,428524
11,10218,414571
11,10630,402102
11,11042,376570
11,11455,343430
11,11867,316867
11,12278,282571
11,12692,256987
11,13103,226001
11,13515,202453
11,13928,176694
11,14340,154320
11,14752,133170
11,15163,115319
11,15577,97237
11,15988,84594
11,16400,72666
11,16813,64459
11,17225,56422
11,17637,48526
11,18050,43146
11,18462,36772
11,18873,32825
11,19287,30430
11,19698,27098
11,20110,24961
11,20523,22199
11,20935,20260
11,21347,17575
11,21760,17074
11,22172,15297
11,22583,15631
11,22997,13247
11,23408,12032
11,23820,11610
11,24232,10407
11,24645,10686
11,25057,9482
11,25468,9467
11,25882,9715
11,26293,7849
11,26705,7982
11,27118,7989
11,27530,7504
11,27942,7014
11,28355,6837
11,28767,6103
11,29178,6384
11,29592,5702
11,30003,5323
11,30415,5211
11,30828,5342
11,31240,4724
11,31652,5668
11,32065,5267
11,32477,4846
11,32888,4310
11,33300,4163
11,33713,4273
11,34125,3826
11,34537,4110
11,34950,3561
11,35362,3821
11,35773,4047
11,36187,3617
11,36598,4046
11,37010,3564
11,37423,3291
11,37835,3318
11,38247,3430
11,38660,3056
11,39072,3221
11,39483,3460
11,39897,3321
11,40308,3098
11,40720,3150
11,41133,3204
11,41545,2882
11,41957,3155
11,42368,3348
11,42782,3074
11,43193,2964
11,43605,2991
11,44018,2825
11,44430,2925
11,44842,2653
11,45255,2456
11,45667,2729
11,46078,2546
11,46492,3331
11,46903,2675
11,47315,2977
11,47728,2669
11,48140,2607
11,48552,2379
11,48965,2522
11,49377,2597
11,49788,2453
11,50202,2666
11,50613,2553
11,51025,2979
11,51437,2568
11,51850,2682
11,52262,2379
11,52673,2589
11,53087,3059
11,53498,2589
11,53910,2137
11,54323,2027
11,54735,2429
11,55147,1933
11,55560,2052
11,55972,2440
11,56383,1786
11,56797,2158
11,57208,2272
11,57620,1989
11,58033,2279
11,58445,2161
11,58857,2028
11,59270,2039
11,59682,1888
11,60093,2144
11,60505,2272
11,60918,1936
11,61330,1825
11,61742,1984
11,62155,2071
11,62567,2118
11,62978,2234
11,63392,1993
11,63803,2108
11,64215,2116
11,64628,2072
11,65040,2288
11,65452,2592
11,65865,1969
11,66277,1944
11,66688,1844
11,67102,1800
11,67513,2170
11,67925,2034
11,68338,1778
11,68750,2075
11,69162,1711
11,69573,2035
11,69987,1994
11,70398,1842
11,70810,1980
11,71223,2035
11,71635,1733
11,72047,1807
11,72460,1828
11,72872,1917
11,73283,2083
11,73697,1965
11,74108,1657
11,74520,1846
11,74933,1866
11,75345,1859
11,75757,1993
11,76170,2115
11,76582,1665
11,76993,2063
11,77407,1757
11,77818,2091
11,78230,2084
11,78642,1919
11,79055,2484
11,79467,2245
11,79878,2123
11,80292,2350
11,80703,2427
11,81115,2908
11,81528,2765
11,81940,3166
11,82352,3421
11,82765,2983
11,83177,2604
11,83588,3057
11,84002,3528
11,84413,3166
11,84825,3425
11,85238,3627
11,85650,2949
11,86062,2829
11,86475,2686
11,86887,2722
11,87298,2265
11,87710,2478
11,88123,1941
11,88535,2040
11,88947,1847
11,89360,2887
11,89772,2073
11,90183,2299
11,90597,2137
11,91008,2308
11,91420,1901
11,91833,2366
11,92245,2306
11,92657,2592
11,93070,2072
11,93482,2518
11,93893,2846
11,94307,2829
11,94718,2729
11,95130,3020
11,95543,2828
11,95955,2649
11,96367,3018
11,96778,2719
11,97192,2446
11,97603,2635
11,98015,2422
11,98428,2382
11,98840,2761
11,99252,2482
11,99665,2326
12,00077,1910
12,00488,2479
12,00902,1997
12,01313,1720
12,01725,2316
12,02138,1958
12,02550,1936
12,02962,1439
12,03375,1635
12,03787,2199
12,04198,1938
12,04612,2320
12,05023,1767
12,05435,2279
12,05847,1877
12,06260,1550
12,06672,1489
12,07083,1676
12,07497,1666
12,07908,1651
12,08320,1441
12,08733,1911
12,09145,1482
12,09557,1572
12,09970,2010
12,10382,1524
12,10793,2302
12,11207,1832
12,11618,1600
12,12030,1498
12,12443,1840
12,12855,1866
12,13267,1522
12,13680,1711
12,14092,1637
12,14503,2080
12,14915,1524
12,15328,1726
12,15740,1430
12,16152,1558
12,16565,1209
12,16977,1787
12,17388,1429
12,17802,1487
12,18213,1793
12,18625,1722
12,19038,1766
12,19450,2025
12,19862,1649
12,20275,1681
12,20687,1698
12,21098,1942
12,21512,1264
12,21923,2111
12,22335,1617
12,22748,1330
12,23160,1788
12,23572,1906
12,23983,1684
12,24397,1900
12,24808,1641
12,25220,1946
12,25633,1578
12,26045,1802
12,26457,1647
12,26870,2035
12,27282,1574
12,27693,1741
12,28107,1166
12,28518,1295
12,28930,1826
12,29343,1288
12,29755,1846
12,30167,1626
12,30580,1507
12,30992,1370
12,31403,1382
12,31817,1614
12,32228,1392
12,32640,1757
12,33052,1772
12,33465,1465
12,33877,1606
12,34288,1546
12,34702,1575
12,35113,1742
12,35525,1355
12,35938,1359
12,36350,1438
12,36762,1573
12,37175,1375
12,37587,1769
12,37998,1744
12,38412,1518
12,38823,1211
12,39235,1547
12,39648,1187
12,40060,1417
12,40472,1603
12,40885,1762
12,41297,1829
12,41708,1405
12,42120,1625
12,42533,1272
12,42945,1856
12,43357,1915
12,43770,2090
12,44182,2085
12,44593,2294
12,45007,2513
12,45418,2429
12,45830,3154
12,46243,3076
12,46655,3362
12,47067,3393
12,47480,3032
12,47892,4162
12,48303,3793
12,48717,3294
12,49128,3881
12,49540,2917
12,49953,3726
12,50365,3854
12,50777,3494
12,51188,4602
12,51602,4926
12,52013,9009
12,52425,11743
12,52838,20891
12,53250,32676
12,53662,51015
12,54075,75567
12,54487,115370
12,54898,160592
12,55312,223244
12,55723,299056
12,56135,387295
12,56548,480234
12,56960,569784
12,57372,668619
12,57785,765361
12,58197,858560
12,58608,939063
12,59022,992999
12,59433,1034037
12,59845,1042531
12,60257,1030503
12,60670,1006676
12,61082,968060
12,61493,913714
12,61907,832027
12,62318,746309
12,62730,668337
12,63143,581564
12,63555,501564
12,63967,429471
12,64380,368658
12,64792,310486
12,65203,268451
12,65617,226401
12,66028,197800
12,66440,166780
12,66853,138363
12,67265,122535
12,67677,106377
12,68090,93038
12,68502,81610
12,68913,72368
12,69325,65666
12,69738,59990
12,70150,55995
12,70562,47314
12,70975,47592
12,71387,43682
12,71798,39791
12,72212,35396
12,72623,34472
12,73035,31035
12,73448,27843
12,73860,25522
12,74272,25908
12,74685,24334
12,75097,22933
12,75508,21628
12,75922,19802
12,76333,18766
12,76745,17062
12,77158,16876
12,77570,15729
12,77982,13249
12,78393,13195
12,78807,12818
12,79218,12864
12,79630,12462
12,80043,10259
12,80455,10858
12,80867,10388
12,81280,10256
12,81692,8997
12,82103,8590
12,82517,8966
12,82928,8126
12,83340,7985
12,83753,7547
12,84165,7277
12,84577,6881
12,84990,7008
12,85402,6271
12,85813,6368
12,86227,6158
12,86638,6042
12,87050,5188
12,87463,5248
12,87875,4536
12,88287,5352
12,88698,4457
12,89112,4775
12,89523,4998
12,89935,3744
12,90348,4527
12,90760,4484
12,91172,4153
12,91585,3552
12,91997,2938
12,92408,3849
12,92822,4102
12,93233,4461
12,93645,3158
12,94058,3094
12,94470,3727
12,94882,3139
12,95295,3133
12,95707,3010
12,96118,3635
12,96532,2168
12,96943,2797
12,97355,2832
12,97767,2988
12,98180,3168
12,98592,2393
12,99003,2210
12,99417,2596
12,99828,2611
13,00240,2451
13,00653,2644
13,01065,3054
13,01477,2591
13,01890,2338
13,02302,2829
13,02713,2187
13,03127,2584
13,03538,2767
13,03950,2493
13,04363,2240
13,04775,2673
13,05187,2502
13,05600,2146
13,06012,2373
13,06423,2454
13,06835,2719
13,07248,2389
13,07660,1854
13,08072,1659
13,08485,2057
13,08897,2040
13,09308,2317
13,09722,1406
13,10133,2113
13,10545,1639
13,10958,2050
13,11370,2305
13,11782,1615
13,12195,1878
13,12607,1630
13,13018,1365
13,13432,2047
13,13843,1562
13,14255,2052
13,14668,2344
13,15080,2112
13,15492,2255
13,15903,1513
13,16317,1956
13,16728,1707
13,17140,1606
13,17553,1471
13,17965,1881
13,18377,2038
13,18790,1371
13,19202,1384
13,19613,1650
13,20027,1978
13,20438,1702
13,20850,2367
13,21263,1379
13,21675,1812
13,22087,1745
13,22500,1635
13,22912,1468
13,23323,1420
13,23737,2269
13,24148,1706
13,24560,1572
13,24972,1672
13,25385,1719
13,25797,1637
13,26208,1333
13,26622,1683
13,27033,1576
13,27445,1034
13,27858,1960
13,28270,1595
13,28682,1011
13,29095,1626
13,29507,1338
13,29918,1371
13,30332,1253
13,30743,1208
13,31155,1331
13,31568,1650
13,31980,1513
13,32392,1424
13,32805,1543
13,33217,1328
13,33628,1523
13,34040,1699
13,34453,1974
13,34865,2055
13,35277,1929
13,35690,2417
13,36102,2254
13,36513,2555
13,36927,2707
13,37338,2558
13,37750,2375
13,38163,2682
13,38575,2314
13,38987,2065
13,39400,1784
13,39812,2016
13,40223,1739
13,40637,1830
13,41048,1860
13,41460,2330
13,41873,1746
13,42285,1611
13,42697,1590
13,43108,1707
13,43522,1792
13,43933,1778
13,44345,1378
13,44758,1609
13,45170,1514
13,45582,1367
13,45995,890
13,46407,1619
13,46818,1277
13,47232,1523
13,47643,1437
13,48055,1436
13,48468,1406
13,48880,1079
13,49292,1239
13,49705,1627
13,50117,1681
13,50528,1218
13,50942,1617
13,51353,1350
13,51765,893
13,52177,1893
13,52590,1253
13,53002,1358
13,53413,1047
13,53827,1197
13,54238,1382
13,54650,1347
13,55063,1101
13,55475,1430
13,55887,1462
13,56300,1467
13,56712,948
13,57123,1587
13,57537,1279
13,57948,996
13,58360,1593
13,58773,1264
13,59185,1400
13,59597,955
13,60010,1781
13,60422,1735
13,60833,3279
13,61245,5437
13,61658,9573
13,62070,14277
13,62482,23884
13,62895,36918
13,63307,56007
13,63718,79984
13,64132,109185
13,64543,150028
13,64955,193952
13,65368,242273
13,65780,295549
13,66192,335559
13,66605,389710
13,67017,429338
13,67428,460107
13,67842,487576
13,68253,488518
13,68665,500204
13,69078,489951
13,69490,461736
13,69902,434322
13,70313,407264
13,70727,369209
13,71138,329867
13,71550,292122
13,71963,254153
13,72375,218327
13,72787,190089
13,73200,165491
13,73612,136795
13,74023,116919
13,74437,98485
13,74848,86135
13,75260,75053
13,75673,62374
13,76085,54632
13,76497,46875
13,76910,43848
13,77322,38555
13,77733,33839
13,78147,31056
13,78558,26629
13,78970,26187
13,79382,24968
13,79795,21447
13,80207,21080
13,80618,20869
13,81032,17300
13,81443,16375
13,81855,16269
13,82268,13910
13,82680,12990
13,83092,11876
13,83505,10501
13,83917,9977
13,84328,10123
13,84742,8448
13,85153,8623
13,85565,7063
13,85978,6421
13,86390,6436
13,86802,6249
13,87215,6412
13,87627,5620
13,88038,4989
13,88450,4681
13,88863,4221
13,89275,4152
13,89687,3848
13,90100,3205
13,90512,3155
13,90923,4343
13,91337,3927
13,91748,2747
13,92160,3616
13,92573,2545
13,92985,3043
13,93397,2556
13,93810,3598
13,94222,2297
13,94633,2619
13,95047,2649
13,95458,2621
13,95870,2818
13,96283,1828
13,96695,2328
13,97107,1834
13,97518,2412
13,97932,2384
13,98343,2225
13,98755,1581
13,99168,1826
13,99580,1526
13,99992,1739
14,00405,2539
14,00817,1658
14,01228,1710
14,01642,1307
14,02053,1824
14,02465,1300
14,02878,1688
14,03290,1797
14,03702,1524
14,04115,1168
14,04527,2018
14,04938,1602
14,05352,1278
14,05763,1079
14,06175,1299
14,06587,1398
14,07000,1388
14,07412,2059
14,07823,2163
14,08237,2600
14,08648,2875
14,09060,4560
14,09473,7645
14,09885,13248
14,10297,20286
14,10710,32685
14,11122,46257
14,11533,71341
14,11947,97807
14,12358,137646
14,12770,179081
14,13183,229974
14,13595,283910
14,14007,343875
14,14420,401981
14,14832,448281
14,15243,492154
14,15655,530159
14,16068,552986
14,16480,559102
14,16892,563447
14,17305,542758
14,17717,503577
14,18128,479083
14,18542,431908
14,18953,382127
14,19365,334084
14,19778,285850
14,20190,251635
14,20602,213512
14,21015,180909
14,21427,155559
14,21838,132413
14,22252,107208
14,22663,94469
14,23075,81110
14,23488,69919
14,23900,58581
14,24312,51185
14,24723,44808
14,25137,40717
14,25548,36425
14,25960,34175
14,26373,29317
14,26785,25729
14,27197,24269
14,27610,23456
14,28022,20053
14,28433,18610
14,28847,15720
14,29258,16543
14,29670,14833
14,30083,13711
14,30495,13177
14,30907,12389
14,31320,11094
14,31732,10903
14,32143,8676
14,32557,9180
14,32968,8782
14,33380,8614
14,33792,7710
14,34205,5928
14,34617,7364
14,35028,6418
14,35442,6206
14,35853,6212
14,36265,6230
14,36678,4972
14,37090,5256
14,37502,5703
14,37915,5076
14,38327,5140
14,38738,4006
14,39152,4189
14,39563,4958
14,39975,3452
14,40388,3571
14,40800,3318
14,41212,3895
14,41625,3658
14,42037,3355
14,42448,3432
14,42860,4218
14,43273,3278
14,43685,3099
14,44097,3458
14,44510,2774
14,44922,2731
14,45333,2601
14,45747,2202
14,46158,2711
14,46570,2449
14,46983,2226
14,47395,2730
14,47807,2224
14,48220,2647
14,48632,2477
14,49043,1850
14,49457,1801
14,49868,2080
14,50280,2114
14,50693,2096
14,51105,2331
14,51517,2160
14,51930,1747
14,52342,1767
14,52753,2219
14,53165,1838
14,53578,2135
14,53990,2017
14,54402,1501
14,54815,1754
14,55227,1994
14,55638,1770
14,56052,2173
14,56463,1870
14,56875,1705
14,57288,1663
14,57700,1427
14,58112,1652
14,58525,1821
14,58937,1856
14,59348,1188
14,59762,1452
14,60173,2271
14,60585,1847
14,60998,1746
14,61410,1866
14,61822,2114
14,62233,1547
14,62647,1564
14,63058,1883
14,63470,1231
14,63883,1177
14,64295,1929
14,64707,1440
14,65120,1462
14,65532,1194
14,65943,1468
14,66357,1596
14,66768,1268
14,67180,1627
14,67593,1088
14,68005,1584
14,68417,1360
14,68830,1568
14,69242,1685
14,69653,1494
14,70067,1532
14,70478,1107
14,70890,2049
14,71302,1407
14,71715,1284
14,72127,1692
14,72538,2049
14,72952,1619
14,73363,1532
14,73775,1419
14,74188,1439
14,74600,1352
14,75012,1183
14,75425,1609
14,75837,1542
14,76248,1218
14,76662,1218
14,77073,1468
14,77485,1177
14,77898,1559
14,78310,1012
14,78722,718
14,79135,891
14,79547,819
14,79958,1517
14,80370,1117
14,80783,1412
14,81195,1078
14,81607,1137
14,82020,1275
14,82432,1410
14,82843,898
14,83257,930
14,83668,1372
14,84080,1007
14,84493,810
14,84905,848
14,85317,837
14,85730,1325
14,86142,766
14,86553,989
14,86967,1257
14,87378,967
14,87790,900
14,88203,744
14,88615,1257
14,89027,1072
14,89438,1208
14,89852,898
14,90263,1208
14,90675,1241
14,91088,1416
14,91500,855
14,91912,1083
14,92325,1335
14,92737,1174
14,93148,988
14,93562,1226
14,93973,760
14,94385,960
14,94798,1076
14,95210,1152
14,95622,1298
14,96035,838
14,96447,945
14,96858,1511
14,97272,824
14,97683,1324
14,98095,1138
14,98507,1398
14,98920,1107
14,99332,1231
14,99743,835
15,00157,991
15,00568,962
15,00980,1306
15,01393,1319
15,01805,1282
15,02217,743
15,02630,1098
15,03042,729
15,03453,1181
15,03867,1135
15,04278,1075
15,04690,870
15,05103,1252
15,05515,1127
15,05927,882
15,06340,831
15,06752,1009
15,07163,653
15,07575,852
15,07988,764
15,08400,833
15,08812,958
15,09225,719
15,09637,861
15,10048,925
15,10462,772
15,10873,1183
15,11285,661
15,11698,1091
15,12110,841
15,12522,1148
15,12935,1047
15,13347,1105
15,13758,1225
15,14172,1102
15,14583,1188
15,14995,1054
15,15408,799
15,15820,984
15,16232,1348
15,16643,1491
15,17057,775
15,17468,1464
15,17880,991
15,18293,858
15,18705,1024
15,19117,1509
15,19530,1398
15,19942,1457
15,20353,1847
15,20767,3390
15,21178,4796
15,21590,8275
15,22003,13831
15,22415,21044
15,22827,33948
15,23240,54482
15,23652,77460
15,24063,108878
15,24477,145848
15,24888,198387
15,25300,247419
15,25712,301835
15,26125,361108
15,26537,420991
15,26948,458191
15,27362,505768
15,27773,531671
15,28185,545817
15,28598,548021
15,29010,532208
15,29422,509671
15,29835,476735
15,30247,439491
15,30658,390631
15,31072,344118
15,31483,300427
15,31895,258592
15,32308,224746
15,32720,193448
15,33132,163551
15,33545,134944
15,33957,114679
15,34368,99631
15,34780,85000
15,35193,74617
15,35605,63404
15,36017,55542
15,36430,49849
15,36842,42364
15,37253,38571
15,37667,31870
15,38078,30536
15,38490,28468
15,38903,24629
15,39315,22884
15,39727,21177
15,40140,18843
15,40552,18316
15,40963,15680
15,41377,14244
15,41788,13244
15,42200,12806
15,42613,11261
15,43025,10411
15,43437,10538
15,43848,9090
15,44262,8589
15,44673,7707
15,45085,7466
15,45498,7173
15,45910,6565
15,46322,6973
15,46735,6358
15,47147,6181
15,47558,5303
15,47972,5385
15,48383,5438
15,48795,3865
15,49208,3862
15,49620,4966
15,50032,3923
15,50445,4044
15,50857,3894
15,51268,3424
15,51682,2744
15,52093,2451
15,52505,3464
15,52917,3272
15,53330,2052
15,53742,2570
15,54153,3003
15,54567,2468
15,54978,2304
15,55390,1647
15,55803,2183
15,56215,2690
15,56627,2122
15,57040,1839
15,57452,1725
15,57863,1388
15,58277,1904
15,58688,1845
15,59100,2135
15,59513,1722
15,59925,1372
15,60337,1600
15,60750,2269
15,61162,1391
15,61573,1373
15,61985,1413
15,62398,1670
15,62810,1249
15,63222,1745
15,63635,1703
15,64047,1697
15,64458,796
15,64872,842
15,65283,1787
15,65695,1328
15,66108,1208
15,66520,1034
15,66932,1758
15,67345,2287
15,67757,3713
15,68168,5652
15,68582,9610
15,68993,14892
15,69405,25984
15,69818,42050
15,70230,66784
15,70642,100778
15,71053,147857
15,71467,204199
15,71878,277100
15,72290,377130
15,72703,486670
15,73115,613224
15,73527,757731
15,73940,908337
15,74352,1067530
15,74763,1237869
15,75177,1403512
15,75588,1562796
15,76000,1682458
15,76413,1782272
15,76825,1841498
15,77237,1862444
15,77650,1819203
15,78062,1717328
15,78473,1586662
15,78887,1404646
15,79298,1241042
15,79710,1042980
15,80122,888457
15,80535,740148
15,80947,616344
15,81358,514728
15,81772,425505
15,82183,353641
15,82595,300110
15,83008,256657
15,83420,219204
15,83832,189786
15,84245,163869
15,84657,146055
15,85068,129420
15,85482,114128
15,85893,105212
15,86305,91657
15,86718,83896
15,87130,76822
15,87542,71631
15,87955,63692
15,88367,59075
15,88778,56307
15,89190,53782
15,89603,48043
15,90015,45155
15,90427,43510
15,90840,41333
15,91252,35792
15,91663,35002
15,92077,32984
15,92488,30672
15,92900,29802
15,93313,25868
15,93725,25231
15,94137,24942
15,94550,23208
15,94962,21663
15,95373,22397
15,95787,18568
15,96198,17980
15,96610,18488
15,97023,15128
15,97435,16776
15,97847,14006
15,98258,15516
15,98672,13999
15,99083,13944
15,99495,11297
15,99908,11097
16,00320,10987
16,00732,11532
16,01145,9477
16,01557,11549
16,01968,10187
16,02382,8751
16,02793,8724
16,03205,7774
16,03618,7287
16,04030,7288
16,04442,8256
16,04855,7889
16,05267,7239
16,05678,6985
16,06092,5934
16,06503,5720
16,06915,5816
16,07327,5117
16,07740,5310
16,08152,5589
16,08563,5767
16,08977,6152
16,09388,5188
16,09800,4700
16,10213,4972
16,10625,4933
16,11037,4603
16,11450,4136
16,11862,4158
16,12273,3850
16,12687,3278
16,13098,2937
16,13510,3792
16,13923,3035
16,14335,3170
16,14747,3234
16,15160,3611
16,15572,3289
16,15983,2704
16,16397,2447
16,16808,2293
16,17220,2762
16,17632,2704
16,18045,2404
16,18457,3233
16,18868,2525
16,19282,2273
16,19693,1983
16,20105,2693
16,20518,2386
16,20930,1682
16,21342,1819
16,21755,2545
16,22167,2542
16,22578,2012
16,22992,1636
16,23403,2348
16,23815,1957
16,24228,1885
16,24640,1579
16,25052,2011
16,25465,2101
16,25877,1787
16,26288,1886
16,26700,1325
16,27113,1673
16,27525,2049
16,27937,1570
16,28350,1800
16,28762,1986
16,29173,1083
16,29587,1866
16,29998,1587
16,30410,1533
16,30823,1659
16,31235,2128
16,31647,1588
16,32060,1539
16,32472,1265
16,32883,1546
16,33297,1810
16,33708,1446
16,34120,2185
16,34533,1269
16,34945,1834
16,35357,1720
16,35768,1978
16,36182,1792
16,36593,1657
16,37005,1149
16,37418,2317
16,37830,1401
16,38242,2090
16,38655,2040
16,39067,1784
16,39478,1113
16,39892,2155
16,40303,1778
16,40715,1608
16,41128,1281
16,41540,1381
16,41952,1792
16,42365,1718
16,42777,1911
16,43188,2335
16,43602,2507
16,44013,2965
16,44425,2603
16,44837,3722
16,45250,3199
16,45662,4179
16,46073,4487
16,46487,5257
16,46898,4716
16,47310,4932
16,47723,5910
16,48135,5370
16,48547,5593
16,48960,5532
16,49372,5421
16,49783,4843
16,50197,5475
16,50608,4358
16,51020,5155
16,51433,3663
16,51845,3819
16,52257,3570
16,52670,3562
16,53082,2866
16,53493,2855
16,53905,2973
16,54318,1998
16,54730,2714
16,55142,1686
16,55555,1767
16,55967,1504
16,56378,1603
16,56792,2245
16,57203,1008
16,57615,1477
16,58028,1429
16,58440,1526
16,58852,2037
16,59265,1778
16,59677,2190
16,60088,3543
16,60502,5218
16,60913,9130
16,61325,15052
16,61738,23805
16,62150,40483
16,62562,61279
16,62973,87474
16,63387,119743
16,63798,159998
16,64210,210884
16,64623,260592
16,65035,319019
16,65447,387070
16,65860,447108
16,66272,485231
16,66683,522725
16,67097,561008
16,67508,570412
16,67920,563207
16,68333,549579
16,68745,522940
16,69157,480796
16,69570,436454
16,69982,389766
16,70393,342672
16,70807,295182
16,71218,249796
16,71630,212267
16,72042,180745
16,72455,152551
16,72867,126861
16,73278,109779
16,73692,94452
16,74103,82669
16,74515,69390
16,74928,61809
16,75340,54018
16,75752,49129
16,76165,39778
16,76577,39912
16,76988,33727
16,77402,29625
16,77813,27797
16,78225,23247
16,78638,22973
16,79050,20540
16,79462,20744
16,79875,18288
16,80287,16775
16,80698,15560
16,81110,14347
16,81523,12394
16,81935,12158
16,82347,11120
16,82760,11466
16,83172,10600
16,83583,9991
16,83997,9282
16,84408,9361
16,84820,8865
16,85233,8400
16,85645,8047
16,86057,6764
16,86470,8131
16,86882,9085
16,87293,7548
16,87707,8642
16,88118,8306
16,88530,8494
16,88943,7602
16,89355,9368
16,89767,6952
16,90178,6697
16,90592,6330
16,91003,5763
16,91415,6256
16,91828,5251
16,92240,4200
16,92652,3876
16,93065,4073
16,93477,3065
16,93888,3324
16,94302,2355
16,94713,3212
16,95125,2555
16,95538,3029
16,95950,3135
16,96362,2519
16,96775,3050
16,97187,2226
16,97598,1692
16,98012,2429
16,98423,2360
16,98835,2386
16,99247,3155
16,99660,1920
17,00072,1922
17,00483,2704
17,00897,1985
17,01308,2284
17,01720,1997
17,02133,1672
17,02545,2233
17,02957,2039
17,03370,1280
17,03782,1412
17,04193,1570
17,04607,1423
17,05018,1603
17,05430,1058
17,05843,912
17,06255,916
17,06667,1005
17,07080,1070
17,07492,1244
17,07903,1373
17,08315,1537
17,08728,807
17,09140,1351
17,09552,855
17,09965,1121
17,10377,938
17,10788,889
17,11202,1045
17,11613,1082
17,12025,1015
17,12438,1035
17,12850,1190
17,13262,961
17,13675,1279
17,14087,1262
17,14498,1247
17,14912,1436
17,15323,959
17,15735,853
17,16148,1282
17,16560,1448
17,16972,1128
17,17383,960
17,17797,776
17,18208,1057
17,18620,1436
17,19033,612
17,19445,646
17,19857,883
17,20270,806
17,20682,1270
17,21093,609
17,21507,1661
17,21918,2002
17,22330,1704
17,22743,2660
17,23155,2911
17,23567,3412
17,23980,2993
17,24392,3338
17,24803,3272
17,25217,2553
17,25628,2381
17,26040,1827
17,26452,921
17,26865,2105
17,27277,2367
17,27688,3418
17,28102,6297
17,28513,11834
17,28925,17170
17,29338,29366
17,29750,44813
17,30162,67402
17,30575,94329
17,30987,128911
17,31398,179334
17,31812,235336
17,32223,294114
17,32635,360729
17,33048,421832
17,33460,487687
17,33872,543699
17,34285,594757
17,34697,619843
17,35108,632190
17,35520,636385
17,35933,615463
17,36345,573466
17,36757,518912
17,37170,466825
17,37582,412343
17,37993,354302
17,38407,305452
17,38818,253171
17,39230,215804
17,39643,182481
17,40055,154726
17,40467,127579
17,40880,110692
17,41292,93968
17,41703,81401
17,42117,68849
17,42528,60520
17,42940,54166
17,43353,48015
17,43765,42166
17,44177,38711
17,44588,33862
17,45002,30887
17,45413,29420
17,45825,24644
17,46238,24943
17,46650,20820
17,47062,19872
17,47475,19552
17,47887,17305
17,48298,16722
17,48712,16119
17,49123,14245
17,49535,13855
17,49948,13252
17,50360,11874
17,50772,11926
17,51185,9801
17,51597,8957
17,52008,10067
17,52422,8713
17,52833,8134
17,53245,6569
17,53657,6257
17,54070,7056
17,54482,6826
17,54893,6661
17,55307,6412
17,55718,4834
17,56130,5801
17,56543,5372
17,56955,4193
17,57367,4019
17,57780,4334
17,58192,4563
17,58603,4004
17,59017,3435
17,59428,3722
17,59840,3057
17,60253,2554
17,60665,3649
17,61077,2401
17,61490,2484
17,61902,3223
17,62313,3463
17,62725,3145
17,63138,2654
17,63550,2897
17,63962,2116
17,64375,2127
17,64787,2294
17,65198,2262
17,65612,2147
17,66023,1838
17,66435,1780
17,66848,1660
17,67260,1815
17,67672,1400
17,68085,2102
17,68497,1653
17,68908,2000
17,69322,1676
17,69733,1957
17,70145,1287
17,70558,1707
17,70970,1373
17,71382,1666
17,71795,1892
17,72207,1218
17,72618,1039
17,73030,1724
17,73443,1736
17,73855,1536
17,74267,1275
17,74680,1466
17,75092,1015
17,75503,1268
17,75917,1341
17,76328,868
17,76740,1457
17,77153,1121
17,77565,1014
17,77977,717
17,78390,1137
17,78802,1113
17,79213,1544
17,79627,1331
17,80038,854
17,80450,1024
17,80863,1055
17,81275,1483
17,81687,621
17,82098,1236
17,82512,1288
17,82923,868
17,83335,1221
17,83748,700
17,84160,1069
17,84572,1903
17,84985,1118
17,85397,934
17,85808,1564
17,86222,1448
17,86633,1391
17,87045,1297
17,87458,925
17,87870,999
17,88282,1311
17,88695,1032
17,89107,674
17,89518,1114
17,89932,802
17,90343,1041
17,90755,1139
17,91167,1120
17,91580,850
17,91992,808
17,92403,667
17,92817,966
17,93228,1010
17,93640,980
17,94053,913
17,94465,1001
17,94877,484
17,95290,1053
17,95702,946
17,96113,1005
17,96527,239
17,96938,959
17,97350,414
17,97763,591
17,98175,1279
17,98587,557
17,99000,733
17,99412,928
17,99823,1136
18,00235,846
18,00648,1161
18,01060,884
18,01472,1041
18,01885,1141
18,02297,755
18,02708,415
18,03122,638
18,03533,573
18,03945,671
18,04358,1098
18,04770,929
18,05182,655
18,05595,759
18,06007,892
18,06418,1011
18,06832,612
18,07243,287
18,07655,727
18,08068,987
18,08480,719
18,08892,640
18,09303,1047
18,09717,1143
18,10128,378
18,10540,628
18,10953,650
18,11365,490
18,11777,868
18,12190,1493
18,12602,1064
18,13013,466
18,13427,703
18,13838,775
18,14250,814
18,14663,680
18,15075,882
18,15487,739
18,15900,972
18,16312,1315
18,16723,612
18,17137,986
18,17548,1154
18,17960,1950
18,18372,1925
18,18785,3567
18,19197,5807
18,19608,11224
18,20022,16821
18,20433,27544
18,20845,41150
18,21258,62681
18,21670,93129
18,22082,129581
18,22495,173550
18,22907,227360
18,23318,283697
18,23732,338328
18,24143,403499
18,24555,467748
18,24968,511727
18,25380,566499
18,25792,593520
18,26205,617761
18,26617,616865
18,27028,599045
18,27440,569420
18,27853,518883
18,28265,469917
18,28677,410149
18,29090,362278
18,29502,309605
18,29913,272054
18,30327,228652
18,30738,198178
18,31150,166909
18,31563,143005
18,31975,121639
18,32387,107319
18,32800,91505
18,33212,81174
18,33623,70521
18,34037,61822
18,34448,51739
18,34860,48839
18,35273,43922
18,35685,38781
18,36097,34254
18,36508,31727
18,36922,28583
18,37333,24809
18,37745,24433
18,38158,21937
18,38570,20518
18,38982,18041
18,39395,15624
18,39807,15016
18,40218,13214
18,40632,13296
18,41043,12822
18,41455,11281
18,41868,11068
18,42280,10689
18,42692,9297
18,43105,8116
18,43517,8417
18,43928,9012
18,44342,7164
18,44753,7514
18,45165,6865
18,45577,6348
18,45990,6360
18,46402,5912
18,46813,4440
18,47227,5510
18,47638,5231
18,48050,4982
18,48463,4323
18,48875,4182
18,49287,4351
18,49700,4618
18,50112,3206
18,50523,3829
18,50937,3997
18,51348,3597
18,51760,2774
18,52173,2667
18,52585,2297
18,52997,2655
18,53410,3501
18,53822,2566
18,54233,2147
18,54645,2556
18,55058,1532
18,55470,1894
18,55882,2314
18,56295,2180
18,56707,1029
18,57118,2195
18,57532,2290
18,57943,2122
18,58355,1854
18,58768,1829
18,59180,1618
18,59592,1623
18,60005,1778
18,60417,1935
18,60828,1619
18,61242,1106
18,61653,1335
18,62065,914
18,62478,1738
18,62890,1226
18,63302,1086
18,63713,1934
18,64127,1080
18,64538,1173
18,64950,1465
18,65363,1324
18,65775,1563
18,66187,1287
18,66600,792
18,67012,1062
18,67423,1523
18,67837,1411
18,68248,1406
18,68660,791
18,69073,1707
18,69485,1343
18,69897,830
18,70310,948
18,70722,1262
18,71133,1564
18,71547,1642
18,71958,1005
18,72370,1356
18,72782,241
18,73195,638
18,73607,1347
18,74018,439
18,74432,1346
18,74843,849
18,75255,1082
18,75668,1049
18,76080,647
18,76492,846
18,76905,606
18,77317,1423
18,77728,661
18,78142,842
18,78553,1342
18,78965,895
18,79378,1072
18,79790,1113
18,80202,388
18,80615,970
18,81027,612
18,81438,980
18,81850,609
18,82263,930
18,82675,527
18,83087,1399
18,83500,1370
18,83912,1977
18,84323,2619
18,84737,4919
18,85148,8240
18,85560,11865
18,85973,21846
18,86385,35862
18,86797,54600
18,87210,81673
18,87622,118362
18,88033,163114
18,88447,219463
18,88858,286386
18,89270,369904
18,89683,469525
18,90095,580789
18,90507,685088
18,90918,802472
18,91332,910208
18,91743,1017867
18,92155,1128185
18,92568,1211022
18,92980,1276419
18,93392,1313218
18,93805,1299812
18,94217,1270208
18,94628,1185752
18,95042,1067237
18,95453,947537
18,95865,827265
18,96278,714362
18,96690,597521
18,97102,497989
18,97515,414187
18,97927,343800
18,98338,290057
18,98752,248147
18,99163,207651
18,99575,179107
18,99987,156731
19,00400,136315
19,00812,121709
19,01223,109114
19,01637,95096
19,02048,82575
19,02460,77892
19,02873,68997
19,03285,62016
19,03697,58472
19,04110,52491
19,04522,47915
19,04933,44519
19,05347,40832
19,05758,37923
19,06170,36570
19,06583,33814
19,06995,31820
19,07407,28386
19,07820,27334
19,08232,26044
19,08643,24071
19,09055,23222
19,09468,21492
19,09880,20569
19,10292,17340
19,10705,17594
19,11117,16664
19,11528,15625
19,11942,15159
19,12353,15773
19,12765,13221
19,13178,13521
19,13590,12241
19,14002,11305
19,14415,9915
19,14827,10451
19,15238,9846
19,15652,9172
19,16063,9569
19,16475,9166
19,16888,9032
19,17300,8108
19,17712,7556
19,18123,7686
19,18537,6668
19,18948,6855
19,19360,6488
19,19773,6395
19,20185,4894
19,20597,4859
19,21010,5187
19,21422,4500
19,21833,5264
19,22247,4488
19,22658,5259
19,23070,4499
19,23483,3884
19,23895,3847
19,24307,4212
19,24720,3268
19,25132,3536
19,25543,4639
19,25957,3341
19,26368,4178
19,26780,3922
19,27192,2592
19,27605,2828
19,28017,3592
19,28428,3079
19,28842,1973
19,29253,2583
19,29665,2328
19,30078,2789
19,30490,2393
19,30902,2615
19,31315,2536
19,31727,3030
19,32138,2164
19,32552,3051
19,32963,2158
19,33375,2332
19,33788,2152
19,34200,1712
19,34612,1928
19,35025,2436
19,35437,2710
19,35848,3395
19,36260,3966
19,36673,5938
19,37085,9009
19,37497,14568
19,37910,21762
19,38322,37526
19,38733,53206
19,39147,76301
19,39558,107293
19,39970,144685
19,40383,190824
19,40795,243063
19,41207,302411
19,41620,367730
19,42032,431819
19,42443,491949
19,42857,539832
19,43268,575765
19,43680,598535
19,44093,626231
19,44505,617358
19,44917,597498
19,45330,568439
19,45742,517830
19,46153,467755
19,46565,410568
19,46978,357989
19,47390,313332
19,47802,265407
19,48215,222154
19,48627,187269
19,49038,158770
19,49452,136016
19,49863,115260
19,50275,101581
19,50688,87729
19,51100,76354
19,51512,67643
19,51925,54895
19,52337,52276
19,52748,47027
19,53162,39616
19,53573,37258
19,53985,33359
19,54398,29349
19,54810,28511
19,55222,24260
19,55633,23409
19,56047,20769
19,56458,19751
19,56870,18523
19,57283,15191
19,57695,16940
19,58107,15213
19,58520,13816
19,58932,13313
19,59343,12258
19,59757,11406
19,60168,11639
19,60580,10571
19,60993,11230
19,61405,11233
19,61817,15175
19,62230,18261
19,62642,24024
19,63053,35871
19,63467,51150
19,63878,73298
19,64290,107288
19,64702,147384
19,65115,199376
19,65527,270038
19,65938,349962
19,66352,445012
19,66763,540442
19,67175,663552
19,67588,788801
19,68000,894006
19,68412,1003608
19,68825,1104348
19,69237,1176961
19,69648,1216384
19,70062,1255430
19,70473,1229200
19,70885,1188161
19,71298,1116621
19,71710,1001199
19,72122,885854
19,72535,765047
19,72947,660113
19,73358,561532
19,73770,470994
19,74183,399838
19,74595,330440
19,75007,278221
19,75420,237524
19,75832,207103
19,76243,175170
19,76657,156013
19,77068,133369
19,77480,119801
19,77893,103457
19,78305,95501
19,78717,84564
19,79130,78150
19,79542,74629
19,79953,64095
19,80367,60095
19,80778,55732
19,81190,52393
19,81603,47253
19,82015,46235
19,82427,38990
19,82838,39486
19,83252,35000
19,83663,31942
19,84075,30782
19,84488,28588
19,84900,27731
19,85312,26795
19,85725,23415
19,86137,21225
19,86548,21236
19,86962,20505
19,87373,18235
19,87785,16971
19,88198,16803
19,88610,15368
19,89022,14576
19,89435,14546
19,89847,14065
19,90258,12944
19,90672,13003
19,91083,11877
19,91495,10344
19,91907,10405
19,92320,10025
19,92732,8902
19,93143,9220
19,93557,8430
19,93968,8953
19,94380,8243
19,94793,8561
19,95205,6513
19,95617,7152
19,96030,6646
19,96442,6484
19,96853,6790
19,97267,7526
19,97678,5514
19,98090,6285
19,98503,4500
19,98915,5464
19,99327,5531
19,99740,5728
20,00152,4889
20,00563,4878
20,00975,3853
20,01388,3872
20,01800,4143
20,02212,3649
20,02625,5203
20,03037,4260
20,03448,4553
20,03862,4237
20,04273,4771
20,04685,3831
20,05098,3712
20,05510,3773
20,05922,3050
20,06335,3627
20,06747,3317
20,07158,3408
20,07572,2737
20,07983,3415
20,08395,3758
20,08808,3501
20,09220,2297
20,09632,2833
20,10043,2682
20,10457,1987
20,10868,2341
20,11280,2640
20,11693,1816
20,12105,2941
20,12517,2114
20,12930,2384
20,13342,1803
20,13753,2373
20,14167,2308
20,14578,1903
20,14990,2570
20,15403,2331
20,15815,2074
20,16227,2169
20,16640,1985
20,17052,1908
20,17463,1619
20,17877,1695
20,18288,2001
20,18700,1781
20,19112,1275
20,19525,1120
20,19937,1958
20,20348,1826
20,20762,1487
20,21173,1751
20,21585,1389
20,21998,1416
20,22410,1935
20,22822,1141
20,23235,1288
20,23647,1254
20,24058,2034
20,24472,2292
20,24883,1919
20,25295,1988
20,25708,3327
20,26120,5781
20,26532,8767
20,26945,12342
20,27357,21904
20,27768,33838
20,28180,51989
20,28593,75518
20,29005,108277
20,29417,145951
20,29830,193901
20,30242,253457
20,30653,313838
20,31067,380952
20,31478,430090
20,31890,491533
20,32303,539391
20,32715,569434
20,33127,591179
20,33540,582810
20,33952,570662
20,34363,533498
20,34777,499452
20,35188,439719
20,35600,397499
20,36013,338898
20,36425,293750
20,36837,250191
20,37248,209213
20,37662,175920
20,38073,151954
20,38485,130717
20,38898,111569
20,39310,97060
20,39722,82849
20,40135,71757
20,40547,63599
20,40958,57767
20,41372,50173
20,41783,46161
20,42195,42775
20,42608,38023
20,43020,34161
20,43432,30147
20,43845,29779
20,44257,29432
20,44668,26699
20,45082,26415
20,45493,24151
20,45905,21730
20,46317,18908
20,46730,19462
20,47142,16475
20,47553,14754
20,47967,13360
20,48378,14440
20,48790,13103
20,49203,11979
20,49615,9645
20,50027,11324
20,50440,9445
20,50852,8900
20,51263,8494
20,51677,8167
20,52088,8227
20,52500,7632
20,52913,7215
20,53325,6871
20,53737,7191
20,54150,6111
20,54562,6017
20,54973,4561
20,55385,5863
20,55798,5575
20,56210,5315
20,56622,6791
20,57035,5520
20,57447,6556
20,57858,6659
20,58272,7288
20,58683,6866
20,59095,6635
20,59508,6364
20,59920,5922
20,60332,4923
20,60745,5264
20,61157,3397
20,61568,4156
20,61982,3227
20,62393,3803
20,62805,4492
20,63218,3288
20,63630,3343
20,64042,2829
20,64453,3574
20,64867,3178
20,65278,2767
20,65690,2984
20,66103,3365
20,66515,2429
20,66927,2304
20,67340,2074
20,67752,2467
20,68163,2705
20,68577,1407
20,68988,3028
20,69400,2299
20,69813,2126
20,70225,2409
20,70637,2588
20,71050,2649
20,71462,2622
20,71873,2435
20,72287,2419
20,72698,2441
20,73110,1764
20,73522,2083
20,73935,2358
20,74347,2851
20,74758,2716
20,75172,2699
20,75583,2788
20,75995,3660
20,76408,3183
20,76820,3181
20,77232,1853
20,77645,2072
20,78057,1886
20,78468,3767
20,78882,2181
20,79293,1657
20,79705,1651
20,80118,2294
20,80530,1768
20,80942,1586
20,81355,1609
20,81767,1164
20,82178,1146
20,82590,2043
20,83003,2267
20,83415,1840
20,83827,3593
20,84240,7008
20,84652,9794
20,85063,16162
20,85477,25739
20,85888,41754
20,86300,57312
20,86713,84231
20,87125,115246
20,87537,157659
20,87950,207704
20,88362,267195
20,88773,318686
20,89187,380826
20,89598,433910
20,90010,482550
20,90423,517280
20,90835,556806
20,91247,566185
20,91658,553467
20,92072,533258
20,92483,500532
20,92895,461158
20,93308,414536
20,93720,363152
20,94132,317941
20,94545,273198
20,94957,230837
20,95368,201808
20,95782,167309
20,96193,138792
20,96605,120032
20,97018,103564
20,97430,90227
20,97842,77715
20,98255,64834
20,98667,58165
20,99078,51907
20,99492,45230
20,99903,41782
21,00315,37415
21,00728,33610
21,01140,31081
21,01552,28487
21,01963,27784
21,02377,24360
21,02788,20732
21,03200,19393
21,03613,19723
21,04025,17354
21,04437,16466
21,04850,14853
21,05262,13898
21,05673,12945
21,06087,11946
21,06498,11878
21,06910,10822
21,07323,10967
21,07735,8941
21,08147,9245
21,08560,8594
21,08972,7709
21,09383,7326
21,09797,7103
21,10208,7534
21,10620,6207
21,11032,6251
21,11445,5354
21,11857,4727
21,12268,5500
21,12682,4949
21,13093,4973
21,13505,4928
21,13918,4500
21,14330,3916
21,14742,4514
21,15155,4484
21,15567,5460
21,15978,4029
21,16392,3745
21,16803,4475
21,17215,3944
21,17628,4428
21,18040,3873
21,18452,3908
21,18865,3820
21,19277,3276
21,19688,3400
21,20100,2803
21,20513,3195
21,20925,3437
21,21337,2748
21,21750,2609
21,22162,2176
21,22573,3395
21,22987,2503
21,23398,2541
21,23810,1485
21,24223,2552
21,24635,1970
21,25047,1892
21,25460,2725
21,25872,1716
21,26283,1835
21,26697,1850
21,27108,1531
21,27520,1827
21,27933,1849
21,28345,2129
21,28757,1732
21,29168,1113
21,29582,1427
21,29993,1321
21,30405,1597
21,30818,1821
21,31230,975
21,31642,1378
21,32055,1999
21,32467,1155
21,32878,1382
21,33292,1134
21,33703,852
21,34115,921
21,34528,1215
21,34940,1175
21,35352,1378
21,35765,1097
21,36177,1510
21,36588,931
21,37002,845
21,37413,1409
21,37825,1622
21,38237,1133
21,38650,1209
21,39062,1153
21,39473,1133
21,39887,907
21,40298,681
21,40710,849
21,41123,1041
21,41535,1195
21,41947,330
21,42360,826
21,42772,359
21,43183,1034
21,43597,1115
21,44008,1070
21,44420,1562
21,44833,836
21,45245,1482
21,45657,749
21,46070,475
21,46482,775
21,46893,1384
21,47305,1290
21,47718,1171
21,48130,1026
21,48542,1137
21,48955,400
21,49367,1029
21,49778,1230
21,50192,1418
21,50603,1498
21,51015,572
21,51428,328
21,51840,932
21,52252,800
21,52665,1350
21,53077,760
21,53488,788
21,53902,992
21,54313,1261
21,54725,1189
21,55138,882
21,55550,793
21,55962,1090
21,56373,383
21,56787,1049
21,57198,534
21,57610,598
21,58023,585
21,58435,1402
21,58847,884
21,59260,1073
21,59672,718
21,60083,526
21,60497,562
21,60908,358
21,61320,1067
21,61733,515
21,62145,1042
21,62557,1030
21,62970,790
21,63382,927
21,63793,607
21,64207,1105
21,64618,823
21,65030,808
21,65442,1603
21,65855,876
21,66267,947
21,66678,612
21,67092,845
21,67503,822
21,67915,1866
21,68328,1656
21,68740,1811
21,69152,2902
21,69565,4122
21,69977,6537
21,70388,12067
21,70802,20295
21,71213,28309
21,71625,45404
21,72038,67419
21,72450,95561
21,72862,131793
21,73275,173302
21,73687,222037
21,74098,263371
21,74510,321170
21,74923,370255
21,75335,425577
21,75747,465269
21,76160,485533
21,76572,505894
21,76983,514235
21,77397,493174
21,77808,477535
21,78220,447754
21,78633,406016
21,79045,359864
21,79457,317840
21,79870,279408
21,80282,239397
21,80693,204592
21,81107,175423
21,81518,148846
21,81930,125831
21,82343,106442
21,82755,92972
21,83167,81005
21,83578,69766
21,83992,59811
21,84403,52623
21,84815,49455
21,85228,44121
21,85640,37362
21,86052,36472
21,86465,31204
21,86877,29908
21,87288,28677
21,87702,31256
21,88113,29841
21,88525,32842
21,88938,42444
21,89350,53711
21,89762,71227
21,90175,92989
21,90587,122835
21,90998,165919
21,91412,212628
21,91823,277675
21,92235,346156
21,92647,420791
21,93060,513681
21,93472,618333
21,93883,719311
21,94297,826736
21,94708,943418
21,95120,1035408
21,95533,1126185
21,95945,1186461
21,96357,1232453
21,96770,1250150
21,97182,1224074
21,97593,1157015
21,98007,1095630
21,98418,980521
21,98830,847975
21,99243,724859
21,99655,619807
22,00067,522795
22,00480,437855
22,00892,359544
22,01303,306294
22,01715,256534
22,02128,219525
22,02540,195862
22,02952,164935
22,03365,148803
22,03777,133845
22,04188,115638
22,04602,102730
22,05013,95799
22,05425,84032
22,05838,79020
22,06250,72315
22,06662,66646
22,07075,61070
22,07487,56226
22,07898,53485
22,08312,50148
22,08723,46747
22,09135,43213
22,09548,37716
22,09960,38857
22,10372,34856
22,10783,33904
22,11197,30826
22,11608,28691
22,12020,28124
22,12433,25180
22,12845,22982
22,13257,23393
22,13670,22277
22,14082,20447
22,14493,19913
22,14907,19108
22,15318,17803
22,15730,17894
22,16143,15410
22,16555,15113
22,16967,13267
22,17380,14653
22,17792,13879
22,18203,14085
22,18617,12572
22,19028,11949
22,19440,11207
22,19852,10629
22,20265,10734
22,20677,10588
22,21088,9070
22,21502,8684
22,21913,8640
22,22325,8490
22,22738,8431
22,23150,7816
22,23562,7196
22,23975,7880
22,24387,8448
22,24798,7818
22,25212,8374
22,25623,10167
22,26035,12648
22,26448,16257
22,26860,24263
22,27272,36696
22,27685,46157
22,28097,70054
22,28508,93574
22,28920,127328
22,29333,164935
22,29745,206862
22,30157,261548
22,30570,308989
22,30982,361081
22,31393,403133
22,31807,434503
22,32218,458584
22,32630,474732
22,33043,467608
22,33455,464017
22,33867,442056
22,34280,411508
22,34692,376329
22,35103,336115
22,35517,297116
22,35928,260378
22,36340,222321
22,36753,190623
22,37165,163257
22,37577,138737
22,37988,119374
22,38402,105188
22,38813,90025
22,39225,76771
22,39638,66141
22,40050,61418
22,40462,54857
22,40875,46605
22,41287,44301
22,41698,39871
22,42112,36281
22,42523,31505
22,42935,31444
22,43348,28967
22,43760,25969
22,44172,24180
22,44585,22497
22,44997,20641
22,45408,18696
22,45822,17290
22,46233,18049
22,46645,16921
22,47057,16549
22,47470,14914
22,47882,12575
22,48293,12618
22,48707,12457
22,49118,11827
22,49530,10170
22,49943,9935
22,50355,9840
22,50767,9921
22,51180,8660
22,51592,8657
22,52003,8919
22,52417,8895
22,52828,8435
22,53240,6958
22,53653,6738
22,54065,7580
22,54477,6329
22,54890,6244
22,55302,6388
22,55713,5948
22,56125,6416
22,56538,5437
22,56950,5439
22,57362,5217
22,57775,5654
22,58187,3895
22,58598,4625
22,59012,4820
22,59423,5168
22,59835,6190
22,60248,6922
22,60660,8145
22,61072,10065
22,61485,15618
22,61897,22097
22,62308,34110
22,62722,48080
22,63133,67057
22,63545,90408
22,63958,126125
22,64370,166140
22,64782,215099
22,65195,269263
22,65607,330537
22,66018,387145
22,66430,453509
22,66843,501793
22,67255,540087
22,67667,575999
22,68080,598129
22,68492,592302
22,68903,567039
22,69317,541269
22,69728,498635
22,70140,445186
22,70553,400222
22,70965,343725
22,71377,296593
22,71790,254111
22,72202,217337
22,72613,187161
22,73027,158963
22,73438,137793
22,73850,118069
22,74263,101485
22,74675,87366
22,75087,78990
22,75498,69554
22,75912,62537
22,76323,55411
22,76735,50278
22,77148,44126
22,77560,38773
22,77972,35833
22,78385,33796
22,78797,31691
22,79208,27854
22,79622,24256
22,80033,23495
22,80445,23801
22,80858,21234
22,81270,19446
22,81682,20825
22,82095,17167
22,82507,17191
22,82918,15334
22,83332,14758
22,83743,14916
22,84155,15056
22,84567,13344
22,84980,11959
22,85392,11593
22,85803,10066
22,86217,10117
22,86628,10245
22,87040,8727
22,87453,7461
22,87865,7885
22,88277,8306
22,88690,7501
22,89102,7206
22,89513,7287
22,89927,7239
22,90338,6303
22,90750,5283
22,91163,6343
22,91575,5540
22,91987,6439
22,92400,5051
22,92812,5007
22,93223,4729
22,93635,5342
22,94048,5311
22,94460,4103
22,94872,3982
22,95285,4067
22,95697,4603
22,96108,3586
22,96522,4093
22,96933,4063
22,97345,3257
22,97758,3322
22,98170,3358
22,98582,2600
22,98995,3020
22,99407,2901
22,99818,2451
23,00232,2988
23,00643,2847
23,01055,2891
23,01468,2740
23,01880,2814
23,02292,2424
23,02703,2767
23,03117,2529
23,03528,3137
23,03940,3146
23,04353,2125
23,04765,2712
23,05177,2157
23,05590,2422
23,06002,2240
23,06413,1829
23,06827,2329
23,07238,1926
23,07650,1957
23,08063,3118
23,08475,1674
23,08887,1601
23,09300,1943
23,09712,2410
23,10123,1599
23,10537,1972
23,10948,1832
23,11360,1361
23,11772,1808
23,12185,2182
23,12597,2173
23,13008,2250
23,13422,2254
23,13833,2482
23,14245,2024
23,14658,1294
23,15070,1743
23,15482,1355
23,15895,1576
23,16307,1628
23,16718,1968
23,17132,1584
23,17543,2369
23,17955,2171
23,18368,1651
23,18780,1967
23,19192,2225
23,19605,1629
23,20017,2577
23,20428,1708
23,20840,1961
23,21253,1865
23,21665,1994
23,22077,1614
23,22490,2294
23,22902,1413
23,23313,1872
23,23727,1397
23,24138,1161
23,24550,1648
23,24963,1805
23,25375,1557
23,25787,1947
23,26200,1268
23,26612,1258
23,27023,2351
23,27437,1420
23,27848,2211
23,28260,2075
23,28673,1316
23,29085,1983
23,29497,1907
23,29908,1148
23,30322,1475
23,30733,1706
23,31145,2226
23,31558,2743
23,31970,3123
23,32382,4297
23,32795,5815
23,33207,9254
23,33618,13494
23,34032,22137
23,34443,35325
23,34855,51265
23,35268,73177
23,35680,103847
23,36092,138500
23,36505,180784
23,36917,232590
23,37328,285488
23,37742,345600
23,38153,410873
23,38565,473959
23,38977,521134
23,39390,563968
23,39802,606814
23,40213,619509
23,40627,622322
23,41038,599380
23,41450,572333
23,41863,515522
23,42275,456727
23,42687,397663
23,43100,341473
23,43512,288514
23,43923,246748
23,44337,207982
23,44748,178077
23,45160,149680
23,45573,129860
23,45985,109039
23,46397,96944
23,46810,87718
23,47222,75306
23,47633,68677
23,48045,60355
23,48458,53958
23,48870,49182
23,49282,43107
23,49695,40897
23,50107,37432
23,50518,35155
23,50932,33520
23,51343,29085
23,51755,27690
23,52168,25874
23,52580,24941
23,52992,21770
23,53405,21558
23,53817,21118
23,54228,19480
23,54642,18147
23,55053,17532
23,55465,16176
23,55878,15279
23,56290,15192
23,56702,14233
23,57113,13416
23,57527,12599
23,57938,12016
23,58350,11462
23,58763,11481
23,59175,9328
23,59587,9015
23,60000,9906
23,60412,9688
23,60823,8194
23,61237,7557
23,61648,7923
23,62060,6924
23,62473,7995
23,62885,6469
23,63297,6037
23,63710,5971
23,64122,4998
23,64533,5944
23,64947,5325
23,65358,5325
23,65770,5161
23,66182,4586
23,66595,4386
23,67007,5344
23,67418,4314
23,67832,5498
23,68243,4886
23,68655,3702
23,69068,3860
23,69480,4117
23,69892,4057
23,70305,4082
23,70717,4172
23,71128,3409
23,71542,3714
23,71953,3742
23,72365,3896
23,72778,3698
23,73190,3843
23,73602,3696
23,74015,4180
23,74427,2853
23,74838,3237
23,75250,4185
23,75663,4439
23,76075,4534
23,76487,5504
23,76900,6419
23,77312,5643
23,77723,7567
23,78137,7278
23,78548,10182
23,78960,13468
23,79373,19313
23,79785,29544
23,80197,43264
23,80610,63861
23,81022,88347
23,81433,122676
23,81847,165034
23,82258,210123
23,82670,269814
23,83083,323748
23,83495,369974
23,83907,412228
23,84318,463363
23,84732,490815
23,85143,513047
23,85555,519983
23,85968,513461
23,86380,492416
23,86792,461678
23,87205,421477
23,87617,380612
23,88028,339060
23,88442,293419
23,88853,248094
23,89265,216278
23,89678,181588
23,90090,157600
23,90502,132904
23,90915,114899
23,91327,100073
23,91738,85196
23,92152,71350
23,92563,65155
23,92975,57716
23,93387,50499
23,93800,47958
23,94212,44109
23,94623,39303
23,95037,34953
23,95448,32506
23,95860,30065
23,96273,28240
23,96685,26969
23,97097,25489
23,97510,22448
23,97922,19300
23,98333,20845
23,98747,18731
23,99158,17083
23,99570,15142
23,99983,16584
24,00395,14119
24,00807,13023
24,01220,13268
24,01632,12938
24,02043,11648
24,02455,11020
24,02868,10953
24,03280,9167
24,03692,11256
24,04105,8713
24,04517,8695
24,04928,8456
24,05342,7526
24,05753,7826
24,06165,7409
24,06578,7891
24,06990,6398
24,07402,5823
24,07815,6637
24,08227,6275
24,08638,5817
24,09052,5305
24,09463,4734
24,09875,5821
24,10288,4436
24,10700,4151
24,11112,4839
24,11523,5256
24,11937,4042
24,12348,4215
24,12760,4582
24,13173,4432
24,13585,4452
24,13997,3088
24,14410,4235
24,14822,2670
24,15233,4120
24,15647,3437
24,16058,3699
24,16470,3285
24,16883,4022
24,17295,3791
24,17707,3802
24,18120,3336
24,18532,3593
24,18943,2828
24,19357,2677
24,19768,2707
24,20180,2590
24,20593,2906
24,21005,2492
24,21417,2844
24,21828,2707
24,22242,2740
24,22653,3104
24,23065,3056
24,23478,3582
24,23890,3281
24,24302,2663
24,24715,2350
24,25127,2628
24,25538,2981
24,25952,2580
24,26363,2421
24,26775,3312
24,27188,3734
24,27600,3141
24,28012,3923
24,28425,2877
24,28837,3470
24,29248,3222
24,29662,3512
24,30073,4139
24,30485,4383
24,30897,4430
24,31310,3292
24,31722,3809
24,32133,3607
24,32547,3556
24,32958,3066
24,33370,3451
24,33783,3406
24,34195,3645
24,34607,2444
24,35020,2676
24,35432,3008
24,35843,1960
24,36257,2050
24,36668,2739
24,37080,2079
24,37493,1619
24,37905,2280
24,38317,1774
24,38730,1846
24,39142,1468
24,39553,1798
24,39965,2534
24,40378,2414
24,40790,1674
24,41202,2334
24,41615,2446
24,42027,1644
24,42438,1946
24,42852,1437
24,43263,1632
24,43675,2173
24,44088,1674
24,44500,2015
24,44912,1829
24,45325,1440
24,45737,1220
24,46148,1666
24,46562,1712
24,46973,1836
24,47385,2111
24,47798,1897
24,48210,1461
24,48622,1300
24,49033,1360
24,49447,1291
24,49858,1881
24,50270,1580
24,50683,1755
24,51095,1394
24,51507,1776
24,51920,1606
24,52332,1742
24,52743,1653
24,53157,1365
24,53568,1369
24,53980,2150
24,54393,1345
24,54805,1372
24,55217,1683
24,55630,1313
24,56042,2175
24,56453,1988
24,56867,2328
24,57278,1748
24,57690,1416
24,58102,1950
24,58515,2672
24,58927,3822
24,59338,5223
24,59752,9423
24,60163,12090
24,60575,19380
24,60988,30918
24,61400,46181
24,61812,67243
24,62225,93604
24,62637,125155
24,63048,166301
24,63462,216596
24,63873,262509
24,64285,310866
24,64698,360777
24,65110,405373
24,65522,441641
24,65935,466299
24,66347,475896
24,66758,478744
24,67170,472049
24,67583,440678
24,67995,406009
24,68407,365821
24,68820,327295
24,69232,288394
24,69643,256388
24,70057,218718
24,70468,183665
24,70880,156329
24,71293,137218
24,71705,118298
24,72117,102398
24,72530,92023
24,72942,80313
24,73353,75096
24,73767,68138
24,74178,68199
24,74590,69297
24,75003,76443
24,75415,90159
24,75827,103124
24,76238,131162
24,76652,162047
24,77063,191234
24,77475,240733
24,77888,300156
24,78300,365126
24,78712,440265
24,79125,516324
24,79537,605286
24,79948,706034
24,80362,799248
24,80773,890621
24,81185,982945
24,81598,1072960
24,82010,1131368
24,82422,1188943
24,82835,1216773
24,83247,1195057
24,83658,1137474
24,84072,1052570
24,84483,951433
24,84895,833944
24,85307,717438
24,85720,604186
24,86132,512875
24,86543,426012
24,86957,371103
24,87368,310923
24,87780,267900
24,88193,231351
24,88605,206833
24,89017,181602
24,89430,158879
24,89842,142784
24,90253,128348
24,90667,115822
24,91078,106482
24,91490,97517
24,91903,88898
24,92315,84465
24,92727,77332
24,93140,71247
24,93552,67701
24,93963,63143
24,94375,57645
24,94788,55794
24,95200,52046
24,95612,48351
24,96025,46983
24,96437,45650
24,96848,42008
24,97262,40848
24,97673,38143
24,98085,36014
24,98498,35278
24,98910,32912
24,99322,32715
24,99735,31681
25,00147,27568
25,00558,27866
25,00972,28317
25,01383,25130
25,01795,24827
25,02208,22399
25,02620,22133
25,03032,20700
25,03443,21527
25,03857,18389
25,04268,17994
25,04680,18225
25,05093,17422
25,05505,15731
25,05917,14962
25,06330,14863
25,06742,13851
25,07153,14238
25,07567,15069
25,07978,13561
25,08390,10921
25,08803,12692
25,09215,11322
25,09627,11153
25,10040,10882
25,10452,10520
25,10863,11028
25,11277,10809
25,11688,11977
25,12100,11863
25,12512,14269
25,12925,15546
25,13337,20694
25,13748,26746
25,14162,37096
25,14573,51324
25,14985,70950
25,15398,96558
25,15810,128049
25,16222,162281
25,16635,211272
25,17047,259403
25,17458,309461
25,17872,363752
25,18283,411597
25,18695,448691
25,19108,477530
25,19520,484659
25,19932,498823
25,20345,500157
25,20757,489119
25,21168,464040
25,21580,450105
25,21993,443854
25,22405,439572
25,22817,430619
25,23230,434422
25,23642,455280
25,24053,481930
25,24467,488694
25,24878,507293
25,25290,511377
25,25703,519822
25,26115,522881
25,26527,502739
25,26940,483562
25,27352,454357
25,27763,415343
25,28177,382574
25,28588,338602
25,29000,301161
25,29413,268613
25,29825,226585
25,30237,198846
25,30648,172811
25,31062,150771
25,31473,130380
25,31885,113375
25,32298,103798
25,32710,91910
25,33122,82067
25,33535,70384
25,33947,64594
25,34358,62504
25,34772,54828
25,35183,50271
25,35595,47878
25,36008,43530
25,36420,41186
25,36832,36104
25,37245,33889
25,37657,33783
25,38068,29698
25,38482,29145
25,38893,27777
25,39305,26670
25,39717,24134
25,40130,24058
25,40542,22811
25,40953,22490
25,41367,22126
25,41778,20613
25,42190,19977
25,42603,23146
25,43015,24609
25,43427,27260
25,43840,33892
25,44252,41679
25,44663,53420
25,45077,68894
25,45488,96508
25,45900,123773
25,46313,155853
25,46725,200214
25,47137,252930
25,47550,304573
25,47962,352884
25,48373,404672
25,48785,456488
25,49198,498969
25,49610,530061
25,50022,551926
25,50435,561744
25,50847,546873
25,51258,533478
25,51672,499121
25,52083,458664
25,52495,413616
25,52908,360005
25,53320,320461
25,53732,278361
25,54145,238775
25,54557,206592
25,54968,178105
25,55382,159302
25,55793,135442
25,56205,117217
25,56618,106461
25,57030,92455
25,57442,82911
25,57853,73202
25,58267,66187
25,58678,62964
25,59090,56834
25,59503,49979
25,59915,47545
25,60327,46583
25,60740,44022
25,61152,38718
25,61563,38482
25,61977,35638
25,62388,31792
25,62800,31502
25,63213,30174
25,63625,28961
25,64037,26237
25,64450,26025
25,64862,23714
25,65273,22787
25,65687,22592
25,66098,22247
25,66510,19694
25,66922,20251
25,67335,17018
25,67747,18322
25,68158,17257
25,68572,17791
25,68983,14918
25,69395,16145
25,69808,14289
25,70220,12962
25,70632,12067
25,71045,12336
25,71457,12312
25,71868,11904
25,72282,11258
25,72693,11112
25,73105,11809
25,73518,10717
25,73930,10050
25,74342,10019
25,74755,9422
25,75167,9483
25,75578,8325
25,75992,9023
25,76403,7882
25,76815,7571
25,77227,7277
25,77640,8041
25,78052,6893
25,78463,8370
25,78877,7326
25,79288,7584
25,79700,5867
25,80113,7168
25,80525,6727
25,80937,6520
25,81350,5667
25,81762,5628
25,82173,6950
25,82587,5429
25,82998,5876
25,83410,6102
25,83823,6160
25,84235,5158
25,84647,4634
25,85060,5307
25,85472,5080
25,85883,4752
25,86295,4658
25,86708,4630
25,87120,5244
25,87532,4531
25,87945,3926
25,88357,4923
25,88768,4811
25,89182,3917
25,89593,3935
25,90005,4739
25,90418,4526
25,90830,4556
25,91242,4268
25,91655,4350
25,92067,3706
25,92478,4615
25,92892,4029
25,93303,4303
25,93715,5230
25,94128,4349
25,94540,5355
25,94952,5945
25,95363,5507
25,95777,6160
25,96188,5578
25,96600,5114
25,97013,6804
25,97425,6268
25,97837,4679
25,98250,3963
25,98662,4779
25,99073,5024
25,99487,4221
25,99898,4202
26,00310,5650
26,00723,4620
26,01135,4438
26,01547,3696
26,01960,4310
26,02372,3831
26,02783,3982
26,03197,3788
26,03608,4525
26,04020,4480
26,04432,4409
26,04845,4131
26,05257,4003
26,05668,4445
26,06082,3721
26,06493,4139
26,06905,4582
26,07318,4384
26,07730,5821
26,08142,5317
26,08555,7230
26,08967,8934
26,09378,11797
26,09792,17432
26,10203,25216
26,10615,35457
26,11028,52814
26,11440,71337
26,11852,98380
26,12265,129379
26,12677,174906
26,13088,216354
26,13500,268514
26,13913,322757
26,14325,382427
26,14737,446421
26,15150,499327
26,15562,538506
26,15973,571833
26,16387,600562
26,16798,598376
26,17210,584023
26,17623,560325
26,18035,509070
26,18447,454830
26,18860,398684
26,19272,351270
26,19683,305051
26,20097,262944
26,20508,229180
26,20920,192068
26,21333,169114
26,21745,142384
26,22157,128321
26,22568,112440
26,22982,100693
26,23393,90147
26,23805,80863
26,24218,72782
26,24630,64073
26,25042,59119
26,25455,56411
26,25867,51420
26,26278,47665
26,26692,44093
26,27103,41049
26,27515,39543
26,27928,34975
26,28340,33177
26,28752,31163
26,29165,29250
26,29577,29126
26,29988,26371
26,30402,27275
26,30813,23534
26,31225,23413
26,31637,22713
26,32050,22933
26,32462,20446
26,32873,20070
26,33287,20508
26,33698,19213
26,34110,17205
26,34523,16841
26,34935,16293
26,35347,15263
26,35760,16154
26,36172,14427
26,36583,12595
26,36997,14057
26,37408,11973
26,37820,11426
26,38233,12631
26,38645,10666
26,39057,11388
26,39470,9426
26,39882,9822
26,40293,10492
26,40705,9673
26,41118,9080
26,41530,9502
26,41942,9105
26,42355,9392
26,42767,8093
26,43178,8179
26,43592,8126
26,44003,7745
26,44415,7632
26,44828,7255
26,45240,8494
26,45652,7007
26,46065,7581
26,46477,7822
26,46888,5415
26,47302,7352
26,47713,6375
26,48125,6384
26,48538,5935
26,48950,5967
26,49362,5907
26,49773,6881
26,50187,6427
26,50598,5631
26,51010,5175
26,51423,5817
26,51835,5767
26,52247,6157
26,52660,5583
26,53072,5987
26,53483,7538
26,53897,9229
26,54308,10142
26,54720,14634
26,55133,21287
26,55545,29370
26,55957,41171
26,56370,62616
26,56782,86312
26,57193,120474
26,57607,163296
26,58018,216895
26,58430,282466
26,58842,347813
26,59255,428083
26,59667,506526
26,60078,590418
26,60492,664371
26,60903,739946
26,61315,800143
26,61728,832333
26,62140,862487
26,62552,845948
26,62965,841853
26,63377,793431
26,63788,745535
26,64202,687944
26,64613,635932
26,65025,560238
26,65438,497374
26,65850,439978
26,66262,384495
26,66675,331407
26,67087,290572
26,67498,254540
26,67910,218195
26,68323,190387
26,68735,167333
26,69147,150329
26,69560,130909
26,69972,115982
26,70383,105675
26,70797,96156
26,71208,86419
26,71620,80377
26,72033,73456
26,72445,68479
26,72857,61508
26,73270,56690
26,73682,51913
26,74093,51048
26,74507,44415
26,74918,42617
26,75330,42319
26,75743,36951
26,76155,35582
26,76567,35065
26,76978,33437
26,77392,31672
26,77803,31169
26,78215,30259
26,78628,30564
26,79040,29581
26,79452,28690
26,79865,26380
26,80277,25528
26,80688,23853
26,81102,23248
26,81513,21317
26,81925,20516
26,82338,18707
26,82750,19533
26,83162,17615
26,83575,15956
26,83987,17371
26,84398,13788
26,84812,13904
26,85223,13562
26,85635,14801
26,86047,11381
26,86460,12524
26,86872,13132
26,87283,12425
26,87697,12015
26,88108,11250
26,88520,10532
26,88933,11025
26,89345,10425
26,89757,10678
26,90170,8589
26,90582,9361
26,90993,9564
26,91407,9301
26,91818,8104
26,92230,9504
26,92643,8955
26,93055,9303
26,93467,8700
26,93880,8726
26,94292,7091
26,94703,7790
26,95115,7583
26,95528,8117
26,95940,7439
26,96352,7644
26,96765,7842
26,97177,8021
26,97588,6608
26,98002,7249
26,98413,6769
26,98825,6047
26,99238,5978
26,99650,5802
27,00062,5037
27,00475,6381
27,00887,5886
27,01298,5527
27,01712,7202
27,02123,7081
27,02535,7644
27,02948,5747
27,03360,5691
27,03772,6897
27,04183,6075
27,04597,7315
27,05008,5666
27,05420,5636
27,05833,5091
27,06245,6417
27,06657,5440
27,07070,5983
27,07482,5645
27,07893,7026
27,08307,5344
27,08718,4351
27,09130,5684
27,09543,5033
27,09955,5376
27,10367,6021
27,10780,4773
27,11192,4606
27,11603,4344
27,12017,4156
27,12428,4866
27,12840,4581
27,13252,5301
27,13665,4865
27,14077,5084
27,14488,4675
27,14902,5205
27,15313,4449
27,15725,4611
27,16138,4674
27,16550,4929
27,16962,4733
27,17375,4439
27,17787,4319
27,18198,4133
27,18612,4307
27,19023,3664
27,19435,4120
27,19848,3518
27,20260,3375
27,20672,5243
27,21085,4083
27,21497,3582
27,21908,3461
27,22320,4187
27,22733,3022
27,23145,3915
27,23557,4339
27,23970,3921
27,24382,3199
27,24793,4022
27,25207,4005
27,25618,3123
27,26030,4601
27,26443,4205
27,26855,4289
27,27267,3824
27,27680,4804
27,28092,3938
27,28503,4110
27,28917,4176
27,29328,4801
27,29740,3557
27,30153,4307
27,30565,3459
27,30977,4339
27,31388,3338
27,31802,3207
27,32213,4748
27,32625,4128
27,33038,4576
27,33450,3947
27,33862,4285
27,34275,3283
27,34687,4511
27,35098,4089
27,35512,4350
27,35923,4261
27,36335,4109
27,36748,4176
27,37160,3399
27,37572,3461
27,37985,3691
27,38397,2998
27,38808,3437
27,39222,4253
27,39633,4071
27,40045,5093
27,40458,6880
27,40870,6907
27,41282,11077
27,41693,15716
27,42107,21327
27,42518,29526
27,42930,44169
27,43343,60490
27,43755,83649
27,44167,115270
27,44580,152446
27,44992,196911
27,45403,248861
27,45817,303471
27,46228,380088
27,46640,444497
27,47053,517942
27,47465,600842
27,47877,682933
27,48290,770693
27,48702,858964
27,49113,946035
27,49527,1025978
27,49938,1079292
27,50350,1131522
27,50762,1146563
27,51175,1134531
27,51587,1093513
27,51998,1006832
27,52412,910565
27,52823,795003
27,53235,685314
27,53648,581386
27,54060,504900
27,54472,423650
27,54885,361902
27,55297,315053
27,55708,267435
27,56122,243933
27,56533,208104
27,56945,182978
27,57358,167244
27,57770,152725
27,58182,141464
27,58595,123492
27,59007,112584
27,59418,107182
27,59830,99811
27,60243,92438
27,60655,84806
27,61067,79265
27,61480,78104
27,61892,72378
27,62303,67663
27,62717,63496
27,63128,61579
27,63540,55188
27,63953,51788
27,64365,50296
27,64777,47893
27,65190,46355
27,65602,44722
27,66013,42946
27,66427,40185
27,66838,38472
27,67250,36164
27,67663,36338
27,68075,32805
27,68487,33856
27,68898,29963
27,69312,30147
27,69723,28153
27,70135,28450
27,70548,28036
27,70960,25900
27,71372,24528
27,71785,24778
27,72197,24375
27,72608,23154
27,73022,22749
27,73433,21296
27,73845,20469
27,74258,18692
27,74670,18677
27,75082,19323
27,75495,19026
27,75907,18624
27,76318,17555
27,76732,16345
27,77143,17132
27,77555,16102
27,77967,16591
27,78380,15023
27,78792,15175
27,79203,14462
27,79617,14725
27,80028,13595
27,80440,13670
27,80853,12721
27,81265,13244
27,81677,11914
27,82090,11694
27,82502,12418
27,82913,12432
27,83327,12997
27,83738,12525
27,84150,11981
27,84563,12929
27,84975,11573
27,85387,10569
27,85800,12178
27,86212,11422
27,86623,10441
27,87035,9628
27,87448,11044
27,87860,9717
27,88272,9864
27,88685,9729
27,89097,10029
27,89508,10535
27,89922,9094
27,90333,9874
27,90745,9554
27,91158,9059
27,91570,8708
27,91982,8106
27,92395,8978
27,92807,7694
27,93218,8061
27,93632,9531
27,94043,8806
27,94455,7722
27,94868,8428
27,95280,8224
27,95692,7699
27,96103,7100
27,96517,7219
27,96928,6955
27,97340,7484
27,97753,7155
27,98165,7129
27,98577,6568
27,98990,6936
27,99402,6303
27,99813,7170
28,00227,6830
28,00638,7213
28,01050,7148
28,01463,7507
28,01875,6881
28,02287,6695
28,02700,7275
28,03112,7218
28,03523,7378
28,03937,7186
28,04348,6294
28,04760,6529
28,05172,7242
28,05585,6434
28,05997,6836
28,06408,8738
28,06822,9796
28,07233,11959
28,07645,14664
28,08058,19947
28,08470,27207
28,08882,39030
28,09295,53883
28,09707,77111
28,10118,100613
28,10532,131349
28,10943,170642
28,11355,211436
28,11768,267834
28,12180,320874
28,12592,373575
28,13005,425112
28,13417,476215
28,13828,516940
28,14240,538348
28,14653,556830
28,15065,557624
28,15477,541154
28,15890,516156
28,16302,477995
28,16713,435058
28,17127,388966
28,17538,345033
28,17950,299496
28,18363,257267
28,18775,226552
28,19187,192118
28,19600,170007
28,20012,148262
28,20423,130628
28,20837,118022
28,21248,109642
28,21660,95300
28,22073,87127
28,22485,77006
28,22897,71486
28,23308,66898
28,23722,64453
28,24133,56920
28,24545,54187
28,24958,49822
28,25370,47019
28,25782,43048
28,26195,41972
28,26607,39009
28,27018,36720
28,27432,34949
28,27843,32899
28,28255,30429
28,28668,29068
28,29080,29234
28,29492,27740
28,29905,26089
28,30317,24385
28,30728,23430
28,31142,21148
28,31553,23101
28,31965,22938
28,32377,21130
28,32790,20878
28,33202,18419
28,33613,18467
28,34027,17404
28,34438,17966
28,34850,17909
28,35263,17256
28,35675,16773
28,36087,17190
28,36500,16372
28,36912,15214
28,37323,16298
28,37737,14341
28,38148,13945
28,38560,14588
28,38973,14162
28,39385,13384
28,39797,12802
28,40210,12788
28,40622,12102
28,41033,14058
28,41445,11506
28,41858,12941
28,42270,12464
28,42682,13269
28,43095,12995
28,43507,12159
28,43918,13298
28,44332,14167
28,44743,13302
28,45155,12923
28,45568,11268
28,45980,12017
28,46392,11963
28,46805,11220
28,47217,11293
28,47628,10213
28,48042,11506
28,48453,9160
28,48865,10178
28,49278,9010
28,49690,9273
28,50102,9251
28,50513,8734
28,50927,8679
28,51338,7503
28,51750,8425
28,52163,9053
28,52575,7639
28,52987,7283
28,53400,8939
28,53812,8013
28,54223,8111
28,54637,8350
28,55048,7506
28,55460,8695
28,55873,8584
28,56285,7288
28,56697,7528
28,57110,7608
28,57522,7342
28,57933,6132
28,58347,6730
28,58758,8240
28,59170,6819
28,59582,7828
28,59995,7218
28,60407,6846
28,60818,6582
28,61232,7056
28,61643,8000
28,62055,7984
28,62468,6233
28,62880,7342
28,63292,6625
28,63705,6905
28,64117,6003
28,64528,7154
28,64942,6623
28,65353,6161
28,65765,6368
28,66178,6093
28,66590,6321
28,67002,6837
28,67415,6619
28,67827,7382
28,68238,7300
28,68650,7160
28,69063,6906
28,69475,6751
28,69887,6995
28,70300,7080
28,70712,6798
28,71123,7620
28,71537,6754
28,71948,7339
28,72360,6808
28,72773,6786
28,73185,5278
28,73597,6541
28,74010,7240
28,74422,5580
28,74833,5264
28,75247,6666
28,75658,5409
28,76070,6424
28,76483,6024
28,76895,7108
28,77307,6358
28,77718,5307
28,78132,7466
28,78543,6374
28,78955,6924
28,79368,5152
28,79780,5910
28,80192,6772
28,80605,6573
28,81017,5919
28,81428,7750
28,81842,6761
28,82253,6396
28,82665,6612
28,83078,6924
28,83490,7028
28,83902,5558
28,84315,7102
28,84727,7265
28,85138,6469
28,85552,5963
28,85963,6139
28,86375,6743
28,86787,4891
28,87200,5897
28,87612,6665
28,88023,6107
28,88437,5608
28,88848,6126
28,89260,5923
28,89673,5477
28,90085,4966
28,90497,5746
28,90910,4702
28,91322,5698
28,91733,5654
28,92147,4685
28,92558,4645
28,92970,5050
28,93383,5672
28,93795,4775
28,94207,4928
28,94620,4827
28,95032,5710
28,95443,3865
28,95857,5046
28,96268,4780
28,96680,5751
28,97092,6651
28,97505,5960
28,97917,7684
28,98328,6323
28,98742,5486
28,99153,6458
28,99565,5858
28,99978,5880
29,00390,5782
29,00802,5440
29,01215,5698
29,01627,5152
29,02038,6710
29,02452,5344
29,02863,5102
29,03275,5978
29,03688,5260
29,04100,4904
29,04512,5028
29,04925,4927
29,05337,5696
29,05748,5265
29,06160,4744
29,06573,4632
29,06985,5206
29,07397,5053
29,07810,4563
29,08222,4081
29,08633,6297
29,09047,4435
29,09458,4238
29,09870,5116
29,10283,5047
29,10695,4996
29,11107,5323
29,11520,5125
29,11932,5658
29,12343,5955
29,12757,5353
29,13168,4094
29,13580,5862
29,13993,5467
29,14405,4448
29,14817,5472
29,15228,5037
29,15642,4995
29,16053,5639
29,16465,5191
29,16878,4925
29,17290,5503
29,17702,5223
29,18115,5426
29,18527,5617
29,18938,4037
29,19352,5733
29,19763,5421
29,20175,4592
29,20588,4941
29,21000,5009
29,21412,5386
29,21825,4399
29,22237,5775
29,22648,4338
29,23062,5291
29,23473,5816
29,23885,4745
29,24297,5311
29,24710,4330
29,25122,4419
29,25533,5317
29,25947,5163
29,26358,4710
29,26770,6139
29,27183,5695
29,27595,4812
29,28007,5377
29,28420,5639
29,28832,5757
29,29243,5751
29,29657,6330
29,30068,6613
29,30480,5066
29,30893,6349
29,31305,6463
29,31717,5687
29,32130,4828
29,32542,5021
29,32953,6778
29,33365,5250
29,33778,6365
29,34190,5476
29,34602,5337
29,35015,5664
29,35427,6002
29,35838,4753
29,36252,5864
29,36663,5829
29,37075,5655
29,37488,5478
29,37900,5109
29,38312,4734
29,38725,4682
29,39137,5393
29,39548,5032
29,39962,4989
29,40373,5751
29,40785,6014
29,41198,4793
29,41610,5005
29,42022,5270
29,42433,4757
29,42847,5748
29,43258,5140
29,43670,5025
29,44083,5230
29,44495,4428
29,44907,4545
29,45320,4806
29,45732,5020
29,46143,4753
29,46557,5657
29,46968,5708
29,47380,5020
29,47793,4803
29,48205,4829
29,48617,5238
29,49030,4906
29,49442,5628
29,49853,4786
29,50267,4281
29,50678,5558
29,51090,4522
29,51502,5408
29,51915,5245
29,52327,4976
29,52738,5413
29,53152,4506
29,53563,5115
29,53975,5248
29,54388,5450
29,54800,6167
29,55212,5872
29,55625,5538
29,56037,4968
29,56448,5426
29,56862,5395
29,57273,4937
29,57685,4911
29,58098,6300
29,58510,4970
29,58922,5696
29,59335,5280
29,59747,5453
29,60158,6284
29,60570,4634
29,60983,5424
29,61395,4983
29,61807,5727
29,62220,4537
29,62632,4245
29,63043,5174
29,63457,5497
29,63868,5463
29,64280,5595
29,64693,6892
29,65105,6632
29,65517,7146
29,65930,7945
29,66342,7663
29,66753,8076
29,67167,7064
29,67578,7725
29,67990,7049
29,68403,6434
29,68815,6509
29,69227,7100
29,69638,5627
29,70052,6456
29,70463,6277
29,70875,5716
29,71288,5810
29,71700,5447
29,72112,5502
29,72525,5468
29,72937,5782
29,73348,6133
29,73762,5080
29,74173,4488
29,74585,5319
29,74998,4788
29,75410,4890
29,75822,6392
29,76235,6141
29,76647,5056
29,77058,5597
29,77472,4964
29,77883,4735
29,78295,4575
29,78707,5101
29,79120,5179
29,79532,4159
29,79943,5715
29,80357,5514
29,80768,6216
29,81180,7847
29,81593,8058
29,82005,8939
29,82417,11768
29,82830,14331
29,83242,21378
29,83653,27540
29,84067,38991
29,84478,53120
29,84890,70671
29,85303,94456
29,85715,123792
29,86127,157885
29,86540,190261
29,86952,224312
29,87363,262615
29,87775,289778
29,88188,307914
29,88600,329249
29,89012,345096
29,89425,342910
29,89837,332363
29,90248,316955
29,90662,295464
29,91073,272966
29,91485,249494
29,91898,225206
29,92310,198651
29,92722,172445
29,93135,151309
29,93547,132760
29,93958,115158
29,94372,103610
29,94783,92060
29,95195,80255
29,95608,71582
29,96020,64672
29,96432,58520
29,96843,55911
29,97257,47619
29,97668,44006
29,98080,39931
29,98493,34683
29,98905,36492
29,99317,31356
29,99730,27769
30,00142,28520
30,00553,26691
30,00967,25257
30,01378,24322
30,01790,22338
30,02203,21577
30,02615,19739
30,03027,19722
30,03440,18271
30,03852,18022
30,04263,17897
30,04677,16262
30,05088,15238
30,05500,15035
30,05912,15449
30,06325,13494
30,06737,13601
30,07148,13413
30,07562,14146
30,07973,12420
30,08385,12919
30,08798,11990
30,09210,13010
30,09622,11478
30,10035,11953
30,10447,12028
30,10858,10327
30,11272,11712
30,11683,10397
30,12095,11770
30,12508,11106
30,12920,12894
30,13332,10341
30,13745,11159
30,14157,8568
30,14568,10464
30,14980,10682
30,15393,9430
30,15805,9564
30,16217,8799
30,16630,9898
30,17042,8577
30,17453,8960
30,17867,7604
30,18278,7122
30,18690,8605
30,19103,7523
30,19515,9233
30,19927,8260
30,20340,8028
30,20752,9027
30,21163,7788
30,21577,6968
30,21988,7369
30,22400,8049
30,22813,5980
30,23225,9130
30,23637,7061
30,24048,7611
30,24462,6555
30,24873,6409
30,25285,6135
30,25698,7643
30,26110,7506
30,26522,6348
30,26935,7354
30,27347,7219
30,27758,6919
30,28172,6517
30,28583,7370
30,28995,7278
30,29408,7439
30,29820,6770
30,30232,5987
30,30645,6494
30,31057,5456
30,31468,6207
30,31882,6103
30,32293,5558
30,32705,6287
30,33117,5978
30,33530,6889
30,33942,5661
30,34353,5492
30,34767,6812
30,35178,6780
30,35590,6109
30,36003,7189
30,36415,7512
30,36827,6348
30,37240,6785
30,37652,7885
30,38063,8354
30,38477,7491
30,38888,7289
30,39300,6689
30,39713,5954
30,40125,7871
30,40537,7262
30,40950,7076
30,41362,6972
30,41773,6584
30,42185,7638
30,42598,8086
30,43010,7767
30,43422,6208
30,43835,7464
30,44247,6488
30,44658,6423
30,45072,5680
30,45483,6933
30,45895,7209
30,46308,6999
30,46720,6069
30,47132,5759
30,47545,6628
30,47957,5318
30,48368,6595
30,48782,5804
30,49193,7005
30,49605,5956
30,50018,5836
30,50430,6516
30,50842,7063
30,51253,6496
30,51667,7633
30,52078,6428
30,52490,6021
30,52903,7140
30,53315,7065
30,53727,6533
30,54140,6177
30,54552,6902
30,54963,6451
30,55377,7399
30,55788,7590
30,56200,6934
30,56613,6060
30,57025,7531
30,57437,6815
30,57850,6472
30,58262,6835
30,58673,7182
30,59087,7534
30,59498,6619
30,59910,6813
30,60322,6871
30,60735,7596
30,61147,6863
30,61558,7093
30,61972,8503
30,62383,6000
30,62795,6742
30,63208,7443
30,63620,7073
30,64032,7916
30,64445,6852
30,64857,5816
30,65268,6461
30,65682,6994
30,66093,6572
30,66505,7363
30,66918,6671
30,67330,7322
30,67742,6244
30,68155,6701
30,68567,6328
30,68978,6380
30,69392,7170
30,69803,6758
30,70215,6065
30,70627,6131
30,71040,6994
30,71452,7617
30,71863,7712
30,72277,6274
30,72688,6970
30,73100,6542
30,73513,6916
30,73925,6540
30,74337,7007
30,74750,6810
30,75162,6563
30,75573,6130
30,75987,6070
30,76398,7380
30,76810,7207
