D:\MassHunter\GCMS\1\data\Amal\Constant flow\120C\120C_1ml-min_9C-min_2.D Tue Sep 03 12:49:35 2024
Start of data points
5,19095,265608
5,19508,263637
5,19920,256661
5,20332,255686
5,20745,257669
5,21157,244920
5,21568,243133
5,21982,238925
5,22393,242993
5,22805,237633
5,23218,241864
5,23630,240532
5,24042,241051
5,24455,241579
5,24867,237689
5,25278,231724
5,25692,231573
5,26103,231506
5,26515,230365
5,26928,228865
5,27340,223820
5,27752,223530
5,28163,220918
5,28577,220221
5,28988,222371
5,29400,224200
5,29813,249416
5,30225,308461
5,30637,415319
5,31050,589070
5,31462,829045
5,31873,1097092
5,32287,1372515
5,32698,1581459
5,33110,1747756
5,33523,1827000
5,33935,1875783
5,34347,1893717
5,34760,1874463
5,35172,1852262
5,35583,1799411
5,35997,1754367
5,36408,1704560
5,36820,1660529
5,37232,1606415
5,37645,1525604
5,38057,1464222
5,38468,1395958
5,38882,1324292
5,39293,1254241
5,39705,1181191
5,40118,1111521
5,40530,1044877
5,40942,971729
5,41355,909882
5,41767,857950
5,42178,799101
5,42592,742032
5,43003,696153
5,43415,652361
5,43828,602004
5,44240,560164
5,44652,517489
5,45065,478044
5,45477,447034
5,45888,418157
5,46300,381804
5,46713,360411
5,47125,336828
5,47537,314265
5,47950,294667
5,48362,278410
5,48773,256402
5,49187,248461
5,49598,230223
5,50010,225552
5,50423,210238
5,50835,204430
5,51247,195255
5,51660,185809
5,52072,178554
5,52483,172760
5,52897,168447
5,53308,163087
5,53720,156034
5,54133,155780
5,54545,151784
5,54957,145614
5,55368,144231
5,55782,140727
5,56193,140458
5,56605,137890
5,57018,137135
5,57430,132498
5,57842,131104
5,58255,129378
5,58667,127935
5,59078,127295
5,59492,127838
5,59903,126465
5,60315,121467
5,60728,123216
5,61140,116926
5,61552,119591
5,61965,118136
5,62377,119033
5,62788,118900
5,63202,116323
5,63613,118908
5,64025,115895
5,64437,118871
5,64850,114305
5,65262,115620
5,65673,112537
5,66087,114715
5,66498,111135
5,66910,110144
5,67323,111437
5,67735,114389
5,68147,110147
5,68560,113402
5,68972,110369
5,69383,110774
5,69797,110173
5,70208,108613
5,70620,109702
5,71033,111775
5,71445,110632
5,71857,111080
5,72270,110639
5,72682,115971
5,73093,110898
5,73505,112423
5,73918,109341
5,74330,111093
5,74742,113322
5,75155,109436
5,75567,113179
5,75978,110178
5,76392,109792
5,76803,107405
5,77215,108628
5,77628,108812
5,78040,106566
5,78452,110045
5,78865,104840
5,79277,106792
5,79688,106360
5,80102,104737
5,80513,103896
5,80925,105257
5,81338,103741
5,81750,102032
5,82162,99140
5,82573,101421
5,82987,98811
5,83398,98378
5,83810,97800
5,84223,101374
5,84635,95468
5,85047,97794
5,85460,99557
5,85872,96519
5,86283,97427
5,86697,95241
5,87108,95090
5,87520,96116
5,87933,95805
5,88345,95151
5,88757,95463
5,89170,95012
5,89582,93215
5,89993,91939
5,90407,93996
5,90818,92140
5,91230,91531
5,91642,93726
5,92055,89030
5,92467,93388
5,92878,94175
5,93292,92397
5,93703,90402
5,94115,94560
5,94528,90885
5,94940,93925
5,95352,94761
5,95765,97269
5,96177,96929
5,96588,98038
5,97002,97576
5,97413,97556
5,97825,96443
5,98238,96354
5,98650,97656
5,99062,95421
5,99475,94985
5,99887,95121
6,00298,91529
6,00710,92850
6,01123,93758
6,01535,92743
6,01947,90871
6,02360,93547
6,02772,92702
6,03183,89660
6,03597,86229
6,04008,86382
6,04420,85273
6,04833,85568
6,05245,84783
6,05657,85648
6,06070,80953
6,06482,86455
6,06893,81776
6,07307,83527
6,07718,84217
6,08130,84227
6,08543,85081
6,08955,83113
6,09367,83187
6,09778,81551
6,10192,84818
6,10603,84266
6,11015,81484
6,11428,82786
6,11840,83427
6,12252,80548
6,12665,83435
6,13077,81570
6,13488,81287
6,13902,80716
6,14313,80637
6,14725,78844
6,15138,80952
6,15550,79826
6,15962,77461
6,16375,80945
6,16787,79983
6,17198,80312
6,17612,79814
6,18023,81048
6,18435,79370
6,18847,79169
6,19260,83824
6,19672,89227
6,20083,113707
6,20497,162695
6,20908,261023
6,21320,434570
6,21733,696669
6,22145,1035380
6,22557,1418096
6,22970,1810290
6,23382,2159043
6,23793,2420128
6,24207,2600688
6,24618,2678364
6,25030,2703052
6,25443,2647171
6,25855,2598916
6,26267,2494717
6,26680,2372263
6,27092,2243765
6,27503,2089850
6,27915,1953780
6,28328,1815732
6,28740,1660194
6,29152,1513566
6,29565,1369684
6,29977,1230435
6,30388,1122983
6,30802,992769
6,31213,892830
6,31625,794703
6,32038,718983
6,32450,628396
6,32862,555670
6,33275,495814
6,33687,432499
6,34098,384443
6,34512,344009
6,34923,306319
6,35335,275147
6,35748,247158
6,36160,218588
6,36572,199979
6,36985,185608
6,37397,170694
6,37808,155906
6,38220,144531
6,38633,136927
6,39045,126212
6,39457,119618
6,39870,114684
6,40282,110082
6,40693,103306
6,41107,100557
6,41518,97299
6,41930,93209
6,42343,91180
6,42755,88143
6,43167,89223
6,43580,85483
6,43992,82337
6,44403,83113
6,44817,80817
6,45228,77172
6,45640,78413
6,46053,76314
6,46465,77638
6,46877,77810
6,47288,72573
6,47702,73062
6,48113,73434
6,48525,76209
6,48938,72668
6,49350,73437
6,49762,73351
6,50175,71520
6,50587,71308
6,50998,71482
6,51412,72604
6,51823,71823
6,52235,72109
6,52648,69706
6,53060,69334
6,53472,69004
6,53885,71236
6,54297,68564
6,54708,68834
6,55122,69476
6,55533,68260
6,55945,70480
6,56357,62575
6,56770,67111
6,57182,65980
6,57593,65864
6,58007,68285
6,58418,65918
6,58830,65578
6,59243,62932
6,59655,66094
6,60067,63961
6,60480,66585
6,60892,64461
6,61303,63690
6,61717,62912
6,62128,62924
6,62540,64737
6,62953,62786
6,63365,64183
6,63777,60104
6,64190,61503
6,64602,63886
6,65013,63413
6,65425,62958
6,65838,60402
6,66250,60074
6,66662,63655
6,67075,61500
6,67487,62317
6,67898,62763
6,68312,61325
6,68723,62083
6,69135,60097
6,69548,61672
6,69960,58786
6,70372,59856
6,70785,59374
6,71197,57929
6,71608,58640
6,72022,60026
6,72433,58637
6,72845,57390
6,73258,58482
6,73670,56898
6,74082,57947
6,74493,59059
6,74907,59354
6,75318,57728
6,75730,58092
6,76143,57499
6,76555,56818
6,76967,58808
6,77380,61639
6,77792,66178
6,78203,81862
6,78617,109916
6,79028,169654
6,79440,272851
6,79853,421188
6,80265,619915
6,80677,850280
6,81090,1094113
6,81502,1309133
6,81913,1487540
6,82327,1609082
6,82738,1648724
6,83150,1650283
6,83562,1608831
6,83975,1533462
6,84387,1448133
6,84798,1353620
6,85212,1242329
6,85623,1131473
6,86035,1026892
6,86448,922294
6,86860,817374
6,87272,726760
6,87685,639095
6,88097,558186
6,88508,483025
6,88922,418525
6,89333,361834
6,89745,311487
6,90158,272133
6,90570,241190
6,90982,210307
6,91395,183995
6,91807,163798
6,92218,150031
6,92630,137714
6,93043,122880
6,93455,111626
6,93867,103013
6,94280,99653
6,94692,93294
6,95103,85964
6,95517,83084
6,95928,78033
6,96340,75568
6,96753,70853
6,97165,71738
6,97577,70207
6,97990,66039
6,98402,64274
6,98813,63625
6,99227,63728
6,99638,60810
7,00050,60861
7,00463,59355
7,00875,57986
7,01287,58136
7,01698,58130
7,02112,58844
7,02523,59355
7,02935,60294
7,03348,60532
7,03760,59390
7,04172,59997
7,04585,61372
7,04997,61186
7,05408,62263
7,05822,60390
7,06233,60742
7,06645,60050
7,07058,58187
7,07470,58145
7,07882,58789
7,08295,56728
7,08707,56034
7,09118,56390
7,09532,57868
7,09943,56407
7,10355,56038
7,10767,54373
7,11180,54134
7,11592,53241
7,12003,50949
7,12417,53951
7,12828,53888
7,13240,50990
7,13653,51197
7,14065,52938
7,14477,50850
7,14890,52928
7,15302,50958
7,15713,49103
7,16127,48215
7,16538,49764
7,16950,50368
7,17363,49194
7,17775,48332
7,18187,46663
7,18600,48071
7,19012,49150
7,19423,44383
7,19835,45971
7,20248,44274
7,20660,45129
7,21072,45184
7,21485,45432
7,21897,44691
7,22308,43387
7,22722,45276
7,23133,45400
7,23545,45564
7,23958,41614
7,24370,44664
7,24782,43531
7,25195,43590
7,25607,43763
7,26018,44192
7,26432,42639
7,26843,44856
7,27255,42506
7,27668,43866
7,28080,43243
7,28492,43497
7,28903,43468
7,29317,42562
7,29728,42511
7,30140,44656
7,30553,43271
7,30965,42877
7,31377,43639
7,31790,42199
7,32202,43591
7,32613,42472
7,33027,44767
7,33438,43149
7,33850,43280
7,34263,43264
7,34675,45484
7,35087,44918
7,35500,44628
7,35912,43670
7,36323,43216
7,36737,44892
7,37148,42732
7,37560,43732
7,37972,44221
7,38385,43818
7,38797,45282
7,39208,43081
7,39622,45290
7,40033,43041
7,40445,43951
7,40858,41834
7,41270,41784
7,41682,43464
7,42095,45527
7,42507,57781
7,42918,83221
7,43332,138330
7,43743,250359
7,44155,452003
7,44568,766785
7,44980,1193217
7,45392,1724085
7,45805,2291524
7,46217,2865886
7,46628,3355102
7,47040,3701869
7,47453,3892110
7,47865,3938373
7,48277,3845429
7,48690,3642178
7,49102,3369598
7,49513,3036571
7,49927,2707665
7,50338,2340413
7,50750,2025012
7,51163,1738467
7,51575,1442752
7,51987,1214877
7,52400,988039
7,52812,823461
7,53223,683845
7,53637,573044
7,54048,477578
7,54460,401062
7,54873,336155
7,55285,287600
7,55697,248419
7,56108,217681
7,56522,191552
7,56933,167209
7,57345,153277
7,57758,135091
7,58170,126148
7,58582,116477
7,58995,105796
7,59407,97641
7,59818,89392
7,60232,86398
7,60643,84533
7,61055,78841
7,61468,74570
7,61880,72837
7,62292,70092
7,62705,68196
7,63117,64862
7,63528,64972
7,63942,63728
7,64353,60755
7,64765,59455
7,65177,58646
7,65590,57425
7,66002,56048
7,66413,54960
7,66827,53533
7,67238,54385
7,67650,49784
7,68063,49540
7,68475,50698
7,68887,49272
7,69300,49525
7,69712,48664
7,70123,47222
7,70537,46354
7,70948,47674
7,71360,45330
7,71773,44416
7,72185,44775
7,72597,44440
7,73010,45388
7,73422,42791
7,73833,44913
7,74245,42349
7,74658,41087
7,75070,43397
7,75482,42006
7,75895,41308
7,76307,40972
7,76718,40043
7,77132,41746
7,77543,42748
7,77955,40850
7,78368,39570
7,78780,39517
7,79192,38020
7,79605,39119
7,80017,38143
7,80428,39200
7,80842,41923
7,81253,38891
7,81665,40774
7,82078,39804
7,82490,38395
7,82902,36864
7,83313,38761
7,83727,38576
7,84138,36981
7,84550,39376
7,84963,38563
7,85375,38380
7,85787,38266
7,86200,37305
7,86612,38564
7,87023,37449
7,87437,38792
7,87848,38633
7,88260,38487
7,88673,37516
7,89085,35945
7,89497,36315
7,89910,35716
7,90322,35998
7,90733,37905
7,91147,35218
7,91558,35102
7,91970,37060
7,92382,34389
7,92795,34296
7,93207,34902
7,93618,37023
7,94032,36700
7,94443,36514
7,94855,36505
7,95268,36219
7,95680,35700
7,96092,37655
7,96505,34769
7,96917,37090
7,97328,36132
7,97742,35110
7,98153,34808
7,98565,35481
7,98978,34710
7,99390,34332
7,99802,33163
8,00215,34000
8,00627,34001
8,01038,34266
8,01452,33974
8,01863,34041
8,02275,33529
8,02687,34653
8,03100,34274
8,03512,33420
8,03923,32779
8,04337,34184
8,04748,35099
8,05160,33467
8,05573,35972
8,05985,36360
8,06397,36293
8,06810,37286
8,07222,39449
8,07633,41279
8,08047,40053
8,08458,42336
8,08870,43765
8,09283,42508
8,09695,43064
8,10107,40531
8,10520,40384
8,10932,43049
8,11343,40515
8,11755,44866
8,12168,49224
8,12580,62217
8,12992,93221
8,13405,151757
8,13817,261347
8,14228,437771
8,14642,693927
8,15053,1006120
8,15465,1362747
8,15878,1731045
8,16290,2012915
8,16702,2230011
8,17115,2360757
8,17527,2336265
8,17938,2242178
8,18352,2051868
8,18763,1839476
8,19175,1568630
8,19588,1321856
8,20000,1099664
8,20412,897003
8,20823,722305
8,21237,584651
8,21648,466432
8,22060,381581
8,22473,303341
8,22885,257055
8,23297,220835
8,23710,181678
8,24122,155816
8,24533,137277
8,24947,119579
8,25358,110005
8,25770,99748
8,26183,91532
8,26595,82584
8,27007,76279
8,27420,75789
8,27832,69190
8,28243,64783
8,28657,63112
8,29068,60065
8,29480,58441
8,29892,54975
8,30305,51390
8,30717,49080
8,31128,50022
8,31542,49492
8,31953,45208
8,32365,45998
8,32778,43181
8,33190,40730
8,33602,41002
8,34015,39962
8,34427,40314
8,34838,38792
8,35252,40276
8,35663,38738
8,36075,38670
8,36488,36855
8,36900,38207
8,37312,37697
8,37725,37375
8,38137,34688
8,38548,36381
8,38960,36276
8,39373,35848
8,39785,35502
8,40197,33817
8,40610,35382
8,41022,35597
8,41433,32296
8,41847,34060
8,42258,33723
8,42670,33913
8,43083,31907
8,43495,33580
8,43907,31840
8,44320,31942
8,44732,30994
8,45143,28950
8,45557,33262
8,45968,31477
8,46380,31148
8,46793,32036
8,47205,30071
8,47617,31602
8,48028,31022
8,48442,31661
8,48853,30874
8,49265,31705
8,49678,30555
8,50090,32426
8,50502,33766
8,50915,36147
8,51327,39097
8,51738,41760
8,52152,40023
8,52563,39661
8,52975,41495
8,53388,41684
8,53800,39479
8,54212,36820
8,54625,38437
8,55037,36213
8,55448,34492
8,55862,33099
8,56273,33682
8,56685,33147
8,57097,30713
8,57510,30706
8,57922,31639
8,58333,29392
8,58747,31213
8,59158,29646
8,59570,31542
8,59983,31411
8,60395,31420
8,60807,29277
8,61220,29991
8,61632,28680
8,62043,28736
8,62457,27899
8,62868,28298
8,63280,30311
8,63693,30209
8,64105,29681
8,64517,28583
8,64930,28829
8,65342,28027
8,65753,25069
8,66165,27807
8,66578,27171
8,66990,28266
8,67402,28176
8,67815,27417
8,68227,26386
8,68638,25199
8,69052,27753
8,69463,28277
8,69875,26446
8,70288,27094
8,70700,27527
8,71112,27938
8,71525,26632
8,71937,28991
8,72348,27588
8,72762,31122
8,73173,32738
8,73585,32049
8,73998,34293
8,74410,38250
8,74822,38698
8,75233,39283
8,75647,41573
8,76058,40040
8,76470,42725
8,76883,40174
8,77295,38482
8,77707,38624
8,78120,36956
8,78532,36809
8,78943,32961
8,79357,31864
8,79768,32792
8,80180,31546
8,80593,31055
8,81005,26920
8,81417,27953
8,81830,28042
8,82242,28508
8,82653,27519
8,83067,27192
8,83478,27095
8,83890,27578
8,84302,35089
8,84715,45519
8,85127,75003
8,85538,138473
8,85952,273085
8,86363,508600
8,86775,899945
8,87188,1452300
8,87600,2190870
8,88012,2993521
8,88425,3876858
8,88837,4633645
8,89248,5159111
8,89662,5421731
8,90073,5345131
8,90485,4978324
8,90898,4413799
8,91310,3720775
8,91722,3084022
8,92135,2463986
8,92547,1914496
8,92958,1492513
8,93370,1157886
8,93783,899892
8,94195,707692
8,94607,571155
8,95020,460186
8,95432,385573
8,95843,313110
8,96257,272164
8,96668,234503
8,97080,203279
8,97493,178013
8,97905,162220
8,98317,141691
8,98730,133434
8,99142,120658
8,99553,111162
8,99967,102520
9,00378,97389
9,00790,92738
9,01203,87873
9,01615,88743
9,02027,82429
9,02438,81340
9,02852,83966
9,03263,82899
9,03675,78230
9,04088,74874
9,04500,73641
9,04912,72557
9,05325,68191
9,05737,66312
9,06148,62754
9,06562,59101
9,06973,54556
9,07385,51381
9,07798,49876
9,08210,45824
9,08622,44691
9,09035,42588
9,09447,42904
9,09858,40491
9,10272,38501
9,10683,38699
9,11095,37607
9,11507,38715
9,11920,39279
9,12332,36651
9,12743,35372
9,13157,35667
9,13568,34760
9,13980,34824
9,14393,34035
9,14805,34816
9,15217,33207
9,15630,33280
9,16042,32807
9,16453,32743
9,16867,32135
9,17278,34467
9,17690,33034
9,18103,34254
9,18515,35164
9,18927,36173
9,19340,35635
9,19752,38011
9,20163,38911
9,20575,37573
9,20988,39176
9,21400,38993
9,21812,38219
9,22225,37746
9,22637,36605
9,23048,35819
9,23462,36634
9,23873,35373
9,24285,38656
9,24698,38634
9,25110,37633
9,25522,37772
9,25935,36437
9,26347,36049
9,26758,34322
9,27172,34644
9,27583,31243
9,27995,29172
9,28408,30282
9,28820,30476
9,29232,30163
9,29643,29124
9,30057,28595
9,30468,27542
9,30880,28329
9,31293,26658
9,31705,29121
9,32117,26545
9,32530,28994
9,32942,27489
9,33353,27798
9,33767,27098
9,34178,27485
9,34590,27722
9,35003,26039
9,35415,25117
9,35827,24723
9,36240,23690
9,36652,25561
9,37063,24742
9,37477,25848
9,37888,25027
9,38300,26465
9,38712,28600
9,39125,37784
9,39537,58232
9,39948,97940
9,40362,174022
9,40773,319357
9,41185,534033
9,41598,860076
9,42010,1256887
9,42422,1662678
9,42835,2087641
9,43247,2405506
9,43658,2586798
9,44072,2627783
9,44483,2491468
9,44895,2277096
9,45308,1965185
9,45720,1637843
9,46132,1303197
9,46545,1030154
9,46957,817192
9,47368,635188
9,47780,498789
9,48193,393890
9,48605,320791
9,49017,265411
9,49430,216893
9,49842,182647
9,50253,158329
9,50667,140502
9,51078,122797
9,51490,107524
9,51903,96198
9,52315,89195
9,52727,82049
9,53140,75012
9,53552,69310
9,53963,67120
9,54377,61883
9,54788,57508
9,55200,53942
9,55613,50884
9,56025,46963
9,56437,46823
9,56850,43936
9,57262,42978
9,57673,43567
9,58085,46005
9,58498,59680
9,58910,83567
9,59322,138907
9,59735,248169
9,60147,425504
9,60558,703439
9,60972,1090120
9,61383,1557097
9,61795,2036485
9,62208,2473873
9,62620,2807939
9,63032,2946888
9,63445,2885706
9,63857,2657685
9,64268,2326499
9,64682,1946518
9,65093,1568663
9,65505,1220899
9,65918,938348
9,66330,718800
9,66742,550802
9,67153,432677
9,67567,337052
9,67978,276090
9,68390,234670
9,68803,192945
9,69215,166624
9,69627,143791
9,70040,128307
9,70452,115377
9,70863,100232
9,71277,92123
9,71688,86210
9,72100,78985
9,72513,72098
9,72925,67819
9,73337,64096
9,73750,60968
9,74162,57459
9,74573,52082
9,74987,51164
9,75398,48246
9,75810,49019
9,76222,46022
9,76635,42334
9,77047,42170
9,77458,41546
9,77872,41953
9,78283,37966
9,78695,37928
9,79108,39594
9,79520,37878
9,79932,35638
9,80345,36088
9,80757,35142
9,81168,33923
9,81582,32915
9,81993,30299
9,82405,30561
9,82818,31396
9,83230,31241
9,83642,29928
9,84055,28064
9,84467,29209
9,84878,29228
9,85290,28010
9,85703,27246
9,86115,27410
9,86527,27527
9,86940,27674
9,87352,25696
9,87763,27118
9,88177,25095
9,88588,26642
9,89000,25957
9,89413,25754
9,89825,24912
9,90237,25030
9,90650,24269
9,91062,25461
9,91473,24767
9,91887,24484
9,92298,24042
9,92710,21514
9,93123,25212
9,93535,22786
9,93947,21804
9,94358,22937
9,94772,24160
9,95183,23742
9,95595,23981
9,96008,21839
9,96420,22647
9,96832,23397
9,97245,21214
9,97657,23854
9,98068,23221
9,98482,24295
9,98893,21707
9,99305,23651
9,99718,23273
10,00130,24089
10,00542,23120
10,00955,22644
10,01367,24142
10,01778,24201
10,02192,23022
10,02603,22598
10,03015,24678
10,03427,23212
10,03840,23144
10,04252,23167
10,04663,22180
10,05077,22095
10,05488,21578
10,05900,22196
10,06313,22357
10,06725,22657
10,07137,21069
10,07550,22041
10,07962,21887
10,08373,21721
10,08787,20842
10,09198,21380
10,09610,21779
10,10023,21644
10,10435,21016
10,10847,22543
10,11260,21451
10,11672,24370
10,12083,23328
10,12495,24502
10,12908,26317
10,13320,36320
10,13732,58542
10,14145,103849
10,14557,188251
10,14968,353257
10,15382,605734
10,15793,963470
10,16205,1430880
10,16618,1924967
10,17030,2347521
10,17442,2710772
10,17855,2861912
10,18267,2833014
10,18678,2609954
10,19092,2259529
10,19503,1880339
10,19915,1501204
10,20328,1180614
10,20740,893602
10,21152,698685
10,21563,535209
10,21977,417972
10,22388,328604
10,22800,271516
10,23213,227882
10,23625,192325
10,24037,162719
10,24450,140467
10,24862,123516
10,25273,112066
10,25687,98900
10,26098,92594
10,26510,82146
10,26923,76747
10,27335,71352
10,27747,66027
10,28160,64586
10,28572,58472
10,28983,54213
10,29397,53190
10,29808,49576
10,30220,48078
10,30632,47583
10,31045,49260
10,31457,58038
10,31868,85214
10,32282,144181
10,32693,272679
10,33105,528225
10,33518,962484
10,33930,1603014
10,34342,2508518
10,34755,3668096
10,35167,4995508
10,35578,6487546
10,35992,7745807
10,36403,8658795
10,36815,9096690
10,37228,8983599
10,37640,8111918
10,38052,6861078
10,38465,5494552
10,38877,4189060
10,39288,3121405
10,39700,2305750
10,40113,1741890
10,40525,1321274
10,40937,1038849
10,41350,824741
10,41762,681148
10,42173,558021
10,42587,478666
10,42998,407923
10,43410,357139
10,43823,310228
10,44235,270306
10,44647,244856
10,45060,220746
10,45472,203641
10,45883,180306
10,46297,164285
10,46708,150553
10,47120,142707
10,47533,129890
10,47945,123465
10,48357,112255
10,48768,107200
10,49182,99631
10,49593,93823
10,50005,91253
10,50418,84989
10,50830,83491
10,51242,75492
10,51655,73975
10,52067,70942
10,52478,69180
10,52892,65660
10,53303,63557
10,53715,60615
10,54128,58248
10,54540,54357
10,54952,51939
10,55365,51713
10,55777,48436
10,56188,47468
10,56602,46538
10,57013,45037
10,57425,44573
10,57837,42507
10,58250,42347
10,58662,40497
10,59073,41704
10,59487,38047
10,59898,36383
10,60310,38576
10,60723,36162
10,61135,35450
10,61547,35195
10,61960,34765
10,62372,34101
10,62783,35234
10,63197,35300
10,63608,34249
10,64020,33789
10,64433,36119
10,64845,34337
10,65257,35530
10,65670,35316
10,66082,35238
10,66493,33332
10,66905,34296
10,67318,33276
10,67730,31856
10,68142,30315
10,68555,29135
10,68967,29934
10,69378,28614
10,69792,27295
10,70203,27285
10,70615,26156
10,71028,26022
10,71440,28098
10,71852,26670
10,72265,26720
10,72677,27216
10,73088,29543
10,73502,30032
10,73913,31078
10,74325,31068
10,74738,30925
10,75150,30450
10,75562,31042
10,75973,30830
10,76387,31894
10,76798,37002
10,77210,53543
10,77623,89645
10,78035,164976
10,78447,305167
10,78860,541333
10,79272,883550
10,79683,1321513
10,80097,1814916
10,80508,2341408
10,80920,2740009
10,81333,2968140
10,81745,2936664
10,82157,2735678
10,82570,2358380
10,82982,1961540
10,83393,1561070
10,83807,1211588
10,84218,928770
10,84630,706227
10,85042,543167
10,85455,432391
10,85867,344718
10,86278,283433
10,86692,227801
10,87103,199256
10,87515,173451
10,87928,150846
10,88340,133580
10,88752,122413
10,89165,113501
10,89577,109323
10,89988,102849
10,90402,100221
10,90813,93968
10,91225,87263
10,91638,84568
10,92050,75480
10,92462,71526
10,92875,66864
10,93287,61411
10,93698,58489
10,94110,54612
10,94523,52004
10,94935,50417
10,95347,48238
10,95760,48640
10,96172,47968
10,96583,46842
10,96997,48170
10,97408,50991
10,97820,53313
10,98233,53317
10,98645,56135
10,99057,52065
10,99470,52033
10,99882,46755
11,00293,45540
11,00707,43332
11,01118,40398
11,01530,39657
11,01943,36478
11,02355,34528
11,02767,34360
11,03178,32884
11,03592,37036
11,04003,47565
11,04415,72779
11,04828,132226
11,05240,251919
11,05652,455072
11,06065,777776
11,06477,1212184
11,06888,1759769
11,07302,2325502
11,07713,2803103
11,08125,3104859
11,08538,3203113
11,08950,3042465
11,09362,2734826
11,09775,2273165
11,10187,1833294
11,10598,1416507
11,11012,1077315
11,11423,818520
11,11835,627328
11,12247,491028
11,12660,393064
11,13072,317212
11,13483,256998
11,13897,220226
11,14308,189225
11,14720,167151
11,15133,146365
11,15545,130213
11,15957,113850
11,16370,102493
11,16782,95133
11,17193,87775
11,17607,81744
11,18018,78673
11,18430,70959
11,18843,68566
11,19255,62464
11,19667,58521
11,20080,55689
11,20492,54609
11,20903,51495
11,21317,48473
11,21728,45159
11,22140,46715
11,22552,45957
11,22965,42132
11,23377,39324
11,23788,38547
11,24202,38976
11,24613,36092
11,25025,38063
11,25438,36054
11,25850,34906
11,26262,35603
11,26675,35176
11,27087,33396
11,27498,31790
11,27912,34704
11,28323,31198
11,28735,30192
11,29148,31032
11,29560,29024
11,29972,29457
11,30385,29978
11,30797,29403
11,31208,29885
11,31620,28447
11,32033,29156
11,32445,27146
11,32857,25718
11,33270,26635
11,33682,26291
11,34093,26608
11,34507,28104
11,34918,26047
11,35330,25887
11,35743,24854
11,36155,28087
11,36567,25264
11,36980,24385
11,37392,24888
11,37803,25827
11,38217,23448
11,38628,23584
11,39040,24877
11,39453,24309
11,39865,21733
11,40277,23550
11,40688,23899
11,41102,24180
11,41513,22146
11,41925,22855
11,42338,23199
11,42750,22821
11,43162,22889
11,43575,24196
11,43987,22478
11,44398,22399
11,44812,24344
11,45223,22203
11,45635,22256
11,46048,21285
11,46460,21674
11,46872,24043
11,47285,24008
11,47697,26505
11,48108,30374
11,48522,40537
11,48933,64576
11,49345,119914
11,49757,221818
11,50170,414748
11,50582,716021
11,50993,1150592
11,51407,1659337
11,51818,2223252
11,52230,2658352
11,52643,2978067
11,53055,3063536
11,53467,2948739
11,53880,2652632
11,54292,2227369
11,54703,1798193
11,55117,1397837
11,55528,1086738
11,55940,822889
11,56353,632032
11,56765,495259
11,57177,394233
11,57590,318039
11,58002,266366
11,58413,226637
11,58825,191771
11,59238,164339
11,59650,149775
11,60062,132140
11,60475,117608
11,60887,106523
11,61298,97223
11,61712,90555
11,62123,83608
11,62535,76414
11,62948,71515
11,63360,66104
11,63772,62599
11,64185,62678
11,64597,56959
11,65008,53441
11,65422,52648
11,65833,49591
11,66245,45337
11,66658,46854
11,67070,44536
11,67482,41226
11,67893,42223
11,68307,40185
11,68718,38812
11,69130,40294
11,69543,37785
11,69955,36148
11,70367,36690
11,70780,35243
11,71192,32920
11,71603,33140
11,72017,32997
11,72428,32574
11,72840,32339
11,73253,31651
11,73665,33266
11,74077,37828
11,74490,50607
11,74902,86726
11,75313,159895
11,75727,301159
11,76138,556935
11,76550,960465
11,76962,1549053
11,77375,2325812
11,77787,3278642
11,78198,4251503
11,78612,5199157
11,79023,6030507
11,79435,6406314
11,79848,6377547
11,80260,5896700
11,80672,5050674
11,81085,4090202
11,81497,3163778
11,81908,2381318
11,82322,1797451
11,82733,1368319
11,83145,1070227
11,83558,846499
11,83970,684040
11,84382,562647
11,84795,473460
11,85207,398376
11,85618,341752
11,86030,298053
11,86443,262801
11,86855,242804
11,87267,214778
11,87680,189080
11,88092,170028
11,88503,158520
11,88917,149152
11,89328,135907
11,89740,124827
11,90153,114868
11,90565,109442
11,90977,102813
11,91390,96771
11,91802,92051
11,92213,88376
11,92627,82061
11,93038,79363
11,93450,75519
11,93863,73865
11,94275,71021
11,94687,67302
11,95098,67274
11,95512,63110
11,95923,63190
11,96335,58869
11,96748,57362
11,97160,55225
11,97572,52049
11,97985,49889
11,98397,49620
11,98808,50648
11,99222,52809
11,99633,65643
12,00045,94367
12,00458,148612
12,00870,263216
12,01282,458986
12,01695,757255
12,02107,1175483
12,02518,1680680
12,02932,2209121
12,03343,2698127
12,03755,3046763
12,04167,3144035
12,04580,3029061
12,04992,2705339
12,05403,2316463
12,05817,1877109
12,06228,1473956
12,06640,1143375
12,07053,883785
12,07465,680444
12,07877,545678
12,08290,433047
12,08702,359594
12,09113,298898
12,09527,255704
12,09938,222396
12,10350,195197
12,10763,169908
12,11175,152398
12,11587,138591
12,12000,131848
12,12412,137173
12,12823,160549
12,13235,218785
12,13648,349615
12,14060,592105
12,14472,988411
12,14885,1587010
12,15297,2386777
12,15708,3354394
12,16122,4389846
12,16533,5384084
12,16945,6110640
12,17358,6364357
12,17770,6143746
12,18182,5490793
12,18595,4597309
12,19007,3673156
12,19418,2819377
12,19832,2133413
12,20243,1616645
12,20655,1244213
12,21068,974046
12,21480,784731
12,21892,644784
12,22303,540545
12,22717,463082
12,23128,395201
12,23540,344152
12,23953,301648
12,24365,270696
12,24777,240726
12,25190,218065
12,25602,198724
12,26013,186147
12,26427,167846
12,26838,157643
12,27250,144447
12,27663,136178
12,28075,127378
12,28487,119521
12,28900,112897
12,29312,106015
12,29723,101139
12,30137,96590
12,30548,91555
12,30960,90739
12,31372,85865
12,31785,80558
12,32197,75408
12,32608,72278
12,33022,71209
12,33433,68193
12,33845,64537
12,34258,63963
12,34670,61600
12,35082,58473
12,35495,58696
12,35907,55680
12,36318,55654
12,36732,54584
12,37143,52333
12,37555,50198
12,37968,49417
12,38380,47732
12,38792,48838
12,39205,48352
12,39617,50660
12,40028,62536
12,40440,86811
12,40853,149481
12,41265,263609
12,41677,476432
12,42090,801783
12,42502,1245329
12,42913,1776814
12,43327,2317137
12,43738,2813131
12,44150,3225237
12,44563,3485076
12,44975,3702869
12,45387,3930164
12,45800,4309072
12,46212,4801287
12,46623,5447538
12,47037,6081115
12,47448,6607683
12,47860,6747976
12,48273,6478822
12,48685,5780520
12,49097,4772894
12,49508,3813575
12,49922,2882936
12,50333,2166577
12,50745,1658165
12,51158,1296802
12,51570,1026139
12,51982,839839
12,52395,693340
12,52807,583947
12,53218,506641
12,53632,442439
12,54043,392646
12,54455,346138
12,54868,308317
12,55280,283074
12,55692,257648
12,56105,237681
12,56517,213597
12,56928,202224
12,57342,183956
12,57753,172131
12,58165,165614
12,58577,154425
12,58990,147299
12,59402,145747
12,59813,134267
12,60227,125889
12,60638,122709
12,61050,117265
12,61463,111304
12,61875,107252
12,62287,99145
12,62700,96704
12,63112,92811
12,63523,89565
12,63937,86497
12,64348,86753
12,64760,83056
12,65173,84014
12,65585,78427
12,65997,75937
12,66410,73190
12,66822,70037
12,67233,71496
12,67645,67097
12,68058,65564
12,68470,62560
12,68882,58970
12,69295,64096
12,69707,71691
12,70118,98848
12,70532,154632
12,70943,262074
12,71355,452713
12,71768,762198
12,72180,1154195
12,72592,1621223
12,73005,2139484
12,73417,2564443
12,73828,2846524
12,74242,2848032
12,74653,2648166
12,75065,2326775
12,75478,1952890
12,75890,1552953
12,76302,1203656
12,76713,938065
12,77127,733464
12,77538,575310
12,77950,463145
12,78363,376310
12,78775,316739
12,79187,264478
12,79600,231729
12,80012,203638
12,80423,177085
12,80837,163493
12,81248,146129
12,81660,136711
12,82073,125849
12,82485,120096
12,82897,113772
12,83310,107530
12,83722,97695
12,84133,95412
12,84547,88730
12,84958,83157
12,85370,80494
12,85783,74988
12,86195,73573
12,86607,70017
12,87018,68198
12,87432,63371
12,87843,59817
12,88255,58476
12,88668,56043
12,89080,56693
12,89492,53598
12,89905,53637
12,90317,51684
12,90728,48354
12,91142,51615
12,91553,46667
12,91965,47154
12,92378,45328
12,92790,44169
12,93202,43876
12,93615,42521
12,94027,42479
12,94438,43192
12,94852,42245
12,95263,40671
12,95675,39834
12,96087,41331
12,96500,41188
12,96912,40127
12,97323,40466
12,97737,38692
12,98148,39539
12,98560,38724
12,98973,38989
12,99385,37289
12,99797,35844
13,00210,36308
13,00622,35079
13,01033,36026
13,01447,36513
13,01858,36516
13,02270,35802
13,02683,35870
13,03095,34195
13,03507,35072
13,03920,34144
13,04332,34507
13,04743,31558
13,05155,33899
13,05568,31929
13,05980,33112
13,06392,32366
13,06805,33324
13,07217,32229
13,07628,32785
13,08042,31989
13,08453,36042
13,08865,38812
13,09278,55288
13,09690,92794
13,10102,180822
13,10515,350834
13,10927,669062
13,11338,1176871
13,11752,1949634
13,12163,3018188
13,12575,4360378
13,12988,5761374
13,13400,7166751
13,13812,8292497
13,14223,8976770
13,14637,8887273
13,15048,8170123
13,15460,6961320
13,15873,5630544
13,16285,4374160
13,16697,3340543
13,17110,2537278
13,17522,1959898
13,17933,1549162
13,18347,1228311
13,18758,1008834
13,19170,835343
13,19583,715075
13,19995,615112
13,20407,524415
13,20820,470878
13,21232,420214
13,21643,373122
13,22057,338797
13,22468,309850
13,22880,280055
13,23292,255091
13,23705,242521
13,24117,225308
13,24528,206273
13,24942,194422
13,25353,184743
13,25765,169535
13,26178,160536
13,26590,155638
13,27002,142976
13,27415,136085
13,27827,129944
13,28238,125119
13,28652,118904
13,29063,110879
13,29475,108175
13,29888,104747
13,30300,100088
13,30712,100239
13,31125,93926
13,31537,89423
13,31948,88406
13,32360,83688
13,32773,85493
13,33185,85927
13,33597,86332
13,34010,87455
13,34422,93080
13,34833,107308
13,35247,131593
13,35658,170872
13,36070,244571
13,36483,385229
13,36895,610255
13,37307,927759
13,37720,1326399
13,38132,1784148
13,38543,2177086
13,38957,2433159
13,39368,2548546
13,39780,2442638
13,40193,2178991
13,40605,1854482
13,41017,1507871
13,41428,1183356
13,41842,927916
13,42253,729418
13,42665,570209
13,43078,463268
13,43490,378405
13,43902,316143
13,44315,271089
13,44727,240950
13,45138,222542
13,45552,231969
13,45963,266333
13,46375,357864
13,46788,532008
13,47200,825042
13,47612,1256838
13,48025,1754601
13,48437,2281315
13,48848,2794356
13,49262,3094528
13,49673,3181459
13,50085,3046912
13,50497,2683830
13,50910,2262716
13,51322,1840102
13,51733,1448894
13,52147,1142832
13,52558,894992
13,52970,726762
13,53383,594459
13,53795,493642
13,54207,418922
13,54620,360428
13,55032,310779
13,55443,277532
13,55857,246842
13,56268,227792
13,56680,206745
13,57093,191508
13,57505,175522
13,57917,163212
13,58330,150900
13,58742,140927
13,59153,132644
13,59565,127620
13,59978,120194
13,60390,112067
13,60802,108936
13,61215,101545
13,61627,97590
13,62038,93847
13,62452,87532
13,62863,86369
13,63275,85233
13,63688,80395
13,64100,81187
13,64512,77719
13,64925,76542
13,65337,74221
13,65748,70689
13,66162,70171
13,66573,66610
13,66985,69233
13,67398,64569
13,67810,64158
13,68222,64432
13,68633,61085
13,69047,60427
13,69458,61040
13,69870,58011
13,70283,57627
13,70695,57615
13,71107,55596
13,71520,57225
13,71932,55133
13,72343,55830
13,72757,57093
13,73168,64821
13,73580,81585
13,73993,123257
13,74405,203983
13,74817,355640
13,75230,616128
13,75642,1019804
13,76053,1535281
13,76467,2141765
13,76878,2692979
13,77290,3128662
13,77702,3315130
13,78115,3229202
13,78527,2928052
13,78938,2467008
13,79352,1961823
13,79763,1548543
13,80175,1206557
13,80588,953294
13,81000,759664
13,81412,628968
13,81825,529798
13,82237,439147
13,82648,383552
13,83062,334083
13,83473,295299
13,83885,267659
13,84298,239220
13,84710,219009
13,85122,199298
13,85535,183602
13,85947,171574
13,86358,163793
13,86770,155163
13,87183,143382
13,87595,136424
13,88007,130030
13,88420,124637
13,88832,123004
13,89243,115450
13,89657,115483
13,90068,107965
13,90480,107108
13,90893,103536
13,91305,96636
13,91717,92908
13,92130,91939
13,92542,88533
13,92953,86380
13,93367,82901
13,93778,80654
13,94190,77422
13,94603,79148
13,95015,72031
13,95427,74759
13,95838,74823
13,96252,72929
13,96663,67426
13,97075,68770
13,97488,67418
13,97900,63351
13,98312,61440
13,98725,61405
13,99137,66493
13,99548,76426
13,99962,98348
14,00373,153331
14,00785,252834
14,01198,432062
14,01610,717539
14,02022,1117887
14,02435,1607331
14,02847,2085003
14,03258,2507585
14,03672,2748967
14,04083,2776107
14,04495,2625410
14,04907,2320208
14,05320,1921363
14,05732,1549846
14,06143,1225954
14,06557,965472
14,06968,762179
14,07380,624097
14,07793,509156
14,08205,423023
14,08617,359745
14,09030,312215
14,09442,274597
14,09853,242504
14,10267,219581
14,10678,195737
14,11090,182637
14,11503,165622
14,11915,155158
14,12327,144227
14,12740,136759
14,13152,127566
14,13563,120224
14,13975,115443
14,14388,108946
14,14800,104548
14,15212,102502
14,15625,98253
14,16037,95237
14,16448,87600
14,16862,89404
14,17273,84234
14,17685,81581
14,18098,76537
14,18510,78974
14,18922,77372
14,19335,75186
14,19747,70140
14,20158,70212
14,20572,70561
14,20983,68111
14,21395,68962
14,21808,66636
14,22220,64897
14,22632,62324
14,23043,64668
14,23457,59874
14,23868,63188
14,24280,61209
14,24693,64046
14,25105,62660
14,25517,56981
14,25930,60054
14,26342,58670
14,26753,58057
14,27167,57907
14,27578,58848
14,27990,54900
14,28403,54174
14,28815,56405
14,29227,53367
14,29640,54690
14,30052,52905
14,30463,55822
14,30877,52814
14,31288,56188
14,31700,56859
14,32112,53392
14,32525,53248
14,32937,53588
14,33348,50332
14,33762,53667
14,34173,52510
14,34585,57518
14,34998,58646
14,35410,79098
14,35822,108041
14,36235,174013
14,36647,297740
14,37058,512840
14,37472,861460
14,37883,1383786
14,38295,2072385
14,38708,2942385
14,39120,3938686
14,39532,5070020
14,39945,6127117
14,40357,7107926
14,40768,7597812
14,41182,7584492
14,41593,7225564
14,42005,6571956
14,42417,5776483
14,42830,4937822
14,43242,4155172
14,43653,3390660
14,44067,2736830
14,44478,2202129
14,44890,1784859
14,45303,1454376
14,45715,1191288
14,46127,1001586
14,46540,858628
14,46952,739615
14,47363,658004
14,47777,578052
14,48188,512419
14,48600,473242
14,49013,431293
14,49425,391985
14,49837,364373
14,50250,337246
14,50662,316738
14,51073,292538
14,51485,276564
14,51898,261482
14,52310,247214
14,52722,232792
14,53135,222487
14,53547,211993
14,53958,200652
14,54372,192521
14,54783,181182
14,55195,173696
14,55608,167107
14,56020,165681
14,56432,157714
14,56845,154571
14,57257,148390
14,57668,139938
14,58082,142469
14,58493,137905
14,58905,135193
14,59318,130375
14,59730,133859
14,60142,128685
14,60553,131762
14,60967,136929
14,61378,143326
14,61790,168653
14,62203,217029
14,62615,316152
14,63027,493691
14,63440,758780
14,63852,1111750
14,64263,1537896
14,64677,1985826
14,65088,2347235
14,65500,2535437
14,65913,2538506
14,66325,2369297
14,66737,2088969
14,67150,1783712
14,67562,1506904
14,67973,1289271
14,68387,1171489
14,68798,1156182
14,69210,1288613
14,69622,1526210
14,70035,1861698
14,70447,2237726
14,70858,2619076
14,71272,2954075
14,71683,3219456
14,72095,3402212
14,72508,3610061
14,72920,3734152
14,73332,3868642
14,73745,3897495
14,74157,3794220
14,74568,3546139
14,74982,3149682
14,75393,2696302
14,75805,2263262
14,76218,1844365
14,76630,1528773
14,77042,1250194
14,77455,1050506
14,77867,887024
14,78278,761072
14,78690,663979
14,79103,582294
14,79515,516619
14,79927,469540
14,80340,428654
14,80752,391708
14,81163,358588
14,81577,335346
14,81988,308663
14,82400,285008
14,82813,267102
14,83225,254128
14,83637,241216
14,84050,229276
14,84462,216401
14,84873,210989
14,85287,196460
14,85698,190893
14,86110,182658
14,86523,175789
14,86935,167252
14,87347,162712
14,87758,155423
14,88172,148939
14,88583,148645
14,88995,139711
14,89408,139179
14,89820,132803
14,90232,127162
14,90645,124646
14,91057,120210
14,91468,117178
14,91882,119784
14,92293,112895
14,92705,110705
14,93118,105846
14,93530,109347
14,93942,104816
14,94355,102473
14,94767,104970
14,95178,102073
14,95592,107200
14,96003,116864
14,96415,140373
14,96827,186291
14,97240,266873
14,97652,406835
14,98063,634992
14,98477,953172
14,98888,1360545
14,99300,1835855
14,99713,2302412
15,00125,2655382
15,00537,2877922
15,00950,2877936
15,01362,2664415
15,01773,2345344
15,02187,1982573
15,02598,1636333
15,03010,1346430
15,03423,1102688
15,03835,911608
15,04247,774764
15,04660,664136
15,05072,577344
15,05483,513629
15,05895,451783
15,06308,417094
15,06720,379604
15,07132,340684
15,07545,323603
15,07957,293415
15,08368,276239
15,08782,257669
15,09193,244663
15,09605,233343
15,10018,225111
15,10430,217510
15,10842,210057
15,11255,199597
15,11667,193836
15,12078,185734
15,12492,181479
15,12903,178102
15,13315,173093
15,13728,166377
15,14140,154344
15,14552,149398
15,14963,144554
15,15377,136272
15,15788,134413
15,16200,131173
15,16613,127495
15,17025,120749
15,17437,121341
15,17850,118166
15,18262,114403
15,18673,118661
15,19087,111477
15,19498,110867
15,19910,106940
15,20323,112549
15,20735,106351
15,21147,101604
15,21560,101118
15,21972,101473
15,22383,101032
15,22797,100533
15,23208,103590
15,23620,115788
15,24032,141349
15,24445,189051
15,24857,278094
15,25268,428761
15,25682,659372
15,26093,990850
15,26505,1378687
15,26918,1764171
15,27330,2133024
15,27742,2380801
15,28155,2476059
15,28567,2407122
15,28978,2206271
15,29392,1954540
15,29803,1653347
15,30215,1373567
15,30628,1134127
15,31040,937848
15,31452,785481
15,31865,667436
15,32277,574065
15,32688,506491
15,33100,459879
15,33513,422252
15,33925,416270
15,34337,450471
15,34750,528049
15,35162,659017
15,35573,867875
15,35987,1114390
15,36398,1405577
15,36810,1680564
15,37223,1887854
15,37635,2028942
15,38047,2051214
15,38460,1984144
15,38872,1811978
15,39283,1583090
15,39697,1360833
15,40108,1141190
15,40520,950690
15,40933,789872
15,41345,664748
15,41757,565055
15,42168,484296
15,42582,419025
15,42993,369652
15,43405,334234
15,43818,305286
15,44230,277361
15,44642,253451
15,45055,234655
15,45467,215914
15,45878,207230
15,46292,191407
15,46703,182572
15,47115,171250
15,47528,168414
15,47940,159844
15,48352,153187
15,48765,147600
15,49177,143887
15,49588,136887
15,50002,133812
15,50413,131961
15,50825,130278
15,51237,122249
15,51650,119077
15,52062,116140
15,52473,114250
15,52887,110045
15,53298,107356
15,53710,107338
15,54123,109059
15,54535,102238
15,54947,101744
15,55360,102087
15,55772,97704
15,56183,97964
15,56597,97089
15,57008,94407
15,57420,88337
15,57833,95416
15,58245,100948
15,58657,116793
15,59070,144424
15,59482,195375
15,59893,269878
15,60305,407044
15,60718,614742
15,61130,914599
15,61542,1311515
15,61955,1795319
15,62367,2411705
15,62778,3054615
15,63192,3740435
15,63603,4334757
15,64015,4792112
15,64428,4967125
15,64840,4812460
15,65252,4381631
15,65665,3820851
15,66077,3236944
15,66488,2674691
15,66902,2211038
15,67313,1826324
15,67725,1535446
15,68138,1304406
15,68550,1126288
15,68962,981948
15,69373,867397
15,69787,776204
15,70198,701298
15,70610,639046
15,71023,583030
15,71435,532455
15,71847,501319
15,72260,460369
15,72672,428555
15,73083,399092
15,73497,382084
15,73908,353755
15,74320,338511
15,74733,319269
15,75145,308805
15,75557,287062
15,75970,275108
15,76382,263824
15,76793,253292
15,77207,240870
15,77618,232658
15,78030,224414
15,78442,218007
15,78855,211042
15,79267,199874
15,79678,198176
15,80092,191216
15,80503,182905
15,80915,174917
15,81328,172137
15,81740,168486
15,82152,165582
15,82565,160377
15,82977,160263
15,83388,154713
15,83802,148898
15,84213,150549
15,84625,145554
15,85038,142498
15,85450,139104
15,85862,139714
15,86275,132468
15,86687,132276
15,87098,126902
15,87510,124020
15,87923,125645
15,88335,122936
15,88747,123421
15,89160,113669
15,89572,121039
15,89983,118770
15,90397,118175
15,90808,115255
15,91220,109640
15,91633,112744
15,92045,111893
15,92457,110238
15,92870,108036
15,93282,107579
15,93693,107216
15,94107,112309
15,94518,111014
15,94930,117954
15,95343,134760
15,95755,160833
15,96167,210894
15,96580,288640
15,96992,413785
15,97403,594981
15,97815,826886
15,98228,1119038
15,98640,1462385
15,99052,1776817
15,99465,2053417
15,99877,2231410
16,00288,2276015
16,00702,2224840
16,01113,2069214
16,01525,1856748
16,01938,1615562
16,02350,1411353
16,02762,1204665
16,03175,1042559
16,03587,895399
16,03998,783214
16,04412,685801
16,04823,606871
16,05235,540918
16,05648,489632
16,06060,442900
16,06472,401947
16,06883,382243
16,07297,351477
16,07708,332266
16,08120,313260
16,08533,292564
16,08945,279706
16,09357,261148
16,09770,251108
16,10182,239727
16,10593,224866
16,11007,220470
16,11418,212531
16,11830,202899
16,12243,196505
16,12655,188708
16,13067,181527
16,13480,175259
16,13892,170383
16,14303,167464
16,14717,160960
16,15128,154831
16,15540,148831
16,15952,146157
16,16365,143335
16,16777,140155
16,17188,136208
16,17602,136760
16,18013,132003
16,18425,129126
16,18838,126923
16,19250,124793
16,19662,120760
16,20075,119273
16,20487,116459
16,20898,115392
16,21312,112853
16,21723,110981
16,22135,111645
16,22548,108695
16,22960,105762
16,23372,107206
16,23785,105984
16,24197,103086
16,24608,101161
16,25020,100974
16,25433,103045
16,25845,102548
16,26257,100631
16,26670,99391
16,27082,96947
16,27493,95323
16,27907,96522
16,28318,92135
16,28730,94767
16,29143,92239
16,29555,90474
16,29967,93440
16,30380,91194
16,30792,90279
16,31203,88145
16,31617,87231
16,32028,88126
16,32440,88625
16,32853,87461
16,33265,85519
16,33677,85286
16,34088,85884
16,34502,81045
16,34913,83955
16,35325,82999
16,35738,81003
16,36150,79964
16,36562,79592
16,36975,80509
16,37387,80890
16,37798,80993
16,38212,80426
16,38623,78846
16,39035,77219
16,39448,78111
16,39860,79568
16,40272,75951
16,40685,75031
16,41097,75144
16,41508,76670
16,41922,73979
16,42333,76067
16,42745,81382
16,43157,85777
16,43570,93797
16,43982,107926
16,44393,118595
16,44807,134139
16,45218,151781
16,45630,168004
16,46043,179220
16,46455,193920
16,46867,194742
16,47280,197329
16,47692,188304
16,48103,180655
16,48517,170712
16,48928,159330
16,49340,150139
16,49753,135295
16,50165,124867
16,50577,117915
16,50990,104040
16,51402,98949
16,51813,96575
16,52225,88589
16,52638,87045
16,53050,86286
16,53462,84450
16,53875,80958
16,54287,81031
16,54698,74382
16,55112,77550
16,55523,77136
16,55935,74263
16,56348,72900
16,56760,74267
16,57172,73252
16,57585,74486
16,57997,69753
16,58408,71167
16,58822,68224
16,59233,67636
16,59645,71882
16,60058,68192
16,60470,67360
16,60882,69223
16,61293,66886
16,61707,68299
16,62118,68854
16,62530,68437
16,62943,67600
16,63355,66559
16,63767,66445
16,64180,67989
16,64592,68045
16,65003,64819
16,65417,64413
16,65828,66127
16,66240,64577
16,66653,65276
16,67065,64789
16,67477,68180
16,67890,66603
16,68302,66371
16,68713,65379
16,69127,66503
16,69538,65519
16,69950,65112
16,70362,64963
16,70775,62947
16,71187,62261
16,71598,64745
16,72012,62643
16,72423,65630
16,72835,63046
16,73248,62480
16,73660,61717
16,74072,61849
16,74485,62495
16,74897,63438
16,75308,61437
16,75722,60586
16,76133,60819
16,76545,60627
16,76958,61981
16,77370,63432
16,77782,60654
16,78195,61173
16,78607,60733
16,79018,62743
16,79430,62276
16,79843,64023
16,80255,57835
16,80667,59884
16,81080,63155
16,81492,58987
16,81903,63320
16,82317,62598
16,82728,59148
16,83140,57223
16,83553,61560
16,83965,58621
16,84377,59772
16,84790,60355
16,85202,61526
16,85613,58569
16,86027,59819
16,86438,62503
16,86850,59235
16,87263,60921
16,87675,61412
16,88087,62284
16,88498,59599
16,88912,59957
16,89323,62539
16,89735,60055
16,90148,57576
16,90560,59153
16,90972,59930
16,91385,60033
16,91797,59593
16,92208,60280
16,92622,62579
16,93033,57511
16,93445,59817
16,93858,58526
16,94270,59588
16,94682,57190
16,95095,56741
16,95507,58604
16,95918,56351
16,96332,57553
16,96743,56611
16,97155,59596
16,97567,57729
16,97980,55394
16,98392,59200
16,98803,59706
16,99217,57806
16,99628,60591
17,00040,59198
17,00453,61760
17,00865,59915
17,01277,62301
17,01690,57731
17,02102,58809
17,02513,56851
17,02927,58349
17,03338,57830
17,03750,55741
17,04163,59502
17,04575,63061
17,04987,65715
17,05400,74027
17,05812,86659
17,06223,110236
17,06635,149280
17,07048,205870
17,07460,285387
17,07872,391977
17,08285,529140
17,08697,672688
17,09108,826988
17,09522,985252
17,09933,1113720
17,10345,1191394
17,10758,1219602
17,11170,1217469
17,11582,1175143
17,11995,1097453
17,12407,1002663
17,12818,888546
17,13232,789494
17,13643,705123
17,14055,618796
17,14468,539871
17,14880,480171
17,15292,426717
17,15703,381618
17,16117,342196
17,16528,309785
17,16940,281617
17,17353,260642
17,17765,239166
17,18177,227538
17,18590,211740
17,19002,195676
17,19413,183386
17,19827,174916
17,20238,161943
17,20650,158158
17,21063,150404
17,21475,146492
17,21887,137109
17,22300,133006
17,22712,127603
17,23123,124112
17,23537,122633
17,23948,115218
17,24360,115262
17,24772,114774
17,25185,108000
17,25597,105688
17,26008,102535
17,26422,103046
17,26833,100629
17,27245,96466
17,27658,95549
17,28070,92294
17,28482,92522
17,28895,91536
17,29307,88689
17,29718,88991
17,30132,89864
17,30543,86641
17,30955,84472
17,31368,85153
17,31780,82954
17,32192,82346
17,32605,80967
17,33017,77355
17,33428,83903
17,33840,81331
17,34253,80858
17,34665,80372
17,35077,79064
17,35490,79177
17,35902,77870
17,36313,77036
17,36727,74931
17,37138,75331
17,37550,73600
17,37963,76131
17,38375,73466
17,38787,72230
17,39200,70743
17,39612,72528
17,40023,71206
17,40437,69112
17,40848,70709
17,41260,69783
17,41673,73496
17,42085,67747
17,42497,65528
17,42908,68149
17,43322,63074
17,43733,67375
17,44145,66269
17,44558,63850
17,44970,65246
17,45382,66726
17,45795,65265
17,46207,63986
17,46618,64615
17,47032,61530
17,47443,61490
17,47855,63555
17,48268,61990
17,48680,63774
17,49092,66179
17,49505,64822
17,49917,63313
17,50328,64444
17,50742,60447
17,51153,60782
17,51565,62563
17,51977,61887
17,52390,63333
17,52802,63194
17,53213,61254
17,53627,62276
17,54038,64025
17,54450,63258
17,54863,63448
17,55275,60302
17,55687,59847
17,56100,61052
17,56512,61821
17,56923,62073
17,57337,61310
17,57748,61108
17,58160,60309
17,58573,62719
17,58985,61266
17,59397,62340
17,59810,61914
17,60222,60179
17,60633,60489
17,61047,59329
17,61458,63139
17,61870,61635
17,62282,61604
17,62695,60970
17,63107,62875
17,63518,62191
17,63932,62554
17,64343,62166
17,64755,60198
17,65168,58250
17,65580,59700
17,65992,60864
17,66405,59054
17,66817,60141
17,67228,57944
17,67642,59819
17,68053,57476
17,68465,56571
17,68878,60110
17,69290,61978
17,69702,59578
17,70115,60995
17,70527,60230
17,70938,59998
17,71350,61545
17,71763,62017
17,72175,60164
17,72587,57965
17,73000,58977
17,73412,60585
17,73823,61585
17,74237,60778
17,74648,58009
17,75060,61448
17,75473,62604
17,75885,59772
17,76297,59756
17,76710,60887
17,77122,59907
17,77533,59716
17,77947,62040
17,78358,59769
17,78770,56676
17,79183,61103
17,79595,61016
17,80007,60358
17,80418,59436
17,80832,57371
17,81243,59681
17,81655,57862
17,82068,60302
17,82480,59408
17,82892,55968
17,83305,60923
17,83717,57869
17,84128,57768
17,84542,57482
17,84953,57250
17,85365,55674
17,85778,57992
17,86190,57327
17,86602,55994
17,87015,59472
17,87427,56700
17,87838,56147
17,88252,59208
17,88663,56429
17,89075,58543
17,89487,55941
17,89900,56871
17,90312,54569
17,90723,57165
17,91137,57989
17,91548,58650
17,91960,59218
17,92373,59366
17,92785,56801
17,93197,56701
17,93610,57185
17,94022,57577
17,94433,57272
17,94847,59275
17,95258,58354
17,95670,59097
17,96083,57832
17,96495,56260
17,96907,54757
17,97320,55646
17,97732,53934
17,98143,55223
17,98555,57991
17,98968,55640
17,99380,56960
17,99792,55126
18,00205,54504
18,00617,54617
18,01028,54534
18,01442,55139
18,01853,55850
18,02265,52674
18,02678,58373
18,03090,54431
18,03502,54915
18,03915,56628
18,04327,56777
18,04738,56964
18,05152,56230
18,05563,56123
18,05975,58198
18,06388,56644
18,06800,56541
18,07212,55003
18,07623,55845
18,08037,58064
18,08448,54907
18,08860,54962
18,09273,56916
18,09685,56317
18,10097,54894
18,10510,55439
18,10922,54536
18,11333,56277
18,11747,54704
18,12158,58393
18,12570,56669
18,12983,56405
18,13395,56555
18,13807,58425
18,14220,55602
18,14632,56184
18,15043,57522
18,15457,56569
18,15868,57807
18,16280,55403
18,16692,57488
18,17105,58029
18,17517,57618
18,17928,57347
18,18342,57305
18,18753,59411
18,19165,60180
18,19578,57165
18,19990,58235
18,20402,57841
18,20815,59406
18,21227,56522
18,21638,59070
18,22052,57411
18,22463,55746
18,22875,55221
18,23288,58516
18,23700,53890
18,24112,56954
18,24525,54353
18,24937,54422
18,25348,58576
18,25760,53711
18,26173,55983
18,26585,56486
18,26997,55814
18,27410,57717
18,27822,52222
18,28233,54848
18,28647,54509
18,29058,53025
18,29470,53548
18,29883,55925
18,30295,55645
18,30707,50941
18,31120,57566
18,31532,53608
18,31943,55933
18,32357,55998
18,32768,53340
18,33180,56727
18,33593,53740
18,34005,52929
18,34417,52896
18,34828,55247
18,35242,54714
18,35653,53608
18,36065,52504
18,36478,50911
18,36890,53927
18,37302,54071
18,37715,52426
18,38127,53380
18,38538,54036
18,38952,55739
18,39363,55872
18,39775,54800
18,40188,50459
18,40600,53319
18,41012,53720
18,41425,53774
18,41837,54735
18,42248,55387
18,42662,52175
18,43073,53835
18,43485,51080
18,43897,52518
18,44310,52638
18,44722,50067
18,45133,53499
18,45547,51416
18,45958,54003
18,46370,51518
18,46783,53216
18,47195,53252
18,47607,52440
18,48020,52033
18,48432,49878
18,48843,55211
18,49257,51169
18,49668,53534
18,50080,51036
18,50493,51377
18,50905,53127
18,51317,53690
18,51730,52134
18,52142,54077
18,52553,52599
18,52965,55988
18,53378,56528
18,53790,54504
18,54202,53927
18,54615,56105
18,55027,57872
18,55438,56367
18,55852,61175
18,56263,56411
18,56675,59919
18,57088,54455
18,57500,56817
18,57912,55890
18,58325,56029
18,58737,57613
18,59148,53720
18,59562,55545
18,59973,56857
18,60385,55637
18,60798,56001
18,61210,56455
18,61622,55078
18,62033,57441
18,62447,56601
18,62858,54420
18,63270,55221
18,63683,54386
18,64095,55780
18,64507,54572
18,64920,54538
18,65332,54515
18,65743,53341
18,66157,54256
18,66568,54101
18,66980,53893
18,67393,51259
18,67805,51712
18,68217,55666
18,68630,53618
18,69042,54101
18,69453,51782
18,69867,52198
18,70278,49947
18,70690,53549
18,71102,51209
18,71515,50268
18,71927,52935
18,72338,51944
18,72752,52651
18,73163,51108
18,73575,51593
18,73988,50945
18,74400,52757
18,74812,51615
18,75225,51755
18,75637,50885
18,76048,50311
18,76462,52247
18,76873,50411
18,77285,52498
18,77698,51568
18,78110,51128
18,78522,51331
18,78935,50822
18,79347,51409
18,79758,49182
18,80170,50829
18,80583,52366
18,80995,52741
18,81407,51504
18,81820,52021
18,82232,51201
18,82643,53581
18,83057,53742
18,83468,49706
18,83880,49294
18,84293,52319
18,84705,52248
18,85117,48928
18,85530,51508
18,85942,53237
18,86353,51349
18,86767,52704
18,87178,51550
18,87590,51755
18,88003,51205
18,88415,51752
18,88827,51459
18,89238,52212
18,89652,51891
18,90063,50895
18,90475,51421
18,90888,50976
18,91300,54181
18,91712,53655
18,92125,51344
18,92537,53714
18,92948,50397
18,93362,50840
18,93773,52045
18,94185,51399
18,94598,52203
18,95010,50821
18,95422,50605
18,95835,51145
18,96247,48431
18,96658,50481
18,97072,50332
18,97483,50121
18,97895,52535
18,98307,51589
18,98720,49234
18,99132,52146
18,99543,50020
18,99957,51622
19,00368,51093
19,00780,50142
19,01193,51030
19,01605,53065
19,02017,50888
19,02430,52548
19,02842,51649
19,03253,53421
19,03667,49910
19,04078,52212
19,04490,50512
19,04903,50780
19,05315,50490
19,05727,50982
19,06140,51872
19,06552,50190
19,06963,50148
19,07375,49523
19,07788,51852
19,08200,51235
19,08612,49548
19,09025,51276
19,09437,50726
19,09848,52153
19,10262,52440
19,10673,49843
19,11085,49281
19,11498,53339
19,11910,52821
19,12322,49140
19,12735,51162
19,13147,50812
19,13558,51133
19,13972,52131
19,14383,51387
19,14795,51013
19,15208,52223
19,15620,52349
19,16032,54809
19,16443,53176
19,16857,54840
19,17268,55832
19,17680,58196
19,18093,54832
19,18505,55865
19,18917,57881
19,19330,58263
19,19742,57653
19,20153,53305
19,20567,55858
19,20978,53676
19,21390,55029
19,21803,54950
19,22215,53110
19,22627,51776
19,23040,50768
19,23452,52838
19,23863,52613
19,24277,54082
19,24688,53658
19,25100,53009
19,25513,51611
19,25925,52700
19,26337,49145
19,26748,52048
19,27162,53190
19,27573,54877
19,27985,51725
19,28398,51901
19,28810,50472
19,29222,53706
19,29635,50857
19,30047,51442
19,30458,49778
19,30872,48959
19,31283,52031
19,31695,47413
19,32108,50955
19,32520,48695
19,32932,49908
19,33345,49002
19,33757,50298
19,34168,51458
19,34582,50805
19,34993,49237
19,35405,49400
19,35817,51276
19,36230,50171
19,36642,51749
19,37053,52481
19,37467,50365
19,37878,52210
19,38290,49990
19,38703,52937
19,39115,51693
19,39527,52470
19,39940,50715
19,40352,49255
19,40763,53159
19,41177,49648
19,41588,49423
19,42000,49922
19,42413,50158
19,42825,50206
19,43237,49543
19,43650,53122
19,44062,50628
19,44473,49567
19,44885,50823
19,45298,53510
19,45710,49899
19,46122,49564
19,46535,49372
19,46947,49659
19,47358,50636
19,47772,49998
19,48183,52216
19,48595,50546
19,49008,47681
19,49420,47152
19,49832,50465
19,50245,50719
19,50657,50092
19,51068,50787
19,51482,48890
19,51893,48893
19,52305,51665
19,52718,52404
19,53130,46250
19,53542,50616
19,53953,49141
19,54367,51012
19,54778,50879
19,55190,49482
19,55603,50473
19,56015,54570
19,56427,53545
19,56840,53998
19,57252,55026
19,57663,55843
19,58077,56938
19,58488,56206
19,58900,55030
19,59313,57587
19,59725,54343
19,60137,55737
19,60550,56954
19,60962,53991
19,61373,55768
19,61787,55850
19,62198,51552
19,62610,53621
19,63022,50270
19,63435,55235
19,63847,51774
19,64258,51335
19,64672,50296
19,65083,52757
19,65495,54128
19,65908,53222
19,66320,52308
19,66732,49860
19,67145,50349
19,67557,51942
19,67968,47962
19,68382,52698
19,68793,52078
19,69205,48805
19,69618,51532
19,70030,49331
19,70442,50050
19,70855,49588
19,71267,52247
19,71678,49087
19,72090,49263
19,72503,51846
19,72915,49036
19,73327,51373
19,73740,49755
19,74152,49803
19,74563,48471
19,74977,49239
19,75388,49842
19,75800,50642
19,76213,51952
19,76625,50589
19,77037,50785
19,77450,53543
19,77862,51795
19,78273,49661
19,78687,50078
19,79098,51214
19,79510,51833
19,79923,49440
19,80335,51015
19,80747,49654
19,81158,49678
19,81572,49732
19,81983,52326
19,82395,50761
19,82808,49038
19,83220,51881
19,83632,47831
19,84045,49203
19,84457,50278
19,84868,51371
19,85282,50613
19,85693,52314
19,86105,50564
19,86518,49924
19,86930,49929
19,87342,49194
19,87755,51334
19,88167,50201
19,88578,48742
19,88992,48184
19,89403,48344
19,89815,49649
19,90227,48931
19,90640,47988
19,91052,52411
19,91463,48297
19,91877,49882
19,92288,51899
19,92700,49686
19,93113,49564
19,93525,51043
19,93937,49177
19,94350,49008
19,94762,51201
19,95173,51627
19,95587,52576
19,95998,51247
19,96410,50267
19,96823,50745
19,97235,48540
19,97647,52037
19,98060,51078
19,98472,53118
19,98883,50585
19,99295,52160
19,99708,48510
20,00120,50088
20,00532,48354
20,00945,48483
20,01357,50314
20,01768,51200
20,02182,49328
20,02593,52352
20,03005,51997
20,03418,49331
20,03830,49743
20,04242,48650
20,04655,53480
20,05067,49044
20,05478,49430
20,05892,51040
20,06303,48091
20,06715,49620
20,07128,50415
20,07540,50102
20,07952,47086
20,08363,51495
20,08777,49113
20,09188,46158
20,09600,47982
20,10013,51118
20,10425,48919
20,10837,48869
20,11250,47249
20,11662,48326
20,12073,47832
20,12487,48772
20,12898,49591
20,13310,48454
20,13723,47343
20,14135,47704
20,14547,48368
20,14960,48702
20,15372,51078
20,15783,46178
20,16197,47977
20,16608,47137
20,17020,48958
20,17432,48979
20,17845,48553
20,18257,46159
20,18668,51222
20,19082,50778
20,19493,48747
20,19905,49467
20,20318,47430
20,20730,49131
20,21142,50895
20,21555,48363
20,21967,48232
20,22378,48932
20,22792,48838
20,23203,48683
20,23615,48164
20,24028,50326
20,24440,50004
20,24852,49436
20,25265,47093
20,25677,48693
20,26088,48671
20,26500,48275
20,26913,47219
20,27325,48630
20,27737,49786
20,28150,52125
20,28562,46383
20,28973,48725
20,29387,48402
20,29798,50441
20,30210,46658
20,30623,47737
20,31035,46873
20,31447,47980
20,31860,46549
20,32272,49084
20,32683,48023
20,33097,47046
20,33508,49333
20,33920,48438
20,34333,49238
20,34745,48538
20,35157,50301
20,35568,47259
20,35982,49129
20,36393,49264
20,36805,47862
20,37218,48752
20,37630,48971
20,38042,48394
20,38455,49719
20,38867,51560
20,39278,52680
20,39692,48276
20,40103,52141
20,40515,50360
20,40928,47983
20,41340,47187
20,41752,47624
20,42165,49307
20,42577,48511
20,42988,50182
20,43402,47567
20,43813,47557
