D:\MassHunter\GCMS\1\data\Amal\Constant flow\150C\150C_1ml-min_8C-min_2.D Fri Aug 30 13:33:18 2024
Start of data points
4,94102,536647
4,94515,514408
4,94927,492554
4,95338,472239
4,95752,451958
4,96163,434095
4,96575,415806
4,96988,402673
4,97400,383324
4,97812,372616
4,98225,358201
4,98637,351035
4,99048,338847
4,99460,323586
4,99873,311509
5,00285,303865
5,00697,296699
5,01110,285036
5,01522,273636
5,01933,269821
5,02347,265375
5,02758,269939
5,03170,296728
5,03583,363908
5,03995,488946
5,04407,666231
5,04820,856129
5,05232,1034463
5,05643,1152369
5,06057,1226836
5,06468,1244677
5,06880,1237705
5,07293,1215599
5,07705,1188805
5,08117,1166234
5,08528,1124367
5,08942,1082858
5,09353,1056004
5,09765,1016356
5,10178,981613
5,10590,948295
5,11002,922943
5,11415,889632
5,11827,859700
5,12238,830649
5,12652,807594
5,13063,776530
5,13475,750087
5,13888,716278
5,14300,704191
5,14712,671485
5,15125,645060
5,15537,622306
5,15948,603124
5,16362,584841
5,16773,558593
5,17185,531413
5,17597,513463
5,18010,494718
5,18422,474337
5,18833,450036
5,19247,431623
5,19658,407033
5,20070,384277
5,20483,367826
5,20895,342028
5,21307,322441
5,21720,299854
5,22132,285888
5,22543,262391
5,22957,251903
5,23368,236182
5,23780,224943
5,24193,210731
5,24605,201523
5,25017,193265
5,25430,183639
5,25842,170898
5,26253,164783
5,26665,156258
5,27078,149447
5,27490,143459
5,27902,140691
5,28315,134038
5,28727,126841
5,29138,127753
5,29552,122179
5,29963,122081
5,30375,120738
5,30788,112244
5,31200,110535
5,31612,109981
5,32025,108769
5,32437,107261
5,32848,114730
5,33262,133487
5,33673,169205
5,34085,240021
5,34498,332352
5,34910,433733
5,35322,533407
5,35733,611047
5,36147,660903
5,36558,682516
5,36970,681548
5,37383,668722
5,37795,664786
5,38207,632805
5,38620,617452
5,39032,602567
5,39443,579157
5,39857,566469
5,40268,546181
5,40680,533789
5,41093,513276
5,41505,490201
5,41917,472819
5,42330,464317
5,42742,448380
5,43153,437401
5,43567,415147
5,43978,400181
5,44390,385115
5,44802,371271
5,45215,359576
5,45627,345969
5,46038,333664
5,46452,319743
5,46863,306895
5,47275,291982
5,47688,279970
5,48100,269118
5,48512,249672
5,48925,239501
5,49337,225913
5,49748,209576
5,50162,198577
5,50573,186912
5,50985,174319
5,51398,160750
5,51810,156637
5,52222,146006
5,52635,139720
5,53047,132880
5,53458,126259
5,53870,119846
5,54283,113127
5,54695,110684
5,55107,103780
5,55520,102285
5,55932,100063
5,56343,96661
5,56757,93613
5,57168,90470
5,57580,88369
5,57993,85680
5,58405,83901
5,58817,82639
5,59230,82176
5,59642,81223
5,60053,79665
5,60467,80041
5,60878,74750
5,61290,74579
5,61703,74834
5,62115,72264
5,62527,73927
5,62938,73518
5,63352,72760
5,63763,71649
5,64175,69635
5,64588,71144
5,65000,71459
5,65412,70390
5,65825,70179
5,66237,68455
5,66648,72681
5,67062,69751
5,67473,68591
5,67885,69228
5,68298,69617
5,68710,71651
5,69122,76955
5,69535,94511
5,69947,142655
5,70358,224228
5,70772,366211
5,71183,553185
5,71595,780712
5,72007,994972
5,72420,1182074
5,72832,1306525
5,73243,1383526
5,73657,1395085
5,74068,1399992
5,74480,1367252
5,74893,1313024
5,75305,1286348
5,75717,1243621
5,76130,1204197
5,76542,1160858
5,76953,1116513
5,77367,1069236
5,77778,1029804
5,78190,992347
5,78603,950601
5,79015,904801
5,79427,871043
5,79840,831888
5,80252,792487
5,80663,753476
5,81075,711373
5,81488,677369
5,81900,644368
5,82312,608316
5,82725,573167
5,83137,531381
5,83548,492519
5,83962,460353
5,84373,426711
5,84785,391228
5,85198,351553
5,85610,321663
5,86022,293614
5,86435,268928
5,86847,243387
5,87258,221366
5,87672,203558
5,88083,190237
5,88495,172643
5,88908,155860
5,89320,146981
5,89732,135032
5,90143,125314
5,90557,118209
5,90968,109604
5,91380,102809
5,91793,95585
5,92205,90185
5,92617,88732
5,93030,86466
5,93442,80523
5,93853,77547
5,94267,77029
5,94678,73332
5,95090,72254
5,95503,67409
5,95915,69144
5,96327,67367
5,96740,62435
5,97152,63749
5,97563,65034
5,97977,61660
5,98388,62155
5,98800,60798
5,99212,58626
5,99625,58563
6,00037,56888
6,00448,57539
6,00862,58434
6,01273,57890
6,01685,57191
6,02098,54949
6,02510,56012
6,02922,53925
6,03335,56005
6,03747,54740
6,04158,54657
6,04572,54042
6,04983,53364
6,05395,52685
6,05808,51719
6,06220,52864
6,06632,53289
6,07045,53011
6,07457,52177
6,07868,50454
6,08282,50701
6,08693,51336
6,09105,49885
6,09517,50896
6,09930,48938
6,10342,49705
6,10753,49872
6,11167,50357
6,11578,51838
6,11990,49407
6,12403,52724
6,12815,60124
6,13227,72140
6,13640,104928
6,14052,156693
6,14463,232289
6,14877,340434
6,15288,457843
6,15700,587081
6,16113,685782
6,16525,755639
6,16937,796284
6,17350,807384
6,17762,806698
6,18173,792408
6,18585,769973
6,18998,751636
6,19410,718101
6,19822,695183
6,20235,663579
6,20647,634929
6,21058,608714
6,21472,565985
6,21883,557202
6,22295,526717
6,22708,504212
6,23120,480065
6,23532,447367
6,23945,419961
6,24357,392440
6,24768,368856
6,25182,338320
6,25593,316354
6,26005,290205
6,26418,262741
6,26830,243041
6,27242,226420
6,27653,199320
6,28067,178902
6,28478,163351
6,28890,148969
6,29303,133919
6,29715,124081
6,30127,113802
6,30540,102704
6,30952,98728
6,31363,92869
6,31777,86259
6,32188,79821
6,32600,75155
6,33013,70794
6,33425,67441
6,33837,65904
6,34250,63382
6,34662,58274
6,35073,59434
6,35487,56103
6,35898,55758
6,36310,53278
6,36722,57437
6,37135,51573
6,37547,53660
6,37958,51876
6,38372,51839
6,38783,50906
6,39195,48853
6,39608,50648
6,40020,50733
6,40432,49831
6,40845,50307
6,41257,49047
6,41668,47890
6,42082,48331
6,42493,47423
6,42905,46478
6,43318,48059
6,43730,46563
6,44142,45072
6,44555,46913
6,44967,46178
6,45378,43533
6,45790,44857
6,46203,43525
6,46615,42222
6,47027,44480
6,47440,43201
6,47852,42518
6,48263,41813
6,48677,42331
6,49088,41309
6,49500,39159
6,49913,39137
6,50325,40650
6,50737,40919
6,51150,40267
6,51562,40291
6,51973,38385
6,52387,39578
6,52798,38062
6,53210,40175
6,53623,38589
6,54035,36577
6,54447,38833
6,54858,39594
6,55272,39866
6,55683,39398
6,56095,39422
6,56508,38625
6,56920,37301
6,57332,37104
6,57745,37434
6,58157,39062
6,58568,38042
6,58982,37596
6,59393,40010
6,59805,39365
6,60218,39364
6,60630,37679
6,61042,39190
6,61455,39531
6,61867,37286
6,62278,42130
6,62692,48117
6,63103,66113
6,63515,102137
6,63927,178061
6,64340,299400
6,64752,486640
6,65163,734155
6,65577,1005283
6,65988,1270566
6,66400,1505951
6,66813,1688432
6,67225,1802722
6,67637,1845763
6,68050,1834036
6,68462,1779359
6,68873,1733594
6,69287,1668307
6,69698,1592834
6,70110,1518777
6,70523,1467686
6,70935,1395822
6,71347,1297473
6,71760,1226078
6,72172,1157751
6,72583,1075377
6,72995,994827
6,73408,917957
6,73820,841413
6,74232,762805
6,74645,690203
6,75057,622301
6,75468,556634
6,75882,485519
6,76293,423949
6,76705,368776
6,77118,320999
6,77530,287222
6,77942,246622
6,78355,220738
6,78767,191798
6,79178,168458
6,79592,151409
6,80003,133678
6,80415,120689
6,80828,110415
6,81240,98603
6,81652,87461
6,82063,83303
6,82477,79143
6,82888,72281
6,83300,67290
6,83713,63998
6,84125,61175
6,84537,59484
6,84950,56310
6,85362,54299
6,85773,49368
6,86187,50620
6,86598,48800
6,87010,47813
6,87423,45968
6,87835,44958
6,88247,43252
6,88660,43747
6,89072,43421
6,89483,40610
6,89897,42426
6,90308,41570
6,90720,41586
6,91132,40184
6,91545,43213
6,91957,43605
6,92368,42882
6,92782,44106
6,93193,47551
6,93605,47656
6,94018,47283
6,94430,46528
6,94842,47687
6,95255,46930
6,95667,48093
6,96078,47115
6,96492,46027
6,96903,43682
6,97315,43144
6,97728,44695
6,98140,43019
6,98552,41908
6,98965,41914
6,99377,41399
6,99788,42228
7,00200,43601
7,00613,43910
7,01025,45008
7,01437,43531
7,01850,44163
7,02262,44830
7,02673,43508
7,03087,44476
7,03498,41986
7,03910,42641
7,04323,42730
7,04735,41832
7,05147,39470
7,05560,39274
7,05972,41235
7,06383,46264
7,06797,55243
7,07208,75354
7,07620,112344
7,08033,176003
7,08445,263844
7,08857,374418
7,09268,511542
7,09682,641269
7,10093,763231
7,10505,842294
7,10918,913778
7,11330,936128
7,11742,935647
7,12155,930898
7,12567,905194
7,12978,861709
7,13392,825390
7,13803,785049
7,14215,741625
7,14628,688704
7,15040,641818
7,15452,610748
7,15865,561971
7,16277,515502
7,16688,466945
7,17102,422179
7,17513,380313
7,17925,336480
7,18337,297992
7,18750,265880
7,19162,242716
7,19573,238358
7,19987,256190
7,20398,301357
7,20810,378450
7,21223,490135
7,21635,630936
7,22047,766448
7,22460,892024
7,22872,994274
7,23283,1053568
7,23697,1085431
7,24108,1095888
7,24520,1073220
7,24933,1028684
7,25345,999565
7,25757,934305
7,26170,878639
7,26582,833532
7,26993,776884
7,27405,725690
7,27818,662389
7,28230,609788
7,28642,554539
7,29055,500984
7,29467,440867
7,29878,388633
7,30292,342803
7,30703,296617
7,31115,258426
7,31528,219381
7,31940,193924
7,32352,163751
7,32765,146406
7,33177,125008
7,33588,111694
7,34002,101706
7,34413,87292
7,34825,83488
7,35238,71235
7,35650,69865
7,36062,60341
7,36473,59813
7,36887,56412
7,37298,53631
7,37710,52307
7,38123,49170
7,38535,45226
7,38947,45074
7,39360,44153
7,39772,43967
7,40183,40867
7,40597,40644
7,41008,42543
7,41420,38535
7,41833,38521
7,42245,37913
7,42657,36613
7,43070,35661
7,43482,35432
7,43893,37068
7,44307,34532
7,44718,33421
7,45130,33412
7,45542,35039
7,45955,33604
7,46367,32428
7,46778,32408
7,47192,32362
7,47603,32391
7,48015,31325
7,48428,31449
7,48840,30647
7,49252,32735
7,49665,31077
7,50077,30699
7,50488,29704
7,50902,29845
7,51313,29827
7,51725,30144
7,52138,31368
7,52550,30815
7,52962,30791
7,53375,27797
7,53787,29809
7,54198,30524
7,54610,28910
7,55023,29461
7,55435,27326
7,55847,29280
7,56260,30372
7,56672,27475
7,57083,29493
7,57497,28804
7,57908,27517
7,58320,30874
7,58733,26945
7,59145,29468
7,59557,28748
7,59970,27887
7,60382,28840
7,60793,27806
7,61207,26561
7,61618,26872
7,62030,26599
7,62443,27437
7,62855,28011
7,63267,27908
7,63678,28394
7,64092,27675
7,64503,27519
7,64915,28194
7,65328,27001
7,65740,30776
7,66152,32068
7,66565,36211
7,66977,49126
7,67388,78523
7,67802,124794
7,68213,200636
7,68625,305626
7,69038,435544
7,69450,591080
7,69862,745456
7,70275,878807
7,70687,980134
7,71098,1034982
7,71512,1065107
7,71923,1078848
7,72335,1047919
7,72748,1017271
7,73160,987900
7,73572,925088
7,73983,863507
7,74397,806771
7,74808,725937
7,75220,653760
7,75633,593285
7,76045,524586
7,76457,460805
7,76870,401820
7,77282,346810
7,77693,294820
7,78107,255300
7,78518,219478
7,78930,189063
7,79343,176321
7,79755,171755
7,80167,195570
7,80580,264915
7,80992,405119
7,81403,633316
7,81817,973307
7,82228,1416414
7,82640,1908532
7,83052,2428682
7,83465,2899614
7,83877,3280022
7,84288,3533064
7,84702,3636323
7,85113,3659633
7,85525,3580326
7,85938,3431280
7,86350,3245426
7,86762,3060675
7,87175,2829675
7,87587,2583869
7,87998,2329819
7,88412,2056293
7,88823,1799987
7,89235,1560497
7,89648,1331356
7,90060,1122019
7,90472,951343
7,90885,793913
7,91297,665610
7,91708,552977
7,92120,462935
7,92533,389302
7,92945,332147
7,93357,278661
7,93770,236129
7,94182,205856
7,94593,185260
7,95007,160651
7,95418,147665
7,95830,128669
7,96243,118640
7,96655,106886
7,97067,100793
7,97480,92899
7,97892,84283
7,98303,77531
7,98717,76607
7,99128,72438
7,99540,66323
7,99953,67354
8,00365,62124
8,00777,57079
8,01188,56170
8,01602,55659
8,02013,51741
8,02425,50751
8,02838,49614
8,03250,48966
8,03662,46953
8,04075,45715
8,04487,43120
8,04898,43911
8,05312,41379
8,05723,43597
8,06135,40850
8,06548,39439
8,06960,38942
8,07372,39749
8,07785,39678
8,08197,37320
8,08608,37851
8,09022,37282
8,09433,37642
8,09845,36863
8,10257,36438
8,10670,35168
8,11082,37708
8,11493,36493
8,11907,36812
8,12318,35272
8,12730,33760
8,13143,35816
8,13555,35047
8,13967,32914
8,14380,33827
8,14792,33136
8,15203,34362
8,15617,31169
8,16028,31938
8,16440,30934
8,16853,31129
8,17265,29521
8,17677,30187
8,18090,29583
8,18502,31054
8,18913,31147
8,19325,30360
8,19738,28638
8,20150,28791
8,20562,29086
8,20975,29546
8,21387,32352
8,21798,38405
8,22212,48840
8,22623,73323
8,23035,117757
8,23448,186164
8,23860,288051
8,24272,424462
8,24685,587306
8,25097,763199
8,25508,914157
8,25922,1061657
8,26333,1145488
8,26745,1199100
8,27158,1216673
8,27570,1184586
8,27982,1144111
8,28393,1073584
8,28807,1008383
8,29218,913852
8,29630,820264
8,30043,730496
8,30455,642251
8,30867,560964
8,31280,473379
8,31692,402995
8,32103,343226
8,32517,287934
8,32928,243992
8,33340,206798
8,33753,176217
8,34165,154382
8,34577,133151
8,34990,119162
8,35402,104860
8,35813,95450
8,36227,87205
8,36638,77362
8,37050,71208
8,37462,67385
8,37875,63132
8,38287,57582
8,38698,54127
8,39112,53532
8,39523,46811
8,39935,44097
8,40348,43911
8,40760,42450
8,41172,39916
8,41585,41847
8,41997,35637
8,42408,38401
8,42822,36723
8,43233,35837
8,43645,38381
8,44058,45236
8,44470,58489
8,44882,87380
8,45295,141532
8,45707,221874
8,46118,348658
8,46530,512854
8,46943,696317
8,47355,898306
8,47767,1087985
8,48180,1230660
8,48592,1317058
8,49003,1360994
8,49417,1368140
8,49828,1333912
8,50240,1266555
8,50653,1177964
8,51065,1079066
8,51477,979504
8,51890,856278
8,52302,738953
8,52713,641619
8,53127,539754
8,53538,451623
8,53950,385789
8,54363,312707
8,54775,263524
8,55187,222313
8,55598,192050
8,56012,167410
8,56423,145158
8,56835,126202
8,57248,111962
8,57660,99903
8,58072,91859
8,58485,82479
8,58897,75349
8,59308,72463
8,59722,67746
8,60133,62703
8,60545,60309
8,60958,56821
8,61370,52589
8,61782,51967
8,62195,50649
8,62607,46849
8,63018,44319
8,63432,44181
8,63843,40608
8,64255,42147
8,64667,40398
8,65080,37125
8,65492,36111
8,65903,35275
8,66317,33497
8,66728,32071
8,67140,33894
8,67553,34096
8,67965,32785
8,68377,29070
8,68790,30108
8,69202,32187
8,69613,28665
8,70027,29446
8,70438,28172
8,70850,28378
8,71263,27927
8,71675,27399
8,72087,26379
8,72500,27048
8,72912,25415
8,73323,26706
8,73735,25405
8,74148,26346
8,74560,27275
8,74972,26269
8,75385,26443
8,75797,24913
8,76208,25677
8,76622,25908
8,77033,24403
8,77445,24663
8,77858,25559
8,78270,27088
8,78682,24865
8,79095,25397
8,79507,26608
8,79918,26603
8,80332,24420
8,80743,25032
8,81155,24578
8,81568,24738
8,81980,25126
8,82392,24408
8,82803,23613
8,83217,24082
8,83628,23651
8,84040,23475
8,84453,22596
8,84865,24665
8,85277,22902
8,85690,22134
8,86102,22191
8,86513,23293
8,86927,24920
8,87338,27241
8,87750,33919
8,88163,47292
8,88575,74543
8,88987,123333
8,89400,204187
8,89812,324031
8,90223,476932
8,90637,661082
8,91048,852731
8,91460,1037634
8,91872,1201154
8,92285,1312493
8,92697,1382636
8,93108,1397503
8,93522,1364253
8,93933,1298692
8,94345,1195530
8,94758,1080121
8,95170,946861
8,95582,822118
8,95995,704005
8,96407,591573
8,96818,492569
8,97232,410090
8,97643,331823
8,98055,275562
8,98468,232601
8,98880,199412
8,99292,167259
8,99705,142154
9,00117,127717
9,00528,109533
9,00940,101535
9,01353,91944
9,01765,82482
9,02177,76851
9,02590,71906
9,03002,66368
9,03413,61443
9,03827,58622
9,04238,55103
9,04650,53380
9,05063,50668
9,05475,48866
9,05887,46110
9,06300,43460
9,06712,41047
9,07123,40429
9,07537,40697
9,07948,37961
9,08360,37032
9,08773,34907
9,09185,37134
9,09597,34795
9,10008,40531
9,10422,45725
9,10833,67364
9,11245,106616
9,11658,192837
9,12070,325485
9,12482,544119
9,12895,849877
9,13307,1233510
9,13718,1664627
9,14132,2140517
9,14543,2546203
9,14955,2894741
9,15368,3121060
9,15780,3219093
9,16192,3175414
9,16605,3039703
9,17017,2777967
9,17428,2487200
9,17842,2143045
9,18253,1818586
9,18665,1495765
9,19077,1231522
9,19490,1010290
9,19902,823317
9,20313,662356
9,20727,556098
9,21138,458963
9,21550,380237
9,21963,320988
9,22375,275687
9,22787,240000
9,23200,210555
9,23612,187174
9,24023,163295
9,24437,146039
9,24848,131849
9,25260,118759
9,25673,111137
9,26085,103373
9,26497,97772
9,26910,89974
9,27322,85826
9,27733,82775
9,28145,74183
9,28558,73672
9,28970,73150
9,29382,69857
9,29795,71534
9,30207,66289
9,30618,65544
9,31032,65658
9,31443,64577
9,31855,62972
9,32268,63227
9,32680,57948
9,33092,58236
9,33505,56325
9,33917,56011
9,34328,52823
9,34742,51654
9,35153,51303
9,35565,49464
9,35978,57399
9,36390,64729
9,36802,87627
9,37213,127843
9,37627,206732
9,38038,318672
9,38450,480602
9,38863,686276
9,39275,899356
9,39687,1130929
9,40100,1338190
9,40512,1489348
9,40923,1555138
9,41337,1565150
9,41748,1507980
9,42160,1415717
9,42573,1284567
9,42985,1129052
9,43397,977166
9,43810,827049
9,44222,691952
9,44633,570646
9,45047,477097
9,45458,387335
9,45870,319307
9,46283,274149
9,46695,227183
9,47107,197161
9,47518,171100
9,47932,150088
9,48343,134160
9,48755,122956
9,49168,119604
9,49580,120333
9,49992,140696
9,50405,197555
9,50817,288067
9,51228,456789
9,51642,703833
9,52053,1041641
9,52465,1459489
9,52878,1904694
9,53290,2365745
9,53702,2761922
9,54115,3068968
9,54527,3206487
9,54938,3239652
9,55352,3073302
9,55763,2834048
9,56175,2512266
9,56587,2169433
9,57000,1829667
9,57412,1520900
9,57823,1242773
9,58237,1011123
9,58648,830101
9,59060,680298
9,59473,562046
9,59885,465485
9,60297,390207
9,60710,336058
9,61122,289117
9,61533,248921
9,61947,220901
9,62358,197957
9,62770,175293
9,63183,156164
9,63595,144174
9,64007,131993
9,64420,124043
9,64832,113343
9,65243,104764
9,65655,101014
9,66068,90236
9,66480,87203
9,66892,80282
9,67305,76655
9,67717,74195
9,68128,72150
9,68542,68227
9,68953,66686
9,69365,62687
9,69778,59378
9,70190,57746
9,70602,55968
9,71015,53928
9,71427,52159
9,71838,50274
9,72252,48975
9,72663,48835
9,73075,46174
9,73488,43632
9,73900,43711
9,74312,44410
9,74723,43557
9,75137,40352
9,75548,39261
9,75960,42283
9,76373,44465
9,76785,48825
9,77197,63072
9,77610,92968
9,78022,151065
9,78433,258974
9,78847,429688
9,79258,670506
9,79670,1009087
9,80083,1450322
9,80495,1973020
9,80907,2550963
9,81320,3128983
9,81732,3648076
9,82143,4089012
9,82557,4398631
9,82968,4503347
9,83380,4455721
9,83792,4203722
9,84205,3818211
9,84617,3319185
9,85028,2788088
9,85442,2304985
9,85853,1897372
9,86265,1534618
9,86678,1235209
9,87090,1004707
9,87502,819818
9,87915,683152
9,88327,578115
9,88738,485745
9,89152,420028
9,89563,364525
9,89975,322135
9,90388,287843
9,90800,259169
9,91212,226211
9,91625,210708
9,92037,193699
9,92448,172706
9,92860,158480
9,93273,149626
9,93685,138871
9,94097,127220
9,94510,120050
9,94922,114366
9,95333,110714
9,95747,104116
9,96158,96847
9,96570,94105
9,96983,91668
9,97395,87704
9,97807,83157
9,98220,81038
9,98632,76789
9,99043,73355
9,99457,71245
9,99868,68570
10,00280,69294
10,00693,65135
10,01105,63860
10,01517,62338
10,01928,60837
10,02342,57310
10,02753,57301
10,03165,56028
10,03578,54277
10,03990,55194
10,04402,54251
10,04815,51361
10,05227,52048
10,05638,48934
10,06052,45508
10,06463,45695
10,06875,45403
10,07288,49472
10,07700,52294
10,08112,62646
10,08525,86753
10,08937,125132
10,09348,194953
10,09762,299262
10,10173,451710
10,10585,633969
10,10997,860952
10,11410,1086130
10,11822,1280014
10,12233,1393026
10,12647,1473301
10,13058,1467032
10,13470,1395669
10,13883,1278245
10,14295,1124472
10,14707,956315
10,15120,802407
10,15532,670864
10,15943,552269
10,16357,458288
10,16768,373769
10,17180,304976
10,17593,261604
10,18005,223729
10,18417,188097
10,18830,168958
10,19242,148685
10,19653,132032
10,20065,120541
10,20478,108824
10,20890,101405
10,21302,95207
10,21715,86679
10,22127,80098
10,22538,77420
10,22952,71677
10,23363,69604
10,23775,66278
10,24188,62525
10,24600,57490
10,25012,54379
10,25425,50998
10,25837,52180
10,26248,50201
10,26662,46951
10,27073,44162
10,27485,44486
10,27898,42962
10,28310,43486
10,28722,41874
10,29133,42061
10,29547,38830
10,29958,37786
10,30370,36933
10,30783,36780
10,31195,35293
10,31607,36702
10,32020,35323
10,32432,34294
10,32843,34924
10,33257,35118
10,33668,35077
10,34080,32642
10,34493,35096
10,34905,31947
10,35317,32688
10,35730,33054
10,36142,31924
10,36553,30579
10,36967,30084
10,37378,30896
10,37790,29860
10,38202,32109
10,38615,30838
10,39027,30484
10,39438,28344
10,39852,30828
10,40263,31037
10,40675,28801
10,41088,28647
10,41500,29318
10,41912,29463
10,42325,28900
10,42737,30506
10,43148,27746
10,43562,28266
10,43973,28170
10,44385,28773
10,44798,29463
10,45210,30996
10,45622,34390
10,46035,45713
10,46447,72420
10,46858,119671
10,47270,212271
10,47683,383909
10,48095,627905
10,48507,991272
10,48920,1457601
10,49332,2010489
10,49743,2611327
10,50157,3152252
10,50568,3585907
10,50980,3825424
10,51393,3881338
10,51805,3777163
10,52217,3553523
10,52630,3282479
10,53042,3035454
10,53453,2828696
10,53867,2632087
10,54278,2462717
10,54690,2305413
10,55103,2113839
10,55515,1896637
10,55927,1669551
10,56338,1435973
10,56752,1219817
10,57163,1024754
10,57575,864109
10,57988,720235
10,58400,599560
10,58812,514411
10,59225,436367
10,59637,381786
10,60048,331487
10,60462,287082
10,60873,262022
10,61285,228408
10,61698,211226
10,62110,191897
10,62522,176263
10,62935,162891
10,63347,151483
10,63758,142177
10,64172,133039
10,64583,126197
10,64995,118261
10,65407,110897
10,65820,107263
10,66232,100470
10,66643,97047
10,67057,93231
10,67468,88034
10,67880,85313
10,68293,82108
10,68705,77109
10,69117,76320
10,69530,74313
10,69942,70269
10,70353,69596
10,70767,67645
10,71178,65448
10,71590,66167
10,72003,63287
10,72415,62518
10,72827,56647
10,73240,58843
10,73652,56139
10,74063,57539
10,74475,56237
10,74888,55342
10,75300,60041
10,75712,66189
10,76125,79129
10,76537,109050
10,76948,156754
10,77362,237294
10,77773,363657
10,78185,531688
10,78598,725651
10,79010,933772
10,79422,1124024
10,79835,1256688
10,80247,1341097
10,80658,1340923
10,81072,1268977
10,81483,1170064
10,81895,1036193
10,82308,901432
10,82720,757832
10,83132,629430
10,83543,520173
10,83957,427522
10,84368,359157
10,84780,310165
10,85193,277525
10,85605,281950
10,86017,311883
10,86430,393072
10,86842,525637
10,87253,717099
10,87667,945305
10,88078,1206490
10,88490,1449514
10,88903,1631383
10,89315,1765699
10,89727,1774975
10,90140,1690937
10,90552,1545938
10,90963,1344617
10,91377,1157854
10,91788,974917
10,92200,820548
10,92612,678716
10,93025,560520
10,93437,470353
10,93848,404903
10,94262,343199
10,94673,300141
10,95085,266219
10,95498,230399
10,95910,213741
10,96322,190170
10,96735,176128
10,97147,156208
10,97558,147794
10,97972,137441
10,98383,129997
10,98795,121642
10,99208,111330
10,99620,103126
11,00032,95676
11,00445,91338
11,00857,90901
11,01268,86920
11,01682,81266
11,02093,78158
11,02505,75763
11,02917,72471
11,03330,69682
11,03742,67718
11,04153,64690
11,04567,64787
11,04978,62125
11,05390,61641
11,05803,56728
11,06215,56793
11,06627,56311
11,07040,54224
11,07452,54571
11,07863,52075
11,08277,52511
11,08688,50367
11,09100,48549
11,09513,48110
11,09925,46653
11,10337,49148
11,10750,45540
11,11162,44781
11,11573,45327
11,11985,42470
11,12398,45344
11,12810,47888
11,13222,51021
11,13635,63630
11,14047,81576
11,14458,120225
11,14872,192850
11,15283,301472
11,15695,473262
11,16108,707452
11,16520,978890
11,16932,1283384
11,17345,1563171
11,17757,1754548
11,18168,1833965
11,18582,1799223
11,18993,1672101
11,19405,1484774
11,19818,1271581
11,20230,1063186
11,20642,895084
11,21053,742167
11,21467,617691
11,21878,527380
11,22290,452764
11,22703,396420
11,23115,343377
11,23527,302513
11,23940,269410
11,24352,242189
11,24763,213537
11,25177,196439
11,25588,183550
11,26000,167827
11,26413,158052
11,26825,145407
11,27237,135596
11,27650,125254
11,28062,117415
11,28473,113281
11,28887,109161
11,29298,102401
11,29710,97938
11,30122,94007
11,30535,91819
11,30947,88976
11,31358,85657
11,31772,83737
11,32183,80403
11,32595,76743
11,33008,77869
11,33420,75498
11,33832,72247
11,34245,69492
11,34657,69608
11,35068,65814
11,35482,61896
11,35893,61735
11,36305,62028
11,36718,61801
11,37130,57130
11,37542,56160
11,37955,57489
11,38367,53116
11,38778,56063
11,39190,54993
11,39603,53783
11,40015,51103
11,40427,51873
11,40840,50079
11,41252,51491
11,41663,48289
11,42077,48720
11,42488,52217
11,42900,60452
11,43313,72718
11,43725,101890
11,44137,151174
11,44550,237756
11,44962,378283
11,45373,563092
11,45787,779279
11,46198,1035662
11,46610,1268289
11,47023,1431716
11,47435,1530994
11,47847,1541022
11,48258,1464785
11,48672,1314207
11,49083,1157183
11,49495,986187
11,49908,822637
11,50320,681662
11,50732,574048
11,51145,477144
11,51557,403799
11,51968,343345
11,52382,293265
11,52793,251723
11,53205,225633
11,53618,199218
11,54030,182415
11,54442,161564
11,54855,154180
11,55267,136954
11,55678,127081
11,56092,117713
11,56503,113211
11,56915,104473
11,57327,95572
11,57740,93276
11,58152,89123
11,58563,82177
11,58977,79335
11,59388,79059
11,59800,74824
11,60213,73117
11,60625,69356
11,61037,67907
11,61450,64869
11,61862,62170
11,62273,60162
11,62687,62329
11,63098,57310
11,63510,57346
11,63923,56247
11,64335,54236
11,64747,53092
11,65160,53221
11,65572,53914
11,65983,50385
11,66395,50626
11,66808,49472
11,67220,47956
11,67632,49025
11,68045,46378
11,68457,45033
11,68868,44593
11,69282,46398
11,69693,45296
11,70105,44436
11,70518,43667
11,70930,42342
11,71342,40936
11,71755,41701
11,72167,42481
11,72578,44962
11,72992,43651
11,73403,40991
11,73815,43073
11,74228,41696
11,74640,44160
11,75052,43087
11,75463,41110
11,75877,40444
11,76288,40597
11,76700,38907
11,77113,42919
11,77525,41696
11,77937,40504
11,78350,41230
11,78762,42137
11,79173,45045
11,79587,53131
11,79998,65125
11,80410,96604
11,80823,152235
11,81235,242090
11,81647,395391
11,82060,629815
11,82472,979016
11,82883,1435258
11,83297,1986811
11,83708,2576927
11,84120,3133467
11,84532,3576019
11,84945,3776595
11,85357,3752724
11,85768,3523850
11,86182,3226864
11,86593,2906784
11,87005,2643661
11,87418,2499054
11,87830,2412922
11,88242,2360233
11,88655,2325427
11,89067,2254563
11,89478,2132383
11,89892,1961151
11,90303,1748105
11,90715,1529740
11,91128,1311305
11,91540,1109260
11,91952,946674
11,92365,807319
11,92777,692666
11,93188,599707
11,93600,522588
11,94013,461728
11,94425,408004
11,94837,372002
11,95250,335875
11,95662,309560
11,96073,286453
11,96487,264239
11,96898,246823
11,97310,234313
11,97723,215475
11,98135,204404
11,98547,191574
11,98960,178999
11,99372,175209
11,99783,162896
12,00197,158331
12,00608,151816
12,01020,144587
12,01433,141174
12,01845,132405
12,02257,127235
12,02668,124473
12,03082,120364
12,03493,117515
12,03905,115074
12,04318,111228
12,04730,106800
12,05142,106365
12,05555,101689
12,05967,99498
12,06378,97552
12,06792,97639
12,07203,98362
12,07615,92941
12,08028,95218
12,08440,92815
12,08852,91498
12,09265,97927
12,09677,112362
12,10088,135119
12,10502,177557
12,10913,254023
12,11325,371889
12,11737,533059
12,12150,739893
12,12562,968775
12,12973,1168612
12,13387,1353764
12,13798,1443866
12,14210,1458080
12,14623,1397400
12,15035,1285337
12,15447,1142172
12,15860,979548
12,16272,864364
12,16683,763657
12,17097,721076
12,17508,748060
12,17920,846666
12,18333,1012292
12,18745,1240522
12,19157,1506803
12,19570,1820438
12,19982,2130471
12,20393,2390224
12,20805,2613848
12,21218,2726413
12,21630,2778088
12,22042,2693600
12,22455,2533434
12,22867,2281213
12,23278,2003223
12,23692,1711902
12,24103,1458923
12,24515,1239769
12,24928,1043611
12,25340,885744
12,25752,764764
12,26165,666983
12,26577,586796
12,26988,523006
12,27402,466171
12,27813,419024
12,28225,377112
12,28638,350668
12,29050,324911
12,29462,297971
12,29873,274378
12,30287,255072
12,30698,241585
12,31110,222278
12,31523,212107
12,31935,198712
12,32347,193496
12,32760,185644
12,33172,175140
12,33583,167454
12,33997,161810
12,34408,152854
12,34820,144954
12,35233,141542
12,35645,134433
12,36057,130391
12,36470,126309
12,36882,121772
12,37293,120128
12,37707,115278
12,38118,113859
12,38530,108632
12,38942,105485
12,39355,102561
12,39767,101586
12,40178,97343
12,40592,97022
12,41003,91521
12,41415,92521
12,41828,89898
12,42240,86269
12,42652,84808
12,43065,84608
12,43477,83666
12,43888,83470
12,44302,84990
12,44713,95129
12,45125,106231
12,45538,131635
12,45950,175737
12,46362,247667
12,46775,360913
12,47187,524785
12,47598,745360
12,48010,1012200
12,48423,1275240
12,48835,1505030
12,49247,1645515
12,49660,1668298
12,50072,1616154
12,50483,1472912
12,50897,1303209
12,51308,1145685
12,51720,984404
12,52133,845548
12,52545,731535
12,52957,635323
12,53370,557755
12,53782,501641
12,54193,449554
12,54607,415576
12,55018,369119
12,55430,342435
12,55843,314484
12,56255,291604
12,56667,266792
12,57078,250702
12,57492,239046
12,57903,222045
12,58315,207246
12,58728,198352
12,59140,190171
12,59552,181848
12,59965,175984
12,60377,171889
12,60788,163234
12,61202,158644
12,61613,155867
12,62025,150791
12,62438,149060
12,62850,144051
12,63262,141184
12,63675,137785
12,64087,130634
12,64498,129372
12,64912,120927
12,65323,121318
12,65735,116516
12,66148,110756
12,66560,109318
12,66972,110591
12,67383,104516
12,67797,100773
12,68208,99661
12,68620,99453
12,69033,97808
12,69445,91191
12,69857,92418
12,70270,92857
12,70682,90756
12,71093,87613
12,71507,86921
12,71918,86744
12,72330,85684
12,72743,84778
12,73155,83720
12,73567,88604
12,73980,94388
12,74392,107740
12,74803,134812
12,75217,179315
12,75628,256142
12,76040,377954
12,76452,553233
12,76865,765915
12,77277,1000376
12,77688,1226776
12,78102,1393925
12,78513,1485824
12,78925,1496438
12,79338,1419210
12,79750,1286381
12,80162,1132865
12,80575,988722
12,80987,849886
12,81398,725470
12,81812,625521
12,82223,545003
12,82635,471232
12,83048,418872
12,83460,369327
12,83872,333929
12,84285,312826
12,84697,294575
12,85108,285485
12,85520,298493
12,85933,329008
12,86345,395147
12,86757,489045
12,87170,618677
12,87582,787550
12,87993,941000
12,88407,1102513
12,88818,1220714
12,89230,1282449
12,89643,1262758
12,90055,1211187
12,90467,1118702
12,90880,998343
12,91292,875411
12,91703,760270
12,92117,639029
12,92528,549698
12,92940,472702
12,93353,403126
12,93765,355969
12,94177,315365
12,94588,277369
12,95002,252191
12,95413,226812
12,95825,203887
12,96238,194707
12,96650,178344
12,97062,168472
12,97475,160702
12,97887,147255
12,98298,140558
12,98712,132480
12,99123,130900
12,99535,123615
12,99948,119922
13,00360,116833
13,00772,114168
13,01185,112803
13,01597,107324
13,02008,102331
13,02422,103440
13,02833,97708
13,03245,97280
13,03657,91391
13,04070,93543
13,04482,90201
13,04893,89221
13,05307,91890
13,05718,86655
13,06130,84753
13,06543,83383
13,06955,81283
13,07367,82380
13,07780,82289
13,08192,80940
13,08603,80511
13,09017,78518
13,09428,83745
13,09840,85634
13,10253,93372
13,10665,108164
13,11077,136781
13,11490,190278
13,11902,264930
13,12313,383623
13,12725,555096
13,13138,793721
13,13550,1117104
13,13962,1507293
13,14375,1963528
13,14787,2398164
13,15198,2761201
13,15612,3006240
13,16023,3061468
13,16435,2956178
13,16848,2738376
13,17260,2431930
13,17672,2118218
13,18085,1809422
13,18497,1562982
13,18908,1345518
13,19322,1166346
13,19733,1032893
13,20145,913711
13,20558,814279
13,20970,732160
13,21382,663680
13,21793,605654
13,22207,556952
13,22618,514300
13,23030,472225
13,23443,446123
13,23855,416471
13,24267,387921
13,24680,366285
13,25092,343808
13,25503,324065
13,25917,310719
13,26328,293066
13,26740,280907
13,27153,272555
13,27565,254031
13,27977,245522
13,28390,234354
13,28802,224389
13,29213,219418
13,29627,207140
13,30038,205028
13,30450,199365
13,30862,190073
13,31275,183427
13,31687,181998
13,32098,172306
13,32512,173135
13,32923,165251
13,33335,160151
13,33748,156907
13,34160,148009
13,34572,146520
13,34985,143645
13,35397,143399
13,35808,142367
13,36222,136352
13,36633,132154
13,37045,130129
13,37458,126566
13,37870,125651
13,38282,123778
13,38695,120828
13,39107,117717
13,39518,118574
13,39930,118826
13,40343,113977
13,40755,112542
13,41167,111101
13,41580,108393
13,41992,106149
13,42403,107132
13,42817,105308
13,43228,101057
13,43640,99577
13,44053,104141
13,44465,100003
13,44877,100255
13,45290,95337
13,45702,101624
13,46113,95193
13,46527,92594
13,46938,94545
13,47350,94042
13,47763,93654
13,48175,92715
13,48587,96699
13,48998,106397
13,49412,117810
13,49823,145984
13,50235,183577
13,50648,239367
13,51060,322456
13,51472,441613
13,51885,585862
13,52297,756803
13,52708,944092
13,53122,1126707
13,53533,1254187
13,53945,1330282
13,54358,1342768
13,54770,1307190
13,55182,1234548
13,55595,1132214
13,56007,1013844
13,56418,915913
13,56832,807809
13,57243,728489
13,57655,648638
13,58067,592328
13,58480,524239
13,58892,481096
13,59303,439783
13,59717,408349
13,60128,373321
13,60540,353382
13,60953,327432
13,61365,309949
13,61777,288021
13,62190,274174
13,62602,259596
13,63013,247559
13,63427,236927
13,63838,222599
13,64250,214207
13,64663,208554
13,65075,198554
13,65487,190858
13,65900,186015
13,66312,175154
13,66723,171216
13,67135,163980
13,67548,164315
13,67960,156765
13,68372,154622
13,68785,147149
13,69197,145686
13,69608,140031
13,70022,135159
13,70433,134596
13,70845,129003
13,71258,125528
13,71670,123686
13,72082,122801
13,72495,118017
13,72907,119587
13,73318,113313
13,73732,113966
13,74143,111674
13,74555,110765
13,74968,109146
13,75380,105853
13,75792,105057
13,76203,104110
13,76617,104844
13,77028,96959
13,77440,96017
13,77853,96898
13,78265,94629
13,78677,94846
13,79090,93193
13,79502,90189
13,79913,90466
13,80327,90809
13,80738,92429
13,81150,89097
13,81563,89194
13,81975,86552
13,82387,87178
13,82800,87149
13,83212,85485
13,83623,84527
13,84037,85982
13,84448,82843
13,84860,81472
13,85272,79488
13,85685,78712
13,86097,81773
13,86508,80414
13,86922,77075
13,87333,81831
13,87745,79565
13,88158,78645
13,88570,78614
13,88982,77268
13,89395,74883
13,89807,74477
13,90218,77654
13,90632,72786
13,91043,74123
13,91455,71881
13,91868,73288
13,92280,71807
13,92692,73218
13,93105,71786
13,93517,69717
13,93928,69147
13,94340,70327
13,94753,70741
13,95165,68431
13,95577,71244
13,95990,70218
13,96402,67883
13,96813,70154
13,97227,72372
13,97638,72655
13,98050,76839
13,98463,78869
13,98875,88890
13,99287,91144
13,99700,100739
14,00112,113283
14,00523,123356
14,00937,129265
14,01348,136293
14,01760,138850
14,02173,143928
14,02585,141719
14,02997,134451
14,03408,130340
14,03822,124839
14,04233,116911
14,04645,108797
14,05058,99115
14,05470,96732
14,05882,87540
14,06295,87154
14,06707,81783
14,07118,76849
14,07532,75671
14,07943,75200
14,08355,73229
14,08768,71018
14,09180,68324
14,09592,64073
14,10005,63748
14,10417,64473
14,10828,65641
14,11242,66485
14,11653,65879
14,12065,63858
14,12477,65122
14,12890,64165
14,13302,60560
14,13713,60409
14,14127,60440
14,14538,65091
14,14950,62094
14,15363,61843
14,15775,61944
14,16187,62046
14,16600,61996
14,17012,58292
14,17423,61506
14,17837,60657
14,18248,57642
14,18660,57565
14,19073,58165
14,19485,59240
14,19897,61586
14,20310,59851
14,20722,60297
14,21133,60416
14,21545,58489
14,21958,59210
14,22370,60083
14,22782,59398
14,23195,59479
14,23607,57985
14,24018,58500
14,24432,53765
14,24843,60398
14,25255,58383
14,25668,60223
14,26080,53977
14,26492,59557
14,26905,55344
14,27317,58222
14,27728,57878
14,28142,54600
14,28553,57785
14,28965,55865
14,29378,56365
14,29790,55401
14,30202,58065
14,30615,58251
14,31027,55526
14,31438,54763
14,31850,53956
14,32263,56936
14,32675,55725
14,33087,55030
14,33500,55088
14,33912,57190
14,34323,53540
14,34737,54866
14,35148,53609
14,35560,55051
14,35973,55485
14,36385,52517
14,36797,54241
14,37210,56158
14,37622,55665
14,38033,54553
14,38447,54572
14,38858,55450
14,39270,55425
14,39683,56009
14,40095,53922
14,40507,53530
14,40918,53045
14,41332,54908
14,41743,54561
14,42155,52849
14,42568,53567
14,42980,54238
14,43392,53296
14,43805,53044
14,44217,53358
14,44628,54353
14,45042,58323
14,45453,56406
14,45865,50784
14,46278,54389
14,46690,55416
14,47102,53096
14,47515,53257
14,47927,54332
14,48338,54961
14,48752,54624
14,49163,52041
14,49575,52403
14,49987,55056
14,50400,53631
14,50812,53344
14,51223,53695
14,51637,54043
14,52048,51125
14,52460,55453
14,52873,52120
14,53285,50027
14,53697,52122
14,54110,53105
14,54522,56267
14,54933,52557
14,55347,51163
14,55758,51936
14,56170,56760
14,56583,54261
14,56995,54331
14,57407,54751
14,57820,52619
14,58232,53163
14,58643,51733
14,59055,54575
14,59468,53226
14,59880,54947
14,60292,52960
14,60705,57278
14,61117,52128
14,61528,52134
14,61942,57167
14,62353,56877
14,62765,58107
14,63178,61921
14,63590,74086
14,64002,86655
14,64415,110828
14,64827,140562
14,65238,189207
14,65652,253142
14,66063,324024
14,66475,408635
14,66888,501292
14,67300,582604
14,67712,657044
14,68123,719786
14,68537,754212
14,68948,751547
14,69360,732712
14,69773,694877
14,70185,656904
14,70597,597182
14,71010,542289
14,71422,495666
14,71833,443501
14,72247,397345
14,72658,357277
14,73070,324907
14,73483,293227
14,73895,266136
14,74307,242411
14,74720,221909
14,75132,204949
14,75543,190986
14,75957,178240
14,76368,171459
14,76780,156695
14,77192,146377
14,77605,140723
14,78017,136020
14,78428,127626
14,78842,121642
14,79253,115409
14,79665,111827
14,80078,109840
14,80490,108002
14,80902,104677
14,81315,102999
14,81727,96656
14,82138,96016
14,82552,91926
14,82963,90602
14,83375,90048
14,83788,86138
14,84200,88697
14,84612,80737
14,85025,82300
14,85437,82761
14,85848,81864
14,86260,78675
14,86673,78236
14,87085,77225
14,87497,76914
14,87910,74336
14,88322,72290
14,88733,70164
14,89147,74451
14,89558,71625
14,89970,68306
14,90383,69385
14,90795,68053
14,91207,67967
14,91620,69504
14,92032,70559
14,92443,67499
14,92857,67486
14,93268,64674
14,93680,65431
14,94093,65670
14,94505,63323
14,94917,66301
14,95328,66260
14,95742,63877
14,96153,63363
14,96565,64459
14,96978,63973
14,97390,62119
14,97802,62711
14,98215,62158
14,98627,61369
14,99038,62602
14,99452,60242
14,99863,60032
15,00275,60260
15,00688,61862
15,01100,61379
15,01512,62635
15,01925,60082
15,02337,62028
15,02748,58365
15,03162,58171
