D:\MassHunter\GCMS\1\data\Amal\Constant flow\80C\80C_1ml-min_7C-min_1.D Tue Aug 06 15:06:23 2024
Start of data points
6,24097	14176
6,24508	15502
6,24920	15017
6,25333	14452
6,25745	13219
6,26157	13632
6,26570	14253
6,26982	14090
6,27393	14456
6,27807	14337
6,28218	15993
6,28630	14449
6,29043	13451
6,29455	13610
6,29867	14221
6,30280	14256
6,30692	13913
6,31103	12181
6,31517	13468
6,31928	14044
6,32340	13239
6,32753	13044
6,33165	12718
6,33577	13030
6,33990	12985
6,34402	12960
6,34813	12597
6,35225	12931
6,35638	12505
6,36050	13116
6,36462	11461
6,36875	13358
6,37287	14830
6,37698	14875
6,38112	21355
6,38523	28741
6,38935	38075
6,39348	56250
6,39760	80681
6,40172	108504
6,40585	145448
6,40997	179998
6,41408	219206
6,41822	251296
6,42233	284815
6,42645	299509
6,43058	309453
6,43470	311926
6,43882	320526
6,44293	310251
6,44707	296615
6,45118	285619
6,45530	272798
6,45943	251626
6,46355	241875
6,46767	225956
6,47180	213689
6,47592	202453
6,48003	188137
6,48417	182698
6,48828	172029
6,49240	162435
6,49653	150962
6,50065	139321
6,50477	131924
6,50890	126267
6,51302	122841
6,51713	116338
6,52127	109751
6,52538	99334
6,52950	92732
6,53362	88326
6,53775	82522
6,54187	77169
6,54598	69165
6,55012	65693
6,55423	61146
6,55835	54928
6,56248	53351
6,56660	45655
6,57072	43342
6,57485	41285
6,57897	38230
6,58308	35307
6,58722	33352
6,59133	30440
6,59545	28033
6,59958	26894
6,60370	24335
6,60782	23164
6,61195	23184
6,61607	20661
6,62018	20875
6,62430	19127
6,62843	18192
6,63255	16843
6,63667	16722
6,64080	16116
6,64492	15734
6,64903	15147
6,65317	14541
6,65728	14044
6,66140	12987
6,66553	14563
6,66965	13928
6,67377	12813
6,67790	13724
6,68202	12354
6,68613	12011
6,69027	10326
6,69438	11187
6,69850	11658
6,70263	11389
6,70675	10262
6,71087	10744
6,71498	10037
6,71912	10651
6,72323	10951
6,72735	9466
6,73148	10577
6,73560	10481
6,73972	10411
6,74385	9846
6,74797	9949
6,75208	9251
6,75622	9867
6,76033	9385
6,76445	9159
6,76858	9406
6,77270	9633
6,77682	8278
6,78095	8907
6,78507	9005
6,78918	8555
6,79332	8896
6,79743	9289
6,80155	9287
6,80567	8670
6,80980	7740
6,81392	7688
6,81803	8556
6,82217	9577
6,82628	8429
6,83040	8609
6,83453	8945
6,83865	8836
6,84277	8578
6,84690	8265
6,85102	9163
6,85513	9402
6,85927	8349
6,86338	8548
6,86750	8451
6,87163	7944
6,87575	7926
6,87987	7678
6,88400	8097
6,88812	8209
6,89223	7116
6,89635	8624
6,90048	7585
6,90460	8220
6,90872	9559
6,91285	7718
6,91697	7840
6,92108	8472
6,92522	8105
6,92933	7713
6,93345	8472
6,93758	7724
6,94170	8429
6,94582	7852
6,94995	7685
6,95407	8335
6,95818	7585
6,96232	7670
6,96643	7688
6,97055	8166
6,97468	7998
6,97880	7365
6,98292	7428
6,98703	7559
6,99117	8266
6,99528	7842
6,99940	8524
7,00353	7261
7,00765	7450
7,01177	7125
7,01590	7689
7,02002	7083
7,02413	8436
7,02827	7411
7,03238	7417
7,03650	7591
7,04063	7099
7,04475	7144
7,04887	7590
7,05300	6759
7,05712	7863
7,06123	7376
7,06537	7356
7,06948	7308
7,07360	6943
7,07772	7939
7,08185	7178
7,08597	7499
7,09008	7156
7,09422	7556
7,09833	7477
7,10245	7390
7,10658	7517
7,11070	7787
7,11482	7115
7,11895	7229
7,12307	7367
7,12718	7178
7,13132	6708
7,13543	7642
7,13955	7383
7,14368	6713
7,14780	7208
7,15192	7114
7,15605	7062
7,16017	7246
7,16428	6438
7,16840	6482
7,17253	6981
7,17665	5899
7,18077	6718
7,18490	6820
7,18902	6774
7,19313	6954
7,19727	7159
7,20138	7814
7,20550	7172
7,20963	7154
7,21375	6909
7,21787	7154
7,22200	7461
7,22612	6484
7,23023	6771
7,23437	6422
7,23848	7160
7,24260	6845
7,24673	6493
7,25085	7484
7,25497	6751
7,25908	5963
7,26322	7033
7,26733	6697
7,27145	6494
7,27558	6907
7,27970	6300
7,28382	6153
7,28795	5728
7,29207	6010
7,29618	6898
7,30032	6407
7,30443	6526
7,30855	6548
7,31268	6508
7,31680	6645
7,32092	6099
7,32505	5787
7,32917	6371
7,33328	5752
7,33742	6905
7,34153	6070
7,34565	5989
7,34977	6776
7,35390	6365
7,35802	6525
7,36213	7117
7,36627	6151
7,37038	5816
7,37450	6694
7,37863	6373
7,38275	6554
7,38687	5983
7,39100	6220
7,39512	6276
7,39923	5580
7,40337	6563
7,40748	6802
7,41160	5757
7,41573	6130
7,41985	5923
7,42397	6687
7,42810	6079
7,43222	5909
7,43633	5445
7,44045	5825
7,44458	6198
7,44870	6103
7,45282	6276
7,45695	6346
7,46107	6017
7,46518	6549
7,46932	5285
7,47343	6335
7,47755	5920
7,48168	5618
7,48580	6181
7,48992	6218
7,49405	6807
7,49817	5804
7,50228	5926
7,50642	5862
7,51053	6886
7,51465	5866
7,51878	5535
7,52290	5580
7,52702	6076
7,53113	6077
7,53527	5579
7,53938	6284
7,54350	5439
7,54763	6313
7,55175	5837
7,55587	5625
7,56000	5790
7,56412	5648
7,56823	5883
7,57237	6521
7,57648	6082
7,58060	5765
7,58473	5957
7,58885	5559
7,59297	5663
7,59710	6459
7,60122	5926
7,60533	6090
7,60947	5547
7,61358	6202
7,61770	6685
7,62182	6813
7,62595	6260
7,63007	6458
7,63418	6443
7,63832	7027
7,64243	6783
7,64655	6912
7,65068	6356
7,65480	6520
7,65892	6293
7,66305	6430
7,66717	6171
7,67128	5801
7,67542	6012
7,67953	5735
7,68365	5704
7,68778	6365
7,69190	5228
7,69602	5313
7,70015	6272
7,70427	5343
7,70838	5853
7,71250	5529
7,71663	5654
7,72075	6027
7,72487	5455
7,72900	5448
7,73312	5065
7,73723	5897
7,74137	5565
7,74548	5766
7,74960	5312
7,75373	5743
7,75785	5206
7,76197	5007
7,76610	5175
7,77022	5240
7,77433	5188
7,77847	5506
7,78258	5419
7,78670	5495
7,79083	5230
7,79495	5953
7,79907	5219
7,80318	5010
7,80732	6169
7,81143	5333
7,81555	5200
7,81968	5256
7,82380	4939
7,82792	5117
7,83205	5581
7,83617	5067
7,84028	5120
7,84442	5033
7,84853	4936
7,85265	5696
7,85678	4919
7,86090	5104
7,86502	5198
7,86915	5086
7,87327	5022
7,87738	5081
7,88152	4580
7,88563	5321
7,88975	5660
7,89387	5362
7,89800	4861
7,90212	4945
7,90623	5507
7,91037	5090
7,91448	5150
7,91860	4774
7,92273	4888
7,92685	4926
7,93097	5068
7,93510	4955
7,93922	5017
7,94333	5362
7,94747	5026
7,95158	5218
7,95570	4780
7,95983	5571
7,96395	4781
7,96807	5152
7,97220	4881
7,97632	5147
7,98043	4815
7,98455	4970
7,98868	4737
7,99280	5645
7,99692	4789
8,00105	4876
8,00517	4957
8,00928	4804
8,01342	4572
8,01753	4981
8,02165	4778
8,02578	4978
8,02990	4713
8,03402	4758
8,03815	4703
8,04227	4452
8,04638	4583
8,05052	4698
8,05463	4542
8,05875	4209
8,06288	4645
8,06700	5214
8,07112	4879
8,07525	4427
8,07937	4188
8,08348	5032
8,08760	4697
8,09173	4823
8,09585	5047
8,09997	4737
8,10410	4801
8,10822	4401
8,11233	5173
8,11647	4980
8,12058	4288
8,12470	4660
8,12883	4774
8,13295	5173
8,13707	5592
8,14120	4962
8,14532	5560
8,14943	7580
8,15357	10724
8,15768	13248
8,16180	20325
8,16593	27197
8,17005	37309
8,17417	49876
8,17828	63843
8,18242	76647
8,18653	87118
8,19065	99635
8,19478	107243
8,19890	108659
8,20302	113251
8,20715	106809
8,21127	105073
8,21538	99360
8,21952	95662
8,22363	86305
8,22775	78939
8,23188	71595
8,23600	62835
8,24012	57876
8,24425	51421
8,24837	47325
8,25248	38985
8,25662	36789
8,26073	32106
8,26485	29425
8,26897	25972
8,27310	21903
8,27722	19541
8,28133	16936
8,28547	15493
8,28958	15326
8,29370	12795
8,29783	12186
8,30195	11463
8,30607	9257
8,31020	9223
8,31432	8752
8,31843	8155
8,32257	8081
8,32668	6696
8,33080	7337
8,33493	6975
8,33905	6234
8,34317	6532
8,34730	6630
8,35142	6316
8,35553	5173
8,35965	5646
8,36378	5880
8,36790	5289
8,37202	5762
8,37615	5965
8,38027	5934
8,38438	4785
8,38852	4912
8,39263	5081
8,39675	4728
8,40088	4808
8,40500	4411
8,40912	5828
8,41325	4587
8,41737	4400
8,42148	4852
8,42562	4936
8,42973	4317
8,43385	4381
8,43798	4928
8,44210	4589
8,44622	4532
8,45033	4258
8,45447	4841
8,45858	4821
8,46270	4397
8,46683	4679
8,47095	4598
8,47507	4110
8,47920	4612
8,48332	4325
8,48743	4931
8,49157	3995
8,49568	4295
8,49980	4103
8,50393	4071
8,50805	4224
8,51217	4053
8,51630	4321
8,52042	4123
8,52453	4449
8,52867	4121
8,53278	3981
8,53690	3935
8,54102	3938
8,54515	3967
8,54927	3954
8,55338	4313
8,55752	3739
8,56163	4071
8,56575	4514
8,56988	4283
8,57400	3576
8,57812	3729
8,58225	3882
8,58637	3879
8,59048	4931
8,59462	3801
8,59873	4354
8,60285	3620
8,60698	4008
8,61110	4546
8,61522	3207
8,61935	3874
8,62347	3863
8,62758	4092
8,63170	3629
8,63583	4465
8,63995	3741
8,64407	3608
8,64820	4202
8,65232	4093
8,65643	4466
8,66057	3930
8,66468	3558
8,66880	4154
8,67293	4146
8,67705	3970
8,68117	4163
8,68530	4013
8,68942	3520
8,69353	4114
8,69767	4306
8,70178	4168
8,70590	4100
8,71003	4150
8,71415	4420
8,71827	4405
8,72238	4662
8,72652	4605
8,73063	4891
8,73475	6148
8,73888	6959
8,74300	6159
8,74712	5958
8,75125	5938
8,75537	5106
8,75948	5558
8,76362	4653
8,76773	5319
8,77185	3906
8,77598	4383
8,78010	4254
8,78422	4589
8,78835	4333
8,79247	3664
8,79658	4471
8,80072	3576
8,80483	4091
8,80895	4712
8,81307	4038
8,81720	4225
8,82132	3682
8,82543	4246
8,82957	4393
8,83368	3564
8,83780	3288
8,84193	3415
8,84605	3678
8,85017	3407
8,85430	3609
8,85842	3888
8,86253	3926
8,86667	3832
8,87078	3283
8,87490	4003
8,87903	3236
8,88315	3760
8,88727	3241
8,89140	3651
8,89552	3636
8,89963	3598
8,90375	3971
8,90788	3464
8,91200	3597
8,91612	3976
8,92025	3492
8,92437	3825
8,92848	3855
8,93262	3746
8,93673	3579
8,94085	3642
8,94498	3725
8,94910	3494
8,95322	3599
8,95735	3742
8,96147	3614
8,96558	4082
8,96972	3700
8,97383	3591
8,97795	3736
8,98208	3739
8,98620	3983
8,99032	3659
8,99443	3429
8,99857	3397
9,00268	3188
9,00680	3983
9,01093	3449
9,01505	4094
9,01917	3638
9,02330	2918
9,02742	2956
9,03153	3501
9,03567	3417
9,03978	3335
9,04390	3201
9,04803	3444
9,05215	3170
9,05627	3579
9,06040	3483
9,06452	3575
9,06863	3341
9,07277	3466
9,07688	3480
9,08100	3273
9,08512	2962
9,08925	2975
9,09337	3451
9,09748	3612
9,10162	3502
9,10573	3926
9,10985	3724
9,11398	3640
9,11810	3331
9,12222	3461
9,12635	3637
9,13047	3594
9,13458	3251
9,13872	3668
9,14283	3241
9,14695	3028
9,15108	3283
9,15520	3549
9,15932	3170
9,16345	3150
9,16757	3692
9,17168	2943
9,17580	3533
9,17993	3455
9,18405	3525
9,18817	2986
9,19230	3441
9,19642	3461
9,20053	3193
9,20467	3354
9,20878	3788
9,21290	3536
9,21703	3488
9,22115	3385
9,22527	3262
9,22940	3356
9,23352	2921
9,23763	3236
9,24177	3075
9,24588	3468
9,25000	3625
9,25413	3958
9,25825	3873
9,26237	3687
9,26648	3834
9,27062	3408
9,27473	3446
9,27885	3758
9,28298	3620
9,28710	3793
9,29122	3462
9,29535	3358
9,29947	3840
9,30358	3490
9,30772	3393
9,31183	3398
9,31595	3198
9,32008	4264
9,32420	3778
9,32832	4403
9,33245	4125
9,33657	3292
9,34068	4067
9,34482	3954
9,34893	3422
9,35305	3339
9,35717	3221
9,36130	3190
9,36542	3153
9,36953	3048
9,37367	3727
9,37778	3578
9,38190	3540
9,38603	3316
9,39015	3247
9,39427	3049
9,39840	3252
9,40252	3687
9,40663	3383
9,41077	3509
9,41488	3767
9,41900	3506
9,42313	4166
9,42725	4615
9,43137	4436
9,43550	5768
9,43962	5957
9,44373	4961
9,44785	5051
9,45198	5743
9,45610	5744
9,46022	5178
9,46435	5457
9,46847	4776
9,47258	4903
9,47672	4545
9,48083	4657
9,48495	4755
9,48908	4480
9,49320	4241
9,49732	3960
9,50145	4602
9,50557	3629
9,50968	3635
9,51382	3827
9,51793	3462
9,52205	3394
9,52618	3294
9,53030	3157
9,53442	3662
9,53855	3747
9,54267	3366
9,54678	3528
9,55090	3259
9,55503	3237
9,55915	2813
9,56327	3173
9,56740	3255
9,57152	3301
9,57563	3242
9,57977	3840
9,58388	3059
9,58800	4016
9,59213	2754
9,59625	3244
9,60037	2830
9,60450	3821
9,60862	3616
9,61273	3623
9,61687	3436
9,62098	3133
9,62510	3551
9,62923	3482
9,63335	3958
9,63747	3695
9,64158	3675
9,64572	3279
9,64983	2232
9,65395	2687
9,65808	3356
9,66220	3605
9,66632	3356
9,67045	2858
9,67457	2841
9,67868	2779
9,68282	3342
9,68693	3083
9,69105	2927
9,69518	3164
9,69930	3238
9,70342	2997
9,70755	3215
9,71167	2822
9,71578	3294
9,71992	3336
9,72403	2790
9,72815	3127
9,73227	3075
9,73640	3510
9,74052	2616
9,74463	3091
9,74877	2901
9,75288	3417
9,75700	2818
9,76113	3103
9,76525	3187
9,76937	2679
9,77350	2810
9,77762	2777
9,78173	2895
9,78587	2722
9,78998	2536
9,79410	3453
9,79823	2954
9,80235	2879
9,80647	2939
9,81060	3043
9,81472	2876
9,81883	2889
9,82295	2958
9,82708	2888
9,83120	3083
9,83532	2641
9,83945	2764
9,84357	3426
9,84768	3369
9,85182	2869
9,85593	2652
9,86005	2880
9,86418	3288
9,86830	2779
9,87242	2400
9,87655	2873
9,88067	2411
9,88478	2888
9,88892	3058
9,89303	2888
9,89715	3098
9,90128	3160
9,90540	2747
9,90952	2991
9,91363	3003
9,91777	3260
9,92188	2975
9,92600	2908
9,93013	2952
9,93425	2910
9,93837	3127
9,94250	2930
9,94662	2819
9,95073	2739
9,95487	2742
9,95898	3206
9,96310	3314
9,96723	2488
9,97135	3272
9,97547	2651
9,97960	3288
9,98372	3282
9,98783	3113
9,99197	2752
9,99608	3140
10,00020	3458
10,00432	3512
10,00845	2978
10,01257	3161
10,01668	2750
10,02082	2897
10,02493	2790
10,02905	2497
10,03318	3288
10,03730	2132
10,04142	3350
10,04555	3034
10,04967	3065
10,05378	3201
10,05792	3178
10,06203	2662
10,06615	3179
10,07028	3797
10,07440	3163
10,07852	3059
10,08265	3739
10,08677	3005
10,09088	3087
10,09500	2861
10,09913	2932
10,10325	2735
10,10737	2856
10,11150	2619
10,11562	2881
10,11973	2723
10,12387	2512
10,12798	2538
10,13210	2388
10,13623	2763
10,14035	2829
10,14447	2330
10,14860	2675
10,15272	2948
10,15683	2715
10,16097	2730
10,16508	2031
10,16920	2377
10,17333	2735
10,17745	2933
10,18157	3003
10,18568	2823
10,18982	3150
10,19393	3146
10,19805	2671
10,20218	2741
10,20630	2580
10,21042	3295
10,21455	2789
10,21867	3084
10,22278	2872
10,22692	2817
10,23103	3014
10,23515	3243
10,23928	2836
10,24340	2719
10,24752	2927
10,25165	3235
10,25577	2937
10,25988	3328
10,26402	3165
10,26813	2317
10,27225	3027
10,27637	2893
10,28050	2557
10,28462	3154
10,28873	2328
10,29287	2697
10,29698	2394
10,30110	2866
10,30523	2399
10,30935	3064
10,31347	2429
10,31760	2378
10,32172	2627
10,32583	2807
10,32997	2227
10,33408	2699
10,33820	2570
10,34233	2697
10,34645	2501
10,35057	3134
10,35470	3543
10,35882	2712
10,36293	3275
10,36705	2922
10,37118	2893
10,37530	3533
10,37942	3104
10,38355	3187
10,38767	2991
10,39178	2860
10,39592	4047
10,40003	3264
10,40415	3124
10,40828	2995
10,41240	3335
10,41652	3407
10,42065	3139
10,42477	3041
10,42888	3513
10,43302	2866
10,43713	3514
10,44125	2832
10,44538	3031
10,44950	2842
10,45362	3199
10,45773	3286
10,46187	2905
10,46598	3524
10,47010	5307
10,47423	6521
10,47835	11331
10,48247	20033
10,48660	33808
10,49072	57410
10,49483	91169
10,49897	142620
10,50308	206096
10,50720	277928
10,51133	353933
10,51545	432955
10,51957	505480
10,52370	550808
10,52782	584212
10,53193	590777
10,53607	574618
10,54018	529107
10,54430	488783
10,54842	431688
10,55255	372504
10,55667	318190
10,56078	261426
10,56492	218876
10,56903	176370
10,57315	143746
10,57728	119305
10,58140	98707
10,58552	80302
10,58965	65204
10,59377	54880
10,59788	47177
10,60202	41802
10,60613	35958
10,61025	32349
10,61438	27949
10,61850	24436
10,62262	23231
10,62675	19009
10,63087	17945
10,63498	15089
10,63910	16423
10,64323	14406
10,64735	12542
10,65147	12839
10,65560	12021
10,65972	10915
10,66383	9827
10,66797	9474
10,67208	9906
10,67620	9154
10,68033	8401
10,68445	7541
10,68857	6775
10,69270	7430
10,69682	7240
10,70093	6765
10,70507	5629
10,70918	5488
10,71330	5861
10,71743	5066
10,72155	6479
10,72567	5954
10,72978	5102
10,73392	4851
10,73803	4924
10,74215	4922
10,74628	5440
10,75040	4910
10,75452	5325
10,75865	4716
10,76277	4153
10,76688	4470
10,77102	4124
10,77513	3817
10,77925	3785
10,78338	4627
10,78750	3388
10,79162	4110
10,79575	3280
10,79987	4149
10,80398	3597
10,80812	4060
10,81223	4364
10,81635	3912
10,82047	4134
10,82460	3973
10,82872	3402
10,83283	3553
10,83697	3337
10,84108	4461
10,84520	3419
10,84933	2670
10,85345	3881
10,85757	3484
10,86170	3529
10,86582	3109
10,86993	3484
10,87407	3571
10,87818	3224
10,88230	3282
10,88643	3517
10,89055	3123
10,89467	3137
10,89880	2774
10,90292	2723
10,90703	3526
10,91115	2264
10,91528	3292
10,91940	2490
10,92352	2791
10,92765	2699
10,93177	2942
10,93588	3133
10,94002	3312
10,94413	2571
10,94825	2580
10,95238	2585
10,95650	2824
10,96062	2094
10,96475	3175
10,96887	2598
10,97298	2633
10,97712	3210
10,98123	2610
10,98535	3014
10,98948	2639
10,99360	2671
10,99772	2505
11,00183	3090
11,00597	3151
11,01008	2961
11,01420	2961
11,01833	2481
11,02245	2296
11,02657	2667
11,03070	3165
11,03482	2415
11,03893	2737
11,04307	2237
11,04718	3353
11,05130	2739
11,05543	2476
11,05955	2897
11,06367	2980
11,06780	2321
11,07192	2873
11,07603	2590
11,08017	2518
11,08428	2526
11,08840	2504
11,09252	3296
11,09665	3119
11,10077	2977
11,10488	2805
11,10902	3212
11,11313	2913
11,11725	2366
11,12138	2659
11,12550	3140
11,12962	2660
11,13375	2908
11,13787	2471
11,14198	3049
11,14612	2516
11,15023	2756
11,15435	2710
11,15848	2593
11,16260	2206
11,16672	2362
11,17085	1911
11,17497	2243
11,17908	2044
11,18322	2912
11,18733	2417
11,19145	1997
11,19557	2514
11,19970	1926
11,20382	1957
11,20793	2374
11,21207	2514
11,21618	2294
11,22030	2233
11,22443	2578
11,22855	2654
11,23267	1951
11,23680	2261
11,24092	2242
11,24503	2990
11,24917	3151
11,25328	3950
11,25740	4315
11,26153	4259
11,26565	5567
11,26977	5721
11,27390	5187
11,27802	4717
11,28213	3332
11,28625	3098
11,29038	2868
11,29450	2586
11,29862	2372
11,30275	2508
11,30687	2878
11,31098	2380
11,31512	2038
11,31923	1968
11,32335	2128
11,32748	3395
11,33160	2798
11,33572	2352
11,33985	2243
11,34397	2127
11,34808	2552
11,35222	2361
11,35633	2136
11,36045	2199
11,36458	2744
11,36870	2619
11,37282	2892
11,37693	2134
11,38107	1774
11,38518	2296
11,38930	2070
11,39343	2767
11,39755	2836
11,40167	2413
11,40580	2287
11,40992	2453
11,41403	2621
11,41817	2454
11,42228	2265
11,42640	2147
11,43053	3136
11,43465	2194
11,43877	2325
11,44290	2442
11,44702	2479
11,45113	1928
11,45527	2536
11,45938	2570
11,46350	2687
11,46762	2465
11,47175	2603
11,47587	2524
11,47998	2742
11,48412	2944
11,48823	2276
11,49235	2151
11,49648	1770
11,50060	2557
11,50472	1969
11,50885	2039
11,51297	2877
11,51708	2080
11,52122	2043
11,52533	1910
11,52945	2246
11,53358	2585
11,53770	2481
11,54182	2452
11,54595	2442
11,55007	2593
11,55418	2823
11,55830	2346
11,56243	2065
11,56655	2470
11,57067	2724
11,57480	2425
11,57892	2291
11,58303	2541
11,58717	2675
11,59128	2729
11,59540	2306
11,59953	2717
11,60365	2002
11,60777	2151
11,61190	2620
11,61602	2153
11,62013	2625
11,62427	1826
11,62838	2148
11,63250	2345
11,63663	2669
11,64075	2327
11,64487	1790
11,64898	2279
11,65312	2019
11,65723	2511
11,66135	1748
11,66548	2598
11,66960	1825
11,67372	2124
11,67785	2748
11,68197	2407
11,68608	3541
11,69022	5286
11,69433	8732
11,69845	14499
11,70258	25534
11,70670	43909
11,71082	69163
11,71495	104600
11,71907	149440
11,72318	200016
11,72732	255400
11,73143	307752
11,73555	350385
11,73967	376915
11,74380	385847
11,74792	377181
11,75203	357786
11,75617	324422
11,76028	283850
11,76440	243265
11,76853	198902
11,77265	163790
11,77677	132970
11,78090	106701
11,78502	85462
11,78913	71880
11,79327	57560
11,79738	47256
11,80150	42038
11,80563	33761
11,80975	28705
11,81387	24873
11,81800	22847
11,82212	19135
11,82623	16343
11,83035	15662
11,83448	14000
11,83860	11221
11,84272	11932
11,84685	10614
11,85097	9057
11,85508	8197
11,85922	8274
11,86333	8111
11,86745	7942
11,87158	7320
11,87570	6813
11,87982	6339
11,88395	5921
11,88807	5457
11,89218	4616
11,89632	5219
11,90043	5001
11,90455	4607
11,90868	4965
11,91280	4416
11,91692	4383
11,92103	3225
11,92517	3928
11,92928	3465
11,93340	3647
11,93753	3227
11,94165	3611
11,94577	3468
11,94990	3222
11,95402	3641
11,95813	2767
11,96227	3857
11,96638	3262
11,97050	3180
11,97463	2604
11,97875	2871
11,98287	3339
11,98700	2841
11,99112	3127
11,99523	2539
11,99937	3124
12,00348	2800
12,00760	3123
12,01172	3173
12,01585	2949
12,01997	2692
12,02408	2769
12,02822	2607
12,03233	2884
12,03645	2933
12,04058	3040
12,04470	2326
12,04882	2522
12,05295	2735
12,05707	2173
12,06118	3137
12,06532	2844
12,06943	2111
12,07355	2451
12,07768	3225
12,08180	2452
12,08592	2841
12,09005	2753
12,09417	1894
12,09828	1592
12,10240	2228
12,10653	1316
12,11065	2353
12,11477	2222
12,11890	2231
12,12302	2748
12,12713	2255
12,13127	1879
12,13538	2445
12,13950	2307
12,14363	2184
12,14775	2250
12,15187	2346
12,15600	2457
12,16012	3274
12,16423	2024
12,16837	2846
12,17248	2820
12,17660	1843
12,18073	2305
12,18485	2337
12,18897	2686
12,19308	2418
12,19722	2826
12,20133	3110
12,20545	3530
12,20958	3645
12,21370	2254
12,21782	3082
12,22195	3073
12,22607	2983
12,23018	3090
12,23432	2687
12,23843	2315
12,24255	2339
12,24668	2284
12,25080	2343
12,25492	1997
12,25905	2052
12,26317	2210
12,26728	2450
12,27142	2013
12,27553	1915
12,27965	2517
12,28377	2548
12,28790	2129
12,29202	1672
12,29613	2277
12,30027	2028
12,30438	1718
12,30850	1779
12,31263	2125
12,31675	1529
12,32087	2430
12,32500	2139
12,32912	1880
12,33323	2456
12,33737	2251
12,34148	2243
12,34560	2329
12,34973	1686
12,35385	2483
12,35797	1852
12,36210	2544
12,36622	2118
12,37033	1763
12,37445	2368
12,37858	1959
12,38270	1973
12,38682	2200
12,39095	1976
12,39507	3091
12,39918	1457
12,40332	2058
12,40743	1889
12,41155	1762
12,41568	2077
12,41980	2584
12,42392	2043
12,42805	1538
12,43217	2300
12,43628	2080
12,44042	2273
12,44453	3032
12,44865	2514
12,45278	2696
12,45690	1742
12,46102	1977
12,46513	2053
12,46927	1962
12,47338	1707
12,47750	2061
12,48163	1961
12,48575	2111
12,48987	1678
12,49400	1861
12,49812	1196
12,50223	1741
12,50637	2174
12,51048	1913
12,51460	2060
12,51873	1742
12,52285	2050
12,52697	1677
12,53110	2094
12,53522	2007
12,53933	2304
12,54347	1573
12,54758	1781
12,55170	1504
12,55582	2075
12,55995	2047
12,56407	1292
12,56818	1885
12,57232	1772
12,57643	1976
12,58055	2006
12,58468	1904
12,58880	2173
12,59292	2030
12,59705	1891
12,60117	1626
12,60528	1860
12,60942	2059
12,61353	1988
12,61765	1881
12,62178	1650
12,62590	2387
12,63002	2168
12,63415	1964
12,63827	1936
12,64238	1960
12,64652	1506
12,65063	1883
12,65475	2389
12,65887	2220
12,66300	1513
12,66712	1777
12,67123	1556
12,67537	1900
12,67948	1946
12,68360	2138
12,68773	2573
12,69185	2639
12,69597	2525
12,70010	2647
12,70422	2522
12,70833	2029
12,71247	2399
12,71658	2114
12,72070	2114
12,72483	2358
12,72895	1440
12,73307	2522
12,73720	2483
12,74132	2164
12,74543	2208
12,74955	1882
12,75368	1582
12,75780	2224
12,76192	1834
12,76605	2036
12,77017	2474
12,77428	2279
12,77842	1447
12,78253	1603
12,78665	1705
12,79078	2281
12,79490	1112
12,79902	2023
12,80315	1900
12,80727	1833
12,81138	2133
12,81552	1803
12,81963	1747
12,82375	2000
12,82788	1748
12,83200	1939
12,83612	2071
12,84023	1824
12,84437	2207
12,84848	1539
12,85260	1757
12,85673	1770
12,86085	1649
12,86497	1766
12,86910	1915
12,87322	1702
12,87733	2095
12,88147	2973
12,88558	3955
12,88970	7635
12,89383	14820
12,89795	28819
12,90207	51082
12,90620	88629
12,91032	152729
12,91443	242697
12,91857	350426
12,92268	478045
12,92680	611244
12,93092	744579
12,93505	847063
12,93917	902201
12,94328	932895
12,94742	913735
12,95153	839441
12,95565	747561
12,95978	639686
12,96390	531154
12,96802	435038
12,97215	339655
12,97627	266727
12,98038	212868
12,98452	170335
12,98863	136722
12,99275	109089
12,99688	89495
13,00100	73900
13,00512	64160
13,00925	50794
13,01337	45817
13,01748	38755
13,02160	35296
13,02573	31177
13,02985	28818
13,03397	24342
13,03810	22461
13,04222	20074
13,04633	17366
13,05047	16026
13,05458	15296
13,05870	13895
13,06283	13103
13,06695	10050
13,07107	10570
13,07520	10453
13,07932	9507
13,08343	8684
13,08757	8867
13,09168	7739
13,09580	8077
13,09993	7809
13,10405	7133
13,10817	6652
13,11228	5898
13,11642	5902
13,12053	6263
13,12465	5036
13,12878	5451
13,13290	5132
13,13702	5031
13,14115	4450
13,14527	4369
13,14938	4303
13,15352	3997
13,15763	4290
13,16175	3262
13,16588	3346
13,17000	3267
13,17412	3845
13,17825	3340
13,18237	3484
13,18648	3537
13,19062	3667
13,19473	2880
13,19885	3125
13,20297	3210
13,20710	3581
13,21122	2931
13,21533	3067
13,21947	3303
13,22358	3147
13,22770	2618
13,23183	2448
13,23595	2549
13,24007	2955
13,24420	2957
13,24832	2603
13,25243	2632
13,25657	2054
13,26068	1874
13,26480	2276
13,26893	2134
13,27305	3076
13,27717	2249
13,28130	2656
13,28542	2740
13,28953	2628
13,29365	2565
13,29778	2328
13,30190	2757
13,30602	2253
13,31015	2428
13,31427	2170
13,31838	1973
13,32252	2184
13,32663	1785
13,33075	2097
13,33488	2386
13,33900	2227
13,34312	1724
13,34725	2235
13,35137	1777
13,35548	1600
13,35962	2005
13,36373	2010
13,36785	1741
13,37198	1515
13,37610	2224
13,38022	1968
13,38433	2017
13,38847	1998
13,39258	1893
13,39670	1744
13,40083	1778
13,40495	1455
13,40907	2257
13,41320	1063
13,41732	1511
13,42143	2233
13,42557	1560
13,42968	2013
13,43380	2514
13,43793	1992
13,44205	2669
13,44617	2261
13,45030	3501
13,45442	3089
13,45853	3848
13,46267	4283
13,46678	5424
13,47090	5505
13,47502	6458
13,47915	7772
13,48327	7999
13,48738	8214
13,49152	9680
13,49563	9081
13,49975	8441
13,50388	7971
13,50800	7347
13,51212	6698
13,51625	6478
13,52037	5610
13,52448	5110
13,52862	4978
13,53273	4715
13,53685	3654
13,54098	3159
13,54510	2723
13,54922	2549
13,55335	2625
13,55747	2648
13,56158	1919
13,56570	2311
13,56983	1827
13,57395	1613
13,57807	1974
13,58220	2215
13,58632	2080
13,59043	1407
13,59457	1547
13,59868	1939
13,60280	1830
13,60693	1854
13,61105	2055
13,61517	2027
13,61930	1670
13,62342	2223
13,62753	1384
13,63167	1585
13,63578	1617
13,63990	1726
13,64403	1645
13,64815	1482
13,65227	1629
13,65638	1569
13,66052	1871
13,66463	2124
13,66875	2872
13,67288	2993
13,67700	4160
13,68112	3360
13,68525	3285
13,68937	2262
13,69348	2909
13,69762	1338
13,70173	1700
13,70585	1661
13,70998	1447
13,71410	1698
13,71822	1521
13,72235	1946
13,72647	1388
13,73058	1522
13,73472	1230
13,73883	1940
13,74295	1344
13,74707	1326
13,75120	1572
13,75532	1552
13,75943	1873
13,76357	1293
13,76768	1399
13,77180	1376
13,77593	1295
13,78005	1165
13,78417	1590
13,78830	1311
13,79242	1478
13,79653	1117
13,80067	1535
13,80478	1266
13,80890	1560
13,81303	1479
13,81715	1316
13,82127	1377
13,82540	1238
13,82952	1697
13,83363	1264
13,83775	1433
13,84188	1318
13,84600	1259
13,85012	1465
13,85425	1477
13,85837	1650
13,86248	1158
13,86662	1143
13,87073	1669
13,87485	1506
13,87898	1945
13,88310	1506
13,88722	1275
13,89135	1493
13,89547	1367
13,89958	1321
13,90372	1212
13,90783	1388
13,91195	1046
13,91608	1333
13,92020	1474
13,92432	1020
13,92843	1420
13,93257	1580
13,93668	1210
13,94080	1191
13,94493	1456
13,94905	1267
13,95317	1266
13,95730	1401
13,96142	1369
13,96553	1670
13,96967	1263
13,97378	1292
13,97790	2051
13,98203	1673
13,98615	1146
13,99027	1514
13,99440	1651
13,99852	1152
14,00263	1727
14,00677	1434
14,01088	1517
14,01500	1099
14,01912	1870
14,02325	1721
14,02737	947
14,03148	1068
14,03562	1790
14,03973	1155
14,04385	1644
14,04798	2154
14,05210	2591
14,05622	4655
14,06035	9886
14,06447	19223
14,06858	35810
14,07272	63944
14,07683	105947
14,08095	160286
14,08508	227333
14,08920	302514
14,09332	382377
14,09745	450832
14,10157	496480
14,10568	510137
14,10980	508236
14,11393	477724
14,11805	423675
14,12217	364837
14,12630	304956
14,13042	242513
14,13453	190415
14,13867	148003
14,14278	122424
14,14690	95826
14,15103	76908
14,15515	58610
14,15927	49346
14,16340	41447
14,16752	32319
14,17163	28095
14,17577	24204
14,17988	20562
14,18400	18227
14,18813	16943
14,19225	14609
14,19637	13111
14,20048	12977
14,20462	10509
14,20873	8959
14,21285	9361
14,21698	7340
14,22110	6633
14,22522	6397
14,22935	6276
14,23347	6555
14,23758	5745
14,24172	5704
14,24583	4577
14,24995	4766
14,25408	4227
14,25820	4256
14,26232	3679
14,26645	3612
14,27057	3712
14,27468	3365
14,27882	2928
14,28293	2715
14,28705	2675
14,29118	3144
14,29530	3123
14,29942	2635
14,30353	3203
14,30767	2569
14,31178	2140
14,31590	2322
14,32003	2526
14,32415	2396
14,32827	2224
14,33240	2026
14,33652	1969
14,34063	1857
14,34477	2517
14,34888	2289
14,35300	2149
14,35713	1808
14,36125	1823
14,36537	2279
14,36950	1432
14,37362	2090
14,37773	1901
14,38187	1892
14,38598	2264
14,39010	1908
14,39422	1368
14,39835	1145
14,40247	1593
14,40658	1166
14,41072	1803
14,41483	1178
14,41895	1597
14,42308	1455
14,42720	1771
14,43132	1569
14,43545	2006
14,43957	1193
14,44368	1927
14,44782	1326
14,45193	709
14,45605	1680
14,46018	800
14,46430	947
14,46842	1342
14,47255	1220
14,47667	1578
14,48078	1518
14,48490	1649
14,48903	1493
14,49315	1520
14,49727	1409
14,50140	1509
14,50552	1295
14,50963	1258
14,51377	905
14,51788	1079
14,52200	1044
14,52613	1084
14,53025	836
14,53437	1502
14,53850	1069
14,54262	964
14,54673	986
14,55087	1483
14,55498	1009
14,55910	940
14,56323	1161
14,56735	1725
14,57147	610
14,57558	1020
14,57972	1080
14,58383	1371
14,58795	1123
14,59208	1231
14,59620	1316
14,60032	1406
14,60445	1179
14,60857	914
14,61268	697
14,61682	726
14,62093	1341
14,62505	1194
14,62918	1456
14,63330	914
14,63742	1293
14,64155	1356
14,64567	1448
14,64978	2057
14,65392	1662
14,65803	1496
14,66215	1923
14,66627	2401
14,67040	2836
14,67452	3095
14,67863	2671
14,68277	2547
14,68688	2810
14,69100	2937
14,69513	2433
14,69925	1711
14,70337	1833
14,70750	2214
14,71162	2299
14,71573	2932
14,71987	2865
14,72398	2897
14,72810	2649
14,73223	2358
14,73635	3091
14,74047	2281
14,74460	2486
14,74872	1713
14,75283	2127
14,75695	1492
14,76108	1424
14,76520	1675
14,76932	1018
14,77345	1385
14,77757	900
14,78168	1347
14,78582	1291
14,78993	849
14,79405	923
14,79818	859
14,80230	1342
14,80642	1166
14,81055	1008
14,81467	1051
14,81878	978
14,82292	1090
14,82703	529
14,83115	1092
14,83528	1132
14,83940	845
14,84352	858
14,84763	962
14,85177	936
14,85588	953
14,86000	1006
14,86413	1033
14,86825	609
14,87237	905
14,87650	965
14,88062	1586
14,88473	1244
14,88887	812
14,89298	1016
14,89710	708
14,90123	1088
14,90535	750
14,90947	1056
14,91360	781
14,91772	1406
14,92183	749
14,92597	1438
14,93008	691
14,93420	920
14,93832	1307
14,94245	1034
14,94657	896
14,95068	785
14,95482	772
14,95893	664
14,96305	1060
14,96718	864
14,97130	1298
14,97542	1139
14,97955	798
14,98367	1052
14,98778	547
14,99192	1050
14,99603	834
15,00015	872
15,00428	1121
15,00840	1061
15,01252	952
15,01665	1367
15,02077	926
15,02488	1022
15,02900	1034
15,03313	1290
15,03725	1331
15,04137	986
15,04550	1426
15,04962	1212
15,05373	1148
15,05787	1151
15,06198	961
15,06610	1140
15,07023	819
15,07435	1071
15,07847	1083
15,08260	1125
15,08672	1243
15,09083	844
15,09497	1392
15,09908	1426
15,10320	1495
15,10733	1397
15,11145	2006
15,11557	3755
15,11968	3693
15,12382	3617
15,12793	4403
15,13205	4189
15,13618	4140
15,14030	4126
15,14442	4568
15,14855	3176
15,15267	3492
15,15678	3103
15,16092	2216
15,16503	2663
15,16915	2249
15,17328	3733
15,17740	8273
15,18152	13750
15,18565	27385
15,18977	53056
15,19388	99412
15,19802	167909
15,20213	269276
15,20625	403347
15,21037	558016
15,21450	726639
15,21862	883596
15,22273	1021762
15,22687	1120167
15,23098	1139181
15,23510	1129540
15,23923	1026826
15,24335	893561
15,24747	747760
15,25160	608649
15,25572	478361
15,25983	363967
15,26397	283521
15,26808	226776
15,27220	178513
15,27633	144510
15,28045	111588
15,28457	90698
15,28870	78533
15,29282	66483
15,29693	56172
15,30105	51585
15,30518	43947
15,30930	37777
15,31342	34767
15,31755	30276
15,32167	26141
15,32578	23666
15,32992	22545
15,33403	19311
15,33815	17721
15,34228	17335
15,34640	15272
15,35052	12660
15,35465	12482
15,35877	10842
15,36288	10683
15,36702	10373
15,37113	9288
15,37525	7511
15,37938	7898
15,38350	7256
15,38762	6766
15,39173	6281
15,39587	6067
15,39998	5404
15,40410	4406
15,40823	5303
15,41235	4557
15,41647	4821
15,42060	3577
15,42472	3738
15,42883	3449
15,43297	4092
15,43708	3263
15,44120	3142
15,44533	2804
15,44945	2802
15,45357	2296
15,45770	4058
15,46182	3442
15,46593	2961
15,47007	3162
15,47418	2264
15,47830	2231
15,48242	2740
15,48655	2456
15,49067	2381
15,49478	2158
15,49892	2070
15,50303	1431
15,50715	1984
15,51128	1808
15,51540	1946
15,51952	2332
15,52365	1569
15,52777	2169
15,53188	1370
15,53602	2630
15,54013	1780
15,54425	2425
15,54838	2155
15,55250	1730
15,55662	1465
15,56075	1636
15,56487	1213
15,56898	2325
15,57310	1365
15,57723	1946
15,58135	1527
15,58547	1361
15,58960	1404
15,59372	1228
15,59783	1354
15,60197	1625
15,60608	1684
15,61020	881
15,61433	1292
15,61845	963
15,62257	1376
15,62670	1049
15,63082	1637
15,63493	759
15,63907	429
15,64318	521
15,64730	1047
15,65143	1338
15,65555	957
15,65967	1085
15,66378	720
15,66792	1134
15,67203	1330
15,67615	695
15,68028	933
15,68440	934
15,68852	836
15,69265	790
15,69677	464
15,70088	1127
15,70502	1340
15,70913	1314
15,71325	1009
15,71738	978
15,72150	1005
15,72562	896
15,72975	1620
15,73387	888
15,73798	661
15,74212	1243
15,74623	1115
15,75035	1470
15,75448	1496
15,75860	1667
15,76272	1406
15,76683	2381
15,77097	2040
15,77508	2148
15,77920	1767
15,78333	1886
15,78745	2113
15,79157	1909
15,79570	1255
15,79982	1696
15,80393	1962
15,80807	1289
15,81218	1277
15,81630	1229
15,82043	1188
15,82455	732
15,82867	1097
15,83280	1085
15,83692	906
15,84103	1232
15,84517	714
15,84928	1570
15,85340	1053
15,85752	975
15,86165	1632
15,86577	2596
15,86988	2553
15,87402	2742
15,87813	2544
15,88225	2051
15,88638	1856
15,89050	610
15,89462	929
15,89875	636
15,90287	1172
15,90698	535
15,91112	539
15,91523	695
15,91935	448
15,92348	939
15,92760	1221
15,93172	1733
15,93585	4319
15,93997	8450
15,94408	19084
15,94820	37868
15,95233	66833
15,95645	111455
15,96057	165227
15,96470	239929
15,96882	321591
15,97293	401576
15,97707	464094
15,98118	508485
15,98530	517308
15,98943	513418
15,99355	472945
15,99767	425370
16,00180	358872
16,00592	299672
16,01003	240633
16,01417	190324
16,01828	151530
16,02240	119573
16,02653	91097
16,03065	74322
16,03477	58109
16,03888	49810
16,04302	37291
16,04713	34097
16,05125	26823
16,05538	23929
16,05950	19654
16,06362	18900
16,06775	14989
16,07187	13664
16,07598	12083
16,08012	11185
16,08423	10810
16,08835	9347
16,09248	7487
16,09660	7616
16,10072	7359
16,10485	6124
16,10897	5718
16,11308	4432
16,11722	4101
16,12133	4041
16,12545	2776
16,12957	3990
16,13370	3746
16,13782	3328
16,14193	3176
16,14607	1983
16,15018	1839
16,15430	2147
16,15843	1389
16,16255	2154
16,16667	1269
16,17080	1700
16,17492	1993
16,17903	1614
16,18317	1300
16,18728	1837
16,19140	1158
16,19553	1567
16,19965	1434
16,20377	980
16,20790	1190
16,21202	1629
16,21613	882
16,22025	1050
16,22438	685
16,22850	1278
16,23262	1269
16,23675	965
16,24087	717
16,24498	1054
16,24912	2437
16,25323	3518
16,25735	6743
16,26148	14341
16,26560	30159
16,26972	55116
16,27385	93655
16,27797	148307
16,28208	223698
16,28622	309194
16,29033	407426
16,29445	485252
16,29858	553344
16,30270	588191
16,30682	588020
16,31093	552593
16,31507	497592
16,31918	424903
16,32330	349505
16,32743	287595
16,33155	225015
16,33567	172895
16,33980	132393
16,34392	103769
16,34803	83761
16,35217	66813
16,35628	54758
16,36040	42868
16,36453	36195
16,36865	31341
16,37277	24313
16,37690	22681
16,38102	19638
16,38513	17549
16,38927	14553
16,39338	12987
16,39750	12576
16,40162	10792
16,40575	9231
16,40987	8317
16,41398	8008
16,41812	7614
16,42223	7223
16,42635	6273
16,43048	5989
16,43460	6230
16,43872	4550
16,44285	4718
16,44697	4431
16,45108	3780
16,45522	3732
16,45933	4215
16,46345	3159
16,46758	3094
16,47170	3256
16,47582	2208
16,47995	3227
16,48407	2691
16,48818	2588
16,49230	2497
16,49643	2362
16,50055	1756
16,50467	2417
16,50880	2102
16,51292	1740
16,51703	2430
16,52117	2075
16,52528	1444
16,52940	1673
16,53353	1389
16,53765	1764
16,54177	1950
16,54590	1208
16,55002	1441
16,55413	1161
16,55827	1531
16,56238	1482
16,56650	1339
16,57063	813
16,57475	901
16,57887	1776
16,58298	1210
16,58712	912
16,59123	1391
16,59535	1830
16,59948	836
16,60360	1205
16,60772	1304
16,61185	1414
16,61597	1095
16,62008	838
16,62422	720
16,62833	772
16,63245	1546
16,63658	1268
16,64070	1052
16,64482	1595
16,64895	1249
16,65307	2240
16,65718	1336
16,66132	1717
16,66543	1760
16,66955	1807
16,67367	1447
16,67780	2271
16,68192	1436
16,68603	1644
16,69017	754
16,69428	1108
16,69840	1429
16,70253	1597
16,70665	885
16,71077	1025
16,71490	737
16,71902	929
16,72313	1091
16,72727	1124
16,73138	1001
16,73550	515
16,73963	1008
16,74375	816
16,74787	613
16,75200	909
16,75612	643
16,76023	876
16,76435	1501
16,76848	798
16,77260	1697
16,77672	1510
16,78085	1410
16,78497	1385
16,78908	1305
16,79322	1716
16,79733	1373
16,80145	1321
16,80558	1601
16,80970	1285
16,81382	666
16,81795	1434
16,82207	1696
16,82618	767
16,83032	1356
16,83443	935
16,83855	664
16,84268	617
16,84680	585
16,85092	410
16,85503	483
16,85917	752
16,86328	717
16,86740	925
16,87153	383
16,87565	863
16,87977	943
16,88390	455
16,88802	474
16,89213	494
16,89627	388
16,90038	801
16,90450	240
16,90863	658
16,91275	1024
16,91687	949
16,92100	669
16,92512	874
16,92923	798
16,93337	424
16,93748	361
16,94160	530
16,94572	664
16,94985	813
16,95397	661
16,95808	596
16,96222	674
16,96633	416
16,97045	816
16,97458	514
16,97870	393
16,98282	1041
16,98695	908
16,99107	2115
16,99518	5257
16,99932	11177
17,00343	25626
17,00755	49532
17,01168	80765
17,01580	130673
17,01992	200980
17,02405	282850
17,02817	372100
17,03228	445605
17,03640	510827
17,04053	548235
17,04465	555037
17,04877	534227
17,05290	484818
17,05702	427399
17,06113	357772
17,06527	294839
17,06938	232795
17,07350	182633
17,07763	141778
17,08175	110291
17,08587	89564
17,09000	67936
17,09412	55475
17,09823	46361
17,10237	37040
17,10648	32197
17,11060	27386
17,11473	22723
17,11885	17978
17,12297	17597
17,12708	15561
17,13122	13399
17,13533	10545
17,13945	10292
17,14358	8567
17,14770	8670
17,15182	7434
17,15595	6805
17,16007	6921
17,16418	5017
17,16832	5360
17,17243	3613
17,17655	4185
17,18068	4947
17,18480	4634
17,18892	2407
17,19305	3005
17,19717	4138
17,20128	3457
17,20542	2966
17,20953	2325
17,21365	1975
17,21777	2057
17,22190	1967
17,22602	1847
17,23013	1815
17,23427	2034
17,23838	2252
17,24250	2155
17,24663	2231
17,25075	1116
17,25487	1703
17,25900	1820
17,26312	1465
17,26723	1277
17,27137	1460
17,27548	1969
17,27960	3324
17,28373	5685
17,28785	12729
17,29197	23256
17,29610	47549
17,30022	91202
17,30433	160918
17,30845	269474
17,31258	421133
17,31670	625440
17,32082	871934
17,32495	1144456
17,32907	1403100
17,33318	1638368
17,33732	1819699
17,34143	1899365
17,34555	1864417
17,34968	1718897
17,35380	1522717
17,35792	1250224
17,36205	1007162
17,36617	779770
17,37028	598675
17,37442	455529
17,37853	351556
17,38265	270712
17,38678	215595
17,39090	171791
17,39502	137822
17,39915	113622
17,40327	97605
17,40738	83053
17,41150	70326
17,41563	62817
17,41975	53629
17,42387	48127
17,42800	42332
17,43212	39671
17,43623	33144
17,44037	30855
17,44448	29283
17,44860	26362
17,45273	23248
17,45685	23318
17,46097	21260
17,46510	19091
17,46922	18911
17,47333	15937
17,47747	15495
17,48158	14305
17,48570	13831
17,48983	12047
17,49395	12285
17,49807	11068
17,50218	10197
17,50632	9998
17,51043	9141
17,51455	8401
17,51868	7703
17,52280	7799
17,52692	7030
17,53105	6374
17,53517	6236
17,53928	6750
17,54342	5848
17,54753	5207
17,55165	4680
17,55578	4425
17,55990	4151
17,56402	5353
17,56815	4676
17,57227	4129
17,57638	3237
17,58052	3503
17,58463	3393
17,58875	3645
17,59287	3695
17,59700	2375
17,60112	3300
17,60523	2838
17,60937	2894
17,61348	2825
17,61760	3043
17,62173	2275
17,62585	2183
17,62997	2137
17,63410	3003
17,63822	2715
17,64233	2407
17,64647	2473
17,65058	2208
17,65470	2655
17,65883	2244
17,66295	2119
17,66707	3149
17,67120	2434
17,67532	1994
17,67943	1337
17,68355	3267
17,68768	2221
17,69180	2439
17,69592	1780
17,70005	2119
17,70417	1602
17,70828	2451
17,71242	2792
17,71653	2335
17,72065	2366
17,72478	2122
17,72890	2084
17,73302	2395
17,73715	2755
17,74127	2409
17,74538	1432
17,74952	1711
17,75363	2581
17,75775	1863
17,76188	1115
17,76600	2101
17,77012	1222
17,77423	1221
17,77837	1215
17,78248	2175
17,78660	1831
17,79073	1657
17,79485	1577
17,79897	1967
17,80310	1245
17,80722	1941
17,81133	2283
17,81547	2354
17,81958	2267
17,82370	2479
17,82783	2127
17,83195	2534
17,83607	2384
17,84020	2130
17,84432	2741
17,84843	1858
17,85257	2509
17,85668	1725
17,86080	1806
17,86492	1820
17,86905	3175
17,87317	5290
17,87728	10044
17,88142	18285
17,88553	36269
17,88965	65310
17,89378	105966
17,89790	167483
17,90202	242711
17,90615	332591
17,91027	424862
17,91438	500390
17,91852	556672
17,92263	587374
17,92675	572257
17,93088	540166
17,93500	485415
17,93912	415773
17,94325	341906
17,94737	276679
17,95148	215931
17,95560	167206
17,95973	129931
17,96385	100883
17,96797	81417
17,97210	67011
17,97622	54437
17,98033	43041
17,98447	37239
17,98858	31303
17,99270	24802
17,99683	22170
18,00095	20680
18,00507	17859
18,00920	15344
18,01332	14420
18,01743	11088
18,02157	11232
18,02568	10149
18,02980	10917
18,03393	11099
18,03805	9658
18,04217	10207
18,04628	8698
18,05042	10111
18,05453	9548
18,05865	9782
18,06278	8800
18,06690	8036
18,07102	7604
18,07515	6058
18,07927	6479
18,08338	5410
18,08752	4783
18,09163	5168
18,09575	4490
18,09988	3670
18,10400	3895
18,10812	3871
18,11225	3260
18,11637	2308
18,12048	3711
18,12462	3747
18,12873	2317
18,13285	2894
18,13697	2916
18,14110	2066
18,14522	2047
18,14933	2443
18,15347	1917
18,15758	1530
18,16170	1784
18,16583	1159
18,16995	1766
18,17407	1721
18,17820	1284
18,18232	1736
18,18643	1176
18,19057	1506
18,19468	1616
18,19880	913
18,20293	1425
18,20705	1709
18,21117	930
18,21530	1008
18,21942	1264
18,22353	1807
18,22765	1642
18,23178	1630
18,23590	1470
18,24002	1383
18,24415	1633
18,24827	1144
18,25238	1225
18,25652	1028
18,26063	1376
18,26475	1545
18,26888	2621
18,27300	4864
18,27712	9493
18,28125	20511
18,28537	40728
18,28948	74950
18,29362	124410
18,29773	193442
18,30185	286631
18,30598	385612
18,31010	484053
18,31422	569506
18,31833	635991
18,32247	651065
18,32658	642640
18,33070	591750
18,33483	513879
18,33895	426347
18,34307	346480
18,34720	273962
18,35132	209972
18,35543	162308
18,35957	126698
18,36368	100457
18,36780	79763
18,37193	62227
18,37605	53261
18,38017	41973
18,38430	36843
18,38842	29372
18,39253	26488
18,39667	23296
18,40078	19078
18,40490	19534
18,40902	16378
18,41315	15470
18,41727	12496
18,42138	12220
18,42552	10257
18,42963	9141
18,43375	9095
18,43788	9032
18,44200	8045
18,44612	8433
18,45025	7247
18,45437	6370
18,45848	6009
18,46262	5895
18,46673	5308
18,47085	6944
18,47498	5056
18,47910	5582
18,48322	4781
18,48735	5571
18,49147	4692
18,49558	4368
18,49970	4103
18,50383	4240
18,50795	3448
18,51207	3405
18,51620	3322
18,52032	2322
18,52443	3190
18,52857	3080
18,53268	3239
18,53680	2925
18,54093	3007
18,54505	3272
18,54917	3207
18,55330	2621
18,55742	2996
18,56153	3494
18,56567	1320
18,56978	2255
18,57390	2155
18,57803	2207
18,58215	1245
18,58627	2180
18,59038	2132
18,59452	2449
18,59863	2745
18,60275	1994
18,60688	2086
18,61100	1319
18,61512	2034
18,61925	1779
18,62337	2052
18,62748	2425
18,63162	2873
18,63573	1031
18,63985	1344
18,64398	1700
18,64810	2361
18,65222	1489
18,65635	1511
18,66047	1308
18,66458	1489
18,66872	1004
18,67283	1687
18,67695	1662
18,68107	1124
18,68520	1789
18,68932	1481
18,69343	1618
18,69757	1514
18,70168	1843
18,70580	676
18,70993	1734
18,71405	1253
18,71817	622
18,72230	614
18,72642	1821
18,73053	905
18,73467	1028
18,73878	1271
18,74290	478
18,74703	1128
18,75115	1496
18,75527	1414
18,75940	1561
18,76352	1445
18,76763	1228
18,77175	1075
18,77588	1432
18,78000	697
18,78412	1537
18,78825	1696
18,79237	1486
18,79648	1235
18,80062	1348
18,80473	638
18,80885	1317
18,81298	765
18,81710	1105
18,82122	1216
18,82535	1743
18,82947	1716
18,83358	1682
18,83772	2452
18,84183	3529
18,84595	6337
18,85008	15422
18,85420	29450
18,85832	51728
18,86243	92792
18,86657	147837
18,87068	225882
18,87480	311050
18,87893	410290
18,88305	487976
18,88717	571005
18,89130	613741
18,89542	610156
18,89953	593704
18,90367	541837
18,90778	460920
18,91190	392188
18,91603	313957
18,92015	249077
18,92427	190327
18,92840	147124
18,93252	115609
18,93663	89020
18,94077	72660
18,94488	59296
18,94900	48902
18,95312	38627
18,95725	34739
18,96137	27928
18,96548	24905
18,96962	20529
18,97373	18396
18,97785	16332
18,98198	14090
18,98610	13883
18,99022	11683
18,99435	10375
18,99847	10599
19,00258	9710
19,00672	8062
19,01083	8454
19,01495	8691
19,01908	6804
19,02320	6738
19,02732	6147
19,03145	6095
19,03557	5083
19,03968	6006
19,04382	5512
19,04793	6065
19,05205	6740
19,05617	7967
19,06030	8784
19,06442	11368
19,06853	13782
19,07267	16814
19,07678	17474
19,08090	19066
19,08503	19380
19,08915	20366
19,09327	18040
19,09740	16903
19,10152	14985
19,10563	13716
19,10977	12509
19,11388	10579
19,11800	8713
19,12213	7537
19,12625	6897
19,13037	6018
19,13450	4615
19,13862	4161
19,14273	3831
19,14685	3215
19,15098	2839
19,15510	3335
19,15922	2901
19,16335	2968
19,16747	2350
19,17158	2910
19,17572	2909
19,17983	2634
19,18395	2197
19,18808	2254
19,19220	1644
19,19632	1650
19,20045	2423
19,20457	1827
19,20868	2091
19,21282	2699
19,21693	3496
19,22105	6628
19,22518	13921
19,22930	26382
19,23342	50924
19,23753	92319
19,24167	163269
19,24578	258990
19,24990	398101
19,25403	560556
19,25815	761463
19,26227	972494
19,26640	1169936
19,27052	1328417
19,27463	1402247
19,27877	1399499
19,28288	1328940
19,28700	1194649
19,29113	1007681
19,29525	832213
19,29937	655337
19,30350	510925
19,30762	385508
19,31173	298562
19,31587	229145
19,31998	185294
19,32410	146061
19,32822	118014
19,33235	98385
19,33647	83873
19,34058	68625
19,34472	63187
19,34883	52993
19,35295	47727
19,35708	42996
19,36120	36910
19,36532	31125
19,36945	29410
19,37357	26910
19,37768	25099
19,38182	22917
19,38593	21659
19,39005	19130
19,39418	17934
19,39830	17858
19,40242	15712
19,40655	14275
19,41067	15055
19,41478	13789
19,41890	12492
19,42303	11208
19,42715	11964
19,43127	9761
19,43540	9062
19,43952	10014
19,44363	9064
19,44777	7430
19,45188	8099
19,45600	7091
19,46013	6911
19,46425	6474
19,46837	5843
19,47250	5984
19,47662	5516
19,48073	5115
19,48487	5236
19,48898	5489
19,49310	4945
19,49723	5041
19,50135	4602
19,50547	4350
19,50958	4597
19,51372	4146
19,51783	3808
19,52195	2869
19,52608	4006
19,53020	4358
19,53432	6122
19,53845	9153
19,54257	14516
19,54668	28185
19,55082	47071
19,55493	83654
19,55905	135108
19,56318	203412
19,56730	290232
19,57142	384691
19,57555	482494
19,57967	565894
19,58378	631612
19,58792	650796
19,59203	645703
19,59615	604109
19,60027	527807
19,60440	454721
19,60852	370779
19,61263	298143
19,61677	236709
19,62088	178346
19,62500	145299
19,62913	113143
19,63325	92168
19,63737	70743
19,64150	58855
19,64562	50805
19,64973	43099
19,65387	35459
19,65798	31419
19,66210	27556
19,66623	24530
19,67035	21109
19,67447	19011
19,67860	18411
19,68272	15338
19,68683	16522
19,69095	14844
19,69508	16105
19,69920	19845
19,70332	30601
19,70745	49610
19,71157	81110
19,71568	138100
19,71982	218741
19,72393	332339
19,72805	479798
19,73218	655787
19,73630	842456
19,74042	1036505
19,74455	1180298
19,74867	1267240
19,75278	1297336
19,75692	1264453
19,76103	1154923
19,76515	1009741
19,76928	832819
19,77340	671393
19,77752	524847
19,78163	409805
19,78577	318611
19,78988	247318
19,79400	197446
19,79813	157716
19,80225	128248
19,80637	106094
19,81050	90480
19,81462	76381
19,81873	65639
19,82287	59009
19,82698	51154
19,83110	46696
19,83523	41883
19,83935	38204
19,84347	33664
19,84760	31152
19,85172	29118
19,85583	25291
19,85997	25482
19,86408	22331
19,86820	21847
19,87232	23389
19,87645	22092
19,88057	19605
19,88468	18215
19,88882	16233
19,89293	14853
19,89705	14495
19,90118	12873
19,90530	9893
19,90942	11926
19,91355	10560
19,91767	10310
19,92178	8520
19,92592	9037
19,93003	9450
19,93415	8845
19,93828	8537
19,94240	7819
19,94652	8376
19,95065	7268
19,95477	7640
19,95888	6072
19,96300	6139
19,96713	4623
19,97125	4732
19,97537	5338
19,97950	5297
19,98362	3784
19,98773	4850
19,99187	4185
19,99598	4768
20,00010	4550
20,00423	3691
20,00835	3820
20,01247	4981
20,01660	4184
20,02072	4423
20,02483	4270
20,02897	3691
20,03308	2513
20,03720	3373
20,04133	3203
20,04545	3402
20,04957	2933
20,05368	3474
20,05782	2820
20,06193	3721
20,06605	5950
20,07018	9545
20,07430	17144
20,07842	31788
20,08255	58950
20,08667	97840
20,09078	158400
20,09492	229473
20,09903	328332
20,10315	420630
20,10728	501427
20,11140	572143
20,11552	598355
20,11965	596242
20,12377	565262
20,12788	495628
20,13202	426062
20,13613	346791
20,14025	282163
20,14437	222333
20,14850	174813
20,15262	139295
20,15673	106602
20,16087	89157
20,16498	74630
20,16910	63993
20,17323	51565
20,17735	43745
20,18147	36889
20,18560	34063
20,18972	30299
20,19383	25919
20,19797	23677
20,20208	20872
20,20620	18157
20,21033	16358
20,21445	16027
20,21857	14130
20,22270	11529
20,22682	12278
20,23093	10515
20,23505	9155
20,23918	9176
20,24330	8602
20,24742	7490
20,25155	7403
20,25567	6453
20,25978	7854
20,26392	6611
20,26803	6915
20,27215	5929
20,27628	5706
20,28040	5876
20,28452	4914
20,28865	5857
20,29277	6753
20,29688	6867
20,30102	5204
20,30513	5291
20,30925	6268
20,31338	5657
20,31750	5781
20,32162	5483
20,32573	4611
20,32987	3673
20,33398	3987
20,33810	4643
20,34223	3103
20,34635	4567
20,35047	4680
20,35460	3989
20,35872	4449
20,36283	4371
20,36697	3836
20,37108	4616
20,37520	4665
20,37933	4211
20,38345	5227
20,38757	4027
20,39170	4898
20,39582	4091
20,39993	4139
20,40407	4084
20,40818	2951
20,41230	3720
20,41642	3420
20,42055	3460
20,42467	3367
20,42878	3391
20,43292	5766
20,43703	9422
20,44115	15785
20,44528	26357
20,44940	45567
20,45352	79132
20,45765	127377
20,46177	188537
20,46588	272403
20,47002	357969
20,47413	438227
20,47825	508569
20,48238	558711
20,48650	569897
20,49062	546693
20,49475	510302
20,49887	448386
20,50298	375296
20,50710	304851
20,51123	240138
20,51535	188753
20,51947	148308
20,52360	115252
20,52772	90608
20,53183	74654
20,53597	62209
20,54008	51733
20,54420	43864
20,54833	36653
20,55245	31485
20,55657	28083
20,56070	23743
20,56482	23248
20,56893	20054
20,57307	17407
20,57718	17956
20,58130	15640
20,58543	15407
20,58955	12421
20,59367	12631
20,59778	12623
20,60192	11499
20,60603	10223
20,61015	10109
20,61428	10182
20,61840	10233
20,62252	9721
20,62665	8994
20,63077	7832
20,63488	7756
20,63902	7148
20,64313	7990
20,64725	6379
20,65138	7133
20,65550	5332
20,65962	6015
20,66375	6721
20,66787	6665
20,67198	6260
20,67612	5682
20,68023	5214
20,68435	5464
20,68848	3875
20,69260	4775
20,69672	4232
20,70083	4335
20,70497	3512
20,70908	3512
20,71320	4184
20,71733	3852
20,72145	4003
20,72557	3622
20,72970	3504
20,73382	3137
20,73793	2637
20,74207	2662
20,74618	2936
20,75030	4388
20,75443	3218
20,75855	3272
20,76267	2163
20,76680	3309
20,77092	2787
20,77503	2768
20,77917	3211
20,78328	2082
20,78740	3222
20,79152	3369
20,79565	2818
20,79977	3290
20,80388	3816
20,80802	3082
20,81213	3381
20,81625	2673
20,82038	3757
20,82450	3794
20,82862	3929
20,83275	3318
20,83687	3491
20,84098	3347
20,84512	1997
20,84923	2926
20,85335	3166
20,85748	3566
20,86160	3793
20,86572	3191
20,86985	3596
20,87397	3354
20,87808	3115
20,88220	2823
20,88633	3446
20,89045	2559
20,89457	2420
20,89870	2412
20,90282	3058
20,90693	2493
20,91107	3144
20,91518	2749
20,91930	2582
20,92343	3061
20,92755	3210
20,93167	3013
20,93580	1970
20,93992	3024
20,94403	2565
20,94817	3236
20,95228	5094
20,95640	7572
20,96053	14004
20,96465	27120
20,96877	47290
20,97288	81188
20,97702	126205
20,98113	186762
20,98525	255176
20,98938	335409
20,99350	401807
20,99762	466046
21,00175	511168
21,00587	541404
21,00998	553761
21,01412	566728
21,01823	601558
21,02235	650404
21,02648	731619
21,03060	864491
21,03472	1023556
21,03885	1203610
21,04297	1380774
21,04708	1534101
21,05122	1625037
21,05533	1621773
21,05945	1550377
21,06357	1357593
21,06770	1143869
21,07182	915746
21,07593	730686
21,08007	561108
21,08418	435763
21,08830	340815
21,09243	268946
21,09655	217173
21,10067	175361
21,10480	148681
21,10892	128069
21,11303	108404
21,11717	95232
21,12128	84049
21,12540	73478
21,12953	67643
21,13365	62945
21,13777	57012
21,14190	55263
21,14602	55697
21,15013	50902
21,15425	50012
21,15838	50464
21,16250	51475
21,16662	47373
21,17075	44880
21,17487	43249
21,17898	40026
21,18312	35344
21,18723	33025
21,19135	29728
21,19548	27241
21,19960	24257
21,20372	21645
21,20785	20953
21,21197	19403
21,21608	18059
21,22022	16570
21,22433	16397
21,22845	15390
21,23258	13367
21,23670	13725
21,24082	13300
21,24493	11677
21,24907	11654
21,25318	11560
21,25730	11744
21,26143	10808
21,26555	10325
21,26967	10311
21,27380	10862
21,27792	11539
21,28203	15299
21,28617	18391
21,29028	29193
21,29440	45224
21,29853	70354
21,30265	113370
21,30677	166801
21,31090	235559
21,31502	312330
21,31913	382906
21,32327	440864
21,32738	483825
21,33150	485342
21,33562	476410
21,33975	436330
21,34387	383971
21,34798	324996
21,35212	266915
21,35623	213508
21,36035	172951
21,36448	137138
21,36860	105048
21,37272	85313
21,37685	69996
21,38097	58852
21,38508	47325
21,38922	42031
21,39333	36881
21,39745	30676
21,40158	28643
21,40570	26385
21,40982	23000
21,41395	21584
21,41807	20134
21,42218	18690
21,42630	17752
21,43043	17248
21,43455	16311
21,43867	16951
21,44280	19503
21,44692	25354
21,45103	33669
21,45517	51974
21,45928	78968
21,46340	125555
21,46753	192537
21,47165	277825
21,47577	372004
21,47990	482017
21,48402	576464
21,48813	662224
21,49227	701357
21,49638	704504
21,50050	668291
21,50463	604753
21,50875	522479
21,51287	432385
21,51698	343098
21,52112	276603
21,52523	218403
21,52935	174823
21,53348	139657
21,53760	115034
21,54172	95608
21,54585	77451
21,54997	65028
21,55408	58402
21,55822	51014
21,56233	45580
21,56645	41465
21,57058	36712
21,57470	33453
21,57882	29592
21,58295	27974
21,58707	25408
21,59118	23393
21,59532	23057
21,59943	19372
21,60355	19225
21,60767	19678
21,61180	16809
21,61592	17284
21,62003	15584
21,62417	15008
21,62828	15579
21,63240	15408
21,63653	13373
21,64065	13833
21,64477	14534
21,64890	10757
21,65302	10896
21,65713	12268
21,66127	10539
21,66538	10832
21,66950	9761
21,67363	9112
21,67775	8724
21,68187	9263
21,68600	8423
21,69012	9526
21,69423	11105
21,69835	10971
21,70248	11749
21,70660	12034
21,71072	10028
21,71485	9389
21,71897	8203
21,72308	8206
21,72722	7247
21,73133	6258
21,73545	6029
21,73958	5515
21,74370	7649
21,74782	6062
21,75195	6346
21,75607	5594
21,76018	6312
21,76432	5957
21,76843	5117
21,77255	5472
21,77668	5918
21,78080	4017
21,78492	4774
21,78903	5387
21,79317	5213
21,79728	6169
21,80140	6117
21,80553	5102
21,80965	5996
21,81377	6599
21,81790	5924
21,82202	6265
21,82613	8428
21,83027	10767
21,83438	17472
21,83850	31703
21,84263	58944
21,84675	93415
21,85087	153682
21,85500	231343
21,85912	341806
21,86323	462997
21,86737	591773
21,87148	703000
21,87560	786629
21,87972	823333
21,88385	805562
21,88797	740475
21,89208	645037
21,89622	534610
21,90033	431612
21,90445	345210
21,90858	270868
21,91270	213770
21,91682	168838
21,92095	136982
21,92507	116303
21,92918	95645
21,93332	80078
21,93743	71715
21,94155	63666
21,94568	54762
21,94980	49847
21,95392	43436
21,95805	40001
21,96217	35902
21,96628	34666
21,97040	31278
21,97453	29538
21,97865	26607
21,98277	26157
21,98690	25340
21,99102	22669
21,99513	22838
21,99927	21625
22,00338	19830
22,00750	19608
22,01163	17635
22,01575	18807
22,01987	16377
22,02400	16751
22,02812	15913
22,03223	15179
22,03637	13382
22,04048	13833
22,04460	12511
22,04873	11274
22,05285	11156
22,05697	10508
22,06108	10722
22,06522	10834
22,06933	10322
22,07345	10026
22,07758	9714
22,08170	8469
22,08582	9713
22,08995	10010
22,09407	9498
22,09818	8372
22,10232	9693
22,10643	7816
22,11055	8313
22,11468	9280
22,11880	7824
22,12292	8248
22,12705	9320
22,13117	9351
22,13528	9651
22,13942	10087
22,14353	12301
22,14765	20533
22,15177	32610
22,15590	57882
22,16002	94034
22,16413	146586
22,16827	223926
22,17238	302633
22,17650	391216
22,18063	476684
22,18475	551711
22,18887	599872
22,19300	608656
22,19712	576531
22,20123	528708
22,20537	460473
22,20948	396628
22,21360	318509
22,21773	252046
22,22185	202054
22,22597	160986
22,23010	128880
22,23422	107096
22,23833	85731
22,24247	72508
22,24658	61599
22,25070	53812
22,25482	44781
22,25895	41644
22,26307	36678
22,26718	33031
22,27132	31357
22,27543	27727
22,27955	26449
22,28368	24824
22,28780	22999
22,29192	21474
22,29605	18754
22,30017	18315
22,30428	17797
22,30842	16977
22,31253	16058
22,31665	14861
22,32078	14244
22,32490	13633
22,32902	12206
22,33315	12453
22,33727	11488
22,34138	11631
22,34550	10753
22,34963	11245
22,35375	10822
22,35787	9708
22,36200	9236
22,36612	9434
22,37023	9187
22,37437	9607
22,37848	9287
22,38260	8631
22,38673	9319
22,39085	8133
22,39497	7260
22,39910	7960
22,40322	7683
22,40733	8186
22,41147	6977
22,41558	10108
22,41970	6420
22,42383	7930
22,42795	6969
22,43207	7255
22,43618	7173
22,44032	7092
22,44443	5943
22,44855	6264
22,45268	6175
22,45680	6596
22,46092	7446
22,46505	8243
22,46917	7080
22,47328	6230
22,47742	6796
22,48153	6615
22,48565	7821
22,48978	6290
22,49390	5837
22,49802	8436
22,50215	6030
22,50627	5964
22,51038	7928
22,51452	8223
22,51863	8454
22,52275	8075
22,52687	8356
22,53100	8557
22,53512	8018
22,53923	7566
22,54337	7555
22,54748	7557
22,55160	7150
22,55573	6462
22,55985	6696
22,56397	5295
22,56810	6771
22,57222	5111
22,57633	4460
22,58047	6523
22,58458	6116
22,58870	6286
22,59283	5233
22,59695	5735
22,60107	4524
22,60520	6548
22,60932	7618
22,61343	5735
22,61755	4958
22,62168	6323
22,62580	8385
22,62992	9357
22,63405	18078
22,63817	30582
22,64228	53094
22,64642	95517
22,65053	163153
22,65465	264388
22,65878	404792
22,66290	582349
22,66702	790161
22,67115	1012313
22,67527	1255411
22,67938	1487701
22,68352	1697628
22,68763	1877165
22,69175	2006108
22,69588	2034304
22,70000	1966488
22,70412	1834324
22,70823	1623850
22,71237	1360589
22,71648	1103452
22,72060	879209
22,72473	684657
22,72885	538958
22,73297	434334
22,73710	350971
22,74122	290618
22,74533	238985
22,74947	205023
22,75358	178102
22,75770	156593
22,76183	138724
22,76595	120878
22,77007	108813
22,77420	97982
22,77832	91074
22,78243	84771
22,78657	77050
22,79068	73914
22,79480	68479
22,79892	62653
22,80305	57356
22,80717	55952
22,81128	52467
22,81542	47220
22,81953	45332
22,82365	44916
22,82778	40240
22,83190	36729
22,83602	37151
22,84015	37480
22,84427	35486
22,84838	33668
22,85252	32120
22,85663	30576
22,86075	29266
22,86488	27045
22,86900	27056
22,87312	25961
22,87725	24739
22,88137	24448
22,88548	23907
22,88960	22227
22,89373	21662
22,89785	21709
22,90197	19209
22,90610	19376
22,91022	18552
22,91433	18098
22,91847	17543
22,92258	18221
22,92670	20107
22,93083	21446
22,93495	23703
22,93907	33253
22,94320	49222
22,94732	71010
22,95143	109909
22,95557	160671
22,95968	226936
22,96380	309900
22,96793	396863
22,97205	470965
22,97617	521734
22,98028	550259
22,98442	546826
22,98853	510249
22,99265	463486
22,99678	407992
23,00090	354496
23,00502	311238
23,00915	299586
23,01327	288998
23,01738	311987
23,02152	351467
23,02563	398180
23,02975	450488
23,03388	504143
23,03800	528064
23,04212	532349
23,04625	509707
23,05037	471270
23,05448	423279
23,05862	364152
23,06273	316010
23,06685	267428
23,07097	237214
23,07510	216795
23,07922	220271
23,08333	249232
23,08747	300479
23,09158	383382
23,09570	475562
23,09983	582737
23,10395	682841
23,10807	752746
23,11220	797601
23,11632	781130
23,12043	744355
23,12457	675223
23,12868	569687
23,13280	478710
23,13693	391126
23,14105	318273
23,14517	261871
23,14930	211727
23,15342	178363
23,15753	148461
23,16165	127909
23,16578	114196
23,16990	98851
23,17402	88741
23,17815	77937
23,18227	72455
23,18638	68958
23,19052	61709
23,19463	58360
23,19875	53123
23,20288	49954
23,20700	45030
23,21112	40460
23,21525	40266
23,21937	40977
23,22348	35389
23,22762	33546
23,23173	32005
23,23585	31374
23,23998	28861
23,24410	28037
23,24822	29044
23,25233	26117
23,25647	26266
23,26058	24313
23,26470	23118
23,26883	21943
23,27295	22364
23,27707	21495
23,28120	20714
23,28532	20359
23,28943	19633
23,29357	20063
23,29768	18351
23,30180	19069
23,30593	17716
23,31005	19195
23,31417	17226
23,31830	17750
23,32242	17766
23,32653	17093
23,33067	17480
23,33478	17253
23,33890	16137
23,34302	15598
23,34715	16802
23,35127	16408
23,35538	15990
23,35952	15351
23,36363	15081
23,36775	14624
23,37188	14015
23,37600	13479
23,38012	13661
23,38425	14008
23,38837	13242
23,39248	13613
23,39662	13219
23,40073	13098
23,40485	15841
23,40898	16265
23,41310	24199
23,41722	34201
23,42135	49345
23,42547	78521
23,42958	122791
23,43370	190900
23,43783	276786
23,44195	383239
23,44607	496851
23,45020	623731
23,45432	727220
23,45843	807300
23,46257	839460
23,46668	828087
23,47080	763010
23,47493	672159
23,47905	556164
23,48317	451443
23,48730	368693
23,49142	297574
23,49553	242291
23,49967	197966
23,50378	168162
23,50790	142937
23,51203	119897
23,51615	105983
23,52027	93661
23,52438	84143
23,52852	77836
23,53263	69702
23,53675	62163
23,54088	59686
23,54500	56279
23,54912	51631
23,55325	47165
23,55737	46899
23,56148	41514
23,56562	40334
23,56973	38429
23,57385	37754
23,57798	34811
23,58210	36184
23,58622	32003
23,59035	33010
23,59447	30853
23,59858	30928
23,60272	30639
23,60683	29398
23,61095	26914
23,61507	28030
23,61920	24747
23,62332	26428
23,62743	26837
23,63157	23688
23,63568	21949
23,63980	22210
23,64393	23368
23,64805	21662
23,65217	23434
23,65630	21057
23,66042	21630
23,66453	21326
23,66867	21542
23,67278	21104
23,67690	22448
23,68103	22712
23,68515	21577
23,68927	20375
23,69340	19066
23,69752	19970
23,70163	19461
23,70575	18357
23,70988	18937
23,71400	18649
23,71812	18792
23,72225	24429
23,72637	31435
23,73048	48675
23,73462	72871
23,73873	113612
23,74285	168932
23,74698	244097
23,75110	335449
23,75522	424151
23,75935	517636
23,76347	596161
23,76758	634969
23,77172	658600
23,77583	623974
23,77995	563995
23,78408	496951
23,78820	422436
23,79232	346321
23,79643	279268
23,80057	228132
23,80468	193990
23,80880	171227
23,81293	167110
23,81705	173923
23,82117	197902
23,82530	234144
23,82942	281152
23,83353	330022
23,83767	391276
23,84178	435230
23,84590	456250
23,85003	467053
23,85415	453009
23,85827	423007
23,86240	379891
23,86652	328429
23,87063	276180
23,87477	227618
23,87888	191952
23,88300	157545
23,88713	130242
23,89125	109491
23,89537	95784
23,89948	84018
23,90362	70272
23,90773	63981
23,91185	57021
23,91598	51015
23,92010	48463
23,92422	44704
23,92835	43701
23,93247	39438
23,93658	36016
23,94072	32772
23,94483	31400
23,94895	30358
23,95308	29721
23,95720	28579
23,96132	27714
23,96545	26057
23,96957	24916
23,97368	23483
23,97782	23787
23,98193	22742
23,98605	22983
23,99017	22024
23,99430	22479
23,99842	21605
24,00253	21214
24,00667	21030
24,01078	19453
24,01490	18987
24,01903	19703
24,02315	19119
24,02727	19055
24,03140	20079
24,03552	18136
24,03963	17817
24,04377	18691
24,04788	18005
24,05200	17735
24,05613	17826
24,06025	17309
24,06437	17165
24,06850	17566
24,07262	17494
24,07673	14566
24,08085	17921
24,08498	15916
24,08910	14936
24,09322	14932
24,09735	15527
24,10147	14284
24,10558	14718
24,10972	13187
24,11383	14280
24,11795	14263
24,12208	13561
24,12620	13803
24,13032	14840
24,13445	14283
24,13857	13781
24,14268	15446
24,14682	14656
24,15093	16489
24,15505	14771
24,15918	18706
24,16330	22958
24,16742	30417
24,17153	39284
24,17567	59287
24,17978	91649
24,18390	140268
24,18803	210037
24,19215	303003
24,19627	435830
24,20040	583177
24,20452	761935
24,20863	955119
24,21277	1159864
24,21688	1383966
24,22100	1548842
24,22513	1655918
24,22925	1673006
24,23337	1583490
24,23750	1407968
24,24162	1181671
24,24573	961454
24,24987	755309
24,25398	613342
24,25810	483463
24,26222	395879
24,26635	321269
24,27047	274656
24,27458	237126
24,27872	207452
24,28283	185088
24,28695	160080
24,29108	144794
24,29520	133715
24,29932	121050
24,30345	108024
24,30757	102804
24,31168	94655
24,31582	91978
24,31993	84466
24,32405	77448
24,32818	74456
24,33230	68661
24,33642	66778
24,34055	61729
24,34467	59280
24,34878	58755
24,35290	54112
24,35703	53514
24,36115	51006
24,36527	49943
24,36940	49827
24,37352	44970
24,37763	45631
24,38177	45995
24,38588	41174
24,39000	41049
24,39413	41250
24,39825	40132
24,40237	38931
24,40650	40198
24,41062	38950
24,41473	37069
24,41887	37190
24,42298	37577
24,42710	35384
24,43123	34862
24,43535	33005
24,43947	32918
24,44358	32279
24,44772	33014
24,45183	30847
24,45595	31659
24,46008	29844
24,46420	28779
24,46832	29233
24,47245	26359
24,47657	25875
24,48068	27077
24,48482	25944
24,48893	24281
24,49305	25812
24,49718	25967
24,50130	24935
24,50542	27165
24,50955	24760
24,51367	22465
24,51778	24089
24,52192	24294
24,52603	22946
24,53015	21865
24,53427	23827
24,53840	23355
24,54252	22985
24,54663	22763
24,55077	21987
24,55488	21169
24,55900	23367
24,56313	22363
24,56725	22765
24,57137	28468
24,57550	30966
24,57962	41447
24,58373	59501
24,58787	83369
24,59198	120623
24,59610	174957
24,60023	249347
24,60435	340115
24,60847	447717
24,61260	549872
24,61672	651347
24,62083	725461
24,62495	771620
24,62908	768354
24,63320	722986
24,63732	657444
24,64145	573404
24,64557	488699
24,64968	406632
24,65382	332394
24,65793	279259
24,66205	229647
24,66618	195702
24,67030	170029
24,67442	151157
24,67855	131601
24,68267	118403
24,68678	104734
24,69092	95529
24,69503	87691
24,69915	78971
24,70328	74381
24,70740	68498
24,71152	65183
24,71563	61277
24,71977	58117
24,72388	55393
24,72800	52296
24,73213	48136
24,73625	48470
24,74037	47021
24,74450	43421
24,74862	40733
24,75273	40245
24,75687	36946
24,76098	35861
24,76510	36244
24,76923	33407
24,77335	33219
24,77747	31560
24,78160	30009
24,78572	30156
24,78983	30962
24,79397	31416
24,79808	29450
24,80220	29534
24,80632	28302
24,81045	27996
24,81457	25499
24,81868	27948
24,82282	24336
24,82693	25948
24,83105	26456
24,83518	23985
24,83930	24667
24,84342	25076
24,84755	22356
24,85167	24579
24,85578	24031
24,85992	23556
24,86403	23459
24,86815	22605
24,87228	22060
24,87640	21047
24,88052	20300
24,88465	20808
24,88877	19319
24,89288	21852
24,89700	19226
24,90113	21202
24,90525	21822
24,90937	23405
24,91350	23307
24,91762	25338
24,92173	23886
24,92587	26240
24,92998	25510
24,93410	25313
24,93823	28295
24,94235	26159
24,94647	26651
24,95060	27311
24,95472	25505
24,95883	23885
24,96297	23063
24,96708	21853
24,97120	21057
24,97533	21265
24,97945	18894
24,98357	19139
24,98768	19524
24,99182	18960
24,99593	20091
25,00005	20074
25,00418	19382
25,00830	19081
25,01242	19324
25,01655	17511
25,02067	19213
25,02478	18337
25,02892	18927
25,03303	18187
25,03715	18267
25,04128	17476
25,04540	16529
25,04952	17777
25,05365	17183
25,05777	16660
25,06188	16986
25,06602	15611
25,07013	16938
25,07425	18133
25,07837	17045
25,08250	18384
25,08662	18692
25,09073	20815
25,09487	21072
25,09898	21392
25,10310	20894
25,10723	22286
25,11135	20998
25,11547	20457
25,11960	20280
25,12372	18255
25,12783	17225
25,13197	17134
25,13608	18308
25,14020	17583
25,14433	17831
25,14845	20259
25,15257	17555
25,15670	19347
25,16082	19154
25,16493	19462
25,16905	19375
25,17318	19458
25,17730	19621
25,18142	19360
25,18555	19818
25,18967	20492
25,19378	20009
25,19792	21245
25,20203	20359
25,20615	20203
25,21028	18585
25,21440	18581
25,21852	17921
25,22265	17625
25,22677	18372
25,23088	17503
25,23502	15980
25,23913	16853
25,24325	15627
25,24738	16744
25,25150	14695
25,25562	15323
25,25973	14519
25,26387	14637
25,26798	14596
25,27210	14972
25,27623	15955
25,28035	14484
25,28447	15501
25,28860	15329
25,29272	15673
25,29683	15484
25,30097	16303
25,30508	14836
25,30920	16600
25,31333	13668
25,31745	16879
25,32157	16303
25,32570	15774
25,32982	15540
25,33393	15801
25,33807	15567
25,34218	13445
25,34630	16029
25,35042	14143
25,35455	14735
25,35867	17111
25,36278	14482
25,36692	13437
25,37103	13085
25,37515	14524
25,37928	14801
25,38340	14370
25,38752	14539
25,39165	16458
25,39577	14686
25,39988	16162
25,40402	15708
25,40813	14539
25,41225	14578
25,41638	15507
25,42050	15883
25,42462	16385
25,42875	14174
25,43287	16054
25,43698	14741
25,44110	15570
25,44523	15048
25,44935	15915
25,45347	15296
25,45760	15461
25,46172	16926
25,46583	14834
25,46997	16647
25,47408	16254
25,47820	16599
25,48233	15463
25,48645	14946
25,49057	15861
25,49470	15181
25,49882	15424
25,50293	16418
25,50707	14830
25,51118	14338
25,51530	14345
25,51943	13705
25,52355	14209
25,52767	14349
25,53180	14158
25,53592	14859
25,54003	14650
25,54415	14537
25,54828	13217
25,55240	13958
25,55652	15041
25,56065	14123
25,56477	14808
25,56888	14779
25,57302	14800
25,57713	13990
25,58125	14730
25,58538	14578
25,58950	14038
25,59362	13021
25,59775	14652
25,60187	14628
25,60598	14453
25,61012	14345
25,61423	14171
25,61835	14249
25,62248	15080
25,62660	12926
25,63072	14506
25,63483	14479
25,63897	14098
25,64308	13681
25,64720	13719
25,65133	14670
25,65545	14836
25,65957	13312
25,66370	13752
25,66782	13504
25,67193	15644
25,67607	14140
25,68018	15663
25,68430	14791
25,68843	14233
25,69255	13850
25,69667	14483
25,70080	14627
25,70492	13621
25,70903	14264
25,71317	14187
25,71728	14317
25,72140	13314
25,72552	15913
25,72965	14360
25,73377	15811
25,73788	15308
25,74202	14794
25,74613	14924
25,75025	17104
25,75438	16081
25,75850	17395
25,76262	20153
25,76675	23004
25,77087	27714
25,77498	35303
25,77912	49869
25,78323	66404
25,78735	91877
25,79148	125198
25,79560	162228
25,79972	204238
25,80385	246446
25,80797	281166
25,81208	315041
25,81620	335660
25,82033	342234
25,82445	336462
25,82857	323304
25,83270	290535
25,83682	265216
25,84093	234973
25,84507	204071
25,84918	176429
25,85330	151332
25,85743	129795
25,86155	112063
25,86567	98637
25,86980	85126
25,87392	77411
25,87803	67853
25,88217	60574
25,88628	55413
25,89040	50930
25,89453	50348
25,89865	43276
25,90277	44305
25,90688	40419
25,91102	36777
25,91513	36340
25,91925	35043
25,92338	33329
25,92750	31443
25,93162	31569
25,93575	28375
25,93987	29224
25,94398	29026
25,94812	27563
25,95223	26911
25,95635	26895
25,96048	25793
25,96460	23647
25,96872	23720
25,97285	22684
25,97697	23754
25,98108	22414
25,98522	20205
25,98933	21323
25,99345	22300
25,99757	22113
26,00170	22438
26,00582	20144
26,00993	19935
26,01407	19576
26,01818	20394
26,02230	20440
26,02643	19005
26,03055	19256
26,03467	18062
26,03880	20265
26,04292	19941
26,04703	19226
26,05117	18938
26,05528	18111
26,05940	19529
26,06353	19114
26,06765	19426
26,07177	18952
26,07590	19459
26,08002	19115
26,08413	18290
26,08825	17364
26,09238	18140
26,09650	15592
26,10062	18121
26,10475	17223
26,10887	16697
26,11298	18261
26,11712	18329
26,12123	20580
26,12535	18273
26,12948	17082
26,13360	17521
26,13772	16517
26,14185	17525
26,14597	17071
26,15008	16816
26,15422	17185
26,15833	19408
26,16245	17334
26,16658	17271
26,17070	16711
26,17482	17901
26,17893	15970
26,18307	16253
26,18718	15210
26,19130	16452
26,19543	17903
26,19955	15915
26,20367	16929
26,20780	15449
26,21192	17183
26,21603	17824
26,22017	16173
26,22428	16001
26,22840	17433
26,23253	16728
26,23665	17805
26,24077	17793
26,24490	18002
26,24902	17973
26,25313	17706
26,25727	17174
26,26138	17660
26,26550	17975
26,26962	19683
26,27375	16263
26,27787	16204
26,28198	16882
26,28612	15435
26,29023	16133
26,29435	14417
26,29848	16001
26,30260	16874
26,30672	14841
26,31085	14946
26,31497	15749
26,31908	14337
26,32322	14639
26,32733	14597
26,33145	16279
26,33558	16054
26,33970	15777
26,34382	16403
26,34795	13940
26,35207	15566
26,35618	17499
26,36030	15156
26,36443	15821
26,36855	17633
26,37267	15785
26,37680	16349
26,38092	16312
26,38503	16662
26,38917	15619
26,39328	17214
26,39740	17351
26,40153	16108
26,40565	16744
26,40977	16130
26,41390	15049
26,41802	16715
26,42213	16513
26,42627	16297
26,43038	16764
26,43450	16371
26,43863	16264
26,44275	15406
26,44687	14802
26,45098	16227
26,45512	16034
26,45923	15471
26,46335	14877
26,46748	15643
26,47160	15358
26,47572	15607
26,47985	17612
26,48397	15964
26,48808	16597
26,49222	15979
26,49633	16384
26,50045	16365
26,50458	16188
26,50870	17853
26,51282	16392
26,51695	17274
26,52107	16206
26,52518	16139
26,52932	17375
26,53343	15604
26,53755	15910
26,54167	14801
26,54580	15211
26,54992	15872
26,55403	16602
26,55817	15609
26,56228	16476
26,56640	15133
26,57053	16795
26,57465	16826
26,57877	15315
26,58290	16776
26,58702	16717
26,59113	16075
26,59527	16740
26,59938	16858
26,60350	16687
26,60763	17130
26,61175	17477
26,61587	19018
26,62000	18095
26,62412	17251
26,62823	16043
26,63235	17211
26,63648	15927
26,64060	15160
26,64472	16787
26,64885	18477
26,65297	14319
26,65708	15187
26,66122	18217
26,66533	14730
26,66945	16585
26,67358	16106
26,67770	16429
26,68182	14576
26,68595	16071
26,69007	15642
26,69418	17405
26,69832	16891
26,70243	16890
26,70655	15713
26,71068	16252
26,71480	14280
26,71892	16482
26,72303	17260
26,72717	16725
26,73128	16705
26,73540	16812
26,73953	16130
26,74365	15901
26,74777	16365
26,75190	15383
26,75602	14759
26,76013	14643
26,76427	16028
26,76838	17430
26,77250	16328
26,77663	16047
26,78075	16501
26,78487	15195
26,78900	14852
26,79312	14548
26,79723	15095
26,80137	17126
26,80548	15230
26,80960	15612
26,81372	15233
26,81785	17224
26,82197	18176
26,82608	16113
26,83022	14636
26,83433	16633
26,83845	16492
26,84258	16043
26,84670	16552
26,85082	15835
26,85495	15968
26,85907	15997
26,86318	15179
26,86732	17555
26,87143	16473
26,87555	16218
26,87968	16025
26,88380	15200
26,88792	17601
26,89205	17629
26,89617	16331
26,90028	16903
26,90440	17393
26,90853	18189
