D:\MassHunter\GCMS\1\data\Amal\Constant flow\150C_1ml-min_10C-min_1.D Thu Jul 25 20:05:21 2024
Start of data points
4,69137	6389707
4,69580	6015390
4,70025	5660580
4,70468	5350971
4,70913	5034029
4,71357	4729961
4,71802	4460675
4,72245	4189957
4,72690	3948026
4,73133	3714261
4,73578	3491539
4,74022	3289046
4,74467	3106459
4,74910	2933277
4,75355	2772968
4,75798	2601885
4,76243	2460584
4,76687	2321388
4,77132	2184085
4,77575	2069095
4,78020	1929386
4,78463	1842910
4,78908	1729503
4,79352	1640125
4,79797	1528643
4,80240	1452273
4,80685	1375395
4,81128	1296032
4,81573	1220158
4,82018	1157329
4,82462	1091457
4,82907	1038015
4,83350	978794
4,83795	930473
4,84238	880607
4,84683	822397
4,85127	785668
4,85572	744610
4,86015	705011
4,86460	662594
4,86903	627517
4,87348	606927
4,87792	566265
4,88237	542035
4,88680	510009
4,89125	488685
4,89568	462359
4,90013	438359
4,90457	418639
4,90902	400038
4,91345	375254
4,91790	360604
4,92233	341027
4,92678	331847
4,93122	320317
4,93567	331072
4,94012	367683
4,94455	437751
4,94900	518763
4,95343	584694
4,95788	629404
4,96232	639179
4,96677	625937
4,97120	598784
4,97565	575224
4,98008	555559
4,98453	524674
4,98897	499285
4,99342	480413
4,99785	457655
5,00230	440291
5,00673	421636
5,01118	402296
5,01562	384450
5,02007	369424
5,02450	354301
5,02895	339138
5,03338	325933
5,03783	308412
5,04227	295594
5,04672	281211
5,05115	268223
5,05560	259858
5,06005	244493
5,06448	233833
5,06893	225238
5,07337	216274
5,07782	201245
5,08225	195557
5,08670	186641
5,09113	179216
5,09558	165452
5,10002	161962
5,10447	158508
5,10890	152818
5,11335	143330
5,11778	138703
5,12223	129672
5,12667	123224
5,13112	118511
5,13555	113582
5,14000	108494
5,14443	99260
5,14888	95354
5,15332	91523
5,15777	89062
5,16220	85123
5,16665	81515
5,17108	78149
5,17553	74870
5,17998	75637
5,18442	72972
5,18887	72067
5,19330	77309
5,19775	90318
5,20218	124511
5,20663	170632
5,21107	228163
5,21552	274942
5,21995	304250
5,22440	317878
5,22883	311887
5,23328	302506
5,23772	296373
5,24217	283711
5,24660	274385
5,25105	257571
5,25548	244968
5,25993	238163
5,26437	230911
5,26882	219607
5,27325	207365
5,27770	198915
5,28213	196799
5,28658	184499
5,29102	173053
5,29547	166700
5,29992	159284
5,30435	156637
5,30880	147958
5,31323	138687
5,31768	134579
5,32212	128085
5,32657	122755
5,33100	118188
5,33545	110452
5,33988	108205
5,34433	102319
5,34877	96413
5,35322	93861
5,35765	90214
5,36210	84436
5,36653	78905
5,37098	79588
5,37542	73369
5,37987	72028
5,38430	68026
5,38875	63045
5,39318	60221
5,39763	56606
5,40207	55911
5,40652	54763
5,41095	53082
5,41540	50881
5,41985	49693
5,42428	47977
5,42873	48270
5,43317	46743
5,43762	44421
5,44205	43716
5,44650	43490
5,45093	41762
5,45538	42844
5,45982	44086
5,46427	41402
5,46870	40527
5,47315	40273
5,47758	40385
5,48203	39524
5,48647	38747
5,49092	37456
5,49535	39637
5,49980	41193
5,50423	45313
5,50868	61721
5,51312	100682
5,51757	172351
5,52200	283229
5,52645	419677
5,53088	536570
5,53533	613530
5,53977	656280
5,54422	655531
5,54867	641751
5,55310	620560
5,55755	588577
5,56198	555247
5,56643	528569
5,57087	504995
5,57532	480872
5,57975	462627
5,58420	424836
5,58863	406989
5,59308	387467
5,59752	354778
5,60197	338854
5,60640	316157
5,61085	300782
5,61528	283890
5,61973	260871
5,62417	245788
5,62862	229854
5,63305	214352
5,63750	201393
5,64193	189423
5,64638	171937
5,65082	162192
5,65527	152960
5,65970	139088
5,66415	129093
5,66860	119470
5,67303	108112
5,67748	101415
5,68192	90692
5,68637	83874
5,69080	80404
5,69525	71868
5,69968	65876
5,70413	60818
5,70857	57136
5,71302	54668
5,71745	50024
5,72190	49209
5,72633	45678
5,73078	42442
5,73522	43156
5,73967	40884
5,74410	38856
5,74855	37973
5,75298	36994
5,75743	38174
5,76187	36305
5,76632	36757
5,77075	34568
5,77520	32704
5,77963	32122
5,78408	32846
5,78853	30367
5,79297	32814
5,79742	31300
5,80185	31997
5,80630	32738
5,81073	30595
5,81518	32732
5,81962	30644
5,82407	30727
5,82850	30643
5,83295	30670
5,83738	30289
5,84183	30863
5,84627	29247
5,85072	30057
5,85515	30266
5,85960	30831
5,86403	30776
5,86848	30697
5,87292	32745
5,87737	36781
5,88180	56668
5,88625	85675
5,89068	138542
5,89513	209689
5,89957	277924
5,90402	342282
5,90847	371270
5,91290	385340
5,91735	382810
5,92178	372718
5,92623	357505
5,93067	334016
5,93512	316219
5,93955	302160
5,94400	288237
5,94843	271688
5,95288	259353
5,95732	240494
5,96177	222303
5,96620	209793
5,97065	191780
5,97508	182918
5,97953	168818
5,98397	154381
5,98842	140646
5,99285	133183
5,99730	124940
6,00173	114294
6,00618	104269
6,01062	95574
6,01507	89124
6,01950	81575
6,02395	71810
6,02840	66160
6,03283	59703
6,03728	57363
6,04172	49742
6,04617	47907
6,05060	46353
6,05505	43695
6,05948	40711
6,06393	37225
6,06837	36246
6,07282	36624
6,07725	32666
6,08170	33198
6,08613	33270
6,09058	31320
6,09502	30888
6,09947	31799
6,10390	30470
6,10835	31303
6,11278	31109
6,11723	31029
6,12167	28459
6,12612	29020
6,13055	28070
6,13500	29290
6,13943	28159
6,14388	27573
6,14833	26075
6,15277	27609
6,15722	25688
6,16165	27236
6,16610	26319
6,17053	24415
6,17498	25893
6,17942	25836
6,18387	24408
6,18830	26290
6,19275	23982
6,19718	23119
6,20163	24315
6,20607	22243
6,21052	22825
6,21495	22072
6,21940	22190
6,22383	22264
6,22828	21947
6,23272	20390
6,23717	23098
6,24160	21056
6,24605	19691
6,25048	21696
6,25493	21010
6,25937	21940
6,26382	20769
6,26825	21446
6,27270	20227
6,27715	22182
6,28158	21891
6,28603	20725
6,29047	22577
6,29492	28328
6,29935	40997
6,30380	77220
6,30823	143320
6,31268	267994
6,31712	418473
6,32157	587275
6,32600	724965
6,33045	825541
6,33488	863049
6,33933	859911
6,34377	843098
6,34822	806413
6,35265	756846
6,35710	712094
6,36153	672197
6,36598	625270
6,37042	581370
6,37487	533264
6,37930	479807
6,38375	443398
6,38818	402767
6,39263	359395
6,39708	324399
6,40152	298552
6,40597	268745
6,41040	241557
6,41485	211573
6,41928	186517
6,42373	164586
6,42817	142287
6,43262	119258
6,43705	102066
6,44150	88929
6,44593	75836
6,45038	68925
6,45482	57745
6,45927	50650
6,46370	47908
6,46815	41235
6,47258	38763
6,47703	35740
6,48147	31385
6,48592	31949
6,49035	27931
6,49480	27268
6,49923	25165
6,50368	23112
6,50812	23665
6,51257	22749
6,51702	23243
6,52145	22349
6,52590	24089
6,53033	22953
6,53478	22453
6,53922	21786
6,54367	21494
6,54810	21341
6,55255	20756
6,55698	22226
6,56143	21402
6,56587	21741
6,57032	21429
6,57475	22158
6,57920	23049
6,58363	23556
6,58808	22584
6,59252	22534
6,59697	22832
6,60140	23197
6,60585	23515
6,61028	22003
6,61473	21298
6,61917	21754
6,62362	20663
6,62805	21381
6,63250	20213
6,63695	20659
6,64138	21026
6,64583	19753
6,65027	19680
6,65472	19010
6,65915	21003
6,66360	23632
6,66803	31863
6,67248	49793
6,67692	86060
6,68137	141245
6,68580	213089
6,69025	294017
6,69468	364798
6,69913	413335
6,70357	436495
6,70802	437998
6,71245	423345
6,71690	410977
6,72133	387531
6,72578	365470
6,73022	332305
6,73467	304037
6,73910	280765
6,74355	254781
6,74798	231952
6,75243	208049
6,75688	186737
6,76132	176322
6,76577	163047
6,77020	163466
6,77465	186898
6,77908	233736
6,78353	302915
6,78797	382961
6,79242	448595
6,79685	498461
6,80130	516407
6,80573	520332
6,81018	510256
6,81462	478419
6,81907	452218
6,82350	422240
6,82795	387414
6,83238	356349
6,83683	323976
6,84127	288461
6,84572	261544
6,85015	229651
6,85460	202284
6,85903	178930
6,86348	151642
6,86792	134805
6,87237	113681
6,87682	97284
6,88125	81166
6,88570	70353
6,89013	62177
6,89458	51961
6,89902	45723
6,90347	40988
6,90790	35320
6,91235	32493
6,91678	29383
6,92123	26124
6,92567	25891
6,93012	23734
6,93455	22760
6,93900	22063
6,94343	20519
6,94788	20846
6,95232	19342
6,95677	19561
6,96120	17836
6,96565	18584
6,97008	18631
6,97453	19402
6,97897	18790
6,98342	18571
6,98785	18346
6,99230	17054
6,99673	18318
7,00118	15462
7,00563	17393
7,01007	17539
7,01452	17326
7,01895	19043
7,02340	17889
7,02783	20316
7,03228	18631
7,03672	19693
7,04117	19716
7,04560	20249
7,05005	20570
7,05448	19830
7,05893	20409
7,06337	20402
7,06782	18089
7,07225	18404
7,07670	17689
7,08113	17767
7,08558	16254
7,09002	15862
7,09447	15353
7,09890	15814
7,10335	16025
7,10778	15645
7,11223	14288
7,11667	14973
7,12112	16431
7,12557	16827
7,13000	15951
7,13445	15751
7,13888	15076
7,14333	15594
7,14777	15374
7,15222	16305
7,15665	17037
7,16110	19758
7,16553	31760
7,16998	54060
7,17442	95064
7,17887	158341
7,18330	240122
7,18775	331356
7,19218	417789
7,19663	473876
7,20107	507514
7,20552	506954
7,20995	499425
7,21440	475119
7,21883	438264
7,22328	405856
7,22772	362829
7,23217	327523
7,23660	290637
7,24105	252740
7,24550	222789
7,24993	191540
7,25438	166367
7,25882	145299
7,26327	127130
7,26770	135976
7,27215	174059
7,27658	276226
7,28103	453140
7,28547	700384
7,28992	990818
7,29435	1299657
7,29880	1554023
7,30323	1711399
7,30768	1760466
7,31212	1737364
7,31657	1651925
7,32100	1541157
7,32545	1389771
7,32988	1238920
7,33433	1098912
7,33877	966405
7,34322	833114
7,34765	709935
7,35210	596683
7,35653	490561
7,36098	401218
7,36543	320662
7,36987	253293
7,37432	200957
7,37875	162659
7,38320	127641
7,38763	104377
7,39208	82940
7,39652	71674
7,40097	60214
7,40540	52857
7,40985	46806
7,41428	41543
7,41873	36681
7,42317	34669
7,42762	31495
7,43205	28140
7,43650	27411
7,44093	25872
7,44538	24083
7,44982	23705
7,45427	22130
7,45870	22818
7,46315	22583
7,46758	20984
7,47203	20774
7,47647	20100
7,48092	19874
7,48537	19679
7,48980	19014
7,49425	18415
7,49868	18391
7,50313	17160
7,50757	18663
7,51202	18243
7,51645	19293
7,52090	18736
7,52533	18885
7,52978	17814
7,53422	18410
7,53867	19126
7,54310	18849
7,54755	18468
7,55198	16648
7,55643	17637
7,56087	15852
7,56532	16845
7,56975	15873
7,57420	14898
7,57863	15690
7,58308	14390
7,58752	16018
7,59197	15727
7,59640	16886
7,60085	15765
7,60530	17651
7,60973	18298
7,61418	22580
7,61862	30742
7,62307	53564
7,62750	88676
7,63195	152139
7,63638	239167
7,64083	344747
7,64527	439024
7,64972	511248
7,65415	566218
7,65860	578659
7,66303	567181
7,66748	533894
7,67192	492065
7,67637	450133
7,68080	391816
7,68525	345041
7,68968	294914
7,69413	241792
7,69857	202970
7,70302	165116
7,70745	137065
7,71190	109343
7,71633	90859
7,72078	75191
7,72522	62656
7,72967	51993
7,73412	44715
7,73855	36805
7,74300	32591
7,74743	29004
7,75188	26109
7,75632	24042
7,76077	22056
7,76520	21166
7,76965	21175
7,77408	18522
7,77853	19013
7,78297	17993
7,78742	20435
7,79185	25204
7,79630	39708
7,80073	70694
7,80518	123305
7,80962	212446
7,81407	322997
7,81850	439371
7,82295	543705
7,82738	612321
7,83183	647551
7,83627	657394
7,84072	635166
7,84515	594633
7,84960	525182
7,85405	458778
7,85848	391575
7,86293	325760
7,86737	269635
7,87182	215462
7,87625	170524
7,88070	134111
7,88513	106266
7,88958	87213
7,89402	68443
7,89847	53828
7,90290	46479
7,90735	37832
7,91178	34125
7,91623	30722
7,92067	27729
7,92512	26887
7,92955	26092
7,93400	23967
7,93843	23773
7,94288	24251
7,94732	24583
7,95177	23475
7,95620	22998
7,96065	22828
7,96508	20365
7,96953	22123
7,97398	19350
7,97842	19689
7,98287	19003
7,98730	17421
7,99175	18256
7,99618	15558
8,00063	15041
8,00507	14494
8,00952	14908
8,01395	16163
8,01840	14247
8,02283	14882
8,02728	14192
8,03172	14136
8,03617	12585
8,04060	13700
8,04505	14526
8,04948	14359
8,05393	14407
8,05837	14156
8,06282	15515
8,06725	14099
8,07170	13536
8,07613	14070
8,08058	13468
8,08502	14780
8,08947	14858
8,09392	13847
8,09835	14450
8,10280	14284
8,10723	14847
8,11168	14596
8,11612	15054
8,12057	13324
8,12500	13225
8,12945	15335
8,13388	16077
8,13833	14815
8,14277	16618
8,14722	16289
8,15165	20090
8,15610	30551
8,16053	48115
8,16498	90193
8,16942	155612
8,17387	251698
8,17830	379156
8,18275	493557
8,18718	593553
8,19163	661565
8,19607	680864
8,20052	682778
8,20495	622549
8,20940	554001
8,21385	476438
8,21828	409115
8,22273	331699
8,22717	269707
8,23162	213442
8,23605	163477
8,24050	128854
8,24493	99575
8,24938	81118
8,25382	65246
8,25827	52103
8,26270	43766
8,26715	37285
8,27158	34770
8,27603	31049
8,28047	26509
8,28492	25407
8,28935	24598
8,29380	22330
8,29823	22671
8,30268	22748
8,30712	20450
8,31157	20869
8,31600	18302
8,32045	19643
8,32488	18836
8,32933	24509
8,33378	34759
8,33822	66377
8,34267	131176
8,34710	252493
8,35155	432117
8,35598	672825
8,36043	957455
8,36487	1227887
8,36932	1454582
8,37375	1573380
8,37820	1572253
8,38263	1504092
8,38708	1353259
8,39152	1153286
8,39597	957089
8,40040	753640
8,40485	582096
8,40928	441126
8,41373	331443
8,41817	248419
8,42262	187120
8,42705	144229
8,43150	111380
8,43593	92125
8,44038	76330
8,44482	61599
8,44927	57084
8,45370	48315
8,45815	43190
8,46260	40601
8,46703	34638
8,47148	33979
8,47592	33109
8,48037	30193
8,48480	28992
8,48925	27761
8,49368	27765
8,49813	26421
8,50257	24593
8,50702	23732
8,51145	22096
8,51590	22261
8,52033	21202
8,52478	21631
8,52922	20941
8,53367	20439
8,53810	21948
8,54255	29101
8,54698	42672
8,55143	73895
8,55587	131352
8,56032	220015
8,56475	338382
8,56920	488593
8,57363	608582
8,57808	717113
8,58253	777653
8,58697	772166
8,59142	716428
8,59585	641343
8,60030	544816
8,60473	456234
8,60918	355350
8,61362	279124
8,61807	215274
8,62250	164817
8,62695	123895
8,63138	96677
8,63583	77519
8,64027	63344
8,64472	53105
8,64915	47686
8,65360	50949
8,65803	64242
8,66248	105302
8,66692	182814
8,67137	335350
8,67580	550625
8,68025	818194
8,68468	1097113
8,68913	1346530
8,69357	1514192
8,69802	1570251
8,70247	1518689
8,70690	1357603
8,71135	1160990
8,71578	940848
8,72023	746739
8,72467	564914
8,72912	420608
8,73355	315256
8,73800	232687
8,74243	180839
8,74688	140558
8,75132	107719
8,75577	87990
8,76020	77476
8,76465	66047
8,76908	57575
8,77353	49280
8,77797	45056
8,78242	41039
8,78685	38194
8,79130	34666
8,79573	31723
8,80018	30919
8,80462	28213
8,80907	27994
8,81350	25483
8,81795	25469
8,82240	25492
8,82683	23383
8,83128	24116
8,83572	24308
8,84017	22421
8,84460	20377
8,84905	19545
8,85348	19547
8,85793	20139
8,86237	21150
8,86682	19860
8,87125	25301
8,87570	38191
8,88013	61003
8,88458	112515
8,88902	194247
8,89347	308291
8,89790	452123
8,90235	580868
8,90678	688441
8,91123	746791
8,91567	734671
8,92012	685870
8,92455	601415
8,92900	499450
8,93343	392483
8,93788	303148
8,94233	230714
8,94677	169056
8,95122	125923
8,95565	98760
8,96010	76413
8,96453	62404
8,96898	52827
8,97342	45413
8,97787	40165
8,98230	36062
8,98675	32037
8,99118	29962
8,99563	26898
9,00007	26646
9,00452	24239
9,00895	21824
9,01340	23270
9,01783	22831
9,02228	22048
9,02672	22108
9,03117	23939
9,03560	20994
9,04005	21099
9,04448	23056
9,04893	23238
9,05337	22768
9,05782	22470
9,06227	20392
9,06670	20095
9,07115	20949
9,07558	21786
9,08003	19170
9,08447	20966
9,08892	21457
9,09335	20270
9,09780	20344
9,10223	22444
9,10668	20698
9,11112	23149
9,11557	22466
9,12000	21407
9,12445	23397
9,12888	24783
9,13333	36087
9,13777	59552
9,14222	100042
9,14665	174217
9,15110	278630
9,15553	410109
9,15998	548948
9,16442	655729
9,16887	727512
9,17330	722089
9,17775	678074
9,18218	592718
9,18663	482701
9,19108	386723
9,19552	296054
9,19997	223435
9,20440	165285
9,20885	123746
9,21328	97454
9,21773	76139
9,22217	64064
9,22662	54206
9,23105	47009
9,23550	42597
9,23993	36986
9,24438	34330
9,24882	33887
9,25327	31429
9,25770	28818
9,26215	26336
9,26658	25654
9,27103	25556
9,27547	22867
9,27992	22805
9,28435	23283
9,28880	21096
9,29323	21457
9,29768	21259
9,30212	19238
9,30657	19757
9,31102	18693
9,31545	18333
9,31990	17033
9,32433	18540
9,32878	17643
9,33322	17714
9,33767	16958
9,34210	18242
9,34655	16320
9,35098	17183
9,35543	17855
9,35987	16903
9,36432	17696
9,36875	17251
9,37320	17777
9,37763	17103
9,38208	17014
9,38652	19054
9,39097	17181
9,39540	18334
9,39985	17743
9,40428	18414
9,40873	19594
9,41317	16239
9,41762	19609
9,42205	22222
9,42650	29068
9,43095	52311
9,43538	100413
9,43983	202121
9,44427	369263
9,44872	622951
9,45315	944718
9,45760	1300963
9,46203	1648178
9,46648	1905871
9,47092	1982206
9,47537	1871863
9,47980	1623382
9,48425	1319770
9,48868	1068550
9,49313	894955
9,49757	808006
9,50202	797955
9,50645	815767
9,51090	832780
9,51533	812604
9,51978	748465
9,52422	653666
9,52867	549001
9,53310	442253
9,53755	346953
9,54198	264967
9,54643	208445
9,55088	158348
9,55532	132013
9,55977	105302
9,56420	90263
9,56865	78404
9,57308	70092
9,57753	59643
9,58197	57485
9,58642	54797
9,59085	48047
9,59530	44728
9,59973	40574
9,60418	40319
9,60862	37472
9,61307	33845
9,61750	33545
9,62195	33271
9,62638	34808
9,63083	33180
9,63527	32040
9,63972	31517
9,64415	32243
9,64860	29976
9,65303	30172
9,65748	28122
9,66192	27822
9,66637	26581
9,67082	26577
9,67525	27783
9,67970	29944
9,68413	37278
9,68858	55600
9,69302	96343
9,69747	162653
9,70190	266245
9,70635	378319
9,71078	503189
9,71523	613366
9,71967	671736
9,72412	666319
9,72855	608556
9,73300	525653
9,73743	429917
9,74188	333264
9,74632	259438
9,75077	218892
9,75520	216333
9,75965	252078
9,76408	353254
9,76853	493965
9,77297	665802
9,77742	813018
9,78185	899213
9,78630	917005
9,79075	864646
9,79518	738031
9,79963	597394
9,80407	459484
9,80852	343520
9,81295	261946
9,81740	195726
9,82183	152701
9,82628	124318
9,83072	97392
9,83517	83619
9,83960	71531
9,84405	65119
9,84848	55853
9,85293	53030
9,85737	48679
9,86182	44856
9,86625	43098
9,87070	40515
9,87513	37278
9,87958	35712
9,88402	35409
9,88847	33924
9,89290	33219
9,89735	30821
9,90178	29401
9,90623	27306
9,91067	27322
9,91512	24644
9,91957	28125
9,92400	26752
9,92845	24656
9,93288	25446
9,93733	27052
9,94177	26806
9,94622	26187
9,95065	25697
9,95510	26508
9,95953	26872
9,96398	27769
9,96842	32735
9,97287	47906
9,97730	74492
9,98175	129988
9,98618	231366
9,99063	377957
9,99507	563406
9,99952	763170
10,00395	940140
10,00840	1020338
10,01283	988146
10,01728	870310
10,02172	697681
10,02617	539623
10,03060	396614
10,03505	295939
10,03950	218754
10,04393	172162
10,04838	135438
10,05282	113928
10,05727	96983
10,06170	82166
10,06615	73027
10,07058	64678
10,07503	60146
10,07947	53615
10,08392	50054
10,08835	47717
10,09280	43100
10,09723	43475
10,10168	38208
10,10612	37199
10,11057	39069
10,11500	36662
10,11945	34966
10,12388	33209
10,12833	34813
10,13277	33885
10,13722	31006
10,14165	32113
10,14610	28658
10,15053	29657
10,15498	28134
10,15943	29336
10,16387	26417
10,16832	27657
10,17275	27274
10,17720	25940
10,18163	28365
10,18608	27975
10,19052	26049
10,19497	26007
10,19940	23860
10,20385	25863
10,20828	26190
10,21273	25647
10,21717	30574
10,22162	37077
10,22605	59360
10,23050	105300
10,23493	183826
10,23938	295579
10,24382	447285
10,24827	603121
10,25270	735024
10,25715	784940
10,26158	776266
10,26603	704434
10,27047	594872
10,27492	466534
10,27937	357908
10,28380	270812
10,28825	205588
10,29268	159659
10,29713	124319
10,30157	101150
10,30602	85575
10,31045	71412
10,31490	63835
10,31933	56351
10,32378	51778
10,32822	47647
10,33267	43091
10,33710	40936
10,34155	39725
10,34598	36896
10,35043	36035
10,35487	36244
10,35932	33415
10,36375	32205
10,36820	31797
10,37263	32423
10,37708	30301
10,38152	30670
10,38597	28960
10,39040	28488
10,39485	28355
10,39930	27864
10,40373	24800
10,40818	26245
10,41262	25502
10,41707	25993
10,42150	25253
10,42595	24689
10,43038	25125
10,43483	25077
10,43927	24112
10,44372	24980
10,44815	24269
10,45260	24206
10,45703	23075
10,46148	23841
10,46592	25199
10,47037	24237
10,47480	22499
10,47925	24371
10,48368	24567
10,48813	25174
10,49257	23487
10,49702	22028
10,50145	24142
10,50590	25020
10,51033	29137
10,51478	38116
10,51923	60281
10,52367	106460
10,52812	198575
10,53255	344269
10,53700	555796
10,54143	848780
10,54588	1196741
10,55032	1552512
10,55477	1850218
10,55920	2000993
10,56365	1957630
10,56808	1723921
10,57253	1407633
10,57697	1086081
10,58142	850277
10,58585	702671
10,59030	652370
10,59473	666510
10,59918	737500
10,60362	794366
10,60807	830414
10,61250	812409
10,61695	762570
10,62138	670510
10,62583	558148
10,63027	445951
10,63472	352240
10,63915	273138
10,64360	213970
10,64805	177641
10,65248	145978
10,65693	124118
10,66137	110074
10,66582	93891
10,67025	87191
10,67470	78575
10,67913	73138
10,68358	69219
10,68802	65243
10,69247	62282
10,69690	55398
10,70135	52394
10,70578	51253
10,71023	49784
10,71467	50061
10,71912	48076
10,72355	47285
10,72800	45367
10,73243	45697
10,73688	42643
10,74132	43107
10,74577	42517
10,75020	40715
10,75465	44957
10,75908	43896
10,76353	43816
10,76798	43604
10,77242	44444
10,77687	47742
10,78130	51191
10,78575	65287
10,79018	92924
10,79463	141510
10,79907	229522
10,80352	340289
10,80795	462843
10,81240	595844
10,81683	683758
10,82128	713552
10,82572	682085
10,83017	609444
10,83460	509919
10,83905	424359
10,84348	355892
10,84793	328556
10,85237	355885
10,85682	447080
10,86125	630633
10,86570	871650
10,87013	1144166
10,87458	1373611
10,87902	1520398
10,88347	1533497
10,88792	1431885
10,89235	1240153
10,89680	1005950
10,90123	791264
10,90568	609882
10,91012	465867
10,91457	363498
10,91900	286170
10,92345	231995
10,92788	194173
10,93233	164383
10,93677	143295
10,94122	126409
10,94565	113287
10,95010	102125
10,95453	93751
10,95898	84988
10,96342	81123
10,96787	73158
10,97230	69811
10,97675	65575
10,98118	62972
10,98563	60261
10,99007	57825
10,99452	57996
10,99895	55760
11,00340	54402
11,00785	51097
11,01228	49167
11,01673	43966
11,02117	47449
11,02562	46195
11,03005	42234
11,03450	41310
11,03893	40557
11,04338	40259
11,04782	39665
11,05227	39416
11,05670	38371
11,06115	37158
11,06558	39258
11,07003	42578
11,07447	55628
11,07892	80920
11,08335	129271
11,08780	205066
11,09223	323314
11,09668	474700
11,10112	646587
11,10557	808223
11,11000	902594
11,11445	922827
11,11888	861294
11,12333	756015
11,12778	613432
11,13222	488132
11,13667	383414
11,14110	303394
11,14555	244456
11,14998	199337
11,15443	173328
11,15887	144144
11,16332	126577
11,16775	112796
11,17220	101761
11,17663	94099
11,18108	89521
11,18552	80414
11,18997	77101
11,19440	71139
11,19885	68715
11,20328	63859
11,20773	60969
11,21217	59304
11,21662	57805
11,22105	54981
11,22550	52208
11,22993	52327
11,23438	49351
11,23882	50179
11,24327	46327
11,24772	47832
11,25215	47000
11,25660	45571
11,26103	43823
11,26548	44178
11,26992	41232
11,27437	38801
11,27880	38975
11,28325	39443
11,28768	38439
11,29213	39083
11,29657	37717
11,30102	36838
11,30545	36068
11,30990	36207
11,31433	35468
11,31878	35485
11,32322	35735
11,32767	35540
11,33210	35588
11,33655	35946
11,34098	42095
11,34543	54442
11,34987	77167
11,35432	117427
11,35875	187356
11,36320	290939
11,36763	417600
11,37208	558390
11,37653	665705
11,38097	738307
11,38542	739846
11,38985	692607
11,39430	594931
11,39873	501745
11,40318	403500
11,40762	319008
11,41207	253504
11,41650	202187
11,42095	165380
11,42538	140748
11,42983	117067
11,43427	104352
11,43872	91927
11,44315	83065
11,44760	73727
11,45203	72092
11,45648	72536
11,46092	79200
11,46537	98520
11,46980	136741
11,47425	188455
11,47868	265233
11,48313	358884
11,48757	445389
11,49202	517057
11,49647	553986
11,50090	553290
11,50535	516749
11,50978	469571
11,51423	398901
11,51867	327848
11,52312	259725
11,52755	210500
11,53200	169878
11,53643	141774
11,54088	114127
11,54532	99537
11,54977	86739
11,55420	76681
11,55865	72506
11,56308	62178
11,56753	62589
11,57197	55600
11,57642	54208
11,58085	50294
11,58530	47940
11,58973	44934
11,59418	45402
11,59862	42407
11,60307	42896
11,60750	39400
11,61195	40723
11,61640	40086
11,62083	38770
11,62528	39223
11,62972	35510
11,63417	35891
11,63860	36535
11,64305	40078
11,64748	41852
11,65193	50542
11,65637	66575
11,66082	99378
11,66525	151819
11,66970	236617
11,67413	367104
11,67858	538262
11,68302	749540
11,68747	994236
11,69190	1256207
11,69635	1474613
11,70078	1633889
11,70523	1654505
11,70967	1554263
11,71412	1378514
11,71855	1126611
11,72300	894227
11,72743	704347
11,73188	550783
11,73633	434962
11,74077	356790
11,74522	303465
11,74965	260231
11,75410	225808
11,75853	193459
11,76298	173945
11,76742	159143
11,77187	146055
11,77630	130190
11,78075	119231
11,78518	111795
11,78963	107833
11,79407	99855
11,79852	92457
11,80295	92296
11,80740	85464
11,81183	82115
11,81628	78387
11,82072	74376
11,82517	70516
11,82960	68028
11,83405	64665
11,83848	61453
11,84293	61730
11,84737	60905
11,85182	59650
11,85627	55904
11,86070	53509
11,86515	51838
11,86958	53732
11,87403	50978
11,87847	47169
11,88292	48098
11,88735	48297
11,89180	47636
11,89623	46341
11,90068	47142
11,90512	44070
11,90957	43126
11,91400	44433
11,91845	42539
11,92288	41562
11,92733	41616
11,93177	40795
11,93622	39856
11,94065	40955
11,94510	39177
11,94953	37924
11,95398	39321
11,95842	38862
11,96287	37908
11,96730	36082
11,97175	37662
11,97620	35223
11,98063	35566
11,98508	36048
11,98952	36160
11,99397	37737
11,99840	37882
12,00285	43405
12,00728	51573
12,01173	68999
12,01617	95754
12,02062	140221
12,02505	211487
12,02950	301783
12,03393	413233
12,03838	540907
12,04282	644993
12,04727	730365
12,05170	755220
12,05615	734862
12,06058	675771
12,06503	586523
12,06947	490816
12,07392	407275
12,07835	337275
12,08280	280830
12,08723	231952
12,09168	199392
12,09612	177323
12,10057	149280
12,10502	132426
12,10945	123151
12,11390	110012
12,11833	98201
12,12278	94898
12,12722	87434
12,13167	81047
12,13610	75672
12,14055	70225
12,14498	69340
12,14943	67304
12,15387	64478
12,15832	62282
12,16275	61039
12,16720	58097
12,17163	55969
12,17608	53825
12,18052	51181
12,18497	50374
12,18940	50397
12,19385	49043
12,19828	47359
12,20273	47373
12,20717	45543
12,21162	45521
12,21605	44956
12,22050	43579
12,22495	43589
12,22938	42874
12,23383	43132
12,23827	41685
12,24272	42536
12,24715	40184
12,25160	41859
12,25603	37976
12,26048	39691
12,26492	38529
12,26937	38741
12,27380	39254
12,27825	37143
12,28268	38172
12,28713	38599
12,29157	36470
12,29602	35903
12,30045	35842
12,30490	35800
12,30933	35396
12,31378	33379
12,31822	34310
12,32267	35254
12,32710	33608
12,33155	32518
12,33598	33225
12,34043	32022
12,34488	34005
12,34932	32048
12,35377	33207
12,35820	35062
12,36265	34117
12,36708	33883
12,37153	33491
12,37597	32730
12,38042	34580
12,38485	33545
12,38930	34449
12,39373	34712
12,39818	33692
12,40262	34558
12,40707	34445
12,41150	33158
12,41595	34070
12,42038	32244
12,42483	32672
12,42927	31256
12,43372	31742
12,43815	29055
12,44260	28706
12,44703	28637
12,45148	28898
12,45592	30232
12,46037	30919
12,46482	29018
12,46925	28837
12,47370	29265
12,47813	29704
12,48258	29330
12,48702	31009
12,49147	29314
12,49590	29510
12,50035	29464
12,50478	28417
12,50923	31654
12,51367	28124
12,51812	29206
12,52255	28939
12,52700	27768
12,53143	30173
12,53588	29191
12,54032	30472
12,54477	29613
12,54920	29939
12,55365	31162
12,55808	29268
12,56253	28976
12,56697	30086
12,57142	31427
12,57585	31632
12,58030	29794
12,58475	30737
12,58918	30064
12,59363	29856
12,59807	29817
12,60252	30852
12,60695	30060
12,61140	29457
12,61583	30673
12,62028	30365
12,62472	30103
12,62917	28588
12,63360	29169
12,63805	27507
12,64248	31247
12,64693	29017
12,65137	28156
12,65582	29193
12,66025	29014
12,66470	29624
12,66913	27777
12,67358	27697
12,67802	28458
12,68247	26632
12,68690	26497
12,69135	27550
12,69578	27257
12,70023	27259
12,70468	28464
12,70912	28106
12,71357	27471
12,71800	28091
12,72245	27491
12,72688	27397
12,73133	28631
12,73577	28422
12,74022	28711
12,74465	28138
12,74910	29233
12,75353	29045
12,75798	27779
12,76242	30570
12,76687	26574
12,77130	26900
12,77575	26673
12,78018	27109
12,78463	28227
12,78907	29953
12,79352	25335
12,79795	27156
12,80240	28821
12,80683	26989
12,81128	27636
12,81572	26718
12,82017	28055
12,82460	29123
12,82905	28312
12,83350	29233
12,83793	27423
12,84238	28218
12,84682	28599
12,85127	27259
12,85570	29431
12,86015	26757
12,86458	26870
12,86903	26895
12,87347	26740
12,87792	27452
12,88235	30121
12,88680	28669
12,89123	27801
12,89568	26852
12,90012	29044
12,90457	30142
12,90900	27588
12,91345	27159
12,91788	26945
12,92233	28602
12,92677	27200
12,93122	26001
12,93565	27073
12,94010	26540
12,94453	26817
12,94898	27627
12,95343	28067
12,95787	25444
12,96232	25881
12,96675	27785
12,97120	26244
12,97563	25883
12,98008	25990
12,98452	27310
12,98897	26780
12,99340	28294
12,99785	29139
13,00228	28124
13,00673	27662
13,01117	26624
13,01562	27630
13,02005	29228
13,02450	26322
13,02893	27782
13,03338	28246
13,03782	29325
13,04227	27392
13,04670	26916
13,05115	27262
13,05558	27923
13,06003	27735
13,06447	28534
13,06892	28165
13,07337	28264
13,07780	29978
13,08225	35281
13,08668	43457
13,09113	55583
13,09557	77054
13,10002	106031
13,10445	144060
13,10890	189485
13,11333	247429
13,11778	300965
13,12222	347678
13,12667	392558
13,13110	398246
13,13555	400695
13,13998	380482
13,14443	346134
13,14887	308099
13,15332	265691
13,15775	233738
13,16220	193861
13,16663	165670
13,17108	141451
13,17552	127025
13,17997	106972
13,18440	95436
13,18885	89178
13,19330	77578
13,19773	72974
13,20218	67089
13,20662	59111
13,21107	57825
13,21550	54147
13,21995	51909
13,22438	51195
13,22883	47480
13,23327	47208
13,23772	45505
13,24215	45883
13,24660	42347
13,25103	42850
13,25548	39843
13,25992	39862
13,26437	40683
13,26880	40811
13,27325	36750
13,27768	36190
13,28213	36686
13,28657	35351
13,29102	35391
13,29545	36581
13,29990	31138
13,30433	36107
13,30878	33230
13,31323	32269
13,31767	34866
13,32212	33574
13,32655	32294
13,33100	33489
13,33543	31970
13,33988	33001
13,34432	32746
13,34877	32397
13,35320	33291
13,35765	30928
13,36208	31223
13,36653	30893
13,37097	32112
13,37542	31738
13,37985	30633
13,38430	32176
13,38873	31206
13,39318	31588
13,39762	30298
13,40207	28704
13,40650	30706
13,41095	31029
13,41538	30194
13,41983	29019
13,42427	30126
13,42872	29550
13,43317	30097
13,43760	29069
13,44205	30493
13,44648	28012
13,45093	29096
13,45537	29641
13,45982	27714
13,46425	30582
13,46870	29162
13,47313	29757
13,47758	28389
13,48202	27860
13,48647	28756
13,49090	29073
13,49535	29924
13,49978	29900
13,50423	29997
13,50867	29704
13,51312	27992
13,51755	30728
13,52200	28357
13,52643	28960
13,53088	29988
13,53532	29751
13,53977	27707
13,54420	29350
13,54865	28189
13,55308	29432
13,55753	27682
13,56198	30383
13,56642	29160
13,57087	29001
13,57530	28621
13,57975	28170
13,58418	28953
13,58863	29043
13,59307	28342
13,59752	27625
13,60195	29197
13,60640	28620
13,61083	28494
13,61528	29160
13,61972	28674
13,62417	29909
13,62860	28539
13,63305	27457
13,63748	28876
13,64193	30518
13,64637	28768
13,65082	28312
13,65525	27214
13,65970	30719
13,66413	28490
13,66858	30453
