D:\MassHunter\GCMS\1\data\Amal\Constant flow\100C\100C_1ml-min_9C-min_1.D Wed Jul 31 12:48:21 2024
Start of data points
5,84095,18624
5,84507,18441
5,84918,18116
5,85332,17765
5,85743,16734
5,86155,18174
5,86568,17462
5,86980,18026
5,87392,17294
5,87805,16981
5,88217,18431
5,88628,18366
5,89040,17381
5,89453,16856
5,89865,17452
5,90277,16833
5,90690,17622
5,91102,16737
5,91513,16729
5,91927,16216
5,92338,16087
5,92750,16934
5,93163,16215
5,93575,16277
5,93987,16196
5,94400,15967
5,94812,16548
5,95223,16430
5,95637,17109
5,96048,16590
5,96460,17216
5,96873,17396
5,97285,17727
5,97697,16239
5,98108,16244
5,98522,16106
5,98933,16376
5,99345,15645
5,99758,15932
6,00170,15796
6,00582,16102
6,00995,16717
6,01407,15498
6,01818,15840
6,02232,16003
6,02643,17270
6,03055,15176
6,03468,14815
6,03880,15991
6,04292,15506
6,04705,15115
6,05117,14859
6,05528,16301
6,05942,15712
6,06353,15103
6,06765,14939
6,07177,15753
6,07590,14794
6,08002,15098
6,08413,15598
6,08827,16030
6,09238,15117
6,09650,15497
6,10063,15288
6,10475,14605
6,10887,14770
6,11300,15137
6,11712,14527
6,12123,14567
6,12537,15012
6,12948,16243
6,13360,13853
6,13773,13871
6,14185,14062
6,14597,14742
6,15010,14153
6,15422,14071
6,15833,13915
6,16245,14508
6,16658,13977
6,17070,14584
6,17482,14215
6,17895,15277
6,18307,15255
6,18718,15759
6,19132,17174
6,19543,19079
6,19955,20179
6,20368,24443
6,20780,34027
6,21192,46194
6,21605,61752
6,22017,77800
6,22428,99678
6,22842,118142
6,23253,131459
6,23665,134869
6,24078,139469
6,24490,134929
6,24902,134221
6,25313,125448
6,25727,118611
6,26138,109006
6,26550,104948
6,26963,95272
6,27375,91462
6,27787,85267
6,28200,78863
6,28612,75614
6,29023,69340
6,29437,63942
6,29848,58017
6,30260,53854
6,30673,52171
6,31085,47929
6,31497,46549
6,31910,42947
6,32322,38560
6,32733,36360
6,33147,32822
6,33558,33830
6,33970,29642
6,34382,27338
6,34795,26150
6,35207,24091
6,35618,23050
6,36032,21905
6,36443,19950
6,36855,20388
6,37268,18925
6,37680,16815
6,38092,16186
6,38505,16156
6,38917,14986
6,39328,14339
6,39742,14263
6,40153,13954
6,40565,12155
6,40978,12647
6,41390,12771
6,41802,12982
6,42215,12290
6,42627,12877
6,43038,12822
6,43450,12693
6,43863,12479
6,44275,12951
6,44687,12165
6,45100,12566
6,45512,11099
6,45923,11667
6,46337,11919
6,46748,11513
6,47160,11772
6,47573,11167
6,47985,10866
6,48397,11287
6,48810,10913
6,49222,11087
6,49633,11414
6,50047,10294
6,50458,10535
6,50870,10879
6,51283,10789
6,51695,9798
6,52107,11478
6,52518,10705
6,52932,10600
6,53343,11008
6,53755,10844
6,54168,10629
6,54580,10408
6,54992,10023
6,55405,9388
6,55817,10593
6,56228,9859
6,56642,9264
6,57053,9356
6,57465,10284
6,57878,10779
6,58290,10080
6,58702,9079
6,59115,10040
6,59527,10554
6,59938,9948
6,60352,9033
6,60763,9469
6,61175,9752
6,61587,9778
6,62000,9485
6,62412,9574
6,62823,9605
6,63237,9796
6,63648,9779
6,64060,9425
6,64473,10234
6,64885,9400
6,65297,9854
6,65710,8790
6,66122,10418
6,66533,10347
6,66947,9874
6,67358,8830
6,67770,9463
6,68183,9156
6,68595,9148
6,69007,11333
6,69420,10299
6,69832,10056
6,70243,10957
6,70655,10319
6,71068,10102
6,71480,9618
6,71892,9982
6,72305,9843
6,72717,9406
6,73128,9384
6,73542,10045
6,73953,9841
6,74365,10528
6,74778,8717
6,75190,9147
6,75602,9056
6,76015,9599
6,76427,9894
6,76838,9610
6,77252,9866
6,77663,9491
6,78075,9361
6,78488,8452
6,78900,9559
6,79312,10341
6,79725,9040
6,80137,10020
6,80548,8983
6,80960,9259
6,81373,8479
6,81785,9309
6,82197,8626
6,82610,9076
6,83022,8657
6,83433,8960
6,83847,8347
6,84258,8375
6,84670,8547
6,85083,8872
6,85495,8603
6,85907,8012
6,86320,8018
6,86732,8417
6,87143,8096
6,87557,9628
6,87968,8404
6,88380,8226
6,88793,10042
6,89205,8934
6,89617,9035
6,90028,8928
6,90442,9946
6,90853,9251
6,91265,9588
6,91678,9620
6,92090,9086
6,92502,9222
6,92915,8707
6,93327,8405
6,93738,8895
6,94152,8795
6,94563,8562
6,94975,9040
6,95388,9892
6,95800,9546
6,96212,8534
6,96625,8536
6,97037,9696
6,97448,8354
6,97862,9207
6,98273,9039
6,98685,8912
6,99097,8443
6,99510,7735
6,99922,8756
7,00333,7364
7,00747,8452
7,01158,8318
7,01570,7488
7,01983,8806
7,02395,7603
7,02807,8124
7,03220,8277
7,03632,7936
7,04043,7736
7,04457,7822
7,04868,8910
7,05280,7703
7,05693,8743
7,06105,9102
7,06517,9706
7,06930,9287
7,07342,10336
7,07753,10944
7,08165,9913
7,08578,11009
7,08990,11834
7,09402,11655
7,09815,11081
7,10227,11219
7,10638,10687
7,11052,10690
7,11463,9597
7,11875,9452
7,12288,9288
7,12700,8742
7,13112,8767
7,13525,9670
7,13937,7917
7,14348,8525
7,14762,8658
7,15173,7709
7,15585,7906
7,15998,8031
7,16410,9403
7,16822,7800
7,17233,7853
7,17647,7152
7,18058,7092
7,18470,8353
7,18883,7534
7,19295,7373
7,19707,8108
7,20120,7352
7,20532,7333
7,20943,7600
7,21357,7435
7,21768,7469
7,22180,6951
7,22593,6915
7,23005,7313
7,23417,7011
7,23830,8418
7,24242,7054
7,24653,8589
7,25067,7423
7,25478,7468
7,25890,7382
7,26302,7543
7,26715,7607
7,27127,6792
7,27538,6712
7,27952,6549
7,28363,7673
7,28775,6850
7,29188,7547
7,29600,7266
7,30012,7146
7,30425,6509
7,30837,6518
7,31248,6973
7,31662,7172
7,32073,7187
7,32485,6577
7,32898,6669
7,33310,6940
7,33722,7622
7,34135,7020
7,34547,5640
7,34958,7207
7,35370,6528
7,35783,6365
7,36195,6835
7,36607,6928
7,37020,7497
7,37432,7201
7,37843,6905
7,38257,6873
7,38668,7194
7,39080,7185
7,39493,7333
7,39905,6709
7,40317,6274
7,40730,6366
7,41142,7212
7,41553,6975
7,41967,7674
7,42378,7439
7,42790,6634
7,43203,6765
7,43615,6779
7,44027,6800
7,44438,7311
7,44852,6910
7,45263,7368
7,45675,7072
7,46088,7035
7,46500,7900
7,46912,7652
7,47325,7228
7,47737,6367
7,48148,7932
7,48562,7337
7,48973,8447
7,49385,7600
7,49798,7756
7,50210,7639
7,50622,7667
7,51035,7261
7,51447,6475
7,51858,7459
7,52272,6884
7,52683,7049
7,53095,7391
7,53507,6918
7,53920,6876
7,54332,6781
7,54743,6911
7,55157,7188
7,55568,6347
7,55980,6019
7,56393,5882
7,56805,6228
7,57217,6554
7,57630,6226
7,58042,9736
7,58453,11905
7,58867,19891
7,59278,35991
7,59690,66314
7,60103,112309
7,60515,186884
7,60927,276972
7,61340,388091
7,61752,495357
7,62163,592848
7,62575,672721
7,62988,712099
7,63400,720714
7,63812,699055
7,64225,656608
7,64637,602482
7,65048,555365
7,65462,498086
7,65873,441023
7,66285,387778
7,66698,338271
7,67110,293446
7,67522,256468
7,67935,216624
7,68347,186400
7,68758,156205
7,69172,130281
7,69583,106257
7,69995,89700
7,70408,76083
7,70820,63658
7,71232,53442
7,71643,46545
7,72057,39663
7,72468,34306
7,72880,31506
7,73293,27309
7,73705,22918
7,74117,22778
7,74530,20694
7,74942,17822
7,75353,15750
7,75767,14974
7,76178,14659
7,76590,13638
7,77003,12826
7,77415,11539
7,77827,11246
7,78240,10392
7,78652,12141
7,79063,11471
7,79477,12141
7,79888,12593
7,80300,13662
7,80712,12408
7,81125,13102
7,81537,12434
7,81948,9883
7,82362,11992
7,82773,10189
7,83185,9935
7,83598,8744
7,84010,8902
7,84422,7851
7,84835,8226
7,85247,7043
7,85658,7256
7,86072,7711
7,86483,7390
7,86895,7297
7,87308,7414
7,87720,7684
7,88132,7217
7,88545,6647
7,88957,6567
7,89368,6496
7,89780,6775
7,90193,7354
7,90605,5959
7,91017,6518
7,91430,6621
7,91842,6336
7,92253,7387
7,92667,6731
7,93078,6163
7,93490,6719
7,93903,6067
7,94315,6477
7,94727,5953
7,95140,6670
7,95552,5614
7,95963,5701
7,96377,6982
7,96788,5778
7,97200,6445
7,97613,6262
7,98025,6875
7,98437,6815
7,98848,7158
7,99262,6644
7,99673,6560
8,00085,6644
8,00498,6951
8,00910,7437
8,01322,6900
8,01735,6570
8,02147,7203
8,02558,6838
8,02972,6467
8,03383,5203
8,03795,5879
8,04208,6109
8,04620,6413
8,05032,5410
8,05445,6028
8,05857,5621
8,06268,5869
8,06682,5850
8,07093,6120
8,07505,5791
8,07917,5630
8,08330,5739
8,08742,5527
8,09153,5149
8,09567,5419
8,09978,5015
8,10390,5285
8,10803,5373
8,11215,5282
8,11627,5325
8,12040,5078
8,12452,4609
8,12863,5580
8,13277,5007
8,13688,5030
8,14100,4585
8,14513,5275
8,14925,5510
8,15337,4858
8,15750,5999
8,16162,5075
8,16573,5551
8,16985,5820
8,17398,5276
8,17810,5969
8,18222,5303
8,18635,5947
8,19047,6569
8,19458,6084
8,19872,5601
8,20283,4842
8,20695,5173
8,21108,5519
8,21520,5621
8,21932,5287
8,22345,6075
8,22757,5397
8,23168,5088
8,23582,4887
8,23993,5541
8,24405,4675
8,24818,5392
8,25230,5183
8,25642,5190
8,26053,4851
8,26467,5606
8,26878,4914
8,27290,5859
8,27703,5646
8,28115,4971
8,28527,5054
8,28940,5823
8,29352,5356
8,29763,5148
8,30177,5040
8,30588,5495
8,31000,6536
8,31413,5773
8,31825,5376
8,32237,4938
8,32650,5254
8,33062,5257
8,33473,4686
8,33887,4643
8,34298,4651
8,34710,5415
8,35122,5089
8,35535,5181
8,35947,5122
8,36358,5025
8,36772,4735
8,37183,4633
8,37595,5344
8,38008,6152
8,38420,7557
8,38832,10747
8,39245,19188
8,39657,35926
8,40068,60163
8,40482,105260
8,40893,164660
8,41305,233223
8,41718,320279
8,42130,398527
8,42542,461613
8,42955,493157
8,43367,508713
8,43778,488001
8,44192,457816
8,44603,419776
8,45015,371889
8,45427,319743
8,45840,266832
8,46252,226557
8,46663,180805
8,47077,151983
8,47488,120388
8,47900,97279
8,48313,77234
8,48725,61444
8,49137,51522
8,49550,42911
8,49962,34782
8,50373,28992
8,50787,24856
8,51198,21148
8,51610,19238
8,52023,16431
8,52435,14805
8,52847,14910
8,53260,12570
8,53672,12410
8,54083,11247
8,54495,10401
8,54908,10661
8,55320,9875
8,55732,9207
8,56145,8029
8,56557,9298
8,56968,8394
8,57382,7680
8,57793,7492
8,58205,7375
8,58618,8137
8,59030,7910
8,59442,7861
8,59855,8772
8,60267,8058
8,60678,8420
8,61092,8151
8,61503,8028
8,61915,8718
8,62328,7819
8,62740,8391
8,63152,7618
8,63563,7959
8,63977,7592
8,64388,7368
8,64800,7393
8,65213,6342
8,65625,6611
8,66037,6567
8,66450,6418
8,66862,6282
8,67273,5751
8,67687,6332
8,68098,5824
8,68510,4744
8,68923,4970
8,69335,5070
8,69747,5313
8,70160,5247
8,70572,4955
8,70983,5377
8,71397,5299
8,71808,4927
8,72220,6075
8,72632,6475
8,73045,6476
8,73457,7219
8,73868,6852
8,74282,7324
8,74693,6309
8,75105,6596
8,75518,5800
8,75930,5331
8,76342,5848
8,76755,5595
8,77167,5079
8,77578,5258
8,77992,5361
8,78403,5123
8,78815,4439
8,79228,4965
8,79640,5581
8,80052,4587
8,80465,4431
8,80877,4230
8,81288,4170
8,81700,5883
8,82113,4773
8,82525,5160
8,82937,4696
8,83350,4011
8,83762,4239
8,84173,4006
8,84587,4362
8,84998,4350
8,85410,4697
8,85823,4061
8,86235,4290
8,86647,4592
8,87060,4838
8,87472,4340
8,87883,4423
8,88297,4674
8,88708,3990
8,89120,3799
8,89533,4010
8,89945,4104
8,90357,4386
8,90768,4484
8,91182,4339
8,91593,4215
8,92005,4196
8,92418,3977
8,92830,3648
8,93242,3561
8,93655,4547
8,94067,4068
8,94478,3971
8,94892,3819
8,95303,3753
8,95715,4613
8,96128,4438
8,96540,3844
8,96952,4337
8,97365,4208
8,97777,3614
8,98188,4533
8,98602,4608
8,99013,3856
8,99425,4291
8,99837,4308
9,00250,4253
9,00662,3591
9,01073,4525
9,01487,2990
9,01898,4340
9,02310,3756
9,02723,3778
9,03135,3776
9,03547,4226
9,03960,4032
9,04372,4083
9,04783,3830
9,05197,4418
9,05608,4108
9,06020,3561
9,06433,3629
9,06845,3696
9,07257,3795
9,07670,4562
9,08082,4106
9,08493,4324
9,08905,4507
9,09318,3976
9,09730,3777
9,10142,4348
9,10555,4816
9,10967,3886
9,11378,5048
9,11792,4680
9,12203,3923
9,12615,3832
9,13028,3940
9,13440,3363
9,13852,4007
9,14265,3582
9,14677,3886
9,15088,4014
9,15502,3075
9,15913,3834
9,16325,2975
9,16738,3619
9,17150,4179
9,17562,3776
9,17973,3449
9,18387,3089
9,18798,3722
9,19210,3214
9,19623,4215
9,20035,3117
9,20447,3896
9,20860,4776
9,21272,7322
9,21683,12658
9,22097,23638
9,22508,44182
9,22920,88342
9,23333,164724
9,23745,283855
9,24157,440684
9,24570,636940
9,24982,852037
9,25393,1051514
9,25807,1203750
9,26218,1287296
9,26630,1307870
9,27042,1238217
9,27455,1110169
9,27867,949707
9,28278,793865
9,28692,626997
9,29103,499424
9,29515,384128
9,29928,286766
9,30340,225580
9,30752,168314
9,31165,129757
9,31577,103742
9,31988,83191
9,32402,68260
9,32813,55890
9,33225,46938
9,33638,41647
9,34050,35670
9,34462,31471
9,34875,25808
9,35287,24313
9,35698,22305
9,36110,21099
9,36523,18627
9,36935,15800
9,37347,16181
9,37760,15021
9,38172,13849
9,38583,12671
9,38997,12745
9,39408,11533
9,39820,10582
9,40233,9787
9,40645,10303
9,41057,8983
9,41470,7851
9,41882,8076
9,42293,8503
9,42707,9192
9,43118,8180
9,43530,7499
9,43943,6823
9,44355,7369
9,44767,7416
9,45178,6543
9,45592,5245
9,46003,5780
9,46415,6523
9,46828,5761
9,47240,6298
9,47652,5872
9,48065,5790
9,48477,4866
9,48888,5176
9,49302,5260
9,49713,5343
9,50125,5804
9,50538,4705
9,50950,4933
9,51362,4905
9,51775,4589
9,52187,4791
9,52598,4808
9,53012,4471
9,53423,4923
9,53835,5802
9,54247,6472
9,54660,7945
9,55072,7970
9,55483,7190
9,55897,5747
9,56308,6332
9,56720,4747
9,57133,5058
9,57545,4397
9,57957,3938
9,58370,4009
9,58782,3604
9,59193,4150
9,59607,3049
9,60018,3660
9,60430,3717
9,60843,3902
9,61255,3874
9,61667,3939
9,62080,3980
9,62492,4772
9,62903,4277
9,63315,3514
9,63728,3500
9,64140,3851
9,64552,3439
9,64965,3348
9,65377,3952
9,65788,3593
9,66202,3583
9,66613,4050
9,67025,4183
9,67438,4071
9,67850,3916
9,68262,3462
9,68675,3725
9,69087,3730
9,69498,3177
9,69912,3659
9,70323,2973
9,70735,3400
9,71148,3507
9,71560,3869
9,71972,3751
9,72383,3344
9,72797,3903
9,73208,3222
9,73620,3457
9,74033,4654
9,74445,4150
9,74857,3977
9,75270,3980
9,75682,4223
9,76093,4354
9,76507,3916
9,76918,3598
9,77330,3238
9,77743,3006
9,78155,3202
9,78567,3376
9,78980,3433
9,79392,3387
9,79803,3999
9,80217,3821
9,80628,3728
9,81040,3892
9,81452,4851
9,81865,5714
9,82277,6245
9,82688,6739
9,83102,7992
9,83513,8790
9,83925,9886
9,84338,9684
9,84750,9462
9,85162,9691
9,85575,8966
9,85987,8016
9,86398,7944
9,86812,6781
9,87223,6529
9,87635,5591
9,88048,5676
9,88460,4872
9,88872,4975
9,89285,3937
9,89697,4500
9,90108,3402
9,90520,3663
9,90933,3409
9,91345,3262
9,91757,3533
9,92170,3865
9,92582,3546
9,92993,3181
9,93407,3615
9,93818,3011
9,94230,3118
9,94643,3026
9,95055,3067
9,95467,2879
9,95880,2985
9,96292,3518
9,96703,3014
9,97117,2677
9,97528,2954
9,97940,2945
9,98353,2843
9,98765,3042
9,99177,2239
9,99588,2417
10,00002,2695
10,00413,2517
10,00825,2771
10,01238,2451
10,01650,2725
10,02062,2311
10,02475,3523
10,02887,3101
10,03298,3038
10,03712,3011
10,04123,2999
10,04535,2808
10,04948,3687
10,05360,6135
10,05772,10542
10,06185,22255
10,06597,44680
10,07008,86737
10,07422,151229
10,07833,246597
10,08245,364703
10,08658,483694
10,09070,617558
10,09482,704930
10,09893,759558
10,10307,758330
10,10718,708820
10,11130,627828
10,11543,525400
10,11955,413744
10,12367,314788
10,12780,235731
10,13192,173891
10,13603,127969
10,14017,98024
10,14428,77767
10,14840,58466
10,15253,48632
10,15665,39530
10,16077,32016
10,16490,27783
10,16902,23422
10,17313,19113
10,17727,17927
10,18138,17248
10,18550,13920
10,18962,12786
10,19375,12070
10,19787,10926
10,20198,9583
10,20612,9020
10,21023,8905
10,21435,8288
10,21848,7411
10,22260,6905
10,22672,6652
10,23085,7307
10,23497,5643
10,23908,6037
10,24322,4826
10,24733,5647
10,25145,5487
10,25558,4881
10,25970,5479
10,26382,4465
10,26795,4067
10,27207,4289
10,27618,4165
10,28030,3926
10,28443,3936
10,28855,3798
10,29267,4732
10,29680,3750
10,30092,3745
10,30503,3501
10,30917,3698
10,31328,3922
10,31740,3270
10,32153,3066
10,32565,3228
10,32977,3055
10,33390,3927
10,33802,3841
10,34213,3020
10,34627,3248
10,35038,3092
10,35450,3271
10,35863,2280
10,36275,2782
10,36687,2885
10,37098,2624
10,37512,2890
10,37923,2743
10,38335,3254
10,38748,2521
10,39160,3164
10,39572,3366
10,39985,3518
10,40397,3309
10,40808,2735
10,41222,2321
10,41633,2858
10,42045,2553
10,42458,3265
10,42870,3518
10,43282,2926
10,43695,2746
10,44107,2786
10,44518,2359
10,44932,3112
10,45343,2547
10,45755,2689
10,46167,2779
10,46580,2272
10,46992,2452
10,47403,2786
10,47817,2269
10,48228,3282
10,48640,2977
10,49053,2930
10,49465,3457
10,49877,4079
10,50290,3916
10,50702,5472
10,51113,5390
10,51527,5243
10,51938,6180
10,52350,5220
10,52763,4570
10,53175,4343
10,53587,3883
10,54000,3797
10,54412,3834
10,54823,3409
10,55235,2814
10,55648,3144
10,56060,2347
10,56472,2525
10,56885,3277
10,57297,2252
10,57708,2636
10,58122,2713
10,58533,2548
10,58945,2764
10,59358,3149
10,59770,2537
10,60182,2223
10,60595,2406
10,61007,2473
10,61418,2087
10,61832,2008
10,62243,2360
10,62655,2159
10,63068,2951
10,63480,1825
10,63892,2249
10,64303,2431
10,64717,3244
10,65128,3285
10,65540,4041
10,65953,3714
10,66365,4891
10,66777,5531
10,67190,6130
10,67602,5266
10,68013,5623
10,68427,6226
10,68838,4819
10,69250,4418
10,69663,3660
10,70075,2869
10,70487,2612
10,70900,2946
10,71312,2912
10,71723,3018
10,72137,2654
10,72548,2270
10,72960,1983
10,73372,3063
10,73785,2358
10,74197,2664
10,74608,2925
10,75022,2187
10,75433,2973
10,75845,2744
10,76258,2096
10,76670,2283
10,77082,2485
10,77495,2440
10,77907,2298
10,78318,1983
10,78732,2104
10,79143,2392
10,79555,2374
10,79968,2302
10,80380,1816
10,80792,2350
10,81205,1569
10,81617,1862
10,82028,2428
10,82440,2368
10,82853,2413
10,83265,2751
10,83677,2222
10,84090,2355
10,84502,2077
10,84913,2188
10,85327,2006
10,85738,1939
10,86150,2290
10,86563,1905
10,86975,1925
10,87387,2783
10,87800,3920
10,88212,7838
10,88623,18567
10,89037,38289
10,89448,83055
10,89860,161690
10,90273,294020
10,90685,494952
10,91097,751689
10,91508,1052279
10,91922,1347032
10,92333,1604967
10,92745,1771263
10,93158,1795826
10,93570,1657192
10,93982,1449194
10,94395,1180023
10,94807,915317
10,95218,673738
10,95632,479315
10,96043,348425
10,96455,255956
10,96868,193471
10,97280,146216
10,97692,116385
10,98105,94749
10,98517,78870
10,98928,67111
10,99342,56334
10,99753,50884
11,00165,44377
11,00577,37179
11,00990,33817
11,01402,30511
11,01813,25627
11,02227,22308
11,02638,20914
11,03050,18207
11,03463,17712
11,03875,16406
11,04287,14334
11,04700,14086
11,05112,12863
11,05523,11512
11,05937,11227
11,06348,9624
11,06760,10126
11,07173,9585
11,07585,8054
11,07997,7780
11,08410,7710
11,08822,7661
11,09233,7192
11,09645,6780
11,10058,7041
11,10470,6940
11,10882,6678
11,11295,5591
11,11707,6821
11,12118,6963
11,12532,6905
11,12943,6941
11,13355,6879
11,13768,8335
11,14180,9220
11,14592,8906
11,15005,8893
11,15417,9744
11,15828,8613
11,16242,8255
11,16653,7532
11,17065,6188
11,17478,6001
11,17890,5611
11,18302,5162
11,18713,4390
11,19127,4562
11,19538,3685
11,19950,3942
11,20363,3809
11,20775,6207
11,21187,6153
11,21600,6522
11,22012,7643
11,22423,5316
11,22837,4311
11,23248,3591
11,23660,2725
11,24073,3124
11,24485,2923
11,24897,2737
11,25310,3043
11,25722,2586
11,26133,2782
11,26547,2486
11,26958,2553
11,27370,2889
11,27782,2330
11,28195,3136
11,28607,3411
11,29018,3372
11,29432,3258
11,29843,2926
11,30255,3167
11,30668,2799
11,31080,2803
11,31492,4917
11,31905,4653
11,32317,5100
11,32728,5953
11,33142,6107
11,33553,6578
11,33965,5730
11,34378,3956
11,34790,4212
11,35202,3522
11,35615,3194
11,36027,3206
11,36438,2693
11,36850,3110
11,37263,2404
11,37675,2103
11,38087,2389
11,38500,2866
11,38912,2353
11,39323,1984
11,39737,1692
11,40148,2362
11,40560,2323
11,40973,2050
11,41385,1959
11,41797,2182
11,42210,2056
11,42622,2491
11,43033,2150
11,43447,2302
11,43858,1894
11,44270,2403
11,44683,2066
11,45095,2436
11,45507,2520
11,45918,2885
11,46332,2317
11,46743,4731
11,47155,12571
11,47568,24720
11,47980,53067
11,48392,102187
11,48805,183758
11,49217,300002
11,49628,434319
11,50042,586012
11,50453,714534
11,50865,808605
11,51278,837157
11,51690,805625
11,52102,721711
11,52515,610843
11,52927,483814
11,53338,369808
11,53752,275101
11,54163,200686
11,54575,145185
11,54987,106172
11,55400,82390
11,55812,65026
11,56223,51042
11,56637,41023
11,57048,36304
11,57460,30074
11,57873,22834
11,58285,20265
11,58697,19831
11,59110,16207
11,59522,16068
11,59933,14099
11,60347,11367
11,60758,11350
11,61170,10335
11,61583,9405
11,61995,7868
11,62407,8275
11,62820,8518
11,63232,7969
11,63643,7852
11,64057,6625
11,64468,5942
11,64880,5494
11,65292,5998
11,65705,4283
11,66117,4712
11,66528,4234
11,66942,3618
11,67353,4360
11,67765,3723
11,68178,4060
11,68590,3666
11,69002,5574
11,69415,11881
11,69827,24674
11,70238,50578
11,70652,101559
11,71063,179460
11,71475,297220
11,71888,459514
11,72300,623707
11,72712,791917
11,73125,893910
11,73537,958132
11,73948,934924
11,74360,832975
11,74773,699807
11,75185,556057
11,75597,412479
11,76010,303151
11,76422,218855
11,76833,159207
11,77247,117123
11,77658,86314
11,78070,65084
11,78483,51879
11,78895,42811
11,79307,34346
11,79720,29900
11,80132,26400
11,80543,22778
11,80957,19693
11,81368,18956
11,81780,16863
11,82193,13976
11,82605,12399
11,83017,11733
11,83428,11441
11,83842,10275
11,84253,9481
11,84665,9339
11,85078,8500
11,85490,6987
11,85902,6852
11,86315,6403
11,86727,6728
11,87138,6206
11,87552,6480
11,87963,5333
11,88375,4838
11,88788,4938
11,89200,4813
11,89612,4640
11,90025,5633
11,90437,4787
11,90848,4067
11,91262,4500
11,91673,3262
11,92085,3647
11,92497,4720
11,92910,3927
11,93322,3409
11,93733,4125
11,94147,3399
11,94558,3188
11,94970,2825
11,95383,3570
11,95795,3979
11,96207,3980
11,96620,3562
11,97032,3039
11,97443,3431
11,97857,3030
11,98268,3400
11,98680,3168
11,99093,3535
11,99505,3576
11,99917,3870
12,00330,3388
12,00742,3102
12,01153,2832
12,01565,3329
12,01978,3181
12,02390,3398
12,02802,2821
12,03215,2374
12,03627,2823
12,04038,2082
12,04452,2109
12,04863,2335
12,05275,2473
12,05688,2499
12,06100,2400
12,06512,2658
12,06925,1950
12,07337,2651
12,07748,3114
12,08162,2075
12,08573,2615
12,08985,2255
12,09398,1981
12,09810,2722
12,10222,3211
12,10633,3114
12,11047,2688
12,11458,3034
12,11870,3009
12,12283,3003
12,12695,2527
12,13107,2916
12,13520,2954
12,13932,2438
12,14343,2115
12,14757,2955
12,15168,3283
12,15580,3201
12,15993,2649
12,16405,3184
12,16817,2252
12,17230,2357
12,17642,2217
12,18053,2423
12,18467,2158
12,18878,1908
12,19290,1923
12,19702,2203
12,20115,2033
12,20527,2392
12,20938,2315
12,21352,2095
12,21763,1772
12,22175,1698
12,22588,2057
12,23000,1524
12,23412,2469
12,23825,1504
12,24237,2035
12,24648,2524
12,25062,2346
12,25473,1775
12,25885,2708
12,26298,3784
12,26710,6627
12,27122,13035
12,27535,28749
12,27947,61972
12,28358,114564
12,28770,210267
12,29183,340345
12,29595,499562
12,30007,670117
12,30420,823922
12,30832,903869
12,31243,928348
12,31657,869432
12,32068,756353
12,32480,622504
12,32893,484707
12,33305,366869
12,33717,265812
12,34130,193325
12,34542,143396
12,34953,104871
12,35367,80317
12,35778,62010
12,36190,50650
12,36603,40432
12,37015,33575
12,37427,30142
12,37838,25689
12,38252,21416
12,38663,17633
12,39075,17610
12,39488,14528
12,39900,14776
12,40312,11128
12,40725,11377
12,41137,9622
12,41548,8090
12,41962,8621
12,42373,7984
12,42785,7714
12,43198,6791
12,43610,6567
12,44022,6587
12,44435,6877
12,44847,5982
12,45258,5961
12,45672,5783
12,46083,5631
12,46495,6264
12,46907,6585
12,47320,10509
12,47732,21010
12,48143,44701
12,48557,99273
12,48968,192899
12,49380,352695
12,49793,604100
12,50205,946295
12,50617,1379062
12,51030,1861519
12,51442,2335489
12,51853,2750666
12,52267,3018357
12,52678,3046772
12,53090,2821038
12,53503,2401534
12,53915,1877733
12,54327,1384959
12,54740,981686
12,55152,682286
12,55563,479816
12,55975,344923
12,56388,254822
12,56800,197436
12,57212,154602
12,57625,130424
12,58037,105710
12,58448,87407
12,58862,74587
12,59273,65363
12,59685,57805
12,60098,52180
12,60510,47724
12,60922,42452
12,61335,37954
12,61747,33535
12,62158,33147
12,62572,30148
12,62983,26194
12,63395,24592
12,63808,21705
12,64220,22366
12,64632,20624
12,65043,17827
12,65457,16799
12,65868,17269
12,66280,14950
12,66693,13831
12,67105,13275
12,67517,12274
12,67930,12029
12,68342,10370
12,68753,10115
12,69167,10171
12,69578,8642
12,69990,8727
12,70403,8966
12,70815,7787
12,71227,7935
12,71640,8148
12,72052,6571
12,72463,6843
12,72877,6981
12,73288,7791
12,73700,6355
12,74112,6100
12,74525,6004
12,74937,5479
12,75348,5138
12,75762,5918
12,76173,5504
12,76585,4469
12,76998,4832
12,77410,4823
12,77822,6097
12,78235,5017
12,78647,5759
12,79058,5168
12,79472,7103
12,79883,8202
12,80295,9705
12,80708,9469
12,81120,8825
12,81532,9209
12,81945,6343
12,82357,6216
12,82768,4965
12,83180,4373
12,83593,4892
12,84005,4213
12,84417,3902
12,84830,3648
12,85242,4387
12,85653,2727
12,86067,3736
12,86478,3603
12,86890,3548
12,87303,3207
12,87715,2959
12,88127,1772
12,88540,2865
12,88952,3042
12,89363,4402
12,89777,4530
12,90188,4618
12,90600,5180
12,91013,4101
12,91425,4866
12,91837,4764
12,92248,3931
12,92662,3498
12,93073,4678
12,93485,4897
12,93898,7943
12,94310,16403
12,94722,34294
12,95135,69965
12,95547,133506
12,95958,235632
12,96372,369489
12,96783,540115
12,97195,708564
12,97608,870579
12,98020,957712
12,98432,953567
12,98845,894528
12,99257,774180
12,99668,611069
13,00082,466680
13,00493,342366
13,00905,248943
13,01317,184563
13,01730,132322
13,02142,100834
13,02553,77498
13,02967,60577
13,03378,49810
13,03790,40727
13,04203,36393
13,04615,29151
13,05027,27721
13,05440,24646
13,05852,24839
13,06263,23376
13,06677,23595
13,07088,23636
13,07500,21874
13,07913,23992
13,08325,25117
13,08737,24909
13,09150,23839
13,09562,22282
13,09973,22684
13,10385,19456
13,10798,17952
13,11210,16092
13,11622,13913
13,12035,12458
13,12447,10370
13,12858,9684
13,13272,7928
13,13683,7594
13,14095,5963
13,14508,5828
13,14920,6928
13,15332,4334
13,15745,4824
13,16157,5329
13,16568,4280
13,16982,4944
13,17393,4088
13,17805,4475
13,18218,3679
13,18630,4679
13,19042,3859
13,19453,3520
13,19867,4271
13,20278,3300
13,20690,3850
13,21103,4219
13,21515,4142
13,21927,3967
13,22340,5170
13,22752,6089
13,23163,11348
13,23577,24089
13,23988,52315
13,24400,101746
13,24813,193891
13,25225,321730
13,25637,486197
13,26050,687669
13,26462,877431
13,26873,1009429
13,27287,1072593
13,27698,1016827
13,28110,924087
13,28523,757470
13,28935,594995
13,29347,436035
13,29758,312118
13,30172,225890
13,30583,159387
13,30995,118809
13,31408,91526
13,31820,69447
13,32232,55463
13,32645,46944
13,33057,39327
13,33468,33676
13,33882,29715
13,34293,26647
13,34705,23594
13,35118,21285
13,35530,18254
13,35942,16315
13,36355,15759
13,36767,15122
13,37178,13018
13,37592,12544
13,38003,11395
13,38415,9972
13,38827,10134
13,39240,8548
13,39652,7886
13,40063,8473
13,40477,7612
13,40888,6839
13,41300,7280
13,41713,6087
13,42125,7092
13,42537,5357
13,42950,5585
13,43362,5771
13,43773,5431
13,44187,4915
13,44598,5987
13,45010,6713
13,45423,6410
13,45835,5624
13,46247,7599
13,46660,6007
13,47072,5431
13,47483,5705
13,47895,5370
13,48308,5869
13,48720,5232
13,49132,4145
13,49545,5313
13,49957,4525
13,50368,4451
13,50782,3995
13,51193,4452
13,51605,4433
13,52018,3828
13,52430,3985
13,52842,4938
13,53255,4332
13,53667,4725
13,54078,3877
13,54492,5360
13,54903,4919
13,55315,4148
13,55728,4588
13,56140,4721
13,56552,4100
13,56963,4495
13,57377,5662
13,57788,4768
13,58200,3784
13,58613,4055
13,59025,4560
13,59437,4262
13,59850,4769
13,60262,3187
13,60673,3995
13,61087,3621
13,61498,2863
13,61910,2222
13,62323,3096
13,62735,2584
13,63147,3644
13,63560,3429
13,63972,2894
13,64383,2125
13,64797,3413
13,65208,2509
13,65620,2905
13,66032,2820
13,66445,3435
13,66857,3951
13,67268,3728
13,67682,5071
13,68093,7414
13,68505,13912
13,68918,30454
13,69330,66494
13,69742,126915
13,70155,233498
13,70567,375176
13,70978,546806
13,71392,737396
13,71803,901472
13,72215,1002829
13,72628,1028819
13,73040,974420
13,73452,849626
13,73865,689877
13,74277,533546
13,74688,395844
13,75100,286768
13,75513,210568
13,75925,156792
13,76337,116199
13,76750,89091
13,77162,72428
13,77573,59903
13,77987,48211
13,78398,41198
13,78810,34373
13,79223,29402
13,79635,26153
13,80047,23106
13,80460,22057
13,80872,19742
13,81283,17045
13,81697,13609
13,82108,14232
13,82520,14656
13,82933,11920
13,83345,11341
13,83757,10618
13,84168,9531
13,84582,8568
13,84993,7542
13,85405,8432
13,85818,7615
13,86230,6433
13,86642,6933
13,87055,5826
13,87467,6553
13,87878,6139
13,88292,6212
13,88703,4655
13,89115,5203
13,89528,4381
13,89940,4907
13,90352,4738
13,90765,5207
13,91177,4381
13,91588,4325
13,92002,4937
13,92413,4882
13,92825,4390
13,93237,3639
13,93650,3995
13,94062,4974
13,94473,5116
13,94887,5729
13,95298,7728
13,95710,13851
13,96123,25837
13,96535,49231
13,96947,91490
13,97360,170489
13,97772,295147
13,98183,473863
13,98597,719821
13,99008,1021115
13,99420,1357425
13,99833,1707802
14,00245,1991820
14,00657,2164405
14,01070,2214920
14,01482,2040755
14,01893,1731687
14,02305,1376562
14,02718,1022540
14,03130,743878
14,03542,520985
14,03955,371247
14,04367,268283
14,04778,200304
14,05192,156888
14,05603,124122
14,06015,102591
14,06428,87198
14,06840,75988
14,07252,64223
14,07665,57938
14,08077,50309
14,08488,44005
14,08902,39870
14,09313,38221
14,09725,32788
14,10138,29150
14,10550,27997
14,10962,24526
14,11373,23134
14,11787,23462
14,12198,21032
14,12610,19958
14,13023,18444
14,13435,18360
14,13847,16796
14,14260,15777
14,14672,14169
14,15083,13473
14,15497,13324
14,15908,12182
14,16320,10469
14,16733,10985
14,17145,10148
14,17557,9718
14,17970,9055
14,18382,10318
14,18793,8466
14,19207,8419
14,19618,9057
14,20030,8527
14,20442,9441
14,20855,11638
14,21267,18478
14,21678,33555
14,22092,66817
14,22503,121941
14,22915,216820
14,23328,346951
14,23740,509291
14,24152,694706
14,24565,859859
14,24977,975856
14,25388,1036881
14,25802,1028120
14,26213,932276
14,26625,788679
14,27038,635920
14,27450,483339
14,27862,362829
14,28275,269517
14,28687,197136
14,29098,147092
14,29510,114538
14,29923,92796
14,30335,75157
14,30747,63589
14,31160,52769
14,31572,45555
14,31983,38085
14,32397,32758
14,32808,29809
14,33220,25758
14,33633,27155
14,34045,31247
14,34457,41904
14,34870,75205
14,35282,134556
14,35693,242524
14,36107,412815
14,36518,651542
14,36930,979862
14,37343,1320031
14,37755,1676276
14,38167,1958258
14,38578,2101732
14,38992,2081406
14,39403,1914640
14,39815,1624604
14,40228,1258596
14,40640,932197
14,41052,678799
14,41465,488893
14,41877,354473
14,42288,263426
14,42702,200937
14,43113,158207
14,43525,124929
14,43938,103887
14,44350,93775
14,44762,78170
14,45175,68071
14,45587,59863
14,45998,53313
14,46412,47486
14,46823,42873
14,47235,40796
14,47647,35152
14,48060,32561
14,48472,29195
14,48883,29360
14,49297,27359
14,49708,26503
14,50120,25391
14,50533,23299
14,50945,22028
14,51357,18958
14,51770,18869
14,52182,17281
14,52593,15560
14,53007,15529
14,53418,15211
14,53830,15299
14,54243,13079
14,54655,13947
14,55067,10982
14,55480,11914
14,55892,10951
14,56303,10871
14,56715,11502
14,57128,8662
14,57540,10013
14,57952,9839
14,58365,7991
14,58777,8788
14,59188,8177
14,59602,7637
14,60013,8689
14,60425,7630
14,60838,6981
14,61250,7285
14,61662,9588
14,62075,13355
14,62487,23565
14,62898,46657
14,63312,92591
14,63723,173772
14,64135,291278
14,64548,457723
14,64960,638473
14,65372,823397
14,65783,960063
14,66197,1015402
14,66608,985339
14,67020,886722
14,67433,735016
14,67845,582618
14,68257,437329
14,68670,324705
14,69082,236944
14,69493,174318
14,69907,135491
14,70318,103154
14,70730,79190
14,71143,66954
14,71555,55433
14,71967,46606
14,72380,41477
14,72792,35727
14,73203,31672
14,73617,27857
14,74028,24688
14,74440,23567
14,74852,21223
14,75265,18295
14,75677,19026
14,76088,18032
14,76502,15322
14,76913,14676
14,77325,14235
14,77738,15200
14,78150,12610
14,78562,13579
14,78975,13899
14,79387,14147
14,79798,12160
14,80212,14000
14,80623,12880
14,81035,13688
14,81448,13478
14,81860,14445
14,82272,12271
14,82685,11552
14,83097,13440
14,83508,11753
14,83922,11976
14,84333,11335
14,84745,11472
14,85157,10849
14,85570,11813
14,85982,11510
14,86393,10827
14,86807,8917
14,87218,11134
14,87630,10477
14,88043,8732
14,88455,7883
14,88867,8572
14,89280,8141
14,89692,8581
14,90103,7937
14,90517,7528
14,90928,8487
14,91340,9595
14,91753,10941
14,92165,20410
14,92577,40990
14,92990,79316
14,93402,151056
14,93813,253587
14,94225,394142
14,94638,562141
14,95050,729575
14,95462,871518
14,95875,948281
14,96287,949821
14,96698,882974
14,97112,754061
14,97523,604378
14,97935,470418
14,98348,342776
14,98760,250613
14,99172,182671
14,99585,137652
14,99997,102721
15,00408,79622
15,00822,68167
15,01233,53645
15,01645,45674
15,02058,40310
15,02470,34390
15,02882,31418
15,03293,28534
15,03707,26410
15,04118,25685
15,04530,23964
15,04943,22089
15,05355,18622
15,05767,19633
15,06180,19022
15,06592,16528
15,07003,17372
15,07417,16919
15,07828,15735
15,08240,12814
15,08653,11949
15,09065,11352
15,09477,11266
15,09890,11920
15,10302,10377
15,10713,9979
15,11127,10216
15,11538,10433
15,11950,9427
15,12362,10150
15,12775,9617
15,13187,9561
15,13598,9073
15,14012,10011
15,14423,9770
15,14835,10147
15,15248,11069
15,15660,10887
15,16072,10952
15,16485,9894
15,16897,8575
15,17308,10086
15,17722,8757
15,18133,8948
15,18545,7278
15,18958,8191
15,19370,7181
15,19782,8451
15,20195,6898
15,20607,6091
15,21018,5691
15,21430,6223
15,21843,6583
15,22255,6980
15,22667,6524
15,23080,5543
15,23492,6842
15,23903,6163
15,24317,6862
15,24728,6782
15,25140,7635
15,25553,6024
15,25965,6041
15,26377,7120
15,26790,5045
15,27202,5826
15,27613,5630
15,28027,5657
15,28438,5005
15,28850,4312
15,29263,5697
15,29675,4860
15,30087,5807
15,30498,5336
15,30912,4602
15,31323,6359
15,31735,7905
15,32148,8851
15,32560,16182
15,32972,31574
15,33385,70905
15,33797,138735
15,34208,268027
15,34622,475768
15,35033,773278
15,35445,1153061
15,35858,1591744
15,36270,2044069
15,36682,2505611
15,37095,2838953
15,37507,3045763
15,37918,3075739
15,38332,2839589
15,38743,2475164
15,39155,1967308
15,39567,1492404
15,39980,1071779
15,40392,767028
15,40803,553498
15,41217,406944
15,41628,310851
15,42040,247901
15,42453,198249
15,42865,166095
15,43277,138212
15,43690,119583
15,44102,106124
15,44513,93303
15,44927,82235
15,45338,75197
15,45750,71560
15,46163,60886
15,46575,59212
15,46987,53921
15,47400,47937
15,47812,46285
15,48223,42110
15,48635,41584
15,49048,38592
15,49460,33788
15,49872,31539
15,50285,29137
15,50697,30325
15,51108,27099
15,51522,26026
15,51933,25925
15,52345,24695
15,52758,22645
15,53170,21407
15,53582,21496
15,53995,23395
15,54407,23444
15,54818,22990
15,55232,25504
15,55643,28515
15,56055,29719
15,56468,32834
15,56880,33764
15,57292,34719
15,57703,36175
15,58117,43784
15,58528,57684
15,58940,84658
15,59353,138517
15,59765,230523
15,60177,349330
15,60590,494698
15,61002,658466
15,61413,777389
15,61827,838765
15,62238,844134
15,62650,769052
15,63063,666237
15,63475,531844
15,63887,408847
15,64300,305060
15,64712,227787
15,65123,168474
15,65537,126538
15,65948,99238
15,66360,79525
15,66772,66313
15,67185,55685
15,67597,48708
15,68008,43099
15,68422,44912
15,68833,45359
15,69245,59739
15,69658,88542
15,70070,146820
15,70482,234852
15,70895,365151
15,71307,531770
15,71718,733996
15,72132,918689
15,72543,1057358
15,72955,1131626
15,73368,1093993
15,73780,993866
15,74192,828300
15,74605,650150
15,75017,489482
15,75428,368053
15,75840,272367
15,76253,205038
15,76665,157049
15,77077,128179
15,77490,101924
15,77902,84718
15,78313,75326
15,78727,65785
15,79138,57710
15,79550,50465
15,79963,46358
15,80375,42198
15,80787,38004
15,81200,35142
15,81612,32306
15,82023,29507
15,82437,29231
15,82848,29280
15,83260,26646
15,83673,23463
15,84085,22746
15,84497,22289
15,84908,21876
15,85322,19238
15,85733,20253
15,86145,19989
15,86558,18086
15,86970,17203
15,87382,18336
15,87795,17826
15,88207,18324
15,88618,15573
15,89032,17514
15,89443,16869
15,89855,16207
15,90268,16883
15,90680,15875
15,91092,14787
15,91505,13142
15,91917,13126
15,92328,14577
15,92742,13719
15,93153,12633
15,93565,11716
15,93977,12034
15,94390,10953
15,94802,10995
15,95213,11908
15,95627,11300
15,96038,11100
15,96450,10767
15,96863,11910
15,97275,16436
15,97687,23751
15,98100,42493
15,98512,81753
15,98923,147280
15,99337,257091
15,99748,414796
16,00160,607777
16,00573,829220
16,00985,1032409
16,01397,1171246
16,01810,1225431
16,02222,1164013
16,02633,1027780
16,03045,829694
16,03458,637992
16,03870,479853
16,04282,346803
16,04695,259450
16,05107,198545
16,05518,149526
16,05932,127423
16,06343,103446
16,06755,88218
16,07168,73583
16,07580,64882
16,07992,59324
16,08405,52555
16,08817,47545
16,09228,42946
16,09642,40011
16,10053,38851
16,10465,32155
16,10878,33331
16,11290,31889
16,11702,29502
16,12113,29157
16,12527,28646
16,12938,27108
16,13350,28347
16,13763,26879
16,14175,24250
16,14587,24751
16,15000,22903
16,15412,22430
16,15823,21929
16,16237,21557
16,16648,19030
16,17060,18325
16,17473,18416
16,17885,18416
16,18297,17112
16,18710,18685
16,19122,17057
16,19533,16258
16,19947,15422
16,20358,16282
16,20770,15563
16,21182,13759
16,21595,14489
16,22007,12865
16,22418,14091
16,22832,15450
16,23243,17074
16,23655,23716
16,24068,39848
16,24480,71444
16,24892,125538
16,25305,216030
16,25717,349320
16,26128,507070
16,26542,696943
16,26953,849461
16,27365,958509
16,27778,1009751
16,28190,948087
16,28602,834198
16,29015,684775
16,29427,535310
16,29838,402631
16,30250,298580
16,30663,225020
16,31075,169651
16,31487,128722
16,31900,107045
16,32312,85213
16,32723,72813
16,33137,62845
16,33548,57866
16,33960,50635
16,34373,45930
16,34785,42238
16,35197,41716
16,35610,36056
16,36022,34918
16,36433,31544
16,36847,28449
16,37258,29018
16,37670,28250
16,38083,25446
16,38495,24016
16,38907,23369
16,39320,23393
16,39732,20907
16,40143,20793
16,40555,19220
16,40968,20288
16,41380,20770
16,41792,19448
16,42205,19122
16,42617,17344
16,43028,17535
16,43442,16454
16,43853,15702
16,44265,15175
16,44678,15201
16,45090,16230
16,45502,16742
16,45915,15833
16,46327,16200
16,46738,15471
16,47152,15458
16,47563,14877
16,47975,14108
16,48388,12900
16,48800,14484
16,49212,14242
16,49623,13447
16,50037,12876
16,50448,14282
16,50860,13673
16,51273,12982
16,51685,13518
16,52097,14298
16,52510,13061
16,52922,13713
16,53333,14097
16,53747,13802
16,54158,14131
16,54570,13651
16,54983,13432
16,55395,11552
16,55807,14900
16,56220,13023
16,56632,14063
16,57043,13093
16,57457,13652
16,57868,13464
16,58280,12855
16,58692,12979
16,59105,14872
16,59517,17016
16,59928,19852
16,60342,31903
16,60753,57660
16,61165,101613
16,61578,183295
16,61990,303339
16,62402,492598
16,62815,757368
16,63227,1085026
16,63638,1511841
16,64052,1974754
16,64463,2427446
16,64875,2829260
16,65288,3136530
16,65700,3179127
16,66112,2970383
16,66525,2574558
16,66937,2069883
16,67348,1616184
16,67760,1210586
16,68173,910897
16,68585,680931
16,68997,515742
16,69410,404564
16,69822,320112
16,70233,260470
16,70647,217276
16,71058,193622
16,71470,163732
16,71883,143575
16,72295,131476
16,72707,117508
16,73120,107957
16,73532,100519
16,73943,91207
16,74357,82093
16,74768,79994
16,75180,71937
16,75593,66899
16,76005,62555
16,76417,60200
16,76828,55008
16,77242,54813
16,77653,48379
16,78065,50188
16,78478,49380
16,78890,46501
16,79302,45575
16,79715,44097
16,80127,40716
16,80538,42007
16,80952,40829
16,81363,40328
16,81775,39889
16,82188,38452
16,82600,39243
16,83012,41852
16,83425,36322
16,83837,38340
16,84248,37960
16,84662,35424
16,85073,36878
16,85485,40847
16,85897,48732
16,86310,68342
16,86722,107936
16,87133,173411
16,87547,269957
16,87958,407272
16,88370,570379
16,88783,724998
16,89195,839576
16,89607,882271
16,90020,886372
16,90432,800459
16,90843,699298
16,91257,576357
16,91668,459023
16,92080,380450
16,92493,348389
16,92905,359391
16,93317,418707
16,93730,514629
16,94142,634053
16,94553,759503
16,94965,860625
16,95378,942607
16,95790,993475
16,96202,1015472
16,96615,1046712
16,97027,1090213
16,97438,1145423
16,97852,1221792
16,98263,1278355
16,98675,1267724
16,99088,1208067
16,99500,1068229
16,99912,905054
17,00325,730936
17,00737,573001
17,01148,446043
17,01562,349903
17,01973,275013
17,02385,227448
17,02798,187790
17,03210,160436
17,03622,140195
17,04033,126118
17,04447,114996
17,04858,102374
17,05270,96860
17,05683,90869
17,06095,85605
17,06507,80344
17,06920,74460
17,07332,70534
17,07743,62700
17,08157,61405
17,08568,55364
17,08980,53429
17,09393,49536
17,09805,48226
17,10217,43246
17,10630,42895
17,11042,39762
17,11453,40060
17,11867,38635
17,12278,33518
17,12690,35370
17,13102,33428
17,13515,34254
17,13927,31316
17,14338,31176
17,14752,30055
17,15163,30496
17,15575,28180
17,15988,26967
17,16400,25933
17,16812,26078
17,17225,26072
17,17637,25522
17,18048,24552
17,18462,25058
17,18873,23823
17,19285,23800
17,19698,23918
17,20110,26622
17,20522,25463
17,20935,30329
17,21347,41954
17,21758,60262
17,22170,96184
17,22583,150938
17,22995,239903
17,23407,361970
17,23820,523822
17,24232,711857
17,24643,896322
17,25057,1060902
17,25468,1148724
17,25880,1160339
17,26293,1080173
17,26705,919066
17,27117,749746
17,27530,586611
17,27942,457327
17,28353,349167
17,28767,274019
17,29178,220519
17,29590,183908
17,30003,154915
17,30415,132100
17,30827,116513
17,31238,102931
17,31652,92201
17,32063,83786
17,32475,77478
17,32888,71624
17,33300,67424
17,33712,58019
17,34125,59763
17,34537,52414
17,34948,50759
17,35362,47504
17,35773,46300
17,36185,46680
17,36598,43818
17,37010,45225
17,37422,40199
17,37835,40863
17,38247,38905
17,38658,37714
17,39072,36401
17,39483,34116
17,39895,32508
17,40307,32520
17,40720,28734
17,41132,31422
17,41543,29532
17,41957,30835
17,42368,29503
17,42780,28192
17,43193,27783
17,43605,27095
17,44017,29104
17,44430,28028
17,44842,27221
17,45253,28190
17,45667,26786
17,46078,26268
17,46490,27082
17,46903,24899
17,47315,26187
17,47727,25404
17,48140,27987
17,48552,35520
17,48963,48022
17,49375,76414
17,49788,123210
17,50200,197195
17,50612,307761
17,51025,450904
17,51437,609261
17,51848,752990
17,52262,867870
17,52673,930821
17,53085,917914
17,53498,848998
17,53910,747756
17,54322,626442
17,54735,500703
17,55147,400031
17,55558,309839
17,55972,245448
17,56383,196767
17,56795,166165
17,57208,138274
17,57620,123599
17,58032,116269
17,58443,123099
17,58857,140222
17,59268,173812
17,59680,234962
17,60093,310776
17,60505,412597
17,60917,516151
17,61330,608525
17,61742,672362
17,62153,697489
17,62567,680524
17,62978,628786
17,63390,552052
17,63803,463723
17,64215,376469
17,64627,307978
17,65040,243547
17,65452,203159
17,65863,156544
17,66277,132847
17,66688,112180
17,67100,97870
17,67512,84120
17,67925,76132
17,68337,69368
17,68748,59302
17,69162,57243
17,69573,53671
17,69985,53110
17,70398,46676
17,70810,45458
17,71222,42600
17,71635,41747
17,72047,37989
17,72458,37493
17,72872,37484
17,73283,33724
17,73695,35926
17,74108,34130
17,74520,31183
17,74932,32175
17,75345,30164
17,75757,29758
17,76168,27594
17,76580,27751
17,76993,27312
17,77405,26451
17,77817,27127
17,78230,27225
17,78642,27203
17,79053,25360
17,79467,24841
17,79878,24529
17,80290,23411
17,80703,22581
17,81115,23488
17,81527,23311
17,81940,21841
17,82352,22189
17,82763,24394
17,83177,24065
17,83588,25031
17,84000,31547
17,84413,42957
17,84825,64789
17,85237,101906
17,85648,156538
17,86062,238701
17,86473,361806
17,86885,515818
17,87298,700535
17,87710,918106
17,88122,1169715
17,88535,1425848
17,88947,1673015
17,89358,1894173
17,89772,2047072
17,90183,2029844
17,90595,1895454
17,91008,1628642
17,91420,1335240
17,91832,1037223
17,92245,807530
17,92657,622110
17,93068,494229
17,93482,396800
17,93893,330676
17,94305,275424
17,94718,242360
17,95130,209334
17,95542,191747
17,95953,168641
17,96367,150693
17,96778,139084
17,97190,132406
17,97603,117806
17,98015,109346
17,98427,102268
17,98840,96348
17,99252,91193
17,99663,84839
18,00077,81114
18,00488,74278
18,00900,71201
18,01313,68606
18,01725,65757
18,02137,62343
18,02550,58755
18,02962,58400
18,03373,54014
18,03787,52874
18,04198,50780
18,04610,50153
18,05022,47868
18,05435,48693
18,05847,46206
18,06258,45064
18,06672,44156
18,07083,43328
18,07495,42118
18,07908,41179
18,08320,39409
18,08732,38736
18,09145,36120
18,09557,35270
18,09968,36622
18,10382,36294
18,10793,33774
18,11205,33752
18,11618,33392
18,12030,33477
18,12442,31313
18,12855,32260
18,13267,30677
18,13678,30761
18,14090,30747
18,14503,28533
18,14915,29559
18,15327,31650
18,15740,31111
18,16152,31723
18,16563,26832
18,16977,27752
18,17388,29315
18,17800,28125
18,18213,27854
18,18625,28143
18,19037,26617
18,19450,27314
18,19862,29118
18,20273,33059
18,20687,36182
18,21098,48552
18,21510,70535
18,21923,101244
18,22335,152237
18,22747,225114
18,23158,317871
18,23572,445332
18,23983,579418
18,24395,723968
18,24808,847183
18,25220,929088
18,25632,965967
18,26045,936232
18,26457,854877
18,26868,753702
18,27282,632514
18,27693,522178
18,28105,424333
18,28518,349977
18,28930,275518
18,29342,230529
18,29755,197649
18,30167,166548
18,30578,148759
18,30992,132892
18,31403,120935
18,31815,106455
18,32227,98499
18,32640,89162
18,33052,87666
18,33463,78792
18,33877,75242
18,34288,69729
18,34700,67082
18,35113,64276
18,35525,61632
18,35937,55839
18,36350,55113
18,36762,53836
18,37173,49754
18,37587,47805
18,37998,45484
18,38410,42314
18,38823,41766
18,39235,40344
18,39647,38637
18,40060,39506
18,40472,36250
18,40883,37493
18,41295,35641
18,41708,35727
18,42120,32643
18,42532,34996
18,42945,33034
18,43357,30307
18,43768,30406
18,44182,29998
18,44593,28619
18,45005,30536
18,45418,30088
18,45830,29011
18,46242,28104
18,46655,28245
18,47067,31483
18,47478,29140
18,47892,33369
18,48303,31015
18,48715,30412
18,49128,28790
18,49540,28053
18,49952,29738
18,50363,29369
18,50777,25561
18,51188,26162
18,51600,25975
18,52013,25852
18,52425,27220
18,52837,26162
18,53250,24999
18,53662,25393
18,54073,25335
18,54487,24743
18,54898,23524
18,55310,25368
18,55723,24616
18,56135,25979
18,56547,24199
18,56960,25727
18,57372,24272
18,57783,26161
18,58197,26666
18,58608,27616
18,59020,25823
18,59432,26958
18,59845,24959
18,60257,24758
18,60668,23912
18,61082,23822
18,61493,22508
18,61905,20398
18,62318,19820
18,62730,23154
18,63142,21593
18,63555,21821
18,63967,19706
18,64378,19842
18,64792,18628
18,65203,19535
18,65615,19593
18,66028,18963
18,66440,17413
18,66852,18269
18,67265,17107
18,67677,18509
18,68088,17946
18,68500,19919
18,68913,17728
18,69325,20000
18,69737,19246
18,70150,21050
18,70562,20363
18,70973,19659
18,71387,19833
18,71798,19551
18,72210,21108
18,72623,20700
18,73035,21204
18,73447,19550
18,73860,19077
18,74272,20658
18,74683,18668
18,75097,19021
18,75508,20412
18,75920,18422
18,76333,19361
18,76745,19769
18,77157,19040
18,77568,19626
18,77982,17684
18,78393,19913
18,78805,19255
18,79218,21019
18,79630,19613
18,80042,19758
18,80455,20691
18,80867,20480
18,81278,19192
18,81692,18988
18,82103,19527
18,82515,20948
18,82928,19849
18,83340,20779
18,83752,19052
18,84165,18015
18,84577,18154
18,84988,17903
18,85402,18216
18,85813,18233
18,86225,19140
18,86637,18916
18,87050,18906
18,87462,17938
18,87873,18983
18,88287,17823
18,88698,17948
18,89110,19022
18,89523,19281
18,89935,18471
18,90347,19844
18,90760,18656
18,91172,18918
18,91583,18760
18,91997,18690
18,92408,17977
18,92820,16939
18,93233,18306
18,93645,17680
18,94057,18525
18,94470,17865
18,94882,18335
18,95293,17899
18,95705,17653
18,96118,16212
18,96530,17122
18,96942,18451
18,97355,17569
18,97767,15223
18,98178,19372
18,98592,17125
18,99003,18204
18,99415,19036
18,99828,15881
19,00240,15779
19,00652,16981
19,01065,17679
19,01477,16362
19,01888,17776
19,02302,16430
19,02713,18072
19,03125,17679
19,03538,18979
19,03950,18498
19,04362,17737
19,04773,17394
19,05187,17271
19,05598,16145
19,06010,17824
19,06423,16733
19,06835,17048
19,07247,16316
19,07660,19277
19,08072,15971
19,08483,16232
19,08897,17571
19,09308,16737
19,09720,16681
19,10133,16730
19,10545,15997
19,10957,19860
19,11370,17343
19,11782,16645
19,12193,17229
19,12607,16568
19,13018,18737
19,13430,18849
19,13842,17683
19,14255,16659
19,14667,18168
19,15078,17727
19,15492,19194
19,15903,19953
19,16315,17821
19,16728,15892
19,17140,18129
19,17552,17857
19,17965,16026
19,18377,14646
19,18788,15860
19,19202,16287
19,19613,17631
19,20025,16003
19,20438,15737
19,20850,16371
19,21262,15401
19,21675,17275
19,22087,15556
19,22498,17912
19,22910,15958
19,23323,17738
19,23735,16615
19,24147,18401
19,24560,16570
19,24972,17230
19,25383,18911
19,25797,18144
19,26208,17940
19,26620,15917
19,27033,17373
19,27445,17397
19,27857,17414
19,28270,17039
19,28682,15871
19,29093,16591
19,29507,16861
19,29918,17210
19,30330,19185
19,30743,22490
19,31155,29018
19,31567,32994
19,31978,48344
19,32392,69313
19,32803,96901
19,33215,138670
19,33628,190014
19,34040,248851
19,34452,308846
19,34865,374603
19,35277,428283
19,35688,470089
19,36102,494891
19,36513,487600
19,36925,468247
19,37338,434369
19,37750,386938
19,38162,338672
19,38575,287658
19,38987,241250
19,39398,207612
19,39812,178756
19,40223,147844
19,40635,128677
19,41047,111856
19,41460,98423
19,41872,88181
19,42283,78946
19,42697,70314
19,43108,66041
19,43520,58784
19,43933,55609
19,44345,52303
19,44757,50117
19,45170,45634
19,45582,42870
19,45993,43360
19,46407,41799
19,46818,40383
19,47230,38301
19,47643,35835
19,48055,33895
19,48467,33176
19,48880,32451
19,49292,30698
19,49703,32806
19,50115,31944
19,50528,28465
19,50940,29044
19,51352,29043
19,51765,28944
19,52177,27443
19,52588,27951
19,53002,27200
19,53413,25808
19,53825,27065
19,54238,27062
19,54650,25901
19,55062,25042
19,55475,23767
19,55887,25024
19,56298,22482
19,56712,23876
19,57123,24137
19,57535,21899
19,57948,24001
19,58360,23259
19,58772,22332
19,59185,22819
19,59597,22562
19,60008,21728
19,60420,20137
19,60833,21000
19,61245,23355
19,61657,21101
19,62070,22753
19,62482,21544
19,62893,20950
19,63307,19927
19,63718,19042
19,64130,18968
19,64543,20161
19,64955,19214
19,65367,20370
19,65780,21815
19,66192,18520
19,66603,20035
19,67017,20802
19,67428,20302
19,67840,18205
19,68253,21199
19,68665,17484
19,69077,18385
19,69488,17569
19,69902,17551
19,70313,17664
19,70725,18190
19,71138,19886
19,71550,19529
19,71962,18042
19,72375,18306
19,72787,18290
19,73198,17532
19,73612,18980
19,74023,18367
19,74435,19154
19,74848,18919
19,75260,18372
19,75672,17082
19,76085,20056
19,76497,17634
19,76908,18893
19,77322,19411
19,77733,17993
19,78145,17536
19,78557,19012
19,78970,18483
19,79382,18698
19,79793,18466
19,80207,19611
19,80618,20283
19,81030,19077
19,81443,18419
19,81855,17881
19,82267,19559
19,82680,18591
19,83092,18651
19,83503,18561
19,83917,17755
19,84328,16278
19,84740,15300
19,85153,18459
19,85565,19099
19,85977,17902
19,86390,19222
19,86802,17951
19,87213,19835
19,87625,18181
19,88038,17775
19,88450,18686
19,88862,18295
19,89275,18587
19,89687,16394
19,90098,17074
19,90512,17161
19,90923,18171
19,91335,16060
19,91748,17986
19,92160,17349
19,92572,17178
19,92985,17644
19,93397,16784
19,93808,16049
19,94222,17132
19,94633,16820
19,95045,16444
19,95458,16798
19,95870,16808
19,96282,19940
19,96693,17552
19,97107,17960
19,97518,17326
19,97930,19041
19,98343,18532
19,98755,17686
19,99167,17155
19,99580,18332
19,99992,18173
20,00403,18812
20,00817,17676
20,01228,18012
20,01640,18715
20,02053,18624
20,02465,18740
20,02877,16887
20,03290,16746
20,03702,18229
20,04113,16831
20,04527,16837
20,04938,19117
20,05350,16770
20,05762,17034
20,06175,16816
20,06587,19115
20,06998,16822
20,07412,18111
20,07823,17112
20,08235,17039
20,08648,18299
20,09060,17151
20,09472,17159
20,09885,17699
20,10297,17134
20,10708,16530
20,11122,19386
20,11533,17542
20,11945,18101
20,12358,18333
20,12770,17318
20,13182,15613
20,13595,16976
20,14007,15478
20,14418,17094
20,14830,17608
20,15243,17438
20,15655,17712
20,16067,18961
20,16480,17343
20,16892,17108
20,17303,18123
20,17717,22263
20,18128,21099
20,18540,18879
20,18953,18915
20,19365,20253
20,19777,19326
20,20190,19203
20,20602,18668
20,21013,17480
20,21427,17852
20,21838,16985
20,22250,17985
20,22663,16808
20,23075,18409
20,23487,18250
20,23898,18538
20,24312,17234
20,24723,17812
20,25135,16818
20,25548,15616
20,25960,17772
20,26372,17074
20,26785,17050
20,27197,19772
20,27608,17490
20,28022,15569
20,28433,18483
20,28845,17676
20,29258,16759
20,29670,17307
20,30082,16387
20,30495,17331
20,30907,16258
20,31318,18350
20,31732,17574
20,32143,16897
20,32555,16879
20,32967,16375
20,33380,16321
20,33792,16284
20,34203,15894
20,34617,17474
20,35028,16950
20,35440,17333
20,35853,17555
20,36265,16466
20,36677,18614
20,37090,18530
20,37502,17053
20,37913,16915
20,38327,17406
20,38738,18235
20,39150,17433
20,39563,17579
20,39975,17387
20,40387,18691
20,40800,19668
20,41212,17391
20,41623,17296
20,42035,19188
20,42448,19125
20,42860,18017
20,43272,19816
20,43685,16914
20,44097,17283
20,44508,17532
20,44922,17894
20,45333,17954
20,45745,17151
20,46158,18433
20,46570,19564
20,46982,18613
20,47395,18185
20,47807,17103
20,48218,17848
20,48632,17591
20,49043,19306
20,49455,17068
20,49868,16410
20,50280,16335
20,50692,15574
20,51103,17808
20,51517,15576
20,51928,16625
20,52340,17736
20,52753,16039
20,53165,16244
20,53577,16552
20,53990,18019
20,54402,17091
20,54813,15831
20,55227,15476
20,55638,16159
20,56050,17720
20,56463,15691
20,56875,17424
20,57287,16351
20,57700,18665
20,58112,15909
20,58523,15701
20,58937,16311
20,59348,17859
20,59760,17405
20,60172,16280
20,60585,16229
20,60997,14266
20,61408,16752
20,61822,16927
20,62233,16668
20,62645,17015
20,63058,16664
20,63470,17631
20,63882,17705
20,64295,17713
20,64707,16862
20,65118,16374
20,65532,15657
20,65943,15993
20,66355,16572
20,66768,16315
20,67180,16357
20,67592,15913
20,68005,16331
20,68417,15716
20,68828,16344
20,69240,17618
20,69653,17613
20,70065,16974
20,70477,16089
20,70890,15926
20,71302,16303
20,71713,15691
20,72127,15957
20,72538,15743
20,72950,17216
20,73363,16714
20,73775,16788
20,74187,17608
20,74600,15989
20,75012,18082
20,75423,17570
20,75837,17705
20,76248,17082
20,76660,17900
20,77073,17218
20,77485,18249
20,77897,17820
20,78308,19203
20,78722,18275
20,79133,17835
20,79545,18639
20,79958,17569
20,80370,18529
20,80782,19646
20,81195,15816
20,81607,16594
20,82018,17733
20,82432,18705
20,82843,19333
20,83255,16962
20,83668,15770
20,84080,16620
20,84492,17426
20,84905,16668
20,85317,16819
20,85728,17222
20,86142,17075
20,86553,17914
20,86965,17360
20,87377,18867
20,87790,18795
20,88202,16218
20,88613,16721
20,89027,16821
20,89438,16380
20,89850,15958
20,90263,15951
20,90675,17861
20,91087,17726
20,91500,15763
20,91912,15544
20,92323,15576
20,92737,16050
20,93148,16197
20,93560,15777
20,93973,16120
20,94385,15960
20,94797,16871
20,95210,15610
20,95622,16998
20,96033,15337
20,96445,15878
20,96858,16893
20,97270,15829
20,97682,17732
20,98095,15161
20,98507,18572
20,98918,14987
20,99332,15101
20,99743,16139
21,00155,16386
21,00568,16732
21,00980,17110
21,01392,16060
21,01805,16977
21,02217,17365
21,02628,16633
21,03042,16290
21,03453,16077
21,03865,16544
21,04278,17126
21,04690,14589
21,05102,17150
21,05513,16326
21,05927,17405
21,06338,15761
21,06750,15997
21,07163,16903
21,07575,15617
21,07987,15675
21,08400,17198
21,08812,14837
21,09223,17437
21,09637,15617
21,10048,17005
21,10460,16801
21,10873,16502
21,11285,16468
21,11697,14511
21,12110,15509
21,12522,15824
21,12933,17059
21,13347,16192
21,13758,17260
21,14170,15407
21,14582,16415
21,14995,15218
21,15407,17044
21,15818,17968
21,16232,15589
21,16643,15574
21,17055,15328
21,17468,14258
21,17880,14719
21,18292,15685
21,18705,14774
21,19117,14084
21,19528,15226
21,19942,15166
21,20353,15055
21,20765,15763
21,21178,15011
21,21590,15273
21,22002,15974
21,22415,14995
21,22827,16419
21,23238,16702
21,23650,14760
21,24063,14287
21,24475,14813
21,24887,15361
21,25300,16527
21,25712,16107
21,26123,15070
21,26537,14881
21,26948,17028
21,27360,15734
21,27773,15920
21,28185,15393
21,28597,16242
21,29010,16618
21,29422,15564
21,29833,15314
21,30247,16299
21,30658,15368
21,31070,16569
21,31483,15115
21,31895,16512
21,32307,15189
21,32720,16936
21,33132,14718
21,33543,15918
21,33955,14670
21,34368,16082
21,34780,16863
21,35192,15302
21,35605,15026
21,36017,15076
21,36428,14616
21,36842,14026
21,37253,15281
21,37665,14186
21,38078,15666
