D:\MassHunter\GCMS\1\data\Amal\Constant flow\140C\140C_1ml-min_5C-min_3.D Fri Sep 13 15:16:47 2024
Start of data points
4,84088	4669066
4,84500	4431820
4,84912	4168687
4,85323	3933943
4,85737	3755720
4,86148	3620057
4,86560	3431604
4,86973	3201561
4,87385	3071851
4,87797	2870635
4,88210	2735586
4,88622	2600660
4,89033	2503279
4,89447	2333712
4,89858	2229230
4,90270	2119395
4,90683	2010775
4,91095	1918830
4,91507	1829309
4,91920	1734825
4,92332	1673605
4,92743	1598497
4,93157	1522677
4,93568	1431598
4,93980	1376717
4,94392	1326999
4,94805	1308074
4,95217	1332261
4,95628	1385192
4,96042	1471382
4,96453	1563422
4,96865	1623102
4,97278	1658512
4,97690	1650517
4,98102	1629487
4,98515	1573431
4,98927	1525256
4,99338	1484872
4,99752	1432887
5,00163	1398102
5,00575	1340203
5,00988	1276431
5,01400	1245701
5,01812	1207174
5,02225	1159055
5,02637	1126791
5,03048	1080488
5,03460	1043771
5,03873	1017308
5,04285	978344
5,04697	953034
5,05110	909024
5,05522	882976
5,05933	847787
5,06347	814169
5,06758	798399
5,07170	789400
5,07583	744782
5,07995	724284
5,08407	701467
5,08820	677422
5,09232	648590
5,09643	622201
5,10057	606543
5,10468	592527
5,10880	566335
5,11293	538664
5,11705	527631
5,12117	499075
5,12528	480032
5,12942	458102
5,13353	440734
5,13765	420799
5,14178	401680
5,14590	384401
5,15002	369785
5,15415	352255
5,15827	335280
5,16238	324666
5,16652	310800
5,17063	290266
5,17475	281467
5,17888	270931
5,18300	259743
5,18712	250897
5,19125	238617
5,19537	232187
5,19948	225610
5,20362	219061
5,20773	212063
5,21185	200743
5,21597	196604
5,22010	192557
5,22422	183980
5,22833	181246
5,23247	177451
5,23658	173704
5,24070	166546
5,24483	168766
5,24895	158193
5,25307	157116
5,25720	154701
5,26132	150535
5,26543	149993
5,26957	149419
5,27368	144051
5,27780	144539
5,28193	141705
5,28605	137989
5,29017	133306
5,29430	136083
5,29842	131254
5,30253	130506
5,30665	130116
5,31078	129611
5,31490	126283
5,31902	124215
5,32315	125234
5,32727	122037
5,33138	121644
5,33552	121650
5,33963	118194
5,34375	118420
5,34788	118630
5,35200	116309
5,35612	114678
5,36025	116535
5,36437	110981
5,36848	111260
5,37262	106739
5,37673	112283
5,38085	111133
5,38498	107761
5,38910	109381
5,39322	106028
5,39735	106026
5,40147	105208
5,40558	104965
5,40970	103035
5,41383	104056
5,41795	104936
5,42207	102596
5,42620	101347
5,43032	99551
5,43443	101789
5,43857	98091
5,44268	97672
5,44680	99268
5,45093	100730
5,45505	95836
5,45917	94602
5,46330	94604
5,46742	95434
5,47153	94589
5,47567	94027
5,47978	95285
5,48390	92002
5,48803	92448
5,49215	92114
5,49627	92675
5,50038	93951
5,50452	92555
5,50863	91295
5,51275	94216
5,51688	93677
5,52100	91913
5,52512	93502
5,52925	92366
5,53337	92344
5,53748	93573
5,54162	89516
5,54573	88755
5,54985	92502
5,55398	89140
5,55810	89443
5,56222	89260
5,56635	88766
5,57047	85847
5,57458	88407
5,57872	88592
5,58283	87860
5,58695	89201
5,59107	85408
5,59520	84699
5,59932	86687
5,60343	84817
5,60757	85164
5,61168	87207
5,61580	83558
5,61993	82782
5,62405	84112
5,62817	83574
5,63230	80414
5,63642	83548
5,64053	80998
5,64467	80410
5,64878	84194
5,65290	83330
5,65703	81012
5,66115	81837
5,66527	81485
5,66940	89946
5,67352	101859
5,67763	129698
5,68175	182394
5,68588	268640
5,69000	384932
5,69412	528438
5,69825	682273
5,70237	825003
5,70648	939053
5,71062	1032723
5,71473	1079425
5,71885	1109468
5,72298	1100394
5,72710	1095087
5,73122	1060616
5,73535	1044813
5,73947	1021439
5,74358	1000791
5,74772	979144
5,75183	942594
5,75595	914630
5,76008	892492
5,76420	859491
5,76832	829477
5,77243	801500
5,77657	785601
5,78068	761553
5,78480	734300
5,78893	713875
5,79305	689732
5,79717	664961
5,80130	644685
5,80542	622909
5,80953	596296
5,81367	570357
5,81778	556494
5,82190	526657
5,82603	507869
5,83015	485478
5,83427	459686
5,83840	436159
5,84252	409237
5,84663	382627
5,85077	364619
5,85488	336415
5,85900	313780
5,86312	299729
5,86725	279167
5,87137	261672
5,87548	245446
5,87962	226591
5,88373	216407
5,88785	207490
5,89198	195380
5,89610	179857
5,90022	170677
5,90435	161730
5,90847	153948
5,91258	144457
5,91672	141300
5,92083	131430
5,92495	128309
5,92908	125392
5,93320	115306
5,93732	112452
5,94145	109607
5,94557	103949
5,94968	103937
5,95380	97854
5,95793	96138
5,96205	91977
5,96617	91337
5,97030	88699
5,97442	85480
5,97853	84579
5,98267	81902
5,98678	81250
5,99090	79399
5,99503	81664
5,99915	75846
6,00327	76606
6,00740	75430
6,01152	75006
6,01563	74785
6,01977	70555
6,02388	72687
6,02800	71923
6,03213	71508
6,03625	68888
6,04037	69884
6,04448	68114
6,04862	67307
6,05273	65739
6,05685	65709
6,06098	67136
6,06510	68362
6,06922	64774
6,07335	65751
6,07747	67496
6,08158	64906
6,08572	64911
6,08983	65661
6,09395	66427
6,09808	66147
6,10220	66773
6,10632	65353
6,11045	63111
6,11457	66028
6,11868	66411
6,12282	66575
6,12693	62201
6,13105	62088
6,13517	63296
6,13930	64472
6,14342	62626
6,14753	63514
6,15167	61992
6,15578	59559
6,15990	59696
6,16403	58416
6,16815	56713
6,17227	57878
6,17640	57208
6,18052	57806
6,18463	56503
6,18877	60796
6,19288	58376
6,19700	63642
6,20113	68159
6,20525	83718
6,20937	110531
6,21350	148341
6,21762	205827
6,22173	276603
6,22585	353426
6,22998	424190
6,23410	493073
6,23822	550361
6,24235	590716
6,24647	614059
6,25058	625182
6,25472	619895
6,25883	621268
6,26295	607866
6,26708	599122
6,27120	581897
6,27532	561651
6,27945	540871
6,28357	525332
6,28768	511059
6,29182	493475
6,29593	485202
6,30005	455999
6,30418	454726
6,30830	436466
6,31242	419892
6,31653	402130
6,32067	384029
6,32478	373502
6,32890	362710
6,33303	342227
6,33715	327884
6,34127	311498
6,34540	295230
6,34952	279747
6,35363	265607
6,35777	245319
6,36188	232052
6,36600	222962
6,37013	205022
6,37425	192898
6,37837	178126
6,38250	165336
6,38662	155273
6,39073	147220
6,39487	139950
6,39898	126157
6,40310	121974
6,40722	115996
6,41135	109386
6,41547	104086
6,41958	99260
6,42372	93485
6,42783	88357
6,43195	84575
6,43608	81964
6,44020	79353
6,44432	74547
6,44845	74114
6,45257	72678
6,45668	69317
6,46082	68478
6,46493	66910
6,46905	66446
6,47318	63806
6,47730	60578
6,48142	62632
6,48555	58758
6,48967	56831
6,49378	56571
6,49790	55816
6,50203	55334
6,50615	51646
6,51027	52783
6,51440	52597
6,51852	52253
6,52263	52735
6,52677	50960
6,53088	50597
6,53500	50334
6,53913	47497
6,54325	48684
6,54737	48612
6,55150	50033
6,55562	49267
6,55973	46724
6,56387	47314
6,56798	47399
6,57210	46425
6,57623	47611
6,58035	49682
6,58447	47055
6,58858	46963
6,59272	47536
6,59683	46517
6,60095	46709
6,60508	45077
6,60920	45369
6,61332	47562
6,61745	46035
6,62157	44997
6,62568	46132
6,62982	45735
6,63393	43686
6,63805	44636
6,64218	44995
6,64630	42377
6,65042	42412
6,65455	43463
6,65867	43107
6,66278	43736
6,66692	43495
6,67103	41096
6,67515	42571
6,67927	41362
6,68340	41730
6,68752	41572
6,69163	41000
6,69577	40988
6,69988	41698
6,70400	40022
6,70813	39345
6,71225	38789
6,71637	40205
6,72050	41923
6,72462	40221
6,72873	39567
6,73287	40928
6,73698	40336
6,74110	38883
6,74523	39551
6,74935	39172
6,75347	39239
6,75760	38774
6,76172	38650
6,76583	37342
6,76995	39930
6,77408	39692
6,77820	38957
6,78232	38106
6,78645	36897
6,79057	38914
6,79468	38630
6,79882	39589
6,80293	40056
6,80705	37885
6,81118	36736
6,81530	40282
6,81942	38504
6,82355	37225
6,82767	38770
6,83178	40052
6,83592	39123
6,84003	39493
6,84415	47408
6,84828	56756
6,85240	78059
6,85652	115238
6,86063	175903
6,86477	260725
6,86888	381557
6,87300	520754
6,87713	684872
6,88125	853773
6,88537	1010778
6,88950	1134167
6,89362	1240485
6,89773	1306748
6,90187	1334135
6,90598	1344330
6,91010	1343475
6,91423	1325025
6,91835	1291579
6,92247	1259822
6,92660	1222720
6,93072	1178346
6,93483	1134171
6,93897	1085928
6,94308	1048492
6,94720	1001981
6,95133	949884
6,95545	918604
6,95957	882492
6,96368	840997
6,96782	800577
6,97193	759973
6,97605	712114
6,98018	672647
6,98430	632005
6,98842	585244
6,99255	538270
6,99667	501627
7,00078	461794
7,00492	424730
7,00903	388123
7,01315	351357
7,01728	325112
7,02140	297285
7,02552	270574
7,02965	246315
7,03377	222829
7,03788	207088
7,04202	188027
7,04613	174487
7,05025	162014
7,05437	151201
7,05850	137739
7,06262	125081
7,06673	117130
7,07087	111053
7,07498	103859
7,07910	95310
7,08323	91422
7,08735	84338
7,09147	79708
7,09560	73826
7,09972	73777
7,10383	69046
7,10797	66075
7,11208	65036
7,11620	62423
7,12033	59714
7,12445	58092
7,12857	54579
7,13270	54644
7,13682	51662
7,14093	51673
7,14505	50993
7,14918	49202
7,15330	47920
7,15742	49361
7,16155	46009
7,16567	45090
7,16978	45438
7,17392	43107
7,17803	44157
7,18215	43818
7,18628	41078
7,19040	41839
7,19452	42101
7,19865	39691
7,20277	41299
7,20688	39304
7,21102	39750
7,21513	41301
7,21925	39891
7,22338	39769
7,22750	38775
7,23162	37719
7,23573	37933
7,23987	36375
7,24398	38693
7,24810	38407
7,25223	36433
7,25635	36199
7,26047	37526
7,26460	34186
7,26872	35876
7,27283	37220
7,27697	37463
7,28108	35184
7,28520	34991
7,28933	35848
7,29345	35481
7,29757	35933
7,30170	34467
7,30582	34450
7,30993	34794
7,31407	33268
7,31818	35181
7,32230	33615
7,32642	34100
7,33055	32771
7,33467	31941
7,33878	33606
7,34292	31321
7,34703	30766
7,35115	32556
7,35528	32012
7,35940	32044
7,36352	32173
7,36765	31598
7,37177	31440
7,37588	31859
7,38002	30207
7,38413	33595
7,38825	32282
7,39238	32009
7,39650	31029
7,40062	31183
7,40475	32805
7,40887	30324
7,41298	30354
7,41710	29609
7,42123	31010
7,42535	30523
7,42947	31506
7,43360	30821
7,43772	31009
7,44183	30085
7,44597	31285
7,45008	30395
7,45420	30870
7,45833	31178
7,46245	31870
7,46657	30668
7,47070	29402
7,47482	29063
7,47893	30114
7,48307	30320
7,48718	28565
7,49130	30969
7,49543	28609
7,49955	30218
7,50367	28874
7,50778	29095
7,51192	30386
7,51603	29041
7,52015	28923
7,52428	29873
7,52840	29061
7,53252	28429
7,53665	30020
7,54077	26679
7,54488	28794
7,54902	28370
7,55313	27733
7,55725	28798
7,56138	27750
7,56550	28689
7,56962	27481
7,57375	28413
7,57787	28261
7,58198	27790
7,58612	28458
7,59023	29084
7,59435	27499
7,59847	27993
7,60260	27314
7,60672	28923
7,61083	31435
7,61497	32147
7,61908	37876
7,62320	45320
7,62733	59208
7,63145	81349
7,63557	116231
7,63970	166885
7,64382	223840
7,64793	302028
7,65207	384872
7,65618	468851
7,66030	555814
7,66443	622478
7,66855	688326
7,67267	731595
7,67680	755788
7,68092	768786
7,68503	769658
7,68915	768004
7,69328	744446
7,69740	726459
7,70152	706601
7,70565	674656
7,70977	645389
7,71388	616037
7,71802	582749
7,72213	558791
7,72625	531876
7,73038	502421
7,73450	471417
7,73862	438757
7,74275	411156
7,74687	378472
7,75098	350423
7,75512	322944
7,75923	292012
7,76335	264759
7,76748	243771
7,77160	218664
7,77572	201269
7,77983	181753
7,78397	165797
7,78808	150450
7,79220	136732
7,79633	125393
7,80045	112169
7,80457	102290
7,80870	94365
7,81282	89279
7,81693	82526
7,82107	76523
7,82518	68302
7,82930	65989
7,83343	62297
7,83755	60388
7,84167	57155
7,84580	52858
7,84992	51253
7,85403	51318
7,85817	47303
7,86228	47530
7,86640	45175
7,87052	42583
7,87465	40921
7,87877	40356
7,88288	40526
7,88702	39656
7,89113	38099
7,89525	37357
7,89938	35752
7,90350	35111
7,90762	34648
7,91175	34256
7,91587	34744
7,91998	32478
7,92412	31607
7,92823	31777
7,93235	32514
7,93648	30835
7,94060	30108
7,94472	30446
7,94885	30611
7,95297	29510
7,95708	30288
7,96120	29304
7,96533	30862
7,96945	30872
7,97357	30207
7,97770	30395
7,98182	28032
7,98593	28543
7,99007	28284
7,99418	28082
7,99830	27873
8,00243	28012
8,00655	27705
8,01067	27432
8,01480	27199
8,01892	26543
8,02303	26589
8,02717	26300
8,03128	27706
8,03540	27120
8,03953	26935
8,04365	25654
8,04777	27308
8,05188	27407
8,05602	25243
8,06013	26915
8,06425	27461
8,06838	25575
8,07250	28372
8,07662	27793
8,08075	28438
8,08487	27171
8,08898	27299
8,09312	27041
8,09723	28051
8,10135	29680
8,10548	29045
8,10960	27540
8,11372	28918
8,11785	27768
8,12197	29674
8,12608	27110
8,13022	29448
8,13433	26019
8,13845	26272
8,14257	25778
8,14670	25590
8,15082	25072
8,15493	26584
8,15907	26687
8,16318	25891
8,16730	25173
8,17143	24341
8,17555	24408
8,17967	26229
8,18380	25931
8,18792	24036
8,19203	24394
8,19617	24669
8,20028	23616
8,20440	23732
8,20853	23488
8,21265	22941
8,21677	21259
8,22090	23573
8,22502	23061
8,22913	23766
8,23325	22687
8,23738	22134
8,24150	24015
8,24562	23939
8,24975	21907
8,25387	22612
8,25798	22543
8,26212	22288
8,26623	21435
8,27035	22617
8,27448	21521
8,27860	21954
8,28272	22264
8,28685	22533
8,29097	21626
8,29508	21870
8,29922	21965
8,30333	21854
8,30745	22310
8,31158	22182
8,31570	20583
8,31982	20685
8,32393	21594
8,32807	22415
8,33218	21681
8,33630	20612
8,34043	21491
8,34455	21626
8,34867	21514
8,35280	21266
8,35692	23188
8,36103	22237
8,36517	20651
8,36928	21676
8,37340	23478
8,37753	24656
8,38165	23189
8,38577	23932
8,38990	23782
8,39402	23936
8,39813	25587
8,40227	25854
8,40638	25769
8,41050	26904
8,41462	25334
8,41875	25856
8,42287	26431
8,42698	25451
8,43112	25070
8,43523	24513
8,43935	24703
8,44348	25464
8,44760	24004
8,45172	25880
8,45585	25656
8,45997	23991
8,46408	26176
8,46822	23966
8,47233	23710
8,47645	23278
8,48058	24529
8,48470	23403
8,48882	23756
8,49295	22658
8,49707	24621
8,50118	27921
8,50532	33903
8,50943	45550
8,51355	66124
8,51767	103841
8,52180	158470
8,52592	244361
8,53003	360582
8,53417	505870
8,53828	675636
8,54240	864003
8,54653	1058492
8,55065	1246763
8,55477	1409435
8,55890	1553974
8,56302	1641686
8,56713	1711534
8,57127	1744605
8,57538	1749087
8,57950	1731779
8,58363	1668066
8,58775	1595536
8,59187	1536874
8,59600	1464829
8,60012	1386947
8,60423	1293635
8,60835	1218207
8,61248	1114344
8,61660	1024881
8,62072	943451
8,62485	853357
8,62897	782890
8,63308	703992
8,63722	627947
8,64133	562746
8,64545	494548
8,64958	439082
8,65370	392971
8,65782	351699
8,66195	308463
8,66607	273533
8,67018	237907
8,67432	213454
8,67843	192258
8,68255	172260
8,68668	157849
8,69080	139167
8,69492	129273
8,69903	118376
8,70317	107917
8,70728	96133
8,71140	93735
8,71553	88099
8,71965	81104
8,72377	76981
8,72790	73013
8,73202	68824
8,73613	68077
8,74027	63272
8,74438	62223
8,74850	59390
8,75263	58399
8,75675	59230
8,76087	56016
8,76500	54539
8,76912	52254
8,77323	52452
8,77737	52376
8,78148	50432
8,78560	50553
8,78972	47759
8,79385	46395
8,79797	42263
8,80208	43102
8,80622	42383
8,81033	39736
8,81445	40075
8,81858	37419
8,82270	37218
8,82682	36906
8,83095	35493
8,83507	33678
8,83918	34004
8,84332	33274
8,84743	31539
8,85155	33264
8,85568	33365
8,85980	31026
8,86392	30307
8,86805	29839
8,87217	29747
8,87628	28399
8,88040	28158
8,88453	27858
8,88865	27324
8,89277	26093
8,89690	28680
8,90102	25707
8,90513	26003
8,90927	26211
8,91338	25457
8,91750	24113
8,92163	25116
8,92575	23901
8,92987	23548
8,93400	23689
8,93812	25672
8,94223	23424
8,94637	25257
8,95048	23617
8,95460	25054
8,95873	25835
8,96285	25982
8,96697	26681
8,97108	26143
8,97522	27426
8,97933	26890
8,98345	27498
8,98758	25628
8,99170	27305
8,99582	28214
8,99995	27430
9,00407	27363
9,00818	27502
9,01232	27544
9,01643	26192
9,02055	28262
9,02468	26818
9,02880	27195
9,03292	26632
9,03705	27292
9,04117	28188
9,04528	26048
9,04942	26798
9,05353	25930
9,05765	26144
9,06177	26022
9,06590	24062
9,07002	24754
9,07413	24565
9,07827	23598
9,08238	22927
9,08650	21895
9,09063	21842
9,09475	23260
9,09887	22835
9,10300	20801
9,10712	21017
9,11123	20787
9,11537	21544
9,11948	21291
9,12360	21600
9,12773	20135
9,13185	19478
9,13597	19607
9,14010	19775
9,14422	21934
9,14833	20087
9,15245	19914
9,15658	19070
9,16070	20411
9,16482	19563
9,16895	20157
9,17307	18531
9,17718	19520
9,18132	18028
9,18543	19948
9,18955	19011
9,19368	17911
9,19780	18381
9,20192	18826
9,20605	20866
9,21017	19018
9,21428	19145
9,21842	19808
9,22253	21271
9,22665	24603
9,23078	29290
9,23490	39423
9,23902	55244
9,24313	78669
9,24727	112900
9,25138	165376
9,25550	225044
9,25963	299585
9,26375	386060
9,26787	478317
9,27200	571177
9,27612	655664
9,28023	727521
9,28437	787409
9,28848	828381
9,29260	857696
9,29673	864436
9,30085	861987
9,30497	848006
9,30910	811012
9,31322	775065
9,31733	733863
9,32147	686839
9,32558	646594
9,32970	592349
9,33382	542226
9,33795	501736
9,34207	451485
9,34618	406751
9,35032	363179
9,35443	325079
9,35855	289386
9,36268	256726
9,36680	224408
9,37092	206666
9,37505	181101
9,37917	161146
9,38328	143400
9,38742	129107
9,39153	114526
9,39565	105002
9,39978	95629
9,40390	87269
9,40802	77953
9,41215	73233
9,41627	67969
9,42038	65942
9,42450	60558
9,42863	56465
9,43275	49385
9,43687	49543
9,44100	45377
9,44512	45701
9,44923	43550
9,45337	40853
9,45748	39386
9,46160	37028
9,46573	36169
9,46985	35413
9,47397	36408
9,47810	34075
9,48222	34565
9,48633	34845
9,49047	38045
9,49458	45772
9,49870	60467
9,50283	84195
9,50695	118073
9,51107	165677
9,51518	231595
9,51932	313237
9,52343	406226
9,52755	513919
9,53168	617040
9,53580	720317
9,53992	801385
9,54405	878887
9,54817	936348
9,55228	968960
9,55642	982169
9,56053	972884
9,56465	951496
9,56878	920354
9,57290	876327
9,57702	832143
9,58115	777595
9,58527	720493
9,58938	650102
9,59352	584208
9,59763	526467
9,60175	479013
9,60587	422128
9,61000	373468
9,61412	333216
9,61823	290634
9,62237	258506
9,62648	229572
9,63060	196920
9,63473	176426
9,63885	158236
9,64297	136308
9,64710	124889
9,65122	113788
9,65533	100844
9,65947	93224
9,66358	84479
9,66770	80988
9,67183	71583
9,67595	66882
9,68007	63028
9,68420	58808
9,68832	55143
9,69243	51733
9,69655	50365
9,70068	46819
9,70480	44981
9,70892	43511
9,71305	41949
9,71717	40210
9,72128	41602
9,72542	38233
9,72953	37099
9,73365	35329
9,73778	33061
9,74190	33195
9,74602	33234
9,75015	33365
9,75427	31799
9,75838	31657
9,76252	30525
9,76663	28655
9,77075	28089
9,77488	27119
9,77900	26560
9,78312	26552
9,78723	26346
9,79137	25966
9,79548	25786
9,79960	24653
9,80373	24109
9,80785	25280
9,81197	24499
9,81610	23614
9,82022	21599
9,82433	22361
9,82847	22144
9,83258	22972
9,83670	21263
9,84083	20437
9,84495	21244
9,84907	20556
9,85320	20971
9,85732	20615
9,86143	21302
9,86557	20265
9,86968	19510
9,87380	19135
9,87792	19632
9,88205	19303
9,88617	19321
9,89028	20355
9,89442	18657
9,89853	17316
9,90265	19565
9,90678	18581
9,91090	18081
9,91502	18767
9,91915	19336
9,92327	18256
9,92738	17553
9,93152	16700
9,93563	17786
9,93975	18613
9,94388	17882
9,94800	17874
9,95212	18501
9,95625	17300
9,96037	17663
9,96448	16525
9,96860	16329
9,97273	15952
9,97685	17234
9,98097	16902
9,98510	18345
9,98922	17063
9,99333	16473
9,99747	16739
10,00158	16435
10,00570	17420
10,00983	15987
10,01395	16538
10,01807	16505
10,02220	18845
10,02632	15369
10,03043	16243
10,03457	15746
10,03868	15794
10,04280	15718
10,04693	16671
10,05105	17174
10,05517	16293
10,05928	15928
10,06342	15841
10,06753	15539
10,07165	14863
10,07578	17673
10,07990	16370
10,08402	15925
10,08815	16200
10,09227	16586
10,09638	15795
10,10052	15646
10,10463	14217
10,10875	15987
10,11288	16352
10,11700	15731
10,12112	15369
10,12525	16458
10,12937	14626
10,13348	15981
10,13762	15629
10,14173	15480
10,14585	16184
10,14998	15665
10,15410	14994
10,15822	16006
10,16233	16702
10,16647	14975
10,17058	15674
10,17470	15631
10,17883	15520
10,18295	13838
10,18707	15744
10,19120	15350
10,19532	15709
10,19943	15638
10,20357	16170
10,20768	15926
10,21180	15779
10,21593	15449
10,22005	14727
10,22417	15557
10,22830	15628
10,23242	15297
10,23653	14596
10,24067	15661
10,24478	14763
10,24890	16333
10,25302	15009
10,25715	15632
10,26127	16356
10,26538	16888
10,26952	20375
10,27363	25528
10,27775	37221
10,28188	50670
10,28600	73430
10,29012	107839
10,29425	153930
10,29837	220595
10,30248	296625
10,30662	392086
10,31073	497781
10,31485	596732
10,31898	702288
10,32310	802134
10,32722	866204
10,33135	937955
10,33547	963595
10,33958	974124
10,34370	960095
10,34783	931319
10,35195	887469
10,35607	834652
10,36020	770387
10,36432	714498
10,36843	648614
10,37257	585501
10,37668	525925
10,38080	465793
10,38493	414898
10,38905	354505
10,39317	313978
10,39730	278094
10,40142	243094
10,40553	213457
10,40967	187143
10,41378	165190
10,41790	145728
10,42203	132876
10,42615	119070
10,43027	103978
10,43438	97117
10,43852	89465
10,44263	80657
10,44675	72094
10,45088	68981
10,45500	63486
10,45912	59615
10,46325	56986
10,46737	54282
10,47148	50260
10,47562	48093
10,47973	43350
10,48385	42394
10,48798	41493
10,49210	39565
10,49622	37225
10,50035	37118
10,50447	36409
10,50858	35218
10,51272	33973
10,51683	30050
10,52095	32208
10,52507	29647
10,52920	31682
10,53332	31567
10,53743	34603
10,54157	41433
10,54568	51347
10,54980	75522
10,55393	114334
10,55805	175489
10,56217	265504
10,56630	402373
10,57042	581503
10,57453	814615
10,57867	1092403
10,58278	1422766
10,58690	1751179
10,59103	2087215
10,59515	2428877
10,59927	2715476
10,60340	2964612
10,60752	3170575
10,61163	3297446
10,61575	3329903
10,61988	3295225
10,62400	3195605
10,62812	2995131
10,63225	2760885
10,63637	2555524
10,64048	2286233
10,64462	2025171
10,64873	1782532
10,65285	1562625
10,65698	1344577
10,66110	1156740
10,66522	1006349
10,66935	867882
10,67347	746905
10,67758	650815
10,68172	560038
10,68583	490441
10,68995	433572
10,69408	377107
10,69820	333382
10,70232	305234
10,70643	267736
10,71057	242784
10,71468	221386
10,71880	207291
10,72293	185525
10,72705	171185
10,73117	159366
10,73530	145994
10,73942	137087
10,74353	127934
10,74767	121185
10,75178	111917
10,75590	106292
10,76003	99628
10,76415	94485
10,76827	91869
10,77240	85133
10,77652	83237
10,78063	78833
10,78477	73945
10,78888	72748
10,79300	69268
10,79712	66841
10,80125	61533
10,80537	60563
10,80948	58041
10,81362	55594
10,81773	53864
10,82185	51776
10,82598	52744
10,83010	49674
10,83422	49378
10,83835	46656
10,84247	44596
10,84658	44293
10,85072	43255
10,85483	39833
10,85895	39668
10,86308	38039
10,86720	37394
10,87132	38263
10,87545	35799
10,87957	35428
10,88368	35184
10,88780	32936
10,89193	32992
10,89605	31537
10,90017	32330
10,90430	29830
10,90842	29276
10,91253	29077
10,91667	29022
10,92078	29098
10,92490	29041
10,92903	27940
10,93315	27335
10,93727	27157
10,94140	26841
10,94552	26039
10,94963	25925
10,95377	26467
10,95788	23320
10,96200	24475
10,96613	24894
10,97025	24449
10,97437	22448
10,97848	22851
10,98262	23870
10,98673	22419
10,99085	20896
10,99498	21180
10,99910	21370
11,00322	22482
11,00735	22029
11,01147	20853
11,01558	20795
11,01972	21960
11,02383	20271
11,02795	20644
11,03208	21527
11,03620	20833
11,04032	21791
11,04445	20161
11,04857	20379
11,05268	20547
11,05682	21012
11,06093	19752
11,06505	19891
11,06917	20570
11,07330	19689
11,07742	19195
11,08153	20527
11,08567	18371
11,08978	18203
11,09390	18009
11,09803	17693
11,10215	18076
11,10627	17052
11,11040	17881
11,11452	16668
11,11863	18281
11,12277	19270
11,12688	17229
11,13100	15301
11,13513	16746
11,13925	15439
11,14337	15905
11,14750	16442
11,15162	16474
11,15573	17192
11,15985	17818
11,16398	17534
11,16810	17459
11,17222	17366
11,17635	17329
11,18047	16885
11,18458	18446
11,18872	18008
11,19283	16963
11,19695	17197
11,20108	17067
11,20520	18445
11,20932	18512
11,21345	19775
11,21757	22543
11,22168	25924
11,22582	36926
11,22993	49426
11,23405	75058
11,23818	109664
11,24230	157840
11,24642	220983
11,25053	300396
11,25467	399709
11,25878	511387
11,26290	627154
11,26703	728478
11,27115	836224
11,27527	921735
11,27940	980136
11,28352	1021200
11,28763	1025739
11,29177	1024441
11,29588	986311
11,30000	924814
11,30413	867607
11,30825	801464
11,31237	733127
11,31650	650558
11,32062	575308
11,32473	507690
11,32887	437781
11,33298	383193
11,33710	336144
11,34122	286244
11,34535	248706
11,34947	220039
11,35358	187212
11,35772	169395
11,36183	150718
11,36595	136824
11,37008	118459
11,37420	110493
11,37832	96801
11,38245	93728
11,38657	86880
11,39068	79438
11,39482	74692
11,39893	69781
11,40305	68106
11,40718	65656
11,41130	63781
11,41542	62438
11,41955	59875
11,42367	58772
11,42778	59484
11,43190	56627
11,43603	56413
11,44015	55991
11,44427	53708
11,44840	51392
11,45252	50031
11,45663	48653
11,46077	46336
11,46488	46285
11,46900	40268
11,47313	39647
11,47725	39297
11,48137	37137
11,48550	36288
11,48962	35368
11,49373	32480
11,49787	32719
11,50198	31503
11,50610	28996
11,51023	28304
11,51435	27133
11,51847	27420
11,52258	24518
11,52672	24864
11,53083	24133
11,53495	25758
11,53908	22265
11,54320	23173
11,54732	22441
11,55145	21739
11,55557	22810
11,55968	22887
11,56382	20885
11,56793	21303
11,57205	21298
11,57618	22501
11,58030	19854
11,58442	19422
11,58855	19394
11,59267	21332
11,59678	19945
11,60092	18616
11,60503	18674
11,60915	19712
11,61327	16651
11,61740	20039
11,62152	18607
11,62563	18419
11,62977	16771
11,63388	17881
11,63800	19191
11,64213	21077
11,64625	23859
11,65037	31977
11,65450	42008
11,65862	61345
11,66273	95200
11,66687	140174
11,67098	203875
11,67510	286242
11,67923	390061
11,68335	513047
11,68747	645756
11,69160	782835
11,69572	897515
11,69983	1003953
11,70395	1093760
11,70808	1147512
11,71220	1182220
11,71632	1166361
11,72045	1134785
11,72457	1074897
11,72868	998937
11,73282	914967
11,73693	817257
11,74105	728708
11,74518	633547
11,74930	552180
11,75342	481217
11,75755	413764
11,76167	357369
11,76578	307750
11,76992	262627
11,77403	232703
11,77815	202977
11,78228	180260
11,78640	156781
11,79052	139717
11,79465	126075
11,79877	115515
11,80288	106498
11,80700	95286
11,81113	89767
11,81525	82130
11,81937	75973
11,82350	68961
11,82762	66398
11,83173	60960
11,83587	59931
11,83998	55219
11,84410	53036
11,84823	50763
11,85235	47845
11,85647	43810
11,86060	41999
11,86472	42057
11,86883	38413
11,87297	39090
11,87708	37520
11,88120	34016
11,88533	34709
11,88945	34005
11,89357	30992
11,89768	30518
11,90182	30572
11,90593	29090
11,91005	29607
11,91418	26189
11,91830	26601
11,92242	25753
11,92655	26807
11,93067	24789
11,93478	23788
11,93892	24649
11,94303	24312
11,94715	22844
11,95128	23546
11,95540	23704
11,95952	23242
11,96365	22263
11,96777	21908
11,97188	20443
11,97602	23190
11,98013	20697
11,98425	22174
11,98837	21834
11,99250	20799
11,99662	19923
12,00073	19034
12,00487	19600
12,00898	18146
12,01310	19146
12,01723	18582
12,02135	20117
12,02547	19164
12,02960	17709
12,03372	17516
12,03783	19427
12,04197	16140
12,04608	16377
12,05020	16189
12,05433	14703
12,05845	15088
12,06257	17227
12,06670	16259
12,07082	17074
12,07493	15792
12,07905	14577
12,08318	15949
12,08730	15041
12,09142	15528
12,09555	15790
12,09967	14820
12,10378	15453
12,10792	15376
12,11203	15712
12,11615	15602
12,12028	15321
12,12440	15768
12,12852	14716
12,13265	15093
12,13677	14544
12,14088	15560
12,14502	15174
12,14913	14397
12,15325	13859
12,15738	14593
12,16150	15856
12,16562	14070
12,16973	13789
12,17387	13375
12,17798	13842
12,18210	13583
12,18623	13636
12,19035	12234
12,19447	14217
12,19860	13262
12,20272	13651
12,20683	12535
12,21097	12983
12,21508	12239
12,21920	12751
12,22333	11351
12,22745	12707
12,23157	12898
12,23570	12956
12,23982	13119
12,24393	11989
12,24807	12498
12,25218	13881
12,25630	12228
12,26042	12467
12,26455	12305
12,26867	12671
12,27278	13211
12,27692	12884
12,28103	11769
12,28515	11941
12,28928	12825
12,29340	13262
12,29752	13019
12,30165	14243
12,30577	12975
12,30988	14579
12,31402	14443
12,31813	13598
12,32225	14907
12,32638	14283
12,33050	15688
12,33462	16473
12,33875	20145
12,34287	25452
12,34698	33823
12,35110	52467
12,35523	75012
12,35935	115879
12,36347	169586
12,36760	239818
12,37172	336002
12,37583	443770
12,37997	558115
12,38408	687371
12,38820	819991
12,39233	918768
12,39645	1023952
12,40057	1096688
12,40470	1129392
12,40882	1134333
12,41293	1111084
12,41707	1062132
12,42118	994578
12,42530	910571
12,42943	828571
12,43355	724370
12,43767	637739
12,44178	562358
12,44592	484731
12,45003	416669
12,45415	358023
12,45828	314937
12,46240	271353
12,46652	243851
12,47065	207751
12,47477	182313
12,47888	158824
12,48302	144916
12,48713	130566
12,49125	118087
12,49538	105745
12,49950	95476
12,50362	89378
12,50775	80787
12,51187	75511
12,51598	70294
12,52012	64854
12,52423	60670
12,52835	59206
12,53247	55740
12,53660	52197
12,54072	51024
12,54483	46097
12,54897	43414
12,55308	42260
12,55720	40731
12,56133	37358
12,56545	38146
12,56957	38006
12,57370	35069
12,57782	35125
12,58193	32993
12,58607	29806
12,59018	30383
12,59430	30491
12,59843	28487
12,60255	27127
12,60667	27953
12,61080	24982
12,61492	25504
12,61903	24789
12,62315	25300
12,62728	23799
12,63140	23007
12,63552	23075
12,63965	23376
12,64377	22726
12,64788	21897
12,65202	20191
12,65613	20341
12,66025	20533
12,66438	20527
12,66850	20599
12,67262	21365
12,67675	23077
12,68087	23327
12,68498	23063
12,68912	25305
12,69323	26408
12,69735	28463
12,70148	29655
12,70560	30511
12,70972	31619
12,71383	33958
12,71797	34732
12,72208	34750
12,72620	33690
12,73033	32981
12,73445	32037
12,73857	33199
12,74270	31073
12,74682	30571
12,75093	29314
12,75507	28018
12,75918	28083
12,76330	27373
12,76743	28977
12,77155	34433
12,77567	43458
12,77980	61356
12,78392	90234
12,78803	138495
12,79217	204117
12,79628	302743
12,80040	439873
12,80452	611095
12,80865	831515
12,81277	1088164
12,81688	1368310
12,82102	1647943
12,82513	1943867
12,82925	2209748
12,83338	2424223
12,83750	2561978
12,84162	2656380
12,84575	2670374
12,84987	2567218
12,85398	2406589
12,85812	2210625
12,86223	1990829
12,86635	1748268
12,87048	1508986
12,87460	1307141
12,87872	1121224
12,88285	957510
12,88697	803469
12,89108	687352
12,89520	591164
12,89933	513561
12,90345	450728
12,90757	395588
12,91170	348825
12,91582	308240
12,91993	277266
12,92407	250041
12,92818	225458
12,93230	203801
12,93643	186462
12,94055	171202
12,94467	160457
12,94880	149940
12,95292	138438
12,95703	125090
12,96117	117967
12,96528	111668
12,96940	107867
12,97353	99834
12,97765	91816
12,98177	89134
12,98588	82867
12,99002	79222
12,99413	77320
12,99825	72289
13,00238	67571
13,00650	63771
13,01062	62366
13,01475	61329
13,01887	56205
13,02298	57082
13,02712	52942
13,03123	49959
13,03535	48354
13,03948	46731
13,04360	47897
13,04772	42780
13,05185	42093
13,05597	43878
13,06008	39545
13,06422	38621
13,06833	37806
13,07245	35597
13,07657	38369
13,08070	34016
13,08482	33350
13,08893	33522
13,09307	34293
13,09718	31625
13,10130	33048
13,10543	29422
13,10955	28576
13,11367	30731
13,11780	29329
13,12192	27775
13,12603	25132
13,13017	26661
13,13428	26978
13,13840	25509
13,14253	26604
13,14665	24356
13,15077	24768
13,15490	24272
13,15902	24265
13,16313	24764
13,16725	24190
13,17138	26613
13,17550	29029
13,17962	36705
13,18375	47631
13,18787	66435
13,19198	98310
13,19612	141557
13,20023	203481
13,20435	284366
13,20848	386083
13,21260	502937
13,21672	636432
13,22085	785879
13,22497	920458
13,22908	1040472
13,23322	1140189
13,23733	1217559
13,24145	1233851
13,24558	1237978
13,24970	1193154
13,25382	1117637
13,25793	1034315
13,26207	943436
13,26618	834733
13,27030	743488
13,27443	641240
13,27855	549438
13,28267	481186
13,28680	414348
13,29092	356231
13,29503	311057
13,29917	271570
13,30328	237008
13,30740	208471
13,31153	187689
13,31565	170227
13,31977	153373
13,32390	135672
13,32802	125868
13,33213	114505
13,33627	106494
13,34038	95955
13,34450	92646
13,34863	86381
13,35275	78207
13,35687	72856
13,36098	70344
13,36512	67682
13,36923	65970
13,37335	64544
13,37748	68456
13,38160	75539
13,38572	91966
13,38985	120511
13,39397	163141
13,39808	232532
13,40222	326970
13,40633	460232
13,41045	633311
13,41458	842221
13,41870	1094591
13,42282	1359177
13,42695	1635134
13,43107	1917100
13,43518	2151063
13,43932	2348841
13,44343	2483219
13,44755	2531743
13,45167	2519803
13,45580	2407929
13,45992	2226493
13,46403	2038917
13,46817	1848281
13,47228	1612782
13,47640	1412848
13,48053	1225172
13,48465	1049760
13,48877	897585
13,49290	772312
13,49702	664148
13,50113	577628
13,50527	507927
13,50938	443860
13,51350	388599
13,51763	346933
13,52175	312728
13,52587	280920
13,53000	256214
13,53412	235649
13,53823	212161
13,54235	195511
13,54648	181504
13,55060	169752
13,55472	155683
13,55885	145473
13,56297	134013
13,56708	129045
13,57122	117323
13,57533	111838
13,57945	108993
13,58358	99819
13,58770	94626
13,59182	90132
13,59595	86548
13,60007	82233
13,60418	78908
13,60832	75418
13,61243	73253
13,61655	70156
13,62068	67297
13,62480	64755
13,62892	63858
13,63303	57420
13,63717	57038
13,64128	55785
13,64540	54876
13,64953	50809
13,65365	49838
13,65777	48617
13,66190	46847
13,66602	44451
13,67013	42957
13,67427	42392
13,67838	39708
13,68250	40846
13,68663	40301
13,69075	37199
13,69487	36329
13,69900	34146
13,70312	34692
13,70723	32681
13,71137	33262
13,71548	32640
13,71960	31108
13,72372	28860
13,72785	28742
13,73197	31174
13,73608	30512
13,74022	27918
13,74433	27111
13,74845	26547
13,75258	26897
13,75670	27936
13,76082	25598
13,76495	25463
13,76907	25758
13,77318	24847
13,77732	25633
13,78143	26040
13,78555	23573
13,78968	25095
13,79380	22621
13,79792	22750
13,80205	21612
13,80617	22283
13,81028	20791
13,81440	22428
13,81853	21241
13,82265	20360
13,82677	20095
13,83090	19312
13,83502	20804
13,83913	22701
13,84327	22690
13,84738	26462
13,85150	32038
13,85563	41740
13,85975	60300
13,86387	86857
13,86800	127063
13,87212	183358
13,87623	262625
13,88037	353390
13,88448	462624
13,88860	587277
13,89273	732377
13,89685	855090
13,90097	967957
13,90508	1050155
13,90922	1140478
13,91333	1182066
13,91745	1199877
13,92158	1200817
13,92570	1219961
13,92982	1244213
13,93395	1278590
13,93807	1351190
13,94218	1472375
13,94632	1641677
13,95043	1843761
13,95455	2078718
13,95868	2322747
13,96280	2537496
13,96692	2735922
13,97105	2862003
13,97517	2897669
13,97928	2850753
13,98342	2723312
13,98753	2539764
13,99165	2287723
13,99577	2032749
13,99990	1775651
14,00402	1518366
14,00813	1302004
14,01227	1112353
14,01638	953094
14,02050	828997
14,02463	711042
14,02875	624769
14,03287	543453
14,03700	483414
14,04112	434177
14,04523	376926
14,04937	348704
14,05348	311087
14,05760	287998
14,06173	263477
14,06585	240179
14,06997	223270
14,07410	204314
14,07822	191026
14,08233	176557
14,08645	167842
14,09058	153861
14,09470	148628
14,09882	136815
14,10295	132183
14,10707	122776
14,11118	114788
14,11532	110677
14,11943	105026
14,12355	99547
14,12768	96532
14,13180	92361
14,13592	90610
14,14005	84409
14,14417	82906
14,14828	78888
14,15242	77586
14,15653	74949
14,16065	72154
14,16478	70764
14,16890	67142
14,17302	66214
14,17713	61957
14,18127	60036
14,18538	59801
14,18950	54888
14,19363	55976
14,19775	50887
14,20187	50435
14,20600	49059
14,21012	49755
14,21423	47053
14,21837	45598
14,22248	44854
14,22660	42131
14,23073	44039
14,23485	43408
14,23897	39931
14,24310	40410
14,24722	39103
14,25133	37370
14,25547	37190
14,25958	37494
14,26370	36148
14,26782	36490
14,27195	37330
14,27607	33451
14,28018	32627
14,28432	32560
14,28843	31081
14,29255	31815
14,29668	30292
14,30080	28728
14,30492	30178
14,30905	30461
14,31317	32941
14,31728	36341
14,32142	44374
14,32553	55631
14,32965	73272
14,33378	104120
14,33790	148490
14,34202	205039
14,34615	278579
14,35027	379381
14,35438	489911
14,35850	604298
14,36263	730698
14,36675	849791
14,37087	953300
14,37500	1020943
14,37912	1074893
14,38323	1086651
14,38737	1065396
14,39148	1040474
14,39560	964856
14,39973	888158
14,40385	796301
14,40797	709843
14,41210	619227
14,41622	548628
14,42033	464603
14,42447	408319
14,42858	352763
14,43270	308787
14,43683	266944
14,44095	238463
14,44507	205783
14,44918	183540
14,45332	167850
14,45743	153775
14,46155	138167
14,46568	126593
14,46980	113398
14,47392	106276
14,47805	98473
14,48217	90465
14,48628	87355
14,49042	79284
14,49453	75290
14,49865	70542
14,50278	66303
14,50690	62594
14,51102	59754
14,51515	58491
14,51927	56642
14,52338	52379
14,52752	50447
14,53163	48316
14,53575	51096
14,53987	46290
14,54400	43935
14,54812	44119
14,55223	42831
14,55637	41829
14,56048	41105
14,56460	38378
14,56873	38019
14,57285	37061
14,57697	37083
14,58110	34965
14,58522	34420
14,58933	34622
14,59347	32518
14,59758	32787
14,60170	31031
14,60583	30717
14,60995	29126
14,61407	27900
14,61820	27825
14,62232	26612
14,62643	26104
14,63055	26747
14,63468	25259
14,63880	25173
14,64292	24797
14,64705	24369
14,65117	22447
14,65528	23990
14,65942	22454
14,66353	22341
14,66765	22258
14,67178	20338
14,67590	22967
14,68002	21898
14,68415	22319
14,68827	20857
14,69238	18841
14,69652	21173
14,70063	21186
14,70475	19757
14,70888	20985
14,71300	19149
14,71712	19123
14,72123	19027
14,72537	19019
14,72948	18305
14,73360	18283
14,73773	16764
14,74185	17304
14,74597	18362
14,75010	17985
14,75422	16802
14,75833	18677
14,76247	15669
14,76658	17133
14,77070	15387
14,77483	16897
14,77895	17208
14,78307	17045
14,78720	16178
14,79132	16200
14,79543	16852
14,79957	15859
14,80368	16036
14,80780	14912
14,81192	15257
14,81605	15490
14,82017	18056
14,82428	16296
14,82842	15238
14,83253	15122
14,83665	14770
14,84078	13863
14,84490	14592
14,84902	16174
14,85315	15497
14,85727	16212
14,86138	16250
14,86552	14954
14,86963	15789
14,87375	15685
14,87788	16617
14,88200	13672
14,88612	14301
14,89025	15012
14,89437	14314
14,89848	13933
14,90262	14711
14,90673	12897
14,91085	14217
14,91497	13408
14,91910	13947
14,92322	14346
14,92733	14403
14,93147	13408
14,93558	13220
14,93970	14401
14,94383	12629
14,94795	13234
14,95207	13110
14,95620	13209
14,96032	14503
14,96443	14575
14,96857	14741
14,97268	14754
14,97680	15085
14,98093	18107
14,98505	22194
14,98917	29122
14,99330	38274
14,99742	57482
15,00153	85628
15,00565	120779
15,00978	175297
15,01390	246547
15,01802	327958
15,02215	436988
15,02627	543690
15,03038	660889
15,03452	778931
15,03863	878088
15,04275	977932
15,04688	1055002
15,05100	1143003
15,05512	1229932
15,05925	1313200
15,06337	1421114
15,06748	1558008
15,07162	1707833
15,07573	1906633
15,07985	2138154
15,08398	2378627
15,08810	2626692
15,09222	2886960
15,09633	3071707
15,10047	3177658
15,10458	3196808
15,10870	3118813
15,11283	2940271
15,11695	2702539
15,12107	2403000
15,12520	2115636
15,12932	1826553
15,13343	1565229
15,13757	1343310
15,14168	1150612
15,14580	986246
15,14993	856773
15,15405	748480
15,15817	647507
15,16230	574788
15,16642	508597
15,17053	458945
15,17467	413344
15,17878	376821
15,18290	341715
15,18702	316223
15,19115	293130
15,19527	271466
15,19938	251538
15,20352	236469
15,20763	221838
15,21175	208970
15,21588	201497
15,22000	193024
15,22412	181126
15,22825	172892
15,23237	166183
15,23648	157585
15,24062	146807
15,24473	142991
15,24885	135093
15,25298	127095
15,25710	119822
15,26122	114461
15,26535	110522
15,26947	103554
15,27358	98585
15,27770	97121
15,28183	92444
15,28595	87302
15,29007	81794
15,29420	78719
15,29832	78357
15,30243	69742
15,30657	68083
15,31068	68906
15,31480	65796
15,31893	63277
15,32305	61572
15,32717	59645
15,33130	59191
15,33542	55420
15,33953	56200
15,34367	50250
15,34778	51489
15,35190	49017
15,35603	46782
15,36015	47457
15,36427	46230
15,36838	44117
15,37252	42871
15,37663	43087
15,38075	39727
15,38488	39973
15,38900	38401
15,39312	36909
15,39725	37660
15,40137	39204
15,40548	40065
15,40962	40764
15,41373	47282
15,41785	56807
15,42198	73746
15,42610	99253
15,43022	135741
15,43435	186766
15,43847	250324
15,44258	334529
15,44672	425822
15,45083	532972
15,45495	641604
15,45907	742504
15,46320	838832
15,46732	902325
15,47143	944475
15,47557	957263
15,47968	931097
15,48380	892406
15,48793	832550
15,49205	767811
15,49617	694665
15,50030	625240
15,50442	541914
15,50853	472629
15,51267	411417
15,51678	364041
15,52090	316805
15,52503	272759
15,52915	241058
15,53327	215693
15,53740	189871
15,54152	171313
15,54563	152989
15,54975	139511
15,55388	128935
15,55800	118824
15,56212	108379
15,56625	100959
15,57037	94751
15,57448	86069
15,57862	83856
15,58273	77322
15,58685	73810
15,59098	68683
15,59510	65362
15,59922	61195
15,60335	62023
15,60747	58001
15,61158	55111
15,61572	54041
15,61983	54172
15,62395	56757
15,62808	60087
15,63220	72305
15,63632	83795
15,64043	113065
15,64457	153796
15,64868	210446
15,65280	288266
15,65693	387438
15,66105	502058
15,66517	650810
15,66930	812163
15,67342	955895
15,67753	1100446
15,68167	1223591
15,68578	1319170
15,68990	1345904
15,69403	1351102
15,69815	1318140
15,70227	1230520
15,70640	1130753
15,71052	1030776
15,71463	913237
15,71877	804987
15,72288	693385
15,72700	603184
15,73112	527528
15,73525	455608
15,73937	393739
15,74348	347273
15,74762	308865
15,75173	274386
15,75585	249311
15,75998	223078
15,76410	204669
15,76822	182983
15,77235	172237
15,77647	156155
15,78058	145186
15,78472	137711
15,78883	122937
15,79295	118174
15,79708	109825
15,80120	107601
15,80532	98880
15,80945	93264
15,81357	88426
15,81768	81801
15,82180	77468
15,82593	74837
15,83005	73413
15,83417	66039
15,83830	64952
15,84242	64672
15,84653	61980
15,85067	58887
15,85478	55462
15,85890	54391
15,86303	51633
15,86715	50896
15,87127	50399
15,87540	48641
15,87952	47271
15,88363	44800
15,88777	42941
15,89188	42615
15,89600	40106
15,90013	39591
15,90425	38997
15,90837	36285
15,91248	35358
15,91662	37208
15,92073	34644
15,92485	33322
15,92898	32804
15,93310	31710
15,93722	32555
15,94135	33425
15,94547	32426
15,94958	30330
15,95372	31048
15,95783	30138
15,96195	29792
15,96608	29065
15,97020	29865
15,97432	29629
15,97845	26325
15,98257	24990
15,98668	24858
15,99082	25797
15,99493	24278
15,99905	27122
16,00317	24157
16,00730	25129
16,01142	24735
16,01553	22924
16,01967	23964
16,02378	24600
16,02790	22395
16,03203	21950
16,03615	21723
16,04027	21433
16,04440	21618
16,04852	21391
16,05263	20535
16,05677	20786
16,06088	21413
16,06500	20602
16,06913	21168
16,07325	20660
16,07737	20273
16,08150	21093
16,08562	19781
16,08973	20568
16,09385	21066
16,09798	19322
16,10210	20639
16,10622	19550
16,11035	19057
16,11447	18762
16,11858	17845
16,12272	18931
16,12683	17696
16,13095	20052
16,13508	19288
16,13920	21817
16,14332	29330
16,14745	33844
16,15157	46128
16,15568	70368
16,15982	100933
16,16393	147913
16,16805	219319
16,17218	319945
16,17630	451080
16,18042	599678
16,18453	772819
16,18867	948987
16,19278	1119402
16,19690	1272195
16,20103	1401068
16,20515	1472438
16,20927	1502388
16,21340	1469616
16,21752	1390859
16,22163	1285724
16,22577	1154838
16,22988	1030358
16,23400	906495
16,23813	778187
16,24225	679838
16,24637	585322
16,25050	515455
16,25462	447276
16,25873	393201
16,26287	348088
16,26698	310584
16,27110	275580
16,27522	249167
16,27935	226504
16,28347	202182
16,28758	185093
16,29172	170639
16,29583	158477
16,29995	146086
16,30408	136140
16,30820	127027
16,31232	117569
16,31645	111545
16,32057	105275
16,32468	97843
16,32882	94795
16,33293	87561
16,33705	82827
16,34118	78155
16,34530	78558
16,34942	73431
16,35355	71689
16,35767	68135
16,36178	66560
16,36590	61987
16,37003	59512
16,37415	58837
16,37827	57605
16,38240	56663
16,38652	54697
16,39063	53877
16,39477	51332
16,39888	50092
16,40300	48537
16,40713	47329
16,41125	44197
16,41537	43444
16,41950	41595
16,42362	40100
16,42773	40071
16,43187	39022
16,43598	38642
16,44010	37147
16,44423	37260
16,44835	34645
16,45247	35231
16,45660	34073
16,46072	33793
16,46483	33453
16,46895	33085
16,47308	33855
16,47720	30896
16,48132	32248
16,48545	30266
16,48957	29235
16,49368	29796
16,49782	28709
16,50193	28561
16,50605	28545
16,51018	27834
16,51430	27094
16,51842	28014
16,52255	25627
16,52667	24986
16,53078	25616
16,53492	25160
16,53903	26382
16,54315	27729
16,54728	30628
16,55140	32470
16,55552	40440
16,55963	55162
16,56377	71989
16,56788	98711
16,57200	145956
16,57613	203478
16,58025	279807
16,58437	382097
16,58850	499181
16,59262	626895
16,59673	759774
16,60087	892884
16,60498	998953
16,60910	1089166
16,61323	1142356
16,61735	1159919
16,62147	1137925
16,62560	1065632
16,62972	1002666
16,63383	919743
16,63797	818249
16,64208	727117
16,64620	641176
16,65032	561801
16,65445	488152
16,65857	426704
16,66268	375530
16,66682	323045
16,67093	284842
16,67505	256214
16,67918	228628
16,68330	207607
16,68742	188082
16,69155	170679
16,69567	153895
16,69978	137996
16,70392	131516
16,70803	121732
16,71215	112240
16,71628	106372
16,72040	101945
16,72452	93085
16,72865	84298
16,73277	82337
16,73688	76871
16,74100	74214
16,74513	70608
16,74925	64866
16,75337	62874
16,75750	59721
16,76162	58830
16,76573	56541
16,76987	53800
16,77398	52098
16,77810	50286
16,78223	48276
16,78635	47517
16,79047	46835
16,79460	45642
16,79872	43783
16,80283	40168
16,80697	39350
16,81108	40637
16,81520	37615
16,81933	37541
16,82345	37755
16,82757	35437
16,83168	36903
16,83582	34921
16,83993	32210
16,84405	33809
16,84818	31848
16,85230	31943
16,85642	29194
16,86055	30612
16,86467	29838
16,86878	28908
16,87292	28372
16,87703	29305
16,88115	24986
16,88528	26785
16,88940	26704
16,89352	25691
16,89765	25701
16,90177	25726
16,90588	25407
16,91002	23819
16,91413	24829
16,91825	22656
16,92237	24165
16,92650	22454
16,93062	23894
16,93473	23737
16,93887	23250
16,94298	22902
16,94710	22893
16,95123	23305
16,95535	21410
16,95947	22118
16,96360	22239
16,96772	20693
16,97183	20384
16,97597	20040
16,98008	20021
16,98420	21555
16,98833	19722
16,99245	19720
16,99657	19373
17,00070	20004
17,00482	19675
17,00893	21433
17,01305	19965
17,01718	20012
17,02130	20414
17,02542	20412
17,02955	19145
17,03367	20752
17,03778	19302
17,04192	19592
17,04603	20181
17,05015	21367
17,05428	20746
17,05840	20728
17,06252	19122
17,06665	20923
17,07077	18273
17,07488	18943
17,07902	17845
17,08313	19677
17,08725	18645
17,09138	18396
17,09550	19036
17,09962	18340
17,10373	18709
17,10787	18566
17,11198	16740
17,11610	18716
17,12023	19099
17,12435	15853
17,12847	17312
17,13260	16777
17,13672	17376
17,14083	16626
17,14497	17272
17,14908	17215
17,15320	17801
17,15733	16971
17,16145	16925
17,16557	17583
17,16970	17393
17,17382	16754
17,17793	16706
17,18207	17135
17,18618	16504
17,19030	18434
17,19442	19345
17,19855	21387
17,20267	28048
17,20678	33801
17,21092	46115
17,21503	66759
17,21915	95547
17,22328	136208
17,22740	199822
17,23152	286176
17,23565	390642
17,23977	522620
17,24388	670233
17,24802	845170
17,25213	1013912
17,25625	1195763
17,26038	1390570
17,26450	1572720
17,26862	1778570
17,27275	1984296
17,27687	2174248
17,28098	2394816
17,28510	2639867
17,28923	2841209
17,29335	3076484
17,29747	3260201
17,30160	3391408
17,30572	3467906
17,30983	3404888
17,31397	3248683
17,31808	3033647
17,32220	2755958
17,32633	2451398
17,33045	2151474
17,33457	1867160
17,33870	1612228
17,34282	1389592
17,34693	1204724
17,35107	1046516
17,35518	920864
17,35930	811893
17,36343	721851
17,36755	644448
17,37167	583404
17,37578	529235
17,37992	474159
17,38403	437130
17,38815	399916
17,39228	368511
17,39640	339701
17,40052	317899
17,40465	296966
17,40877	280412
17,41288	261203
17,41702	242850
17,42113	229968
17,42525	216736
17,42938	207995
17,43350	198456
17,43762	186342
17,44175	177123
17,44587	169735
17,44998	160835
17,45412	152276
17,45823	147662
17,46235	139095
17,46647	133853
17,47060	127830
17,47472	126116
17,47883	117620
17,48297	117239
17,48708	110859
17,49120	107465
17,49533	104454
17,49945	98904
17,50357	94783
17,50770	93644
17,51182	91952
17,51593	86378
17,52007	84197
17,52418	83205
17,52830	79182
17,53243	78440
17,53655	76283
17,54067	72809
17,54480	72733
17,54892	70644
17,55303	67068
17,55715	65532
17,56128	65106
17,56540	63925
17,56952	61489
17,57365	60262
17,57777	59989
17,58188	58478
17,58602	58376
17,59013	56148
17,59425	52960
17,59838	52905
17,60250	54142
17,60662	56047
17,61075	57408
17,61487	64088
17,61898	70277
17,62312	86967
17,62723	108836
17,63135	146732
17,63548	196188
17,63960	263659
17,64372	346620
17,64783	450113
17,65197	564403
17,65608	689909
17,66020	797379
17,66433	905313
17,66845	983613
17,67257	1036235
17,67670	1071028
17,68082	1071931
17,68493	1039048
17,68907	992449
17,69318	933989
17,69730	875153
17,70143	831641
17,70555	797117
17,70967	779718
17,71380	802123
17,71792	824993
17,72203	874074
17,72617	936255
17,73028	997577
17,73440	1060125
17,73852	1092376
17,74265	1113897
17,74677	1133864
17,75088	1105548
17,75502	1055115
17,75913	1003397
17,76325	912255
17,76738	835018
17,77150	754599
17,77562	676578
17,77975	602847
17,78387	532759
17,78798	476504
17,79212	420669
17,79623	381673
17,80035	345243
17,80448	310449
17,80860	295149
17,81272	279801
17,81685	287839
17,82097	295724
17,82508	325796
17,82920	376897
17,83333	443160
17,83745	545590
17,84157	658000
17,84570	793392
17,84982	938696
17,85393	1097726
17,85807	1235787
17,86218	1342912
17,86630	1422715
17,87043	1465961
17,87455	1460838
17,87867	1422293
17,88280	1326879
17,88692	1233076
17,89103	1125227
17,89517	1000450
17,89928	873785
17,90340	794465
17,90753	691702
17,91165	609446
17,91577	542247
17,91988	481994
17,92402	428644
17,92813	391617
17,93225	351530
17,93638	319420
17,94050	295282
17,94462	272358
17,94875	248724
17,95287	233515
17,95698	220080
17,96112	201252
17,96523	189165
17,96935	178065
17,97348	168364
17,97760	163882
17,98172	154936
17,98585	146723
17,98997	139075
17,99408	130672
17,99822	124820
18,00233	122149
18,00645	117044
18,01058	108360
18,01470	104966
18,01882	101754
18,02293	97006
18,02707	93822
18,03118	91616
18,03530	84754
18,03943	84054
18,04355	80402
18,04767	76609
18,05180	74475
18,05592	74488
18,06003	70009
18,06417	67490
18,06828	68320
18,07240	67048
18,07653	64808
18,08065	61959
18,08477	62461
18,08890	59812
18,09302	57803
18,09713	56796
18,10127	58761
18,10538	54915
18,10950	56240
18,11362	54210
18,11775	52386
18,12187	50799
18,12598	48723
18,13012	48946
18,13423	51152
18,13835	46448
18,14248	48454
18,14660	47107
18,15072	48634
18,15485	43562
18,15897	45256
18,16308	42265
18,16722	44304
18,17133	42969
18,17545	40884
18,17958	42125
18,18370	40142
18,18782	38664
18,19195	39127
18,19607	40260
18,20018	40607
18,20430	38720
18,20843	38702
18,21255	40833
18,21667	40766
18,22080	41491
18,22492	39153
18,22903	39102
18,23317	39704
18,23728	37994
18,24140	37643
18,24553	37295
18,24965	36666
18,25377	35963
18,25790	37435
18,26202	34872
18,26613	33302
18,27027	34112
18,27438	34506
18,27850	33919
18,28263	35277
18,28675	35344
18,29087	38042
18,29498	47586
18,29912	58929
18,30323	78814
18,30735	109120
18,31148	151301
18,31560	217213
18,31972	296560
18,32385	399568
18,32797	539068
18,33208	689881
18,33622	847727
18,34033	1016382
18,34445	1193760
18,34858	1333251
18,35270	1426590
18,35682	1493181
18,36095	1490358
18,36507	1457849
18,36918	1361991
18,37332	1251266
18,37743	1132077
18,38155	1012252
18,38567	879030
18,38980	778341
18,39392	679249
18,39803	593718
18,40217	530678
18,40628	464590
18,41040	419665
18,41453	375714
18,41865	338414
18,42277	310656
18,42690	282872
18,43102	261455
18,43513	237241
18,43927	223827
18,44338	208630
18,44750	194837
18,45163	184587
18,45575	174890
18,45987	161304
18,46400	155435
18,46812	144747
18,47223	140496
18,47635	132979
18,48048	127297
18,48460	124110
18,48872	114666
18,49285	115389
18,49697	108635
18,50108	104794
18,50522	102193
18,50933	99766
18,51345	94684
18,51758	90741
18,52170	88366
18,52582	83192
18,52995	83551
18,53407	81154
18,53818	78631
18,54232	76427
18,54643	70270
18,55055	71620
18,55468	69125
18,55880	67211
18,56292	64997
18,56703	65255
18,57117	61720
18,57528	62579
18,57940	58283
18,58353	57147
18,58765	55694
18,59177	52718
18,59590	54521
18,60002	50567
18,60413	51902
18,60827	50718
18,61238	51362
18,61650	48466
18,62063	47947
18,62475	45895
18,62887	47216
18,63300	45923
18,63712	45537
18,64123	42287
18,64537	42254
18,64948	44538
18,65360	42896
18,65772	41802
18,66185	41671
18,66597	39678
18,67008	40588
18,67422	37025
18,67833	41142
18,68245	38574
18,68658	39612
18,69070	42078
18,69482	45466
18,69895	51346
18,70307	64675
18,70718	85200
18,71132	110902
18,71543	152728
18,71955	213189
18,72368	293257
18,72780	390436
18,73192	513645
18,73605	640461
18,74017	785142
18,74428	931107
18,74840	1045820
18,75253	1128054
18,75665	1176972
18,76077	1197377
18,76490	1177378
18,76902	1147446
18,77313	1064862
18,77727	984210
18,78138	913008
18,78550	836101
18,78963	785434
18,79375	755504
18,79787	739218
18,80200	748325
18,80612	784663
18,81023	823690
18,81437	873863
18,81848	944565
18,82260	992415
18,82673	1033679
18,83085	1045055
18,83497	1044568
18,83908	1020935
18,84322	985797
18,84733	937763
18,85145	871134
18,85558	795687
18,85970	717123
18,86382	646413
18,86795	576626
18,87207	516257
18,87618	456966
18,88032	405663
18,88443	364869
18,88855	331595
18,89268	301493
18,89680	276342
18,90092	251011
18,90505	231039
18,90917	212719
18,91328	197160
18,91742	179069
18,92153	172714
18,92565	163741
18,92977	152833
18,93390	146542
18,93802	133925
18,94213	128145
18,94627	122837
18,95038	117119
18,95450	110851
18,95863	104931
18,96275	102888
18,96687	98466
18,97100	94075
18,97512	91075
18,97923	86274
18,98337	86139
18,98748	82818
18,99160	77249
18,99573	76143
18,99985	72530
19,00397	72681
19,00810	68284
19,01222	68757
19,01633	64204
19,02045	63528
19,02458	64350
19,02870	62700
19,03282	59278
19,03695	58771
19,04107	56481
19,04518	58414
19,04932	56330
19,05343	51211
19,05755	52819
19,06168	51687
19,06580	49388
19,06992	48695
19,07405	47032
19,07817	48172
19,08228	47954
19,08642	45046
19,09053	45645
19,09465	44513
19,09878	42967
19,10290	44036
19,10702	41388
19,11113	41429
19,11527	42873
19,11938	41202
19,12350	43546
19,12763	42484
19,13175	39910
19,13587	41749
19,14000	41358
19,14412	39390
19,14823	39006
19,15237	39447
19,15648	38731
19,16060	39031
19,16473	35981
19,16885	37756
19,17297	37007
19,17710	37001
19,18122	36082
19,18533	33639
19,18947	35976
19,19358	33862
19,19770	35121
19,20182	33085
19,20595	33190
19,21007	33796
19,21418	32843
19,21832	31707
19,22243	33500
19,22655	33103
19,23068	33548
19,23480	31717
19,23892	33662
19,24305	31331
19,24717	33206
19,25128	33233
19,25542	31085
19,25953	30382
19,26365	32771
19,26778	29144
19,27190	31071
19,27602	31041
19,28015	30213
19,28427	33139
19,28838	30846
19,29250	29389
19,29663	27429
19,30075	30446
19,30487	31534
19,30900	30044
19,31312	32026
19,31723	32308
19,32137	34321
19,32548	37766
19,32960	41605
19,33373	49497
19,33785	62575
19,34197	79325
19,34610	113804
19,35022	154936
19,35433	217733
19,35847	298244
19,36258	414885
19,36670	556620
19,37083	731443
19,37495	943055
19,37907	1179287
19,38318	1462712
19,38732	1755873
19,39143	2041123
19,39555	2328852
19,39968	2578025
19,40380	2773590
19,40792	2901302
19,41205	2916834
19,41617	2851063
19,42028	2668430
19,42442	2435340
19,42853	2188395
19,43265	1919579
19,43678	1679760
19,44090	1458334
19,44502	1266966
19,44915	1108806
19,45327	983725
19,45738	862820
19,46152	770202
19,46563	688425
19,46975	616261
19,47387	565436
19,47800	517353
19,48212	473892
19,48623	436648
19,49037	402790
19,49448	371266
19,49860	349531
19,50273	329302
19,50685	308219
19,51097	283881
19,51510	268727
19,51922	255885
19,52333	242473
19,52747	229783
19,53158	216906
19,53570	213261
19,53983	199291
19,54395	188761
19,54807	178436
19,55220	173804
19,55632	170120
19,56043	158719
19,56457	155367
19,56868	146480
19,57280	142575
19,57692	142591
19,58105	133838
19,58517	131789
19,58928	127233
19,59342	122579
19,59753	120956
19,60165	117253
19,60578	111912
19,60990	107385
19,61402	107052
19,61815	104503
19,62227	97412
19,62638	99033
19,63052	91848
19,63463	93294
19,63875	92888
19,64288	88741
19,64700	90141
19,65112	83308
19,65525	82528
19,65937	81943
19,66348	79281
19,66760	79476
19,67173	74360
19,67585	78974
19,67997	73619
19,68410	72907
19,68822	72522
19,69233	72761
19,69647	67896
19,70058	66333
19,70470	67942
19,70883	65392
19,71295	66008
19,71707	64237
19,72120	63255
19,72532	62824
19,72943	61065
19,73357	58514
19,73768	58521
19,74180	57740
19,74593	56043
19,75005	56972
19,75417	55951
19,75828	54056
19,76242	54414
19,76653	51478
19,77065	53337
19,77478	53526
19,77890	50907
19,78302	50619
19,78715	50612
19,79127	48392
19,79538	48196
19,79952	48402
19,80363	48172
19,80775	46387
19,81188	47902
19,81600	46540
19,82012	44693
19,82425	44943
19,82837	44937
19,83248	42716
19,83662	45646
19,84073	43850
19,84485	45127
19,84897	43772
19,85310	42912
19,85722	40718
19,86133	43098
19,86547	45162
19,86958	43466
19,87370	45158
19,87783	51008
19,88195	56285
19,88607	66662
19,89020	87348
19,89432	112504
19,89843	150715
19,90257	203174
19,90668	275985
19,91080	373346
19,91493	484038
19,91905	615312
19,92317	763731
19,92730	920974
19,93142	1075125
19,93553	1207743
19,93965	1292439
19,94378	1344362
19,94790	1352947
19,95202	1335216
19,95615	1257509
19,96027	1165594
19,96438	1072757
19,96852	966913
19,97263	863775
19,97675	765453
19,98088	682782
19,98500	602982
19,98912	542817
19,99325	486881
19,99737	438996
20,00148	395633
20,00562	359395
20,00973	328077
20,01385	308122
20,01798	283473
20,02210	263967
20,02622	247966
20,03033	226869
20,03447	217182
20,03858	205753
20,04270	189029
20,04683	181648
20,05095	174687
20,05507	162483
20,05920	155382
20,06332	149587
20,06743	140006
20,07157	136737
20,07568	131056
20,07980	126892
20,08393	121818
20,08805	118562
20,09217	113391
20,09630	110077
20,10042	103228
20,10453	102694
20,10867	97326
20,11278	96302
20,11690	93234
20,12102	89492
20,12515	88362
20,12927	85631
20,13338	83237
20,13752	80514
20,14163	80195
20,14575	77170
20,14988	75539
20,15400	74078
20,15812	71556
20,16225	70718
20,16637	66076
20,17048	65247
20,17462	67355
20,17873	65682
20,18285	62490
20,18698	63395
20,19110	61725
20,19522	61244
20,19935	60595
20,20347	59218
20,20758	58346
20,21170	54984
20,21583	56931
20,21995	55537
20,22407	52459
20,22820	55139
20,23232	51852
20,23643	51764
20,24057	53550
20,24468	51928
20,24880	53851
20,25293	54076
20,25705	56736
20,26117	60063
20,26530	61309
20,26942	65911
20,27353	71190
20,27767	77071
20,28178	83499
20,28590	89418
20,29003	96080
20,29415	98048
20,29827	103418
20,30238	105455
20,30652	107266
20,31063	111236
20,31475	106666
20,31888	107155
20,32300	97986
20,32712	96515
20,33125	93213
20,33537	83584
20,33948	79705
20,34362	77022
20,34773	71190
20,35185	68188
20,35598	62881
20,36010	63795
20,36422	62067
20,36835	57318
20,37247	56442
20,37658	55755
20,38072	52856
20,38483	53208
20,38895	49557
20,39307	47021
20,39720	46301
20,40132	47912
20,40543	43431
20,40957	43861
20,41368	44495
20,41780	45156
20,42193	43288
20,42605	42514
20,43017	42407
20,43430	39449
20,43842	39975
20,44253	39250
20,44667	39102
20,45078	38332
20,45490	39209
20,45903	36868
20,46315	39029
20,46727	37275
20,47140	36858
20,47552	37454
20,47963	37243
20,48375	37046
20,48788	37605
20,49200	37752
20,49612	36315
20,50025	37873
20,50437	35034
20,50848	34545
20,51262	36708
20,51673	34883
20,52085	37435
20,52498	35173
20,52910	35799
20,53322	35879
20,53735	35438
20,54147	32254
20,54558	34758
20,54972	34290
20,55383	34123
20,55795	34274
20,56208	34087
20,56620	33778
20,57032	33650
20,57443	36053
20,57857	34255
20,58268	34630
20,58680	34437
20,59093	35669
20,59505	33410
20,59917	35170
20,60330	33112
20,60742	32940
20,61153	34397
20,61567	34308
20,61978	33724
20,62390	34033
20,62803	35044
20,63215	32168
20,63627	31234
20,64040	32420
20,64452	31317
20,64863	33518
20,65277	32637
20,65688	32467
20,66100	31283
20,66512	33695
20,66925	32494
20,67337	31040
20,67748	31381
20,68162	29184
20,68573	31814
20,68985	31749
20,69398	30781
20,69810	31194
20,70222	31783
20,70635	32588
20,71047	30337
20,71458	30218
20,71872	28831
20,72283	32300
20,72695	30264
20,73108	31303
20,73520	32046
20,73932	31392
20,74345	31424
20,74757	31161
20,75168	29553
20,75580	32323
20,75993	30605
20,76405	30487
20,76817	31082
20,77230	29792
20,77642	32165
20,78053	31453
20,78467	30503
20,78878	31523
20,79290	32790
20,79703	30651
20,80115	33339
20,80527	31745
20,80940	29067
20,81352	32559
20,81763	29789
20,82177	32113
20,82588	31150
20,83000	32277
20,83413	31843
20,83825	31738
20,84237	32994
20,84648	31955
20,85062	32194
20,85473	33640
20,85885	32631
20,86298	32787
20,86710	33061
20,87122	30953
20,87535	30146
20,87947	33474
20,88358	32452
20,88772	31854
20,89183	34329
20,89595	31468
20,90008	33167
20,90420	31924
20,90832	31261
20,91245	30764
20,91657	31002
20,92068	31632
20,92482	30107
20,92893	29114
20,93305	32327
20,93717	30289
20,94130	32141
20,94542	30998
20,94953	30003
20,95367	29836
20,95778	30197
20,96190	28983
20,96603	29859
20,97015	29620
20,97427	31793
20,97840	30032
20,98252	28581
20,98663	30760
20,99077	28848
20,99488	28563
20,99900	31062
21,00313	31522
21,00725	28289
21,01137	29887
21,01550	31024
21,01962	30760
21,02373	30581
21,02785	28200
21,03198	31557
21,03610	29686
21,04022	29545
21,04435	28711
21,04847	30273
21,05258	27834
21,05672	26926
21,06083	26813
21,06495	28440
21,06908	28227
21,07320	28268
21,07732	29561
21,08145	29372
21,08557	29974
21,08968	30283
21,09382	29193
21,09793	28433
21,10205	27144
21,10618	29862
21,11030	30183
21,11442	28743
21,11853	30052
21,12267	30467
21,12678	29001
21,13090	30574
21,13503	31081
21,13915	29138
21,14327	30197
21,14740	31637
21,15152	30127
21,15563	32754
21,15977	30993
21,16388	30952
21,16800	31671
21,17213	30097
21,17625	28543
21,18037	30577
21,18450	30314
21,18862	30462
21,19273	30932
21,19687	29586
21,20098	27886
21,20510	29866
21,20923	29855
21,21335	30375
21,21747	28252
21,22158	29431
21,22572	29724
21,22983	30157
21,23395	28549
21,23808	31035
21,24220	26505
21,24632	29991
21,25045	31970
21,25457	29146
21,25868	29736
21,26282	29456
21,26693	30789
21,27105	30261
21,27518	31820
21,27930	29002
21,28342	29259
21,28755	29374
21,29167	30869
21,29578	28528
21,29992	28938
21,30403	32802
21,30815	31443
21,31227	31279
21,31640	30265
21,32052	31865
21,32463	33430
21,32877	34162
21,33288	33014
21,33700	33196
21,34113	38753
21,34525	41258
21,34937	51556
21,35350	62814
21,35762	80497
21,36173	107295
21,36587	140378
21,36998	190783
21,37410	245073
21,37823	323029
21,38235	394247
21,38647	474930
21,39060	560776
21,39472	628192
21,39883	676198
21,40295	712608
21,40708	726324
21,41120	721468
21,41532	694331
21,41945	661995
21,42357	611625
21,42768	561078
21,43182	505554
21,43593	456645
21,44005	411225
21,44418	366655
21,44830	332665
21,45242	302476
21,45655	268780
21,46067	240511
21,46478	220896
21,46892	201956
21,47303	183419
21,47715	170373
21,48128	156622
21,48540	147803
21,48952	137124
21,49363	129027
21,49777	119363
21,50188	115403
21,50600	108102
21,51013	103410
21,51425	96818
21,51837	95999
21,52250	90019
21,52662	86543
21,53073	82745
21,53487	79809
21,53898	76650
21,54310	76403
21,54723	71948
21,55135	70678
21,55547	71229
21,55960	69461
21,56372	67972
21,56783	64301
21,57197	65288
21,57608	60663
21,58020	58766
21,58432	56911
21,58845	55928
21,59257	56169
21,59668	53983
21,60082	54610
21,60493	53984
21,60905	53569
21,61318	50790
21,61730	54277
21,62142	50678
21,62555	50008
21,62967	46818
21,63378	48740
21,63792	50201
21,64203	48493
21,64615	47448
21,65028	47120
21,65440	48555
21,65852	46447
21,66265	44502
21,66677	46510
21,67088	42529
21,67500	43152
21,67913	44527
21,68325	43915
21,68737	44638
21,69150	44365
21,69562	41467
21,69973	42437
21,70387	41902
21,70798	42699
21,71210	43904
21,71623	41628
21,72035	41592
21,72447	41072
21,72860	41879
21,73272	39837
21,73683	38259
21,74097	41284
21,74508	41143
21,74920	43622
21,75333	39103
21,75745	41162
21,76157	40233
21,76568	40131
21,76982	40237
21,77393	40582
21,77805	38280
21,78218	38078
21,78630	37671
21,79042	38481
21,79455	38521
21,79867	38431
21,80278	38725
21,80692	41442
21,81103	38135
21,81515	38208
21,81928	36547
21,82340	38588
21,82752	38002
21,83165	37394
21,83577	38249
21,83988	39330
21,84402	38318
21,84813	36433
21,85225	36854
21,85637	39050
21,86050	38504
21,86462	37646
21,86873	39251
21,87287	36597
21,87698	37462
21,88110	35935
21,88523	37629
21,88935	36474
21,89347	38480
21,89760	38051
21,90172	37950
21,90583	37853
21,90997	37934
21,91408	37824
21,91820	37190
21,92233	39067
21,92645	38572
21,93057	35854
21,93470	37397
21,93882	39535
21,94293	37084
21,94705	38417
21,95118	38083
21,95530	39201
21,95942	38146
21,96355	38716
21,96767	39045
21,97178	36018
21,97592	37440
21,98003	38443
21,98415	37151
21,98828	38303
21,99240	37690
21,99652	36180
22,00065	36711
22,00477	39950
22,00888	35376
22,01302	36027
22,01713	36362
22,02125	38805
22,02538	37889
22,02950	37356
22,03362	36268
22,03773	37461
22,04187	34197
22,04598	35065
22,05010	36912
22,05423	35165
22,05835	37378
22,06247	37909
22,06660	36500
22,07072	37031
22,07483	35362
22,07897	35692
22,08308	36488
22,08720	35174
22,09133	35388
22,09545	35041
22,09957	35340
22,10370	35052
22,10782	34481
22,11193	37325
22,11607	35342
22,12018	36410
22,12430	37101
22,12842	36288
22,13255	37426
22,13667	35252
22,14078	36900
22,14492	36909
22,14903	37314
22,15315	37207
22,15728	36750
22,16140	38528
22,16552	36882
22,16965	36785
22,17377	38130
22,17788	36394
22,18202	37923
22,18613	38504
22,19025	38042
22,19438	37444
22,19850	38816
22,20262	36854
22,20675	38214
22,21087	35136
22,21498	37109
22,21910	35904
22,22323	33375
22,22735	35650
22,23147	38034
22,23560	37361
22,23972	37306
22,24383	36721
22,24797	36099
22,25208	38178
22,25620	36401
22,26033	37348
22,26445	37525
22,26857	36860
22,27270	36785
22,27682	36458
22,28093	37881
22,28507	37124
22,28918	39437
22,29330	37094
22,29743	38179
22,30155	35233
22,30567	37330
22,30978	36168
22,31392	37850
22,31803	39521
22,32215	38729
22,32628	38165
22,33040	36556
22,33452	38398
22,33865	39789
22,34277	35156
22,34688	36115
22,35102	38718
22,35513	36291
22,35925	38754
22,36338	37874
22,36750	35582
22,37162	38933
22,37575	38227
22,37987	37082
22,38398	37036
22,38812	36020
22,39223	39158
22,39635	34851
22,40047	38519
22,40460	37325
22,40872	38160
22,41283	37985
22,41697	39492
22,42108	37923
22,42520	38910
22,42933	37798
22,43345	38273
22,43757	39308
22,44170	38627
22,44582	37131
22,44993	39401
22,45407	38445
22,45818	38669
22,46230	39846
22,46643	36783
22,47055	37321
22,47467	36488
22,47880	37952
22,48292	38563
22,48703	35970
22,49115	37867
22,49528	35018
22,49940	37151
22,50352	37093
22,50765	36530
22,51177	35755
22,51588	36158
22,52002	36615
22,52413	35766
22,52825	35767
22,53238	37222
22,53650	35587
22,54062	34827
22,54475	35779
22,54887	35604
22,55298	34477
22,55712	35530
22,56123	33251
22,56535	35661
22,56948	36604
22,57360	38295
22,57772	36932
22,58183	35659
22,58597	38987
22,59008	36901
22,59420	37153
22,59833	38810
22,60245	36966
22,60657	36338
22,61070	34149
22,61482	37306
22,61893	36417
22,62307	37217
22,62718	37333
22,63130	37451
22,63543	38356
22,63955	38170
22,64367	37126
22,64780	35186
22,65192	35638
22,65603	37271
22,66017	37702
22,66428	38101
22,66840	33310
22,67252	36433
22,67665	39307
22,68077	36484
22,68488	36372
22,68902	36287
22,69313	38767
22,69725	41020
22,70138	36982
22,70550	37597
22,70962	35271
22,71375	36723
22,71787	38494
22,72198	37768
22,72612	37596
22,73023	36834
22,73435	37706
22,73848	37884
22,74260	36357
22,74672	37582
22,75085	36532
22,75497	38874
22,75908	39334
22,76320	36690
22,76733	36904
22,77145	35617
22,77557	39705
22,77970	36971
22,78382	37817
22,78793	36389
22,79207	38257
22,79618	38725
22,80030	37185
22,80443	37612
22,80855	38492
22,81267	37626
22,81680	36763
22,82092	37622
22,82503	37967
22,82917	37565
22,83328	37866
22,83740	38737
22,84153	37823
22,84565	38074
22,84977	38043
22,85390	35953
22,85802	37227
22,86213	38849
22,86625	36782
22,87038	37426
22,87450	38329
22,87862	37887
22,88275	38014
22,88687	36230
22,89098	37742
22,89512	38240
22,89923	38265
22,90335	37364
22,90748	37389
22,91160	37552
22,91572	38487
22,91985	38486
22,92397	37565
22,92808	38472
22,93222	37820
22,93633	38896
22,94045	38212
22,94458	38255
22,94870	37585
22,95282	36457
22,95693	37600
22,96107	37921
22,96518	36343
22,96930	38951
22,97343	36411
22,97755	36241
22,98167	34675
22,98580	35902
22,98992	36426
22,99403	36558
22,99817	37871
23,00228	36468
23,00640	34204
23,01053	37324
23,01465	38648
23,01877	35982
23,02290	40033
23,02702	38086
23,03113	36570
23,03527	36886
23,03938	36640
23,04350	34945
23,04762	37542
23,05175	35941
23,05587	37021
23,05998	36492
23,06412	37785
23,06823	37843
23,07235	37087
23,07648	37120
23,08060	34573
23,08472	35772
23,08885	36995
23,09297	37257
23,09708	38665
23,10122	36271
23,10533	36737
23,10945	38038
23,11358	34459
23,11770	36334
23,12182	34272
23,12595	36151
23,13007	34611
23,13418	37468
23,13830	37292
23,14243	34794
23,14655	35659
23,15067	36160
23,15480	35599
23,15892	36212
23,16303	37491
23,16717	37698
23,17128	34896
23,17540	37776
23,17953	35415
23,18365	36315
23,18777	36193
23,19190	36683
23,19602	36141
23,20013	36253
23,20427	37915
23,20838	35275
23,21250	35350
23,21663	35078
23,22075	36691
23,22487	36871
23,22898	35112
23,23312	35261
23,23723	36346
23,24135	38617
23,24548	38041
23,24960	37361
23,25372	38645
23,25785	38911
23,26197	36615
23,26608	39966
23,27022	37109
23,27433	37582
23,27845	36463
23,28258	38893
23,28670	39542
23,29082	35399
23,29495	37126
23,29907	36918
23,30318	38440
