D:\MassHunter\GCMS\1\data\Amal\Constant flow\100C\100C_1ml-min_5C-min_2.D Wed Sep 04 20:27:38 2024
Start of data points
5,59107,630541
5,59518,606174
5,59930,578931
5,60343,555614
5,60755,528253
5,61167,506358
5,61580,484906
5,61992,461838
5,62403,440337
5,62817,423071
5,63228,407212
5,63640,395695
5,64053,372743
5,64465,364597
5,64877,349804
5,65290,336660
5,65702,325404
5,66113,316357
5,66527,300003
5,66938,288654
5,67350,283203
5,67763,272880
5,68175,267401
5,68587,251515
5,68998,249752
5,69412,239461
5,69823,227410
5,70235,225541
5,70648,214270
5,71060,213467
5,71472,201953
5,71885,195450
5,72297,184184
5,72708,180952
5,73122,173826
5,73533,165616
5,73945,160168
5,74358,155227
5,74770,149090
5,75182,142170
5,75595,137220
5,76007,134175
5,76418,130436
5,76832,126686
5,77243,119727
5,77655,119673
5,78067,116409
5,78480,113087
5,78892,106908
5,79303,110126
5,79717,107091
5,80128,104005
5,80540,102326
5,80953,96659
5,81365,97585
5,81777,97618
5,82190,96450
5,82602,94922
5,83013,94840
5,83427,89626
5,83838,91284
5,84250,91187
5,84663,89680
5,85075,85147
5,85487,90178
5,85900,86854
5,86312,86001
5,86723,86446
5,87135,84292
5,87548,82073
5,87960,82783
5,88372,81338
5,88785,80685
5,89197,81489
5,89608,79305
5,90022,79982
5,90433,77019
5,90845,78033
5,91258,78588
5,91670,76123
5,92082,80586
5,92495,75785
5,92907,74079
5,93318,74338
5,93732,77569
5,94143,77296
5,94555,74182
5,94968,74518
5,95380,74419
5,95792,74981
5,96203,72320
5,96617,73357
5,97028,75579
5,97440,73772
5,97853,74238
5,98265,73902
5,98677,71306
5,99090,70726
5,99502,71106
5,99913,73450
6,00327,70903
6,00738,72294
6,01150,71145
6,01563,68992
6,01975,72739
6,02387,68702
6,02800,70626
6,03212,69356
6,03623,68375
6,04037,70525
6,04448,65835
6,04860,66741
6,05272,67555
6,05685,67119
6,06097,67251
6,06508,64563
6,06922,66963
6,07333,67230
6,07745,65479
6,08158,66663
6,08570,64070
6,08982,66913
6,09395,67935
6,09807,64458
6,10218,64643
6,10632,64086
6,11043,65217
6,11455,64830
6,11868,62875
6,12280,62670
6,12692,61337
6,13105,60552
6,13517,63140
6,13928,62553
6,14340,64665
6,14753,61669
6,15165,62368
6,15577,60789
6,15990,61422
6,16402,61831
6,16813,60686
6,17227,62322
6,17638,61675
6,18050,61295
6,18463,61784
6,18875,60901
6,19287,62927
6,19700,59538
6,20112,60834
6,20523,61454
6,20937,60542
6,21348,62384
6,21760,60151
6,22173,60256
6,22585,59073
6,22997,58933
6,23408,58674
6,23822,59514
6,24233,58726
6,24645,58070
6,25058,60712
6,25470,57973
6,25882,57545
6,26295,60131
6,26707,56602
6,27118,57408
6,27532,58278
6,27943,59003
6,28355,57202
6,28768,59076
6,29180,57272
6,29592,54390
6,30005,56915
6,30417,55630
6,30828,58263
6,31242,55448
6,31653,56249
6,32065,55921
6,32477,56442
6,32890,55767
6,33302,56225
6,33713,54925
6,34127,54696
6,34538,53623
6,34950,53928
6,35363,54227
6,35775,54028
6,36187,53017
6,36600,53693
6,37012,52008
6,37423,54341
6,37837,52940
6,38248,54396
6,38660,52317
6,39073,50551
6,39485,52096
6,39897,50330
6,40310,51134
6,40722,49656
6,41133,51171
6,41545,50219
6,41958,51059
6,42370,50753
6,42782,48921
6,43195,49323
6,43607,50970
6,44018,49800
6,44432,50154
6,44843,50246
6,45255,48389
6,45668,48820
6,46080,48550
6,46492,49009
6,46905,50640
6,47317,50134
6,47728,51844
6,48142,53185
6,48553,53056
6,48965,52751
6,49378,51430
6,49790,53779
6,50202,55012
6,50613,55557
6,51027,55120
6,51438,54442
6,51850,55683
6,52263,54542
6,52675,52143
6,53087,55439
6,53500,54795
6,53912,55999
6,54323,52758
6,54737,55487
6,55148,54703
6,55560,55496
6,55973,55528
6,56385,57990
6,56797,59327
6,57210,59132
6,57622,58901
6,58033,60069
6,58447,57926
6,58858,57779
6,59270,59301
6,59682,59327
6,60095,57654
6,60507,57616
6,60918,58569
6,61332,56246
6,61743,55668
6,62155,56131
6,62568,53523
6,62980,57139
6,63392,54471
6,63805,53973
6,64217,53477
6,64628,52249
6,65042,52221
6,65453,52676
6,65865,51418
6,66278,50885
6,66690,51166
6,67102,50928
6,67515,49002
6,67927,50741
6,68338,49975
6,68750,47789
6,69163,48972
6,69575,48602
6,69987,48718
6,70400,47651
6,70812,48045
6,71223,46275
6,71637,49811
6,72048,46240
6,72460,45914
6,72873,46422
6,73285,46727
6,73697,45458
6,74110,45321
6,74522,45192
6,74933,46881
6,75347,42946
6,75758,44351
6,76170,43695
6,76583,44950
6,76995,42686
6,77407,44196
6,77818,43739
6,78232,42708
6,78643,41768
6,79055,44378
6,79468,42502
6,79880,41525
6,80292,40820
6,80705,40025
6,81117,40798
6,81528,41106
6,81942,40831
6,82353,42296
6,82765,41095
6,83178,41708
6,83590,40297
6,84002,42159
6,84415,40572
6,84827,39295
6,85238,38922
6,85652,38455
6,86063,38745
6,86475,38578
6,86887,39892
6,87300,40402
6,87712,41238
6,88123,38653
6,88537,39359
6,88948,36321
6,89360,37817
6,89773,39725
6,90185,37046
6,90597,36104
6,91010,37305
6,91422,39130
6,91833,36103
6,92247,38525
6,92658,37918
6,93070,37546
6,93483,40497
6,93895,42661
6,94307,48197
6,94720,60983
6,95132,78168
6,95543,110891
6,95955,159884
6,96368,222625
6,96780,313159
6,97192,414051
6,97605,524054
6,98017,641184
6,98428,748825
6,98842,824409
6,99253,893229
6,99665,934329
7,00078,948718
7,00490,934513
7,00902,926057
7,01315,893042
7,01727,860947
7,02138,816553
7,02552,775909
7,02963,730911
7,03375,697034
7,03788,654494
7,04200,613240
7,04612,576565
7,05023,538816
7,05437,507721
7,05848,480352
7,06260,446377
7,06673,423696
7,07085,395071
7,07497,367393
7,07910,354072
7,08322,323674
7,08733,307616
7,09147,288195
7,09558,261642
7,09970,247895
7,10383,221483
7,10795,208041
7,11207,194852
7,11620,182255
7,12032,165275
7,12443,151546
7,12857,142881
7,13268,133183
7,13680,124259
7,14092,112793
7,14505,105572
7,14917,97419
7,15328,92473
7,15742,85812
7,16153,81352
7,16565,77754
7,16978,71492
7,17390,67107
7,17802,65452
7,18215,65184
7,18627,61110
7,19038,58396
7,19452,54339
7,19863,56590
7,20275,53005
7,20688,52776
7,21100,50180
7,21512,48431
7,21925,45888
7,22337,46341
7,22748,46318
7,23160,44598
7,23573,42979
7,23985,44404
7,24397,41951
7,24810,41381
7,25222,41789
7,25633,39670
7,26047,40831
7,26458,40693
7,26870,39172
7,27283,38269
7,27695,39128
7,28107,38496
7,28520,37414
7,28932,36493
7,29343,36164
7,29757,37136
7,30168,37720
7,30580,36046
7,30993,35159
7,31405,34429
7,31817,36289
7,32230,34072
7,32642,34226
7,33053,33482
7,33465,33495
7,33878,33993
7,34290,32827
7,34702,34149
7,35115,32233
7,35527,32718
7,35938,33331
7,36352,33921
7,36763,32528
7,37175,32575
7,37588,31963
7,38000,31372
7,38412,31780
7,38825,29989
7,39237,32334
7,39648,31146
7,40062,33164
7,40473,31530
7,40885,32603
7,41298,30706
7,41710,32696
7,42122,30278
7,42533,31058
7,42947,31154
7,43358,31218
7,43770,30660
7,44183,30168
7,44595,28991
7,45007,30218
7,45420,30478
7,45832,29533
7,46243,30646
7,46657,29649
7,47068,29112
7,47480,29660
7,47893,30722
7,48305,30515
7,48717,29226
7,49130,30364
7,49542,29767
7,49953,29282
7,50367,29300
7,50778,29537
7,51190,29242
7,51602,27603
7,52015,28101
7,52427,28075
7,52838,28070
7,53252,27969
7,53663,29480
7,54075,29473
7,54488,28673
7,54900,27861
7,55312,28317
7,55725,29109
7,56137,27367
7,56548,27109
7,56962,28251
7,57373,28861
7,57785,27375
7,58198,27726
7,58610,25963
7,59022,27461
7,59435,28895
7,59847,28152
7,60258,26923
7,60670,28650
7,61083,27879
7,61495,27521
7,61907,27195
7,62320,25707
7,62732,27334
7,63143,27659
7,63557,28313
7,63968,27953
7,64380,26763
7,64793,27446
7,65205,26397
7,65617,29077
7,66030,25875
7,66442,26753
7,66853,27775
7,67267,25395
7,67678,27984
7,68090,26914
7,68503,24765
7,68915,27704
7,69327,26708
7,69738,26296
7,70152,27336
7,70563,25725
7,70975,27337
7,71388,27790
7,71800,27421
7,72212,28379
7,72625,28786
7,73037,25809
7,73448,27727
7,73862,29193
7,74273,27434
7,74685,27858
7,75098,27626
7,75510,28619
7,75922,27025
7,76335,28348
7,76747,28200
7,77158,28448
7,77572,27137
7,77983,27977
7,78395,28003
7,78807,27063
7,79220,28381
7,79632,26916
7,80043,26927
7,80457,24794
7,80868,27485
7,81280,25291
7,81693,26854
7,82105,25258
7,82517,25676
7,82930,25121
7,83342,25400
7,83753,25007
7,84167,25089
7,84578,24294
7,84990,25419
7,85403,25603
7,85815,25287
7,86227,24971
7,86640,25306
7,87052,25063
7,87463,24889
7,87875,25746
7,88288,24266
7,88700,24217
7,89112,24013
7,89525,23801
7,89937,22356
7,90348,23343
7,90762,25670
7,91173,24072
7,91585,25786
7,91998,23607
7,92410,22969
7,92822,24957
7,93235,23543
7,93647,24383
7,94058,23107
7,94472,22174
7,94883,23502
7,95295,23822
7,95708,24078
7,96120,23945
7,96532,22966
7,96943,23083
7,97357,24365
7,97768,24094
7,98180,23551
7,98593,23483
7,99005,22956
7,99417,24607
7,99830,24258
8,00242,25128
8,00653,26158
8,01067,24235
8,01478,25445
8,01890,25298
8,02303,24010
8,02715,25944
8,03127,24576
8,03540,24214
8,03952,24019
8,04363,23780
8,04777,24649
8,05188,24352
8,05600,23626
8,06012,24065
8,06425,24431
8,06837,22646
8,07248,23950
8,07662,24163
8,08073,22603
8,08485,22323
8,08898,22976
8,09310,21998
8,09722,23421
8,10135,23199
8,10547,22375
8,10958,22287
8,11372,23055
8,11783,22373
8,12195,23321
8,12608,22864
8,13020,24057
8,13432,22835
8,13845,21423
8,14257,21599
8,14668,21939
8,15080,22211
8,15493,21778
8,15905,23128
8,16317,22667
8,16730,23576
8,17142,22248
8,17553,24950
8,17967,22503
8,18378,22824
8,18790,23235
8,19203,25018
8,19615,25191
8,20027,25793
8,20440,27494
8,20852,25730
8,21263,25532
8,21677,25201
8,22088,25762
8,22500,24755
8,22913,26313
8,23325,24561
8,23737,23971
8,24148,23231
8,24562,24199
8,24973,24231
8,25385,24177
8,25798,24537
8,26210,23548
8,26622,22316
8,27035,23450
8,27447,24039
8,27858,21722
8,28272,21965
8,28683,22705
8,29095,22016
8,29508,21915
8,29920,22517
8,30332,23255
8,30745,22019
8,31157,22355
8,31568,21251
8,31982,21247
8,32393,22532
8,32805,22858
8,33217,22233
8,33630,20339
8,34042,21712
8,34453,20763
8,34867,21262
8,35278,21579
8,35690,20517
8,36103,21805
8,36515,20514
8,36927,20316
8,37340,19852
8,37752,19746
8,38163,20710
8,38577,21093
8,38988,20926
8,39400,19960
8,39813,20287
8,40225,21116
8,40637,20462
8,41050,20283
8,41462,20119
8,41873,19807
8,42285,20807
8,42698,19835
8,43110,20386
8,43522,19545
8,43935,19029
8,44347,20128
8,44758,18928
8,45172,19934
8,45583,18974
8,45995,19729
8,46408,19539
8,46820,20576
8,47232,18979
8,47645,20837
8,48057,18949
8,48468,20596
8,48882,18912
8,49293,20584
8,49705,19138
8,50118,18970
8,50530,20391
8,50942,19185
8,51353,18973
8,51767,19893
8,52178,19100
8,52590,20159
8,53003,19289
8,53415,19106
8,53827,19415
8,54240,18136
8,54652,19928
8,55063,18969
8,55477,19112
8,55888,19647
8,56300,19213
8,56713,19687
8,57125,20173
8,57537,18728
8,57950,19744
8,58362,20513
8,58773,18870
8,59187,18696
8,59598,19630
8,60010,18691
8,60422,18382
8,60835,18356
8,61247,20353
8,61658,18794
8,62072,18997
8,62483,17771
8,62895,18715
8,63308,19260
8,63720,18272
8,64132,18143
8,64545,18242
8,64957,18182
8,65368,17266
8,65782,18902
8,66193,17755
8,66605,18532
8,67018,18645
8,67430,17901
8,67842,18124
8,68255,17184
8,68667,18272
8,69078,18535
8,69490,18287
8,69903,18071
8,70315,17907
8,70727,18043
8,71140,18046
8,71552,17578
8,71963,17902
8,72377,18524
8,72788,17420
8,73200,18377
8,73613,17339
8,74025,17333
8,74437,17476
8,74850,18649
8,75262,17461
8,75673,18193
8,76087,18089
8,76498,17960
8,76910,19103
8,77323,18066
8,77735,17828
8,78147,17862
8,78558,17973
8,78972,19181
8,79383,18158
8,79795,17314
8,80208,18039
8,80620,17840
8,81032,17485
8,81445,17662
8,81857,18194
8,82268,17690
8,82682,18003
8,83093,18703
8,83505,18315
8,83918,18625
8,84330,17374
8,84742,18067
8,85155,16610
8,85567,17991
8,85978,17562
8,86392,17506
8,86803,16497
8,87215,17153
8,87628,18572
8,88040,18181
8,88452,17266
8,88863,17301
8,89277,17634
8,89688,17260
8,90100,17459
8,90513,18286
8,90925,18365
8,91337,18459
8,91750,18428
8,92162,18298
8,92573,18235
8,92987,19290
8,93398,18020
8,93810,18293
8,94223,18738
8,94635,18503
8,95047,18306
8,95460,17056
8,95872,16528
8,96283,16975
8,96697,17173
8,97108,17620
8,97520,17056
8,97932,16077
8,98345,16303
8,98757,16591
8,99168,17369
8,99582,17008
8,99993,16637
9,00405,17423
9,00818,17099
9,01230,16362
9,01642,16603
9,02055,16917
9,02467,17227
9,02878,16152
9,03292,17133
9,03703,17332
9,04115,15892
9,04528,15869
9,04940,17087
9,05352,17358
9,05765,17291
9,06177,16860
9,06588,17051
9,07000,17785
9,07413,16608
9,07825,16519
9,08237,16781
9,08650,16595
9,09062,16134
9,09473,16369
9,09887,15502
9,10298,16203
9,10710,17288
9,11123,17306
9,11535,16725
9,11947,16704
9,12360,16446
9,12772,16483
9,13183,16833
9,13597,17429
9,14008,16286
9,14420,18205
9,14833,17938
9,15245,20397
9,15657,23873
9,16068,33665
9,16482,50299
9,16893,72694
9,17305,108330
9,17718,163675
9,18130,240383
9,18542,330454
9,18955,452146
9,19367,587373
9,19778,725467
9,20192,876711
9,20603,1016925
9,21015,1131335
9,21428,1236951
9,21840,1283782
9,22252,1325769
9,22665,1319750
9,23077,1313642
9,23488,1262239
9,23902,1217634
9,24313,1156372
9,24725,1070643
9,25137,1001758
9,25550,925758
9,25962,843775
9,26373,777764
9,26787,695040
9,27198,626339
9,27610,566303
9,28023,509095
9,28435,451259
9,28847,396227
9,29260,355120
9,29672,311347
9,30083,277343
9,30497,246218
9,30908,217417
9,31320,195831
9,31733,174391
9,32145,156367
9,32557,140875
9,32970,128784
9,33382,118602
9,33793,108434
9,34205,96829
9,34618,87873
9,35030,83937
9,35442,78206
9,35855,72421
9,36267,70370
9,36678,63777
9,37092,59706
9,37503,55693
9,37915,53513
9,38328,52213
9,38740,50160
9,39152,45926
9,39565,45055
9,39977,43609
9,40388,42703
9,40802,39073
9,41213,39601
9,41625,37096
9,42038,36632
9,42450,35912
9,42862,34657
9,43273,33874
9,43687,33521
9,44098,30572
9,44510,30560
9,44923,29861
9,45335,28741
9,45747,28077
9,46160,27920
9,46572,27409
9,46983,27984
9,47397,25678
9,47808,27275
9,48220,26739
9,48633,26264
9,49045,25202
9,49457,24021
9,49870,24655
9,50282,23621
9,50693,23768
9,51107,22147
9,51518,23662
9,51930,23625
9,52342,22760
9,52755,23210
9,53167,22280
9,53578,22406
9,53992,21455
9,54403,21693
9,54815,21382
9,55228,19888
9,55640,20145
9,56052,20389
9,56465,19632
9,56877,18834
9,57288,19539
9,57702,19791
9,58113,19160
9,58525,19717
9,58938,21147
9,59350,20542
9,59762,20184
9,60175,20875
9,60587,19484
9,60998,20906
9,61410,19352
9,61823,20936
9,62235,19538
9,62647,20092
9,63060,19321
9,63472,19627
9,63883,18401
9,64297,19168
9,64708,19340
9,65120,19226
9,65533,17592
9,65945,18133
9,66357,18911
9,66770,17771
9,67182,16241
9,67593,17601
9,68007,17936
9,68418,17659
9,68830,17942
9,69243,17629
9,69655,16882
9,70067,17490
9,70478,16936
9,70892,16246
9,71303,16205
9,71715,16837
9,72128,17696
9,72540,16342
9,72952,17531
9,73365,14786
9,73777,15585
9,74188,16558
9,74602,16166
9,75013,15512
9,75425,17112
9,75838,14686
9,76250,15500
9,76662,15534
9,77075,17000
9,77487,16097
9,77898,16209
9,78312,16679
9,78723,17397
9,79135,16711
9,79547,16813
9,79960,15700
9,80372,17130
9,80783,14604
9,81197,17424
9,81608,17557
9,82020,16368
9,82433,15761
9,82845,14876
9,83257,15895
9,83670,15815
9,84082,15366
9,84493,15611
9,84907,15337
9,85318,14976
9,85730,15984
9,86143,15442
9,86555,13764
9,86967,14520
9,87380,15845
9,87792,14837
9,88203,15966
9,88615,14369
9,89028,15590
9,89440,16218
9,89852,14769
9,90265,14887
9,90677,16071
9,91088,15590
9,91502,15076
9,91913,14376
9,92325,15706
9,92738,14777
9,93150,14528
9,93562,16129
9,93975,14986
9,94387,14915
9,94798,15104
9,95212,15151
9,95623,14606
9,96035,14031
9,96448,14974
9,96860,16170
9,97272,15343
9,97683,15105
9,98097,14591
9,98508,15678
9,98920,13801
9,99333,14689
9,99745,15578
10,00157,14445
10,00570,14089
10,00982,14000
10,01393,14437
10,01807,14254
10,02218,14299
10,02630,13591
10,03043,12916
10,03455,13528
10,03867,14488
10,04280,14100
10,04692,12154
10,05103,14190
10,05517,13929
10,05928,14199
10,06340,13148
10,06752,12473
10,07165,13483
10,07577,13496
10,07988,14065
10,08402,13125
10,08813,14080
10,09225,14457
10,09638,14828
10,10050,14449
10,10462,14499
10,10875,15132
10,11287,15147
10,11698,14486
10,12112,14624
10,12523,13332
10,12935,14161
10,13348,13795
10,13760,15829
10,14172,14590
10,14585,15169
10,14997,15185
10,15408,15105
10,15820,14131
10,16233,14896
10,16645,14367
10,17057,14579
10,17470,13994
10,17882,13956
10,18293,13326
10,18707,13409
10,19118,14733
10,19530,14213
10,19943,13954
10,20355,13316
10,20767,14331
10,21180,12959
10,21592,13514
10,22003,13603
10,22417,13179
10,22828,15145
10,23240,14300
10,23653,15513
10,24065,14575
10,24477,14082
10,24888,13017
10,25302,14482
10,25713,15299
10,26125,14313
10,26538,14167
10,26950,13964
10,27362,14079
10,27775,15183
10,28187,14320
10,28598,14888
10,29012,12883
10,29423,14859
10,29835,13716
10,30248,14169
10,30660,14186
10,31072,13317
10,31485,12768
10,31897,12757
10,32308,13002
10,32722,12845
10,33133,11757
10,33545,12232
10,33957,12166
10,34370,11875
10,34782,12224
10,35193,13650
10,35607,12807
10,36018,13015
10,36430,13104
10,36843,13326
10,37255,11386
10,37667,13184
10,38080,12108
10,38492,12503
10,38903,11943
10,39317,12302
10,39728,12480
10,40140,12077
10,40553,12637
10,40965,13035
10,41377,13315
10,41790,12874
10,42202,14207
10,42613,11822
10,43027,13469
10,43438,12888
10,43850,13119
10,44262,12658
10,44675,13376
10,45087,12345
10,45498,12053
10,45912,12546
10,46323,12192
10,46735,12988
10,47148,12190
10,47560,13152
10,47972,12476
10,48385,11358
10,48797,12249
10,49208,13910
10,49622,14488
10,50033,17648
10,50445,20893
10,50858,29085
10,51270,40975
10,51682,60382
10,52095,87592
10,52507,123114
10,52918,175707
10,53330,237965
10,53743,315758
10,54155,393372
10,54567,478459
10,54980,565274
10,55392,641869
10,55803,707298
10,56217,745138
10,56628,786577
10,57040,788251
10,57453,776495
10,57865,743215
10,58277,717377
10,58690,668728
10,59102,621528
10,59513,559328
10,59927,507535
10,60338,453095
10,60750,401388
10,61163,349080
10,61575,311406
10,61987,276669
10,62398,240895
10,62812,208569
10,63223,187788
10,63635,164196
10,64048,142015
10,64460,126068
10,64872,111051
10,65285,102095
10,65697,88657
10,66108,79072
10,66522,74644
10,66933,66476
10,67345,64520
10,67758,57704
10,68170,54720
10,68582,48791
10,68995,47878
10,69407,45976
10,69818,41079
10,70232,40574
10,70643,38537
10,71055,34803
10,71467,34232
10,71880,33250
10,72292,29583
10,72703,29456
10,73117,28305
10,73528,28538
10,73940,26459
10,74353,27507
10,74765,26185
10,75177,25108
10,75590,23512
10,76002,24393
10,76413,22127
10,76827,24658
10,77238,22743
10,77650,23230
10,78063,22423
10,78475,21890
10,78887,20955
10,79300,20056
10,79712,18967
10,80123,18337
10,80535,18987
10,80948,18608
10,81360,18207
10,81772,18351
10,82185,17623
10,82597,17679
10,83008,17662
10,83422,16474
10,83833,16599
10,84245,17480
10,84658,17504
10,85070,16594
10,85482,15868
10,85895,17063
10,86307,15892
10,86718,16057
10,87132,15327
10,87543,15252
10,87955,15425
10,88368,14154
10,88780,14710
10,89192,13606
10,89603,14658
10,90017,14307
10,90428,14011
10,90840,14347
10,91253,15181
10,91665,13128
10,92077,14098
10,92490,14222
10,92902,13619
10,93313,13874
10,93727,12999
10,94138,14442
10,94550,12271
10,94963,13874
10,95375,13355
10,95787,12987
10,96200,13866
10,96612,12243
10,97023,11631
10,97437,13053
10,97848,12756
10,98260,13855
10,98672,13961
10,99085,12743
10,99497,12554
10,99908,12578
11,00322,12811
11,00733,13402
11,01145,12843
11,01558,12497
11,01970,12184
11,02382,12189
11,02795,12031
11,03207,12396
11,03618,11928
11,04032,12082
11,04443,11344
11,04855,13169
11,05268,13058
11,05680,11445
11,06092,12580
11,06505,12017
11,06917,12278
11,07328,11653
11,07740,12811
11,08153,13628
11,08565,13845
11,08977,13758
11,09390,15030
11,09802,15316
11,10213,15191
11,10627,14977
11,11038,14697
11,11450,14316
11,11863,15918
11,12275,15223
11,12687,14147
11,13100,15011
11,13512,13435
11,13923,14284
11,14337,14054
11,14748,13139
11,15160,13371
11,15573,13347
11,15985,12619
11,16397,12747
11,16808,12207
11,17222,12016
11,17633,11908
11,18045,12443
11,18458,11620
11,18870,12400
11,19282,10467
11,19695,11293
11,20107,11693
11,20518,11070
11,20932,12449
11,21343,10961
11,21755,12208
11,22168,10727
11,22580,12193
11,22992,9839
11,23405,11542
11,23817,10713
11,24228,11094
11,24642,11475
11,25053,11632
11,25465,11979
11,25877,10598
11,26290,11226
11,26702,11465
11,27113,11880
11,27527,12236
11,27938,9721
11,28350,11613
11,28763,11887
11,29175,10932
11,29587,11162
11,30000,9709
11,30412,10689
11,30823,10600
11,31237,11815
11,31648,10363
11,32060,10052
11,32473,10895
11,32885,11259
11,33297,11718
11,33710,11062
11,34122,10987
11,34533,10757
11,34945,10216
11,35358,9455
11,35770,10813
11,36182,10214
11,36595,10696
11,37007,10200
11,37418,10500
11,37832,10423
11,38243,10468
11,38655,10553
11,39068,10667
11,39480,11092
11,39892,11754
11,40305,10746
11,40717,10502
11,41128,11138
11,41542,10221
11,41953,10355
11,42365,11067
11,42778,10128
11,43190,11195
11,43602,10553
11,44013,10535
11,44427,10648
11,44838,11090
11,45250,10411
11,45663,10546
11,46075,10369
11,46487,9684
11,46900,10746
11,47312,10162
11,47723,10415
11,48137,9874
11,48548,10520
11,48960,10457
11,49373,9532
11,49785,10180
11,50197,9881
11,50610,9855
11,51022,9427
11,51433,9802
11,51847,10529
11,52258,10133
11,52670,9819
11,53082,9950
11,53495,9666
11,53907,10680
11,54318,9591
11,54732,10598
11,55143,10097
11,55555,9368
11,55968,9469
11,56380,9957
11,56792,10446
11,57205,10610
11,57617,11031
11,58028,9182
11,58442,9861
11,58853,10393
11,59265,9671
11,59678,10332
11,60090,10081
11,60502,10358
11,60915,10668
11,61327,10529
11,61738,10427
11,62150,10535
11,62563,9932
11,62975,9855
11,63387,11028
11,63800,9883
11,64212,9770
11,64623,9845
11,65037,9128
11,65448,10927
11,65860,11180
11,66273,11380
11,66685,10741
11,67097,11160
11,67510,10650
11,67922,10788
11,68333,11570
11,68747,10743
11,69158,10306
11,69570,11059
11,69983,9926
11,70395,10920
11,70807,11333
11,71218,11799
11,71632,11454
11,72043,9889
11,72455,10839
11,72868,9935
11,73280,11767
11,73692,10848
11,74105,10740
11,74517,10555
11,74928,10355
11,75342,10579
11,75753,10925
11,76165,10725
11,76578,9340
11,76990,10709
11,77402,9290
11,77815,9807
11,78227,10159
11,78638,10433
11,79052,10041
11,79463,10323
11,79875,9969
11,80287,9295
11,80700,10380
11,81112,8907
11,81523,9949
11,81937,9960
11,82348,9880
11,82760,9569
11,83173,9856
11,83585,9098
11,83997,9497
11,84410,10329
11,84822,9327
11,85233,9004
11,85647,9302
11,86058,9616
11,86470,9297
11,86883,9246
11,87295,9145
11,87707,9500
11,88120,9301
11,88532,9021
11,88943,8896
11,89355,9439
11,89768,8824
11,90180,8538
11,90592,8980
11,91005,9336
11,91417,9130
11,91828,11081
11,92242,11659
11,92653,14734
11,93065,19219
11,93478,29120
11,93890,44910
11,94302,73496
11,94715,112935
11,95127,180689
11,95538,265008
11,95952,383585
11,96363,525177
11,96775,693700
11,97188,891395
11,97600,1101054
11,98012,1301101
11,98423,1469093
11,98837,1606408
11,99248,1720092
11,99660,1790384
12,00073,1810354
12,00485,1765642
12,00897,1697933
12,01310,1596096
12,01722,1447911
12,02133,1307486
12,02547,1161595
12,02958,1018929
12,03370,884043
12,03783,764197
12,04195,659189
12,04607,558593
12,05020,480543
12,05432,415464
12,05843,355460
12,06257,312502
12,06668,267873
12,07080,238986
12,07493,207164
12,07905,182712
12,08317,167136
12,08728,151837
12,09142,137749
12,09553,122711
12,09965,111530
12,10378,103090
12,10790,97242
12,11202,87220
12,11615,79987
12,12027,74531
12,12438,72695
12,12852,65036
12,13263,63111
12,13675,59359
12,14088,55183
12,14500,53915
12,14912,49962
12,15325,48632
12,15737,46842
12,16148,42957
12,16562,40947
12,16973,41719
12,17385,38578
12,17797,37735
12,18210,35419
12,18622,34503
12,19033,34790
12,19447,32509
12,19858,32009
12,20270,30708
12,20683,30463
12,21095,27107
12,21507,28092
12,21920,26270
12,22332,26748
12,22743,26032
12,23157,26013
12,23568,24732
12,23980,24492
12,24393,24942
12,24805,23178
12,25217,22236
12,25630,21877
12,26042,20589
12,26453,20249
12,26865,21179
12,27278,19394
12,27690,18864
12,28102,19728
12,28515,19565
12,28927,19557
12,29338,18872
12,29752,18365
12,30163,17299
12,30575,17001
12,30988,18325
12,31400,16813
12,31812,16628
12,32225,15095
12,32637,15804
12,33048,15557
12,33462,15444
12,33873,15543
12,34285,16229
12,34698,15342
12,35110,15958
12,35522,14178
12,35933,14410
12,36347,14813
12,36758,14543
12,37170,13857
12,37583,14272
12,37995,13864
12,38407,11910
12,38820,12890
12,39232,14720
12,39643,12758
12,40057,14207
12,40468,12254
12,40880,12029
12,41293,13342
12,41705,12002
12,42117,11553
12,42530,12149
12,42942,11898
12,43353,12609
12,43767,12929
12,44178,12800
12,44590,12523
12,45002,12108
12,45415,12775
12,45827,11612
12,46238,12819
12,46652,12410
12,47063,12388
12,47475,12366
12,47888,12237
12,48300,11312
12,48712,12351
12,49125,10563
12,49537,10927
12,49948,11223
12,50362,10328
12,50773,11666
12,51185,10705
12,51598,10512
12,52010,10052
12,52422,10983
12,52835,10058
12,53247,10994
12,53658,9653
12,54070,10939
12,54483,10618
12,54895,9920
12,55307,9505
12,55720,9902
12,56132,8896
12,56543,9735
12,56957,9586
12,57368,10250
12,57780,9735
12,58193,11089
12,58605,11628
12,59017,9720
12,59430,9451
12,59842,10468
12,60253,9684
12,60667,9926
12,61078,10580
12,61490,10320
12,61903,11159
12,62315,10150
12,62727,11977
12,63138,11974
12,63552,13028
12,63963,12451
12,64375,13121
12,64788,14100
12,65200,14861
12,65612,16064
12,66025,15283
12,66437,16377
12,66848,16029
12,67262,14816
12,67673,15462
12,68085,15587
12,68498,14543
12,68910,13910
12,69322,14776
12,69735,13299
12,70147,13739
12,70558,12686
12,70972,13079
12,71383,12516
12,71795,11834
12,72207,12874
12,72620,11517
12,73032,11659
12,73443,10924
12,73857,11523
12,74268,10270
12,74680,10253
12,75093,10516
12,75505,10410
12,75917,10026
12,76330,10538
12,76742,9767
12,77153,9533
12,77567,9533
12,77978,9133
12,78390,8455
12,78803,10519
12,79215,9453
12,79627,10052
12,80040,8870
12,80452,9855
12,80863,9813
12,81275,9426
12,81688,9424
12,82100,7914
12,82512,8768
12,82925,9008
12,83337,9617
12,83748,9017
12,84162,9383
12,84573,8165
12,84985,8613
12,85398,8743
12,85810,9165
12,86222,8752
12,86635,8289
12,87047,8272
12,87458,8339
12,87872,8703
12,88283,8699
12,88695,9304
12,89108,9197
12,89520,9197
12,89932,7986
12,90343,8718
12,90757,8189
12,91168,7814
12,91580,8296
12,91993,8488
12,92405,7983
12,92817,7620
12,93230,8692
12,93642,9665
12,94053,8655
12,94467,8282
12,94878,8066
12,95290,8422
12,95703,8562
12,96115,8399
12,96527,8147
12,96940,8433
12,97352,8535
12,97763,7903
12,98177,9038
12,98588,8575
12,99000,8456
12,99412,8264
12,99825,8339
13,00237,7989
13,00648,8242
13,01062,7513
13,01473,7751
13,01885,6986
13,02298,8196
13,02710,8743
13,03122,8661
13,03535,8840
13,03947,8065
13,04358,8251
13,04772,8147
13,05183,8729
13,05595,8516
13,06008,8541
13,06420,7468
13,06832,8439
13,07245,8245
13,07657,8424
13,08068,8509
13,08480,8763
13,08893,8408
13,09305,9392
13,09717,10147
13,10130,8718
13,10542,7430
13,10953,7936
13,11367,9547
13,11778,8191
13,12190,9146
13,12603,7730
13,13015,7634
13,13427,7282
13,13840,8275
13,14252,8179
13,14663,8430
13,15077,9003
13,15488,8457
13,15900,8121
13,16313,7903
13,16725,8864
13,17137,8855
13,17548,9035
13,17962,8979
13,18373,9603
13,18785,7979
13,19198,9250
13,19610,9561
13,20022,7859
13,20435,8930
13,20847,8880
13,21258,8487
13,21672,7330
13,22083,8242
13,22495,7176
13,22908,7897
13,23320,8125
13,23732,8357
13,24145,7847
13,24557,8173
13,24968,8074
13,25382,9213
13,25793,8971
13,26205,7625
13,26617,8034
13,27030,7598
13,27442,7796
13,27853,8293
13,28267,7871
13,28678,7890
13,29090,9286
13,29503,8502
13,29915,8029
13,30327,8602
13,30740,8107
13,31152,8856
13,31563,8512
13,31977,9011
13,32388,8484
13,32800,9224
13,33213,8098
13,33625,7401
13,34037,7536
13,34450,7414
13,34862,8033
13,35273,7711
13,35685,8334
13,36098,7714
13,36510,7635
13,36922,7318
13,37335,7567
13,37747,8217
13,38158,8495
13,38572,7537
13,38983,8783
13,39395,10476
13,39808,14491
13,40220,18920
13,40632,32275
13,41045,45929
13,41457,70629
13,41868,107224
13,42282,158368
13,42693,225261
13,43105,317325
13,43518,415013
13,43930,530060
13,44342,651964
13,44753,760956
13,45167,845003
13,45578,925792
13,45990,971610
13,46403,991570
13,46815,972215
13,47227,939912
13,47640,879774
13,48052,795765
13,48463,712638
13,48877,629723
13,49288,550694
13,49700,476977
13,50113,408685
13,50525,348025
13,50937,298981
13,51350,253745
13,51762,221001
13,52173,186901
13,52587,165555
13,52998,141220
13,53410,124437
13,53822,112546
13,54235,99218
13,54647,89322
13,55058,81013
13,55472,73560
13,55883,64329
13,56295,59115
13,56708,57336
13,57120,52670
13,57532,50356
13,57945,45306
13,58357,42197
13,58768,38496
13,59182,38826
13,59593,36014
13,60005,34530
13,60418,32031
13,60830,28676
13,61242,28602
13,61655,27293
13,62067,26790
13,62478,25238
13,62890,24937
13,63303,24336
13,63715,22463
13,64127,21749
13,64540,21632
13,64952,20120
13,65363,20582
13,65777,19621
13,66188,17292
13,66600,18306
13,67013,17555
13,67425,16904
13,67837,17537
13,68250,15972
13,68662,16695
13,69073,16247
13,69487,14958
13,69898,15402
13,70310,14180
13,70723,14642
13,71135,14182
13,71547,14333
13,71960,13898
13,72372,14091
13,72783,12794
13,73195,13360
13,73608,12297
13,74020,10542
13,74432,13096
13,74845,13048
13,75257,12523
13,75668,12372
13,76082,11347
13,76493,11530
13,76905,11397
13,77318,10776
13,77730,11387
13,78142,11006
13,78555,10396
13,78967,11222
13,79378,11108
13,79792,10107
13,80203,10451
13,80615,9610
13,81028,10224
13,81440,10923
13,81852,10194
13,82263,10926
13,82677,10408
13,83088,10020
13,83500,10772
13,83913,9621
13,84325,9258
13,84737,9754
13,85150,10124
13,85562,9553
13,85973,8255
13,86387,9491
13,86798,9303
13,87210,9152
13,87623,9530
13,88035,9723
13,88447,9139
13,88860,8757
13,89272,8258
13,89683,8999
13,90097,8813
13,90508,9098
13,90920,7698
13,91332,9658
13,91745,8563
13,92157,8779
13,92568,8705
13,92982,8872
13,93393,9107
13,93805,8492
13,94218,7776
13,94630,8419
13,95042,8495
13,95455,8225
13,95867,7846
13,96278,7631
13,96692,7539
13,97103,7741
13,97515,7487
13,97928,8941
13,98340,8658
13,98752,7548
13,99165,8260
13,99577,7569
13,99988,8226
14,00400,8134
14,00813,8160
14,01225,7596
14,01637,6751
14,02050,8001
14,02462,6968
14,02873,7380
14,03287,7473
14,03698,7246
14,04110,6867
14,04523,6942
14,04935,7731
14,05347,7591
14,05760,7406
14,06172,7489
14,06583,6348
14,06997,6831
14,07408,7342
14,07820,7287
14,08233,6582
14,08645,7572
14,09057,7483
14,09468,6215
14,09882,6682
14,10293,6297
14,10705,8211
14,11118,7635
14,11530,7154
14,11942,6979
14,12355,7403
14,12767,7212
14,13178,7022
14,13592,6327
14,14003,6411
14,14415,8171
14,14828,7869
14,15240,7978
14,15652,8441
14,16065,7599
14,16477,9107
14,16888,7616
14,17302,9966
14,17713,10558
14,18125,10226
14,18537,12358
14,18950,14499
14,19362,14256
14,19773,15017
14,20187,15977
14,20598,15405
14,21010,16504
14,21423,16093
14,21835,16020
14,22247,15269
14,22660,14594
14,23072,14013
14,23483,13379
14,23897,13021
14,24308,13899
14,24720,11339
14,25133,12203
14,25545,10820
14,25957,11221
14,26370,9947
14,26782,7353
14,27193,9025
14,27605,9607
14,28018,9792
14,28430,8845
14,28842,8387
14,29255,7902
14,29667,8146
14,30078,8337
14,30492,8001
14,30903,6971
14,31315,7642
14,31728,7591
14,32140,8176
14,32552,7962
14,32965,6463
14,33377,8001
14,33788,6665
14,34202,6139
14,34613,7551
14,35025,6866
14,35438,6952
14,35850,6685
14,36262,6893
14,36673,7132
14,37087,5807
14,37498,6155
14,37910,6725
14,38323,7431
14,38735,6804
14,39147,7390
14,39560,6509
14,39972,5295
14,40383,6457
14,40797,7196
14,41208,5653
14,41620,6292
14,42033,6981
14,42445,5812
14,42857,7086
14,43270,6731
14,43682,6525
14,44093,6521
14,44507,6875
14,44918,6475
14,45330,5949
14,45742,6655
14,46155,7479
14,46567,6701
14,46978,7586
14,47392,6055
14,47803,8051
14,48215,6285
14,48628,6351
14,49040,6674
14,49452,6329
14,49865,6620
14,50277,7475
14,50688,6323
14,51102,6630
14,51513,6003
14,51925,5364
14,52338,6509
14,52750,6603
14,53162,6924
14,53575,6395
14,53987,6323
14,54398,7124
14,54810,6367
14,55223,6459
14,55635,6138
14,56047,6655
14,56460,6507
14,56872,7646
14,57283,7650
14,57697,6896
14,58108,7803
14,58520,6543
14,58933,6962
14,59345,7224
14,59757,7155
14,60170,7716
14,60582,7593
14,60993,6406
14,61407,6106
14,61818,7130
14,62230,6949
14,62643,6709
14,63055,6187
14,63467,6954
14,63878,5943
14,64292,7367
14,64703,6266
14,65115,6437
14,65528,6814
14,65940,5537
14,66352,6636
14,66765,6580
14,67177,6749
14,67588,7709
14,68002,6870
14,68413,7268
14,68825,7129
14,69238,8447
14,69650,10073
14,70062,11008
14,70475,11144
14,70887,12284
14,71298,10517
14,71712,12183
14,72123,13120
14,72535,13980
14,72947,14192
14,73360,14695
14,73772,14134
14,74183,13087
14,74597,13521
14,75008,12494
14,75420,12376
14,75833,11044
14,76245,10616
14,76657,11765
14,77070,10133
14,77482,9931
14,77893,8763
14,78307,9542
14,78718,7261
14,79130,8221
14,79543,7901
14,79955,8661
14,80367,7774
14,80780,8220
14,81192,6990
14,81603,7401
14,82015,6890
14,82428,6347
14,82840,6956
14,83252,6870
14,83665,6324
14,84077,5927
14,84488,7589
14,84902,8400
14,85313,6425
14,85725,9425
14,86138,12984
14,86550,17702
14,86962,28284
14,87375,44044
14,87787,75122
14,88198,121383
14,88612,191135
14,89023,289145
14,89435,422262
14,89848,604281
14,90260,813458
14,90672,1053405
14,91083,1293414
14,91497,1551715
14,91908,1780856
14,92320,1962424
14,92733,2120198
14,93145,2170330
14,93557,2138775
14,93970,2055767
14,94382,1928792
14,94793,1767132
14,95207,1576657
14,95618,1371948
14,96030,1182876
14,96443,1005437
14,96855,856550
14,97267,715313
14,97680,614328
14,98092,524047
14,98503,440070
14,98917,380186
14,99328,323167
14,99740,285719
15,00152,251177
15,00565,221716
15,00977,198720
15,01388,178101
15,01802,157355
15,02213,143691
15,02625,128786
15,03038,119122
15,03450,109836
15,03862,101964
15,04275,91413
15,04687,86320
15,05098,81777
15,05512,74659
15,05923,69541
15,06335,65878
15,06748,59825
15,07160,57818
15,07572,55278
15,07985,50483
15,08397,49658
15,08808,46024
15,09220,44457
15,09633,41002
15,10045,40251
15,10457,39525
15,10870,35221
15,11282,32331
15,11693,31914
15,12107,32518
15,12518,30876
15,12930,29800
15,13343,30132
15,13755,26884
15,14167,27668
15,14580,24188
15,14992,24462
15,15403,25659
15,15817,23299
15,16228,23192
15,16640,22516
15,17053,21592
15,17465,21124
15,17877,21533
15,18288,20875
15,18702,19483
15,19113,17563
15,19525,17940
15,19938,18978
15,20350,16822
15,20762,16273
15,21175,16644
15,21587,15329
15,21998,14384
15,22412,15770
15,22823,14490
15,23235,15427
15,23648,14484
15,24060,13266
15,24472,12784
15,24885,13942
15,25297,13781
15,25708,14100
15,26122,13590
15,26533,12900
15,26945,14211
15,27357,13661
15,27770,12952
15,28182,13001
15,28593,11955
15,29007,12247
15,29418,11541
15,29830,11726
15,30243,11481
15,30655,12092
15,31067,10860
15,31480,10639
15,31892,10778
15,32303,8960
15,32717,9362
15,33128,9488
15,33540,9656
15,33953,9004
15,34365,8861
15,34777,9786
15,35190,9418
15,35602,8823
15,36013,8293
15,36427,10206
15,36838,9502
15,37250,8249
15,37662,8729
15,38075,8933
15,38487,8977
15,38898,9054
15,39312,8727
15,39723,7642
15,40135,8064
15,40548,8397
15,40960,7874
15,41372,7394
15,41785,8396
15,42197,8166
15,42608,8481
15,43022,6688
15,43433,6978
15,43845,7458
15,44258,7859
15,44670,8026
15,45082,7906
15,45495,7808
15,45907,7607
15,46318,6161
15,46730,8358
15,47143,7031
15,47555,7308
15,47967,7045
15,48380,8456
15,48792,7687
15,49203,7491
15,49617,6466
15,50028,6860
15,50440,6898
15,50853,7144
15,51265,7675
15,51677,6434
15,52090,6334
15,52502,6455
15,52913,6902
15,53327,7083
15,53738,6481
15,54150,6407
15,54563,7031
15,54975,7126
15,55387,5989
15,55798,6843
15,56212,7160
15,56623,6715
15,57035,6069
15,57448,6063
15,57860,8085
15,58272,7013
15,58685,6972
15,59097,6353
15,59508,6510
15,59922,5615
15,60333,6999
15,60745,6784
15,61158,7330
15,61570,7129
15,61982,6532
15,62395,7283
15,62807,8114
15,63218,8200
15,63632,7524
15,64043,8855
15,64455,8783
15,64867,9406
15,65280,10101
15,65692,9134
15,66103,10151
15,66517,9190
15,66928,9460
15,67340,8604
15,67753,10236
15,68165,8792
15,68577,7663
15,68990,7574
15,69402,9178
15,69813,8020
15,70227,7346
15,70638,7189
15,71050,7128
15,71463,6938
15,71875,7343
15,72287,6131
15,72700,7220
15,73112,6303
15,73523,7163
15,73935,6689
15,74348,6774
15,74760,6208
15,75172,6047
15,75585,6355
15,75997,5113
15,76408,6318
15,76822,5859
15,77233,5737
15,77645,5811
15,78058,6009
15,78470,6384
15,78882,6356
15,79295,6957
15,79707,5857
15,80118,5547
15,80532,5675
15,80943,6303
15,81355,6053
15,81768,7046
15,82180,6382
15,82592,6004
15,83003,6041
15,83417,5853
15,83828,5935
15,84240,6087
15,84653,6587
15,85065,7532
15,85477,8362
15,85890,10583
15,86302,12534
15,86713,18351
15,87127,25399
15,87538,41110
15,87950,62998
15,88363,92533
15,88775,141431
15,89187,207792
15,89600,288408
15,90012,385182
15,90423,496132
15,90837,613054
15,91248,734835
15,91660,829818
15,92072,916841
15,92485,971759
15,92897,980772
15,93308,970534
15,93722,938190
15,94133,889033
15,94545,810917
15,94958,722651
15,95370,650037
15,95782,557903
15,96195,483400
15,96607,409933
15,97018,350765
15,97432,299080
15,97843,257786
15,98255,221500
15,98668,188660
15,99080,165631
15,99492,148524
15,99905,131326
16,00317,113429
16,00728,100071
16,01140,90948
16,01553,80300
16,01965,74659
16,02377,74309
16,02790,61953
16,03202,58716
16,03613,56465
16,04027,49656
16,04438,46860
16,04850,46087
16,05263,41192
16,05675,38799
16,06087,38063
16,06500,35431
16,06912,34952
16,07323,32143
16,07737,28650
16,08148,28343
16,08560,25685
16,08973,25293
16,09385,26414
16,09797,23156
16,10208,22569
16,10622,20388
16,11033,20723
16,11445,20183
16,11858,20144
16,12270,17869
16,12682,18444
16,13095,17814
16,13507,16903
16,13918,16693
16,14332,16402
16,14743,17014
16,15155,16064
16,15568,16726
16,15980,18716
16,16392,19448
16,16805,18433
16,17217,20149
16,17628,22264
16,18042,22180
16,18453,20771
16,18865,20641
16,19277,20293
16,19690,21307
16,20102,20341
16,20513,16780
16,20927,17003
16,21338,16323
16,21750,14718
16,22163,14062
16,22575,13015
16,22987,12237
16,23400,11998
16,23812,11341
16,24223,10777
16,24637,11674
16,25048,10486
16,25460,10492
16,25873,9848
16,26285,9122
16,26697,8720
16,27110,8328
16,27522,8957
16,27933,8338
16,28345,8130
16,28758,7491
16,29170,8778
16,29582,8723
16,29995,9661
16,30407,10790
16,30818,13342
16,31232,18413
16,31643,25472
16,32055,40771
16,32468,66721
16,32880,100347
16,33292,151633
16,33705,219885
16,34117,312293
16,34528,425078
16,34942,546509
16,35353,681371
16,35765,815742
16,36178,947032
16,36590,1031243
16,37002,1102908
16,37413,1135755
16,37827,1128471
16,38238,1066866
16,38650,1000794
16,39063,898841
16,39475,801609
16,39887,696512
16,40300,604807
16,40712,510586
16,41123,426515
16,41537,366743
16,41948,314855
16,42360,265919
16,42773,227279
16,43185,194299
16,43597,170254
16,44010,147639
16,44422,132365
16,44833,115134
16,45247,103739
16,45658,91826
16,46070,83485
16,46482,78383
16,46895,70477
16,47307,63071
16,47718,58525
16,48132,55530
16,48543,48946
16,48955,44803
16,49368,44225
16,49780,40095
16,50192,38072
16,50605,35022
16,51017,33159
16,51428,32726
16,51842,31277
16,52253,29554
16,52665,29287
16,53078,26696
16,53490,23475
16,53902,24727
16,54315,23398
16,54727,23184
16,55138,20453
16,55550,21469
16,55963,20192
16,56375,19322
16,56787,19215
16,57200,17864
16,57612,16142
16,58023,18920
16,58437,16485
16,58848,16330
16,59260,15363
16,59673,15917
16,60085,13789
16,60497,13842
16,60910,15194
16,61322,13226
16,61733,14933
16,62147,12832
16,62558,12878
16,62970,11903
16,63383,11555
16,63795,12283
16,64207,11355
16,64618,11721
16,65032,11615
16,65443,11363
16,65855,11234
16,66268,10237
16,66680,10074
16,67092,10769
16,67505,9676
16,67917,10365
16,68328,10593
16,68742,10132
16,69153,9970
16,69565,9945
16,69978,9385
16,70390,9316
16,70802,9038
16,71215,9230
16,71627,8749
16,72038,9574
16,72452,8488
16,72863,9436
16,73275,8841
16,73687,9851
16,74100,8764
16,74512,9224
16,74923,8149
16,75337,7309
16,75748,7956
16,76160,7227
16,76573,8866
16,76985,9275
16,77397,7565
16,77810,7875
16,78222,7420
16,78633,7762
16,79047,7815
16,79458,7290
16,79870,7688
16,80283,7788
16,80695,7398
16,81107,7794
16,81520,6773
16,81932,6721
16,82343,6665
16,82755,7071
16,83168,6874
16,83580,6946
16,83992,7416
16,84405,7124
16,84817,7310
16,85228,7319
16,85642,5871
16,86053,6587
16,86465,7104
16,86878,6263
16,87290,7287
16,87702,6429
16,88115,7112
16,88527,7168
16,88938,6020
16,89352,6441
16,89763,6374
16,90175,6840
16,90588,6197
16,91000,6404
16,91412,6066
16,91823,6137
16,92237,5877
16,92648,6536
16,93060,5613
16,93473,6373
16,93885,5916
16,94297,5567
16,94710,6180
16,95122,7178
16,95533,6818
16,95947,5283
16,96358,6359
16,96770,6521
16,97183,6582
16,97595,5604
16,98007,5566
16,98420,5732
16,98832,6019
16,99243,6687
16,99657,6649
17,00068,6307
17,00480,5523
17,00893,6642
17,01305,5589
17,01717,5351
17,02128,7115
17,02542,5640
17,02953,5641
17,03365,5693
17,03778,6819
17,04190,6857
17,04602,6702
17,05015,6566
17,05427,6494
17,05838,6032
17,06252,5615
17,06663,6775
17,07075,5717
17,07488,4895
17,07900,5620
17,08312,6517
17,08725,5917
17,09137,6612
17,09548,6296
17,09962,6124
17,10373,7108
17,10785,6861
17,11197,4795
17,11610,6586
17,12022,4969
17,12433,5766
17,12847,6327
17,13258,6131
17,13670,6353
17,14083,6090
17,14495,5705
17,14907,6566
17,15320,6257
17,15732,6021
17,16143,5254
17,16557,5994
17,16968,5782
17,17380,6114
17,17793,5984
17,18205,5391
17,18617,6336
17,19030,5292
17,19442,6134
17,19853,5524
17,20265,6857
17,20678,6364
17,21090,6674
17,21502,5450
17,21915,6560
17,22327,5815
17,22738,5834
17,23152,6455
17,23563,6436
17,23975,5713
17,24388,5675
17,24800,6172
17,25212,5383
17,25625,5858
17,26037,6271
17,26448,5847
17,26862,6579
17,27273,6318
17,27685,5403
17,28098,5718
17,28510,6944
17,28922,6979
17,29333,8654
17,29747,11164
17,30158,17962
17,30570,28490
17,30983,46498
17,31395,68606
17,31807,106300
17,32220,163083
17,32632,230460
17,33043,323465
17,33457,427797
17,33868,551118
17,34280,683075
17,34693,800032
17,35105,910719
17,35517,995644
17,35930,1036688
17,36342,1052405
17,36753,1032436
17,37167,979540
17,37578,912398
17,37990,832214
17,38402,739029
17,38815,647819
17,39227,561110
17,39638,479807
17,40052,408463
17,40463,347163
17,40875,295849
17,41288,250698
17,41700,215674
17,42112,187444
17,42525,163156
17,42937,142841
17,43348,124799
17,43762,112352
17,44173,100516
17,44585,90479
17,44998,81772
17,45410,73064
17,45822,66059
17,46235,61870
17,46647,58460
17,47058,51692
17,47470,50574
17,47883,47205
17,48295,43208
17,48707,41340
17,49120,38154
17,49532,35686
17,49943,33940
17,50357,31093
17,50768,29462
17,51180,28103
17,51593,26743
17,52005,26647
17,52417,24989
17,52830,23299
17,53242,21478
17,53653,20698
17,54067,21472
17,54478,20314
17,54890,18214
17,55303,17169
17,55715,16107
17,56127,16330
17,56538,15678
17,56952,15754
17,57363,16207
17,57775,15721
17,58188,15126
17,58600,13645
17,59012,14257
17,59425,13063
17,59837,12691
17,60248,14476
17,60662,11966
17,61073,10692
17,61485,11017
17,61898,11959
17,62310,11452
17,62722,10511
17,63135,11105
17,63547,11769
17,63958,10746
17,64372,10099
17,64783,9756
17,65195,9410
17,65607,10017
17,66020,8771
17,66432,8129
17,66843,8812
17,67257,7814
17,67668,9178
17,68080,7804
17,68493,8023
17,68905,7518
17,69317,9013
17,69730,8119
17,70142,8205
17,70553,10956
17,70967,13385
17,71378,16995
17,71790,26894
17,72203,42481
17,72615,73363
17,73027,122857
17,73440,198756
17,73852,309831
17,74263,459455
17,74675,659581
17,75088,919980
17,75500,1228994
17,75912,1601317
17,76325,2009823
17,76737,2404206
17,77148,2792471
17,77562,3153162
17,77973,3461131
17,78385,3618026
17,78798,3687840
17,79210,3624427
17,79622,3400023
17,80035,3127640
17,80447,2764629
17,80858,2409498
17,81272,2037299
17,81683,1702038
17,82095,1426085
17,82508,1193195
17,82920,997799
17,83332,847722
17,83743,719254
17,84157,621436
17,84568,526887
17,84980,462050
17,85393,411024
17,85805,353997
17,86217,314381
17,86630,280207
17,87042,253438
17,87453,231263
17,87867,205490
17,88278,189277
17,88690,174462
17,89103,160148
17,89515,147795
17,89927,137679
17,90340,132926
17,90752,118382
17,91163,111053
17,91577,101716
17,91988,97966
17,92400,92240
17,92812,85967
17,93225,80480
17,93637,77279
17,94048,72906
17,94462,70614
17,94873,65801
17,95285,62241
17,95698,59736
17,96110,55411
17,96522,53694
17,96935,50662
17,97347,47309
17,97758,45507
17,98172,44585
17,98583,42296
17,98995,40692
17,99408,39441
17,99820,38241
18,00232,35569
18,00645,33632
18,01057,33842
18,01468,32443
18,01880,29634
18,02293,29030
18,02705,28877
18,03117,27359
18,03530,26653
18,03942,26903
18,04353,24977
18,04767,25800
18,05178,24938
18,05590,22646
18,06003,22176
18,06415,22703
18,06827,22778
18,07240,19444
18,07652,18236
18,08063,21053
18,08477,18317
18,08888,19176
18,09300,17299
18,09713,16976
18,10125,17919
18,10537,16053
18,10948,16983
18,11362,17363
18,11773,15084
18,12185,15559
18,12598,15397
18,13010,14341
18,13422,14921
18,13835,14254
18,14247,14437
18,14658,12668
18,15072,11828
18,15483,13068
18,15895,12429
18,16308,12066
18,16720,11855
18,17132,12031
18,17545,11348
18,17957,11699
18,18368,12133
18,18782,11580
18,19193,9924
18,19605,12208
18,20017,11431
18,20430,10698
18,20842,10566
18,21253,10343
18,21667,9744
18,22078,10799
18,22490,10772
18,22903,10238
18,23315,10180
18,23727,9281
18,24140,10086
18,24552,10515
18,24963,10375
18,25377,8374
18,25788,9920
18,26200,8583
18,26613,9620
18,27025,9574
18,27437,10138
18,27850,8923
18,28262,9318
18,28673,9123
18,29085,10247
18,29498,9005
18,29910,9132
18,30322,11096
18,30735,8988
18,31147,8822
18,31558,9578
18,31972,9633
18,32383,7572
18,32795,8313
18,33208,9011
18,33620,8553
18,34032,9010
18,34445,8560
18,34857,8121
18,35268,8341
18,35682,8699
18,36093,8002
18,36505,9695
18,36918,9968
18,37330,11289
18,37742,11260
18,38153,12912
18,38567,15175
18,38978,14516
18,39390,15037
18,39803,14876
18,40215,17681
18,40627,15649
18,41040,16504
18,41452,17040
18,41863,17121
18,42277,18407
18,42688,16744
18,43100,15713
18,43513,13913
18,43925,14756
18,44337,14539
18,44750,12856
18,45162,12538
18,45573,11898
18,45987,11866
18,46398,9929
18,46810,9120
18,47222,10400
18,47635,9119
18,48047,9342
18,48458,8490
18,48872,8970
18,49283,7861
18,49695,10769
18,50108,12572
18,50520,17572
18,50932,24055
18,51345,37931
18,51757,57842
18,52168,85633
18,52582,134920
18,52993,199652
18,53405,287484
18,53818,382758
18,54230,505299
18,54642,638509
18,55055,765179
18,55467,883757
18,55878,983676
18,56292,1053663
18,56703,1088423
18,57115,1091227
18,57527,1055544
18,57940,990326
18,58352,909794
18,58763,807208
18,59177,720297
18,59588,626997
18,60000,535111
18,60413,457426
18,60825,388813
18,61237,333822
18,61650,280965
18,62062,240742
18,62473,208075
18,62887,183732
18,63298,159942
18,63710,135778
18,64123,123088
18,64535,111074
18,64947,102488
18,65360,89756
18,65772,80692
18,66183,75250
18,66595,68937
18,67008,63000
18,67420,58284
18,67832,53119
18,68245,50661
18,68657,48162
18,69068,42936
18,69482,41739
18,69893,36715
18,70305,37572
18,70718,33486
18,71130,33268
18,71542,33028
18,71955,29220
18,72367,32151
18,72778,30433
18,73192,29940
18,73603,29381
18,74015,30905
18,74428,28674
18,74840,28416
18,75252,29583
18,75663,26359
18,76077,25094
18,76488,24529
18,76900,22679
18,77313,22338
18,77725,20644
18,78137,20560
18,78550,18843
18,78962,18595
18,79373,18817
18,79787,18439
18,80198,15539
18,80610,16225
18,81023,15904
18,81435,12960
18,81847,15075
18,82260,14290
18,82672,14413
18,83083,13410
18,83497,13522
18,83908,13054
18,84320,11481
18,84732,12778
18,85145,13806
18,85557,13814
18,85968,11636
18,86382,13362
18,86793,10616
18,87205,10577
18,87618,10330
18,88030,11045
18,88442,11613
18,88855,10386
18,89267,10241
18,89678,10320
18,90092,10119
18,90503,9442
18,90915,9303
18,91328,9654
18,91740,9330
18,92152,9608
18,92565,8482
18,92977,9436
18,93388,9601
18,93800,8257
18,94213,8588
18,94625,8250
18,95037,9334
18,95450,8934
18,95862,8851
18,96273,10002
18,96687,8671
18,97098,9139
18,97510,8888
18,97923,9124
18,98335,8195
18,98747,8732
18,99160,8766
18,99572,8788
18,99983,8324
19,00397,8657
19,00808,8963
19,01220,7904
19,01633,8355
19,02045,8530
19,02457,7746
19,02868,7796
19,03282,7090
19,03693,7301
19,04105,7967
19,04518,7142
19,04930,7151
19,05342,7195
19,05755,6773
19,06167,6939
19,06578,7608
19,06992,9536
19,07403,11093
19,07815,15893
19,08228,23932
19,08640,37970
19,09052,61054
19,09465,97271
19,09877,148638
19,10288,221095
19,10702,321778
19,11113,445702
19,11525,584945
19,11937,740296
19,12350,899063
19,12762,1045457
19,13173,1156928
19,13587,1256504
19,13998,1289841
19,14410,1257549
19,14823,1200735
19,15235,1112832
19,15647,1011968
19,16060,894336
19,16472,780198
19,16883,665843
19,17297,563732
19,17708,480007
19,18120,404612
19,18533,344290
19,18945,292924
19,19357,249920
19,19770,215779
19,20182,189496
19,20593,165196
19,21005,142601
19,21418,128906
19,21830,112384
19,22242,104400
19,22655,94581
19,23067,86009
19,23478,81624
19,23892,74419
19,24303,66298
19,24715,60418
19,25128,58624
19,25540,54584
19,25952,49515
19,26365,48405
19,26777,43720
19,27188,39111
19,27602,38492
19,28013,35038
19,28425,34930
19,28838,32565
19,29250,32535
19,29662,29219
19,30073,28195
19,30487,27965
19,30898,25309
19,31310,24439
19,31723,24224
19,32135,23794
19,32547,22909
19,32960,21740
19,33372,19396
19,33783,19711
19,34197,19243
19,34608,17128
19,35020,17310
19,35433,17195
19,35845,16615
19,36257,16085
19,36670,17187
19,37082,14245
19,37493,15187
19,37907,14346
19,38318,13831
19,38730,13405
19,39142,14172
19,39555,12514
19,39967,14102
19,40378,11612
19,40792,10968
19,41203,11770
19,41615,10893
19,42028,11150
19,42440,11717
19,42852,10532
19,43265,10603
19,43677,10881
19,44088,9226
19,44502,9650
19,44913,10381
19,45325,10503
19,45738,10302
19,46150,9205
19,46562,9362
19,46975,7958
19,47387,8859
19,47798,9198
19,48210,9771
19,48623,9996
19,49035,10181
19,49447,9023
19,49860,8543
19,50272,8862
19,50683,8187
19,51097,8617
19,51508,9076
19,51920,7903
19,52333,8711
19,52745,8272
19,53157,8265
19,53570,8768
19,53982,8147
19,54393,6549
19,54807,8027
19,55218,8444
19,55630,7933
19,56043,9866
19,56455,7838
19,56867,9277
19,57278,9060
19,57692,8335
19,58103,8729
19,58515,9425
19,58928,9111
19,59340,8930
19,59752,9246
19,60165,8549
19,60577,8738
19,60988,9140
19,61402,8436
19,61813,8243
19,62225,8971
19,62638,7511
19,63050,7564
19,63462,7537
19,63875,7229
19,64287,8045
19,64698,5805
19,65112,5766
19,65523,6678
19,65935,6770
19,66347,7173
19,66760,7432
19,67172,7632
19,67583,6449
19,67997,6686
19,68408,6902
19,68820,6615
19,69233,6572
19,69645,6436
19,70057,6354
19,70470,6866
19,70882,5597
19,71293,5534
19,71707,5803
19,72118,5692
19,72530,5941
19,72943,7728
19,73355,5989
19,73767,5563
19,74180,6103
19,74592,6344
19,75003,6432
19,75415,6759
19,75828,5475
19,76240,6337
19,76652,5143
19,77065,6487
19,77477,5792
19,77888,6512
19,78302,6714
19,78713,5157
19,79125,7039
19,79538,7155
19,79950,6087
19,80362,6420
19,80775,6533
19,81187,6977
19,81598,5936
19,82012,7012
19,82423,6911
19,82835,7211
19,83248,7451
19,83660,7980
19,84072,10017
19,84483,13927
19,84897,18652
19,85308,29420
19,85720,43858
19,86133,71239
19,86545,111432
19,86957,169171
19,87370,245128
19,87782,343030
19,88193,463934
19,88607,603691
19,89018,739008
19,89430,875477
19,89843,1012603
19,90255,1111261
19,90667,1172854
19,91080,1203031
19,91492,1179769
19,91903,1133640
19,92317,1034272
19,92728,942807
19,93140,832247
19,93552,718131
19,93965,634455
19,94377,533174
19,94788,455856
19,95202,387138
19,95613,334586
19,96025,283682
19,96438,248400
19,96850,215844
19,97262,188058
19,97675,170415
19,98087,151955
19,98498,139248
19,98912,129652
19,99323,117021
19,99735,107952
20,00148,100614
20,00560,93673
20,00972,87991
20,01385,78291
20,01797,75138
20,02208,67234
20,02620,63342
20,03033,61512
20,03445,53209
20,03857,51031
20,04270,47143
20,04682,43748
20,05093,41019
20,05507,38840
20,05918,35666
20,06330,34375
20,06743,33556
20,07155,33222
20,07567,29031
20,07980,28787
20,08392,25723
20,08803,25095
20,09217,23940
20,09628,23611
20,10040,22279
20,10453,20791
20,10865,19262
20,11277,20134
20,11688,19215
20,12102,19158
20,12513,17489
20,12925,17555
20,13338,15769
20,13750,15850
20,14162,16616
20,14575,16268
20,14987,14670
20,15398,16160
20,15812,15778
20,16223,14079
20,16635,15183
20,17048,12913
20,17460,13341
20,17872,12417
20,18285,12432
20,18697,11441
20,19108,13028
20,19522,12469
20,19933,11483
20,20345,11122
20,20758,9965
20,21170,10172
20,21582,11303
20,21993,10321
20,22407,10374
20,22818,9452
20,23230,10728
20,23643,9870
20,24055,10151
20,24467,9594
20,24880,8534
20,25292,10022
20,25703,9501
20,26117,9499
20,26528,9978
20,26940,9717
20,27353,9784
20,27765,9563
20,28177,9803
20,28590,9171
20,29002,9265
20,29413,9555
20,29827,10492
20,30238,9200
20,30650,9556
20,31062,10436
20,31475,10801
20,31887,10131
20,32298,10086
20,32712,10302
20,33123,10251
20,33535,9451
20,33948,10146
20,34360,9219
20,34772,8103
20,35185,8133
20,35597,8280
20,36008,9935
20,36422,8713
20,36833,8924
20,37245,8297
20,37658,9346
20,38070,10007
20,38482,11097
20,38895,17285
20,39307,22575
20,39718,36611
20,40130,57404
20,40543,94374
20,40955,151321
20,41367,235005
20,41780,350150
20,42192,511625
20,42603,715998
20,43017,963162
20,43428,1250473
20,43840,1553461
20,44253,1897138
20,44665,2181547
20,45077,2461378
20,45490,2670457
20,45902,2769516
20,46313,2806451
20,46727,2718224
20,47138,2544859
20,47550,2332260
20,47963,2059633
20,48375,1779023
20,48787,1537651
20,49198,1292310
20,49612,1094565
20,50023,919031
20,50435,770180
20,50848,658331
20,51260,566939
20,51672,484896
20,52085,417656
20,52497,368576
20,52908,324224
20,53322,283627
20,53733,257890
20,54145,229151
20,54558,204591
20,54970,186375
20,55382,175054
20,55795,157080
20,56207,146785
20,56618,133103
20,57032,127532
20,57443,116710
20,57855,106113
20,58267,97172
20,58680,93764
20,59092,86193
20,59503,80677
20,59917,76202
20,60328,75268
20,60740,65242
20,61153,65930
20,61565,61679
20,61977,58374
20,62390,57146
20,62802,52751
20,63213,48588
20,63627,50822
20,64038,47395
20,64450,45448
20,64863,44667
20,65275,41423
20,65687,40308
20,66100,37738
20,66512,37797
20,66923,34980
20,67335,33488
20,67748,32355
20,68160,31498
20,68572,30331
20,68985,28717
20,69397,28404
20,69808,25802
20,70222,26558
20,70633,24646
20,71045,24100
20,71458,25745
20,71870,22078
20,72282,20708
20,72695,21702
20,73107,21772
20,73518,21935
20,73932,20374
20,74343,19596
20,74755,19389
20,75168,18289
20,75580,18687
20,75992,17779
20,76403,17508
20,76817,17168
20,77228,17384
20,77640,15589
20,78053,15666
20,78465,14409
20,78877,14356
20,79290,15745
20,79702,15458
20,80113,14334
20,80527,14240
20,80938,15324
20,81350,17168
20,81763,18435
20,82175,25342
20,82587,35753
20,83000,49565
20,83412,72732
20,83823,110585
20,84237,167180
20,84648,240324
20,85060,329262
20,85472,451865
20,85885,582597
20,86297,735670
20,86708,886662
20,87122,1027045
20,87533,1145533
20,87945,1242622
20,88358,1280221
20,88770,1283436
20,89182,1250692
20,89595,1175270
20,90007,1086330
20,90418,971845
20,90832,859225
20,91243,752523
20,91655,648073
20,92068,560923
20,92480,470643
20,92892,404508
20,93305,345275
20,93717,296099
20,94128,260727
20,94540,224519
20,94953,196670
20,95365,171432
20,95777,153531
20,96190,137923
20,96602,122969
20,97013,111600
20,97427,101660
20,97838,95111
20,98250,85769
20,98663,82580
20,99075,74508
20,99487,69012
20,99900,66103
21,00312,59975
21,00723,59627
21,01137,53658
21,01548,50938
21,01960,49006
21,02373,47871
21,02785,49371
21,03197,53663
21,03608,62167
21,04022,78341
21,04433,103961
21,04845,150536
21,05258,216941
21,05670,320840
21,06082,453740
21,06495,636970
21,06907,853844
21,07318,1095349
21,07732,1362029
21,08143,1659100
21,08555,1958527
21,08968,2211483
21,09380,2416355
21,09792,2568822
21,10205,2609501
21,10617,2581500
21,11028,2451414
21,11442,2269190
21,11853,2035162
21,12265,1804366
21,12677,1559103
21,13090,1337044
21,13502,1134980
21,13913,966497
21,14327,823353
21,14738,697600
21,15150,598957
21,15563,520896
21,15975,447708
21,16387,393240
21,16800,351367
21,17212,311210
21,17623,279924
21,18037,249449
21,18448,220230
21,18860,202432
21,19273,185359
21,19685,166560
21,20097,160220
21,20510,146019
21,20922,138912
21,21333,125033
21,21745,115796
21,22158,109589
21,22570,105867
21,22982,95939
21,23395,88830
21,23807,84686
21,24218,81983
21,24632,75796
21,25043,70967
21,25455,66470
21,25868,63682
21,26280,60637
21,26692,59157
21,27105,54238
21,27517,55200
21,27928,50975
21,28342,49641
21,28753,45124
21,29165,43883
21,29578,44328
21,29990,40017
21,30402,37699
21,30813,38163
21,31227,34524
21,31638,35733
21,32050,33725
21,32463,33337
21,32875,33244
21,33287,29874
21,33700,30818
21,34112,30105
21,34523,28500
21,34937,28522
21,35348,26770
21,35760,25892
21,36173,24676
21,36585,25320
21,36997,23198
21,37410,24437
21,37822,21636
21,38233,22080
21,38647,22109
21,39058,21567
21,39470,20307
21,39882,20504
21,40295,19916
21,40707,17800
21,41118,19239
21,41532,18628
21,41943,18050
21,42355,17470
21,42768,16331
21,43180,16697
21,43592,16076
21,44005,16568
21,44417,17178
21,44828,15775
21,45242,15841
21,45653,15912
21,46065,16516
21,46478,15157
21,46890,15494
21,47302,14683
21,47715,14877
21,48127,15265
21,48538,14244
21,48950,14437
21,49363,13274
21,49775,14494
21,50187,14353
21,50600,13568
21,51012,12844
21,51423,11911
21,51837,13688
21,52248,12108
21,52660,12268
21,53073,13127
21,53485,11479
21,53897,12427
21,54310,12145
21,54722,13047
21,55133,16551
21,55547,17006
21,55958,21267
21,56370,31081
21,56783,45536
21,57195,67923
21,57607,105686
21,58018,158585
21,58432,231847
21,58843,336224
21,59255,447902
21,59668,583927
21,60080,730270
21,60492,865867
21,60905,973001
21,61317,1085459
21,61728,1137965
21,62142,1175181
21,62553,1152802
21,62965,1110231
21,63378,1036815
21,63790,942045
21,64202,828745
21,64615,730354
21,65027,631566
21,65438,559737
21,65852,496001
21,66263,459580
21,66675,441060
21,67087,454643
21,67500,499719
21,67912,580661
21,68323,715616
21,68737,897933
21,69148,1112741
21,69560,1391166
21,69973,1672778
21,70385,1994469
21,70797,2286882
21,71210,2538560
21,71622,2738604
21,72033,2857972
21,72447,2883943
21,72858,2793154
21,73270,2630412
21,73683,2377771
21,74095,2097294
21,74507,1823821
21,74920,1560452
21,75332,1335107
21,75743,1132774
21,76155,951325
21,76568,815398
21,76980,688995
21,77392,593690
21,77805,521589
21,78217,459809
21,78628,396494
21,79042,356630
21,79453,321968
21,79865,293007
21,80278,261237
21,80690,237856
21,81102,219784
21,81515,202696
21,81927,188285
21,82338,170742
21,82752,159797
21,83163,149028
21,83575,137603
21,83988,131757
21,84400,120244
21,84812,115205
21,85223,109707
21,85637,102214
21,86048,97209
21,86460,91313
21,86873,87952
21,87285,83282
21,87697,77855
21,88110,75885
21,88522,72521
21,88933,64994
21,89347,65159
21,89758,60584
21,90170,57580
21,90583,56411
21,90995,53133
21,91407,52361
21,91820,49928
21,92232,46911
21,92643,45493
21,93057,43105
21,93468,44619
21,93880,42592
21,94293,40189
21,94705,37449
21,95117,36960
21,95528,37692
21,95942,34016
21,96353,35321
21,96765,34615
21,97178,34544
21,97590,32342
21,98002,33471
21,98415,29265
21,98827,29719
21,99238,30539
21,99652,28690
22,00063,29096
22,00475,29328
22,00888,26455
22,01300,24985
22,01712,25972
22,02125,23880
22,02537,23502
22,02948,25121
22,03362,23358
22,03773,24597
22,04185,27633
22,04597,28793
22,05010,35586
22,05422,46679
22,05833,68181
22,06247,99091
22,06658,143937
22,07070,205934
22,07483,289536
22,07895,396289
22,08307,507692
22,08720,637997
22,09132,775359
22,09543,893591
22,09957,998435
22,10368,1073133
22,10780,1120354
22,11193,1132543
22,11605,1100774
22,12017,1040936
22,12430,950493
22,12842,859498
22,13253,771600
22,13665,659905
22,14078,576675
22,14490,504388
22,14902,428153
22,15315,360707
22,15727,310857
22,16138,266878
22,16552,237398
22,16963,204398
22,17375,180055
22,17788,161990
22,18200,145975
22,18612,128626
22,19025,119856
22,19437,107088
22,19848,95204
22,20262,90131
22,20673,84951
22,21085,77159
22,21498,71995
22,21910,66053
22,22322,63424
22,22733,60452
22,23147,56355
22,23558,54643
22,23970,48337
22,24383,46968
22,24795,44800
22,25207,41491
22,25620,39751
22,26032,39514
22,26443,37815
22,26857,34063
22,27268,36231
22,27680,33072
22,28093,32424
22,28505,31322
22,28917,29727
22,29330,28328
22,29742,28774
22,30153,26730
22,30567,26260
22,30978,26133
22,31390,26268
22,31802,25065
22,32215,25467
22,32627,24484
22,33038,23468
22,33452,21975
22,33863,22194
22,34275,21344
22,34688,22077
22,35100,22867
22,35512,20346
22,35925,20547
22,36337,20525
22,36748,18654
22,37162,19377
22,37573,17314
22,37985,16645
22,38398,17056
22,38810,16682
22,39222,16945
22,39635,15977
22,40047,16751
22,40458,15668
22,40870,15390
22,41283,13518
22,41695,15762
22,42107,14374
22,42520,15347
22,42932,14780
22,43343,13724
22,43757,13893
22,44168,13047
22,44580,13263
22,44993,14282
22,45405,13037
22,45817,12697
22,46230,13274
22,46642,14045
22,47053,13087
22,47467,12293
22,47878,13274
22,48290,13606
22,48703,12385
22,49115,10810
22,49527,11066
22,49938,12376
22,50352,12068
22,50763,11030
22,51175,12516
22,51588,12331
22,52000,11600
22,52412,12049
22,52825,11989
22,53237,12412
22,53648,11711
22,54062,10924
22,54473,9898
22,54885,10535
22,55298,10582
22,55710,10880
22,56122,11713
22,56535,11149
22,56947,11146
22,57358,10647
22,57772,11553
22,58183,10806
22,58595,9657
22,59007,11205
22,59420,9481
22,59832,10115
22,60243,10557
22,60657,10260
22,61068,10265
22,61480,10975
22,61893,10298
22,62305,9661
22,62717,10142
22,63130,9639
22,63542,9691
22,63953,10409
22,64367,9222
22,64778,9733
22,65190,9233
22,65603,9225
22,66015,9827
22,66427,10424
22,66840,10010
22,67252,9975
22,67663,9057
22,68075,9929
22,68488,9316
22,68900,9505
22,69312,8859
22,69725,9055
22,70137,10054
22,70548,9269
22,70962,9949
22,71373,8415
22,71785,9828
22,72198,9343
22,72610,9607
22,73022,9828
22,73435,10210
22,73847,11017
22,74258,10722
22,74672,11772
22,75083,15208
22,75495,18165
22,75908,24808
22,76320,36417
22,76732,56240
22,77143,86613
22,77557,133655
22,77968,191679
22,78380,269280
22,78793,368963
22,79205,475798
22,79617,591663
22,80030,705183
22,80442,801194
22,80853,897801
22,81267,959227
22,81678,976987
22,82090,981577
22,82503,949156
22,82915,882982
22,83327,811625
22,83740,730874
22,84152,637397
22,84563,564918
22,84977,495385
22,85388,418894
22,85800,370139
22,86212,320069
22,86625,281330
22,87037,252877
22,87448,237057
22,87862,227601
22,88273,240135
22,88685,265840
22,89098,322264
22,89510,403262
22,89922,521573
22,90335,689609
22,90747,885846
22,91158,1135015
22,91572,1420559
22,91983,1729178
22,92395,2065773
22,92808,2380236
22,93220,2660550
22,93632,2890454
22,94045,3079770
22,94457,3089888
22,94868,3055361
22,95280,2861121
22,95693,2637442
22,96105,2364343
22,96517,2055686
22,96930,1761367
22,97342,1512983
22,97753,1275561
22,98167,1089169
22,98578,919711
22,98990,787143
22,99403,681443
22,99815,597323
23,00227,525822
23,00640,452483
23,01052,409857
23,01463,370692
23,01877,331749
23,02288,301401
23,02700,274776
23,03113,249627
23,03525,233789
23,03937,214048
23,04348,199126
23,04762,182148
23,05173,170000
23,05585,157690
23,05998,150887
23,06410,141594
23,06822,131476
23,07235,123930
23,07647,116008
23,08058,110613
23,08472,107226
23,08883,100373
23,09295,93970
23,09708,90123
23,10120,87983
23,10532,79913
23,10945,77102
23,11357,74107
23,11768,69931
23,12182,67754
23,12593,64664
23,13005,63899
23,13417,60183
23,13830,57667
23,14242,54756
23,14653,52915
23,15067,52547
23,15478,48281
23,15890,46355
23,16303,47688
23,16715,44699
23,17127,44241
23,17540,43733
23,17952,39413
23,18363,39305
23,18777,38637
23,19188,35939
23,19600,37376
23,20013,36518
23,20425,35883
23,20837,37302
23,21250,40863
23,21662,47209
23,22073,61323
23,22485,81961
23,22898,113831
23,23310,157819
23,23722,219494
23,24135,300742
23,24547,395803
23,24958,507414
23,25372,621598
23,25783,729215
23,26195,835291
23,26608,921523
23,27020,968466
23,27432,988357
23,27845,967970
23,28257,946199
23,28668,888736
23,29082,811506
23,29493,724662
23,29905,645482
23,30318,564172
23,30730,489900
23,31142,424244
23,31553,362444
23,31967,314296
23,32378,274367
23,32790,239760
23,33203,213175
23,33615,185545
23,34027,164344
23,34440,149837
23,34852,132829
23,35263,121992
23,35677,110266
23,36088,101685
23,36500,92246
23,36913,85552
23,37325,80180
23,37737,73222
23,38150,70877
23,38562,67853
23,38973,62530
23,39387,59472
23,39798,54784
23,40210,55287
23,40622,49106
23,41035,48022
23,41447,47320
23,41858,43137
23,42272,42872
23,42683,39873
23,43095,36972
23,43508,35358
23,43920,35099
23,44332,34027
23,44745,32858
23,45157,31746
23,45568,34359
23,45982,32271
23,46393,31418
23,46805,32368
23,47218,34153
23,47630,38562
23,48042,49933
23,48455,65747
23,48867,91992
23,49278,130031
23,49692,188299
23,50103,264690
23,50515,377623
23,50927,498808
23,51340,653561
23,51752,825792
23,52163,985816
23,52577,1138199
23,52988,1271149
23,53400,1359865
23,53813,1395329
23,54225,1395357
23,54637,1340193
23,55050,1261895
23,55462,1166871
23,55873,1038449
23,56287,915113
23,56698,789452
23,57110,686311
23,57523,592189
23,57935,509588
23,58347,434529
23,58760,378277
23,59172,330737
23,59583,290951
23,59995,259907
23,60408,230062
23,60820,205767
23,61232,183568
23,61645,167717
23,62057,151083
23,62468,140171
23,62882,129212
23,63293,122708
23,63705,111457
23,64118,103143
23,64530,96831
23,64942,91821
23,65355,85445
23,65767,82602
23,66178,74702
23,66592,71218
23,67003,68996
23,67415,66223
23,67828,61492
23,68240,59551
23,68652,55836
23,69063,54457
23,69477,50813
23,69888,48027
23,70300,47386
23,70713,44172
23,71125,41675
23,71537,42867
23,71950,42795
23,72362,38874
23,72773,37352
23,73187,38816
23,73598,37342
23,74010,35769
23,74423,34030
23,74835,30796
23,75247,32464
23,75660,31359
23,76072,28661
23,76483,30861
23,76897,29520
23,77308,27356
23,77720,29666
23,78132,28043
23,78545,25342
23,78957,25484
23,79368,25601
23,79782,24864
23,80193,24607
23,80605,24983
23,81018,22742
23,81430,22574
23,81842,21375
23,82255,22840
23,82667,23177
23,83078,20324
23,83492,21738
23,83903,20993
23,84315,20478
23,84728,20288
23,85140,19932
23,85552,21984
23,85965,19985
23,86377,17983
23,86788,19498
23,87200,17484
23,87613,16964
23,88025,17942
23,88437,18272
23,88850,17661
23,89262,17038
23,89673,17088
23,90087,17811
23,90498,18068
23,90910,15904
23,91323,16362
23,91735,16190
23,92147,16987
23,92560,15868
23,92972,16783
23,93383,15781
23,93797,14626
23,94208,15989
23,94620,15037
23,95033,15234
23,95445,15764
23,95857,14697
23,96268,14922
23,96682,14931
23,97093,14021
23,97505,13715
23,97918,14439
23,98330,14528
23,98742,14784
23,99155,15614
23,99567,13321
23,99978,12553
24,00392,13619
24,00803,15818
24,01215,14019
24,01628,14917
24,02040,14985
24,02452,13412
24,02865,15290
24,03277,16819
24,03688,18025
24,04102,23164
24,04513,32817
24,04925,44658
24,05337,70837
24,05750,104049
24,06162,162856
24,06573,238217
24,06987,336995
24,07398,465683
24,07810,622792
24,08223,802586
24,08635,998024
24,09047,1178000
24,09460,1340422
24,09872,1469305
24,10283,1540171
24,10697,1570140
24,11108,1527529
24,11520,1437404
24,11933,1312428
24,12345,1179584
24,12757,1027028
24,13170,897358
24,13582,769643
24,13993,655938
24,14405,563059
24,14818,493136
24,15230,426322
24,15642,375670
24,16055,328074
24,16467,291137
24,16878,255575
24,17292,230823
24,17703,210059
24,18115,187716
24,18528,172926
24,18940,155953
24,19352,147823
24,19765,133093
24,20177,126881
24,20588,116089
24,21002,111794
24,21413,103609
24,21825,95782
24,22238,94605
24,22650,84167
24,23062,82248
24,23473,77353
24,23887,73768
24,24298,70747
24,24710,70022
24,25123,64436
24,25535,64400
24,25947,58184
24,26360,58396
24,26772,56016
24,27183,51056
24,27597,50167
24,28008,46948
24,28420,48171
24,28833,44790
24,29245,43471
24,29657,42775
24,30070,39395
24,30482,38681
24,30893,38276
24,31307,36018
24,31718,34026
24,32130,34837
24,32542,31009
24,32955,31601
24,33367,31412
24,33778,29796
24,34192,30440
24,34603,28596
24,35015,29049
24,35428,28936
24,35840,29334
24,36252,28026
24,36665,27091
24,37077,26258
24,37488,25527
24,37902,25711
24,38313,23807
24,38725,23702
24,39138,25081
24,39550,23835
24,39962,24592
24,40375,23743
24,40787,22297
24,41198,23749
24,41610,23021
24,42023,24173
24,42435,23582
24,42847,24147
24,43260,26782
24,43672,33093
24,44083,41448
24,44497,57909
24,44908,81956
24,45320,117152
24,45733,172435
24,46145,250769
24,46557,345785
24,46970,459947
24,47382,591589
24,47793,728993
24,48207,881310
24,48618,1010099
24,49030,1124083
24,49443,1189151
24,49855,1236075
24,50267,1207800
24,50678,1173550
24,51092,1092927
24,51503,1003842
24,51915,890747
24,52328,785963
24,52740,682892
24,53152,594964
24,53565,513227
24,53977,443398
24,54388,389666
24,54802,335033
24,55213,290779
24,55625,262894
24,56038,230217
24,56450,204508
24,56862,182548
24,57275,167206
24,57687,151630
24,58098,137399
24,58512,127996
24,58923,118099
24,59335,104697
24,59747,98247
24,60160,94445
24,60572,87262
24,60983,81516
24,61397,78443
24,61808,69799
24,62220,73266
24,62633,66918
24,63045,62591
24,63457,58839
24,63870,54702
24,64282,53596
24,64693,51432
24,65107,48845
24,65518,47424
24,65930,43126
24,66343,42632
24,66755,42230
24,67167,40131
24,67580,38603
24,67992,37480
24,68403,36349
24,68815,35369
24,69228,34929
24,69640,31380
24,70052,33010
24,70465,31942
24,70877,29732
24,71288,29433
24,71702,28640
24,72113,28242
24,72525,27187
24,72938,28057
24,73350,26442
24,73762,25131
24,74175,24543
24,74587,25536
24,74998,22974
24,75412,24325
24,75823,22933
24,76235,22825
24,76648,22428
24,77060,21377
24,77472,21543
24,77883,20762
24,78297,20404
24,78708,20979
24,79120,19993
24,79533,19419
24,79945,20466
24,80357,20202
24,80770,20362
24,81182,19870
24,81593,18725
24,82007,18695
24,82418,18867
24,82830,18943
24,83243,18533
24,83655,17280
24,84067,18050
24,84480,18559
24,84892,18749
24,85303,17581
24,85717,18336
24,86128,15680
24,86540,18205
24,86952,16446
24,87365,15267
24,87777,16755
24,88188,15902
24,88602,16830
24,89013,16753
24,89425,16261
24,89838,16145
24,90250,16900
24,90662,13779
24,91075,16109
24,91487,13886
24,91898,15997
24,92312,16424
24,92723,15611
24,93135,16201
24,93548,18242
24,93960,15164
24,94372,16673
24,94785,14640
24,95197,16467
24,95608,15957
24,96020,17605
24,96433,15717
24,96845,16339
24,97257,17547
24,97670,16641
24,98082,16701
24,98493,16574
24,98907,17587
24,99318,18564
24,99730,16312
25,00143,16144
25,00555,16885
25,00967,17293
25,01380,16425
25,01792,15407
25,02203,16763
25,02617,16783
25,03028,16615
25,03440,15921
25,03853,15519
25,04265,15780
25,04677,15088
25,05088,14374
25,05502,14922
25,05913,14965
25,06325,13999
25,06738,14206
25,07150,14936
25,07562,14217
25,07975,13387
25,08387,15578
25,08798,15209
25,09212,16349
25,09623,18686
25,10035,21550
25,10448,28056
25,10860,38180
25,11272,56483
25,11685,83570
25,12097,126099
25,12508,187012
25,12922,261673
25,13333,354493
25,13745,472608
25,14158,596002
25,14570,715717
25,14982,829433
25,15393,938182
25,15807,1005031
25,16218,1054799
25,16630,1080336
25,17043,1062490
25,17455,1013972
25,17867,958212
25,18280,908411
25,18692,846425
25,19103,819351
25,19517,797591
25,19928,818197
25,20340,864203
25,20753,968670
25,21165,1113981
25,21577,1320414
25,21990,1562536
25,22402,1847525
25,22813,2161454
25,23227,2465172
25,23638,2770637
25,24050,3018586
25,24462,3205273
25,24875,3311301
25,25287,3238902
25,25698,3105569
25,26112,2846472
25,26523,2561078
25,26935,2246289
25,27348,1962940
25,27760,1688121
25,28172,1449322
25,28585,1244734
25,28997,1071654
25,29408,937770
25,29822,812958
25,30233,713481
25,30645,649453
25,31058,575855
25,31470,512630
25,31882,462827
25,32295,423875
25,32707,387584
25,33118,356297
25,33530,328777
25,33943,299077
25,34355,285179
25,34767,264123
25,35180,247023
25,35592,233297
25,36003,215168
25,36417,200635
25,36828,194892
25,37240,182581
25,37653,169247
25,38065,162821
25,38477,151048
25,38890,148557
25,39302,139720
25,39713,133074
25,40127,124111
25,40538,122100
25,40950,117738
25,41363,112378
25,41775,107019
25,42187,104846
25,42598,100729
25,43012,93598
25,43423,93943
25,43835,89772
25,44248,86472
25,44660,81038
25,45072,80363
25,45485,77838
25,45897,74576
25,46308,71958
25,46722,71255
25,47133,67295
25,47545,67785
25,47958,65292
25,48370,61673
25,48782,62915
25,49195,61131
25,49607,59936
25,50018,57814
25,50432,58600
25,50843,55359
25,51255,55563
25,51667,56265
25,52080,55389
25,52492,58182
25,52903,62112
25,53317,70803
25,53728,83601
25,54140,104724
25,54553,137875
25,54965,181898
25,55377,251929
25,55790,341294
25,56202,448304
25,56613,572840
25,57027,700178
25,57438,834656
25,57850,953896
25,58263,1050666
25,58675,1116811
25,59087,1168120
25,59500,1149373
25,59912,1137852
25,60323,1089103
25,60735,1028324
25,61148,986155
25,61560,948766
25,61972,930743
25,62385,942453
25,62797,979863
25,63208,1029141
25,63622,1090439
25,64033,1139061
25,64445,1190054
25,64858,1222072
25,65270,1237300
25,65682,1217117
25,66095,1173300
25,66507,1097703
25,66918,1019505
25,67332,915286
25,67743,825920
25,68155,728086
25,68568,645537
25,68980,568254
25,69392,502720
25,69803,441545
25,70217,388032
25,70628,343350
25,71040,308246
25,71453,274428
25,71865,249999
25,72277,226444
25,72690,203079
25,73102,193270
25,73513,178820
25,73927,164565
25,74338,159369
25,74750,152333
25,75163,155095
25,75575,163783
25,75987,185515
25,76400,222441
25,76812,269447
25,77223,343150
25,77637,434625
25,78048,550082
25,78460,705958
25,78872,852398
25,79285,1019697
25,79697,1185717
25,80108,1310267
25,80522,1408686
25,80933,1481797
25,81345,1483981
25,81758,1451008
25,82170,1380793
25,82582,1282899
25,82995,1149507
25,83407,1032074
25,83818,901900
25,84232,808209
25,84643,702590
25,85055,619377
25,85468,542824
25,85880,476437
25,86292,419334
25,86705,372037
25,87117,342231
25,87528,310247
25,87940,282293
25,88353,254548
25,88765,235690
25,89177,215675
25,89590,204936
25,90002,187808
25,90413,177366
25,90827,167626
25,91238,156521
25,91650,147674
25,92063,142374
25,92475,136281
25,92887,126540
25,93300,120445
25,93712,116356
25,94123,108343
25,94537,106725
25,94948,97765
25,95360,94965
25,95773,90070
25,96185,85964
25,96597,81227
25,97008,80695
25,97422,77376
25,97833,74069
25,98245,71467
25,98658,68333
25,99070,67257
25,99482,65661
25,99895,62532
26,00307,62177
26,00718,59629
26,01132,58415
26,01543,58002
26,01955,53909
26,02368,55047
26,02780,53221
26,03192,49732
26,03605,48995
26,04017,46520
26,04428,46426
26,04842,47161
26,05253,44603
26,05665,46925
26,06077,44393
26,06490,45360
26,06902,43610
26,07313,42196
26,07727,43309
26,08138,42984
26,08550,41345
26,08963,41783
26,09375,40477
26,09787,43363
26,10200,39727
26,10612,40908
26,11023,37920
26,11437,39313
26,11848,39001
26,12260,38388
26,12673,35112
26,13085,36072
26,13497,33245
26,13910,35261
26,14322,33692
26,14733,32422
26,15145,32683
26,15558,31366
26,15970,30098
26,16382,30422
26,16795,30185
26,17207,29435
26,17618,28113
26,18032,29561
26,18443,27321
26,18855,27505
26,19268,28726
26,19680,28215
26,20092,27279
26,20505,26518
26,20917,27018
26,21328,27708
26,21742,26297
26,22153,26698
26,22565,26805
26,22978,26516
26,23390,25602
26,23802,25742
26,24213,26378
26,24627,28358
26,25038,27592
26,25450,34310
26,25863,36740
26,26275,43960
26,26687,57566
26,27100,79009
26,27512,112888
26,27923,159895
26,28337,227738
26,28748,310217
26,29160,428471
26,29573,570063
26,29985,733821
26,30397,931843
26,30810,1103796
26,31222,1272528
26,31633,1393925
26,32047,1477734
26,32458,1517487
26,32870,1489536
26,33282,1413363
26,33695,1318075
26,34107,1202788
26,34518,1072623
26,34932,954368
26,35343,831273
26,35755,717736
26,36168,629670
26,36580,558365
26,36992,485970
26,37405,432201
26,37817,392809
26,38228,343802
26,38642,317873
26,39053,289299
26,39465,265837
26,39878,241157
26,40290,223470
26,40702,208721
26,41115,192647
26,41527,178670
26,41938,173012
26,42350,156682
26,42763,146864
26,43175,140621
26,43587,134287
26,44000,128313
26,44412,119524
26,44823,115665
26,45237,107152
26,45648,104443
26,46060,101074
26,46473,99267
26,46885,94275
26,47297,90822
26,47710,87094
26,48122,85842
26,48533,81231
26,48947,77181
26,49358,73071
26,49770,73632
26,50183,70114
26,50595,68088
26,51007,65543
26,51418,63692
26,51832,62207
26,52243,59506
26,52655,58070
26,53068,56487
26,53480,55536
26,53892,55598
26,54305,51361
26,54717,51543
26,55128,50429
26,55542,50445
26,55953,48901
26,56365,45838
26,56778,45707
26,57190,45943
26,57602,42887
26,58015,44453
26,58427,43141
26,58838,43852
26,59252,42392
26,59663,40482
26,60075,39378
26,60487,38448
26,60900,38357
26,61312,37935
26,61723,37935
26,62137,36066
26,62548,37158
26,62960,36815
26,63373,37527
26,63785,37699
26,64197,38651
26,64610,37203
26,65022,39418
26,65433,47920
26,65847,58555
26,66258,73147
26,66670,98968
26,67083,129610
26,67495,187428
26,67907,258481
26,68320,352395
26,68732,468923
26,69143,603953
26,69555,759644
26,69968,905724
26,70380,1047388
26,70792,1166712
26,71205,1252834
26,71617,1322137
26,72028,1328292
26,72442,1309338
26,72853,1290759
26,73265,1263011
26,73678,1235303
26,74090,1212356
26,74502,1206224
26,74915,1224440
26,75327,1262949
26,75738,1280362
26,76152,1277122
26,76563,1275145
26,76975,1259945
26,77388,1205943
26,77800,1153321
26,78212,1076892
26,78625,993333
26,79037,902126
26,79448,808428
26,79860,721923
26,80273,640242
26,80685,566138
26,81097,501767
26,81510,442535
26,81922,399340
26,82333,357165
26,82747,320802
26,83158,287533
26,83570,265548
26,83983,243183
26,84395,221542
26,84807,206119
26,85220,190775
26,85632,177822
26,86043,166554
26,86457,155436
26,86868,143939
26,87280,138166
26,87693,132046
26,88105,125704
26,88517,116590
26,88928,112094
26,89342,106691
26,89753,100603
26,90165,95176
26,90578,90895
26,90990,88710
26,91402,86660
26,91815,81207
26,92227,79140
26,92638,78268
26,93052,72496
26,93463,72405
26,93875,70639
26,94288,68582
26,94700,64195
26,95112,62563
26,95525,60833
26,95937,61155
26,96348,59465
26,96762,59227
26,97173,55519
26,97585,53468
26,97997,51548
26,98410,51397
26,98822,51560
26,99233,47621
26,99647,48491
27,00058,49718
27,00470,47786
27,00883,46038
27,01295,45757
27,01707,45617
27,02120,41502
27,02532,42662
27,02943,41973
27,03357,42015
27,03768,42451
27,04180,41815
27,04593,41536
27,05005,39832
27,05417,38959
27,05830,37749
27,06242,40950
27,06653,39835
27,07065,38524
27,07478,38504
27,07890,36539
27,08302,37227
27,08715,37010
27,09127,36011
27,09538,35901
27,09952,37206
27,10363,34293
27,10775,34636
27,11188,33653
27,11600,32642
27,12012,34936
27,12425,33404
27,12837,33094
27,13248,31769
27,13662,30058
27,14073,31239
27,14485,29710
27,14898,30365
27,15310,30758
27,15722,31191
27,16133,30992
27,16547,28448
27,16958,28926
27,17370,29736
27,17783,27658
27,18195,29470
27,18607,29695
27,19020,29639
27,19432,28287
27,19843,28995
27,20257,29349
27,20668,29359
27,21080,29481
27,21493,27382
27,21905,27900
27,22317,28657
27,22730,27088
27,23142,28907
27,23553,29822
27,23967,29612
27,24378,25376
27,24790,28480
27,25202,26219
27,25615,30003
27,26027,29049
27,26438,28639
27,26852,27746
27,27263,29211
27,27675,29439
27,28088,27982
27,28500,27956
27,28912,28854
27,29325,27097
27,29737,29807
27,30148,28485
27,30562,29936
27,30973,31887
27,31385,34369
27,31798,47189
27,32210,53287
27,32622,72268
27,33035,99165
27,33447,141460
27,33858,197625
27,34270,279500
27,34683,384310
27,35095,525917
27,35507,710122
27,35920,922148
27,36332,1179624
27,36743,1468278
27,37157,1744345
27,37568,2035207
27,37980,2349181
27,38393,2583314
27,38805,2778888
27,39217,2885598
27,39630,2890337
27,40042,2794693
27,40453,2612863
27,40867,2374898
27,41278,2113651
27,41690,1834725
27,42103,1603665
27,42515,1372689
27,42927,1210989
27,43338,1045053
27,43752,916003
27,44163,812807
27,44575,721267
27,44988,653431
27,45400,588274
27,45812,528095
27,46225,482837
27,46637,443242
27,47048,407166
27,47462,383856
27,47873,353695
27,48285,328768
27,48698,303462
27,49110,288838
27,49522,269816
27,49935,254527
27,50347,242095
27,50758,229377
27,51172,222399
27,51583,206290
27,51995,194993
27,52407,189006
27,52820,178980
27,53232,172424
27,53643,161057
27,54057,160709
27,54468,151819
27,54880,147394
27,55293,141776
27,55705,137961
27,56117,130986
27,56530,128108
27,56942,124219
27,57353,118717
27,57767,116839
27,58178,113788
27,58590,107160
27,59003,107101
27,59415,102163
27,59827,100037
27,60240,98838
27,60652,96720
27,61063,91688
27,61475,90692
27,61888,86473
27,62300,85544
27,62712,86322
27,63125,81953
27,63537,79436
27,63948,78282
27,64362,76058
27,64773,73699
27,65185,73086
27,65598,69164
27,66010,69771
27,66422,70848
27,66835,69140
27,67247,64541
27,67658,66282
27,68072,65042
27,68483,64971
27,68895,61197
27,69308,62329
27,69720,58011
27,70132,59051
27,70543,57596
27,70957,58298
27,71368,58463
27,71780,56727
27,72193,53322
27,72605,53596
27,73017,54417
27,73430,52597
27,73842,51796
27,74253,52438
27,74667,50974
27,75078,48757
27,75490,50522
27,75903,49561
27,76315,48782
27,76727,49704
27,77140,49708
27,77552,47360
27,77963,46726
27,78377,44516
27,78788,44809
27,79200,42038
27,79612,44364
27,80025,44660
27,80437,45460
27,80848,41501
27,81262,43064
27,81673,41199
27,82085,40916
27,82498,41802
27,82910,40831
27,83322,40572
27,83735,39876
27,84147,40276
27,84558,39932
27,84972,40148
27,85383,42649
27,85795,42862
27,86208,48284
27,86620,55764
27,87032,65879
27,87445,84992
27,87857,111641
27,88268,155231
27,88680,212365
27,89093,283798
27,89505,385960
27,89917,509030
27,90330,647743
27,90742,813225
27,91153,967227
27,91567,1115670
27,91978,1236429
27,92390,1328238
27,92803,1348409
27,93215,1351917
27,93627,1310293
27,94040,1235436
27,94452,1123277
27,94863,1032072
27,95277,914104
27,95688,822214
27,96100,734954
27,96513,642788
27,96925,575908
27,97337,512651
27,97748,456830
27,98162,409026
27,98573,373967
27,98985,337890
27,99398,309295
27,99810,281900
28,00222,267687
28,00635,248981
28,01047,232049
28,01458,217029
28,01872,203381
28,02283,192056
28,02695,181042
28,03108,171965
28,03520,159055
28,03932,154435
28,04345,150506
28,04757,140940
28,05168,133848
28,05582,127209
28,05993,126673
28,06405,119843
28,06817,116352
28,07230,107745
28,07642,108911
28,08053,102969
28,08467,99998
28,08878,96726
28,09290,93407
28,09703,88412
28,10115,84251
28,10527,85904
28,10940,82667
28,11352,81175
28,11763,81091
28,12177,79759
28,12588,76204
28,13000,73768
28,13413,71924
28,13825,68490
28,14237,70761
28,14650,67311
28,15062,66320
28,15473,65140
28,15885,64916
28,16298,63435
28,16710,60739
28,17122,58601
28,17535,57838
28,17947,59814
28,18358,59752
28,18772,58253
28,19183,60839
28,19595,62654
28,20008,60782
28,20420,68138
28,20832,71526
28,21245,76857
28,21657,83148
28,22068,90976
28,22482,96272
28,22893,101371
28,23305,104884
28,23718,110342
28,24130,113430
28,24542,113943
28,24953,109693
28,25367,110746
28,25778,102498
28,26190,98215
28,26603,92101
28,27015,87555
28,27427,82451
28,27840,78196
28,28252,74874
28,28663,68492
28,29077,64453
28,29488,60016
28,29900,59865
28,30313,53017
28,30725,54686
28,31137,52422
28,31550,51311
28,31962,49901
28,32373,49226
28,32787,45377
28,33198,46128
28,33610,44211
28,34022,43902
28,34435,43460
28,34847,44645
28,35258,43327
28,35672,42901
28,36083,42841
28,36495,42831
28,36908,39579
28,37320,42171
28,37732,41213
28,38145,38504
28,38557,40188
28,38968,37896
28,39382,40194
28,39793,35664
28,40205,40168
28,40618,37427
28,41030,36979
28,41442,36947
28,41855,38892
28,42267,37775
28,42678,37354
28,43092,34016
28,43503,33725
28,43915,36947
28,44327,35425
28,44740,36063
28,45152,34070
28,45563,34724
28,45977,36556
28,46388,34797
28,46800,34236
28,47213,33960
28,47625,34597
28,48037,34118
28,48450,33933
28,48862,33583
28,49273,33502
28,49687,34690
28,50098,34759
28,50510,34840
28,50923,31839
28,51335,32905
28,51747,31938
28,52160,32221
28,52572,32141
28,52983,33015
28,53395,34841
28,53808,35024
28,54220,33990
28,54632,32836
28,55045,33469
28,55457,34062
28,55868,31022
28,56282,30877
28,56693,32744
28,57105,33011
28,57518,34192
28,57930,31862
28,58342,31722
28,58755,31629
28,59167,33855
28,59578,32149
28,59992,33464
28,60403,31597
28,60815,31774
28,61228,33108
28,61640,30656
28,62052,30109
28,62463,32907
28,62877,29856
28,63288,31674
28,63700,30911
28,64113,30232
28,64525,31602
28,64937,32317
28,65350,31003
28,65762,30480
28,66173,32871
28,66587,33300
28,66998,32337
28,67410,32131
28,67823,30812
28,68235,30652
28,68647,31773
28,69060,30997
28,69472,31373
28,69883,29591
28,70297,31295
28,70708,31893
28,71120,30714
28,71532,31986
28,71945,32530
28,72357,31345
28,72768,31234
28,73182,31493
28,73593,31904
28,74005,30636
28,74418,31076
28,74830,32125
28,75242,31328
28,75655,31112
28,76067,31948
28,76478,31560
28,76892,31227
28,77303,31785
28,77715,34363
28,78128,33188
28,78540,33267
28,78952,32498
28,79365,32106
28,79777,33480
28,80188,30952
28,80600,32006
28,81013,30434
28,81425,31623
28,81837,31095
28,82250,32039
28,82662,33275
28,83073,31857
28,83487,31930
28,83898,32873
28,84310,31965
28,84723,31876
28,85135,31464
28,85547,33331
28,85960,32275
28,86372,31354
28,86783,30546
28,87197,32793
28,87608,33121
28,88020,32436
28,88433,34135
28,88845,33251
28,89257,32735
28,89668,33036
28,90082,30331
28,90493,29832
28,90905,33081
28,91318,30925
28,91730,32411
28,92142,30136
28,92555,31968
28,92967,32034
28,93378,31707
28,93792,30117
28,94203,29105
28,94615,31047
28,95028,30029
28,95440,31461
28,95852,31286
28,96265,31552
28,96677,32445
28,97088,30500
28,97502,32922
28,97913,32301
28,98325,33709
28,98737,34460
28,99150,33074
28,99562,30412
28,99973,32969
29,00387,31352
29,00798,30541
29,01210,30495
29,01623,31363
29,02035,30480
29,02447,33831
29,02860,31346
29,03272,31484
29,03683,32717
29,04097,31101
29,04508,31183
29,04920,30470
29,05333,32580
29,05745,34090
29,06157,32802
29,06570,32818
29,06982,32511
29,07393,29787
29,07805,32639
29,08218,30409
29,08630,31504
29,09042,32093
29,09455,31856
29,09867,33081
29,10278,31530
29,10692,30782
29,11103,31512
29,11515,30967
29,11928,32127
29,12340,32258
29,12752,33898
29,13165,30829
29,13577,33360
29,13988,32383
29,14402,33096
29,14813,34434
29,15225,32897
29,15638,31800
29,16050,34304
29,16462,33490
29,16873,30479
29,17287,33165
29,17698,31222
29,18110,31704
29,18523,31259
29,18935,31810
29,19347,32116
29,19760,31395
29,20172,31827
29,20583,29881
29,20997,29539
29,21408,32504
29,21820,33021
29,22233,31041
29,22645,33124
29,23057,33107
29,23470,31926
29,23882,32159
29,24293,31655
29,24707,29135
29,25118,30068
29,25530,31126
29,25942,32440
29,26355,33040
29,26767,30329
29,27178,32165
29,27592,33011
29,28003,32086
29,28415,32330
29,28828,33763
29,29240,32254
29,29652,34130
29,30065,31243
29,30477,31807
29,30888,33288
29,31302,34511
29,31713,35381
29,32125,37066
29,32538,41544
29,32950,51281
29,33362,60621
29,33775,75206
29,34187,98894
29,34598,132927
29,35010,182101
29,35423,243267
29,35835,314283
29,36247,397315
29,36660,492341
29,37072,590756
29,37483,678667
29,37897,741120
29,38308,787934
29,38720,807489
29,39133,812075
29,39545,794067
29,39957,753328
29,40370,694882
29,40782,640010
29,41193,576083
29,41607,519498
29,42018,466033
29,42430,413348
29,42843,367618
29,43255,327035
29,43667,290539
29,44078,263278
29,44492,238492
29,44903,213610
29,45315,195968
29,45728,182720
29,46140,168729
29,46552,155809
29,46965,147454
29,47377,134998
29,47788,125903
29,48202,120034
29,48613,114236
29,49025,110180
29,49438,103659
29,49850,97056
29,50262,96145
29,50675,90095
29,51087,86024
29,51498,82512
29,51912,81699
29,52323,79057
29,52735,77359
29,53147,75414
29,53560,72344
29,53972,69458
29,54383,67238
29,54797,67390
29,55208,62097
29,55620,64288
29,56033,64571
29,56445,60954
29,56857,61940
29,57270,57545
29,57682,58755
29,58093,57698
29,58507,56248
29,58918,57298
29,59330,57000
29,59743,53953
29,60155,52723
29,60567,54667
29,60980,49620
29,61392,52035
29,61803,51480
29,62215,50464
29,62628,50840
29,63040,51588
29,63452,48142
29,63865,48625
29,64277,47677
29,64688,49020
29,65102,49179
29,65513,47362
29,65925,47804
29,66338,49950
29,66750,46417
29,67162,46537
29,67575,45551
29,67987,46443
29,68398,46864
29,68812,48031
29,69223,45473
29,69635,45757
29,70048,48123
29,70460,45634
29,70872,42782
29,71283,46051
29,71697,43842
29,72108,46449
29,72520,42971
29,72933,45231
29,73345,42689
29,73757,41274
29,74170,42816
29,74582,44009
29,74993,42533
29,75407,39869
29,75818,42675
29,76230,43170
29,76643,41999
29,77055,44867
29,77467,40615
29,77880,41625
29,78292,41332
29,78703,41451
29,79117,42466
29,79528,44658
29,79940,42069
29,80352,40151
29,80765,40491
29,81177,38548
29,81588,41678
29,82002,40879
29,82413,42868
29,82825,38730
29,83238,40345
29,83650,40430
29,84062,42173
29,84475,40657
29,84887,41988
29,85298,41536
29,85712,42100
29,86123,40759
29,86535,40171
29,86948,40530
29,87360,39063
29,87772,40292
29,88185,42752
29,88597,42205
29,89008,40930
29,89420,43641
29,89833,40889
29,90245,40137
29,90657,40618
29,91070,43808
29,91482,42196
29,91893,40272
29,92307,41976
29,92718,40503
29,93130,41589
29,93543,39544
29,93955,41114
29,94367,40377
29,94780,39462
29,95192,41625
29,95603,42073
29,96017,41965
29,96428,39354
29,96840,39705
29,97253,40545
29,97665,39804
29,98077,39728
29,98488,38377
29,98902,40021
29,99313,40721
