D:\MassHunter\GCMS\1\data\Amal\Constant flow\150C_1ml-min_6C-min_1.D Fri Jul 26 14:22:43 2024
Start of data points
4,64128	1,782114E+07
4,64572	1,661804E+07
4,65017	1,556101E+07
4,65460	1,450105E+07
4,65905	1,361646E+07
4,66348	1,275106E+07
4,66793	1,20036E+07
4,67237	1,125086E+07
4,67682	1,055437E+07
4,68125	9993865
4,68570	9402608
4,69013	8869737
4,69458	8355760
4,69902	7833311
4,70347	7392791
4,70790	6965250
4,71235	6577593
4,71678	6177764
4,72123	5834257
4,72567	5502861
4,73012	5200018
4,73455	4890517
4,73900	4596458
4,74343	4361443
4,74788	4087448
4,75233	3849147
4,75677	3637433
4,76122	3430204
4,76565	3233833
4,77010	3053528
4,77453	2869939
4,77898	2721779
4,78342	2564285
4,78787	2410025
4,79230	2283343
4,79675	2155089
4,80118	2034330
4,80563	1939828
4,81007	1829640
4,81452	1723228
4,81895	1630000
4,82340	1535030
4,82783	1448607
4,83228	1377436
4,83672	1302407
4,84117	1225469
4,84560	1155556
4,85005	1095719
4,85448	1031920
4,85893	988880
4,86337	924953
4,86782	883731
4,87227	837202
4,87670	793937
4,88115	753494
4,88558	708379
4,89003	673661
4,89447	636770
4,89892	606516
4,90335	580817
4,90780	541018
4,91223	512727
4,91668	487620
4,92112	466182
4,92557	450593
4,93000	425731
4,93445	398622
4,93888	384111
4,94333	359382
4,94777	344547
4,95222	328406
4,95665	319443
4,96110	299797
4,96553	286851
4,96998	271087
4,97442	266177
4,97887	255191
4,98330	238937
4,98775	233253
4,99220	219486
4,99663	214075
5,00108	205560
5,00552	197676
5,00997	190948
5,01440	180183
5,01885	175635
5,02328	170622
5,02773	160187
5,03217	152859
5,03662	151154
5,04105	150239
5,04550	143066
5,04993	135116
5,05438	133156
5,05882	129042
5,06327	123449
5,06770	120471
5,07215	117811
5,07658	111395
5,08103	110477
5,08547	109954
5,08992	103059
5,09435	102104
5,09880	99990
5,10323	99228
5,10768	97334
5,11213	94972
5,11657	91425
5,12102	89770
5,12545	89854
5,12990	89039
5,13433	85404
5,13878	84371
5,14322	85911
5,14767	83492
5,15210	82291
5,15655	78382
5,16098	79404
5,16543	80811
5,16987	91474
5,17432	115056
5,17875	161273
5,18320	227131
5,18763	311975
5,19208	392080
5,19652	448796
5,20097	474950
5,20540	491440
5,20985	486040
5,21428	480683
5,21873	469757
5,22317	459993
5,22762	442347
5,23207	433923
5,23650	426006
5,24095	409029
5,24538	394218
5,24983	387076
5,25427	372718
5,25872	364457
5,26315	354054
5,26760	346027
5,27203	337214
5,27648	321389
5,28092	313421
5,28537	300699
5,28980	287820
5,29425	277174
5,29868	271758
5,30313	259836
5,30757	249251
5,31202	241106
5,31645	226808
5,32090	221721
5,32533	211476
5,32978	203817
5,33422	195054
5,33867	185264
5,34310	177625
5,34755	172373
5,35198	161536
5,35643	153238
5,36088	144123
5,36532	132246
5,36977	126932
5,37420	118161
5,37865	113637
5,38308	104032
5,38753	100595
5,39197	92434
5,39642	88379
5,40085	84759
5,40530	78980
5,40973	79207
5,41418	73524
5,41862	71888
5,42307	66731
5,42750	65660
5,43195	62232
5,43638	61859
5,44083	58892
5,44527	57216
5,44972	55638
5,45415	54013
5,45860	55039
5,46303	54480
5,46748	54442
5,47192	51665
5,47637	52168
5,48082	50033
5,48525	49308
5,48970	50180
5,49413	47153
5,49858	49225
5,50302	47432
5,50747	46481
5,51190	46417
5,51635	47622
5,52078	48297
5,52523	52988
5,52967	61410
5,53412	83147
5,53855	118335
5,54300	156558
5,54743	207911
5,55188	247771
5,55632	284190
5,56077	298659
5,56520	308213
5,56965	305381
5,57408	298817
5,57853	293970
5,58297	286676
5,58742	277338
5,59185	269715
5,59630	264421
5,60075	255131
5,60518	245091
5,60963	243089
5,61407	236216
5,61852	230455
5,62295	222183
5,62740	218269
5,63183	210072
5,63628	206231
5,64072	199018
5,64517	189385
5,64960	183140
5,65405	178112
5,65848	169874
5,66293	166523
5,66737	155990
5,67182	151176
5,67625	149060
5,68070	143909
5,68513	134453
5,68958	128865
5,69402	121965
5,69847	116895
5,70290	104460
5,70735	99685
5,71178	95030
5,71623	89413
5,72068	84227
5,72512	80274
5,72957	75834
5,73400	71266
5,73845	67986
5,74288	62818
5,74733	61714
5,75177	59530
5,75622	57009
5,76065	54685
5,76510	51697
5,76953	48482
5,77398	48615
5,77842	46500
5,78287	45564
5,78730	44217
5,79175	43569
5,79618	44134
5,80063	41882
5,80507	39463
5,80952	41505
5,81395	39864
5,81840	42056
5,82283	40052
5,82728	38937
5,83172	38470
5,83617	37058
5,84062	38181
5,84505	38312
5,84950	36866
5,85393	37492
5,85838	37111
5,86282	36364
5,86727	37507
5,87170	35871
5,87615	35616
5,88058	35297
5,88503	36132
5,88947	37474
5,89392	37056
5,89835	36614
5,90280	34819
5,90723	34941
5,91168	34760
5,91612	35220
5,92057	33425
5,92500	35826
5,92945	35760
5,93388	36566
5,93833	35252
5,94277	34677
5,94722	34537
5,95165	35089
5,95610	35886
5,96055	37026
5,96498	43917
5,96943	58460
5,97387	84320
5,97832	138582
5,98275	213368
5,98720	307964
5,99163	411084
5,99608	508541
6,00052	581671
6,00497	632266
6,00940	647245
6,01385	645477
6,01828	635904
6,02273	624029
6,02717	602638
6,03162	584771
6,03605	567560
6,04050	550503
6,04493	532885
6,04938	524410
6,05382	510387
6,05827	494789
6,06270	480784
6,06715	467658
6,07158	450476
6,07603	435422
6,08047	414508
6,08492	405664
6,08937	385368
6,09380	374092
6,09825	352760
6,10268	336085
6,10713	313417
6,11157	295885
6,11602	276267
6,12045	263793
6,12490	240760
6,12933	224292
6,13378	205797
6,13822	184917
6,14267	171011
6,14710	153316
6,15155	137890
6,15598	124889
6,16043	111208
6,16487	100454
6,16932	93340
6,17375	84607
6,17820	77062
6,18263	70799
6,18708	63933
6,19152	60767
6,19597	56260
6,20040	51518
6,20485	49076
6,20930	45174
6,21373	42380
6,21818	40694
6,22262	39401
6,22707	37419
6,23150	35642
6,23595	35064
6,24038	33961
6,24483	33164
6,24927	33005
6,25372	31271
6,25815	32519
6,26260	30199
6,26703	29600
6,27148	29118
6,27592	27861
6,28037	27192
6,28480	28910
6,28925	29304
6,29368	28337
6,29813	26932
6,30257	25758
6,30702	27868
6,31145	28476
6,31590	25329
6,32033	26122
6,32478	25989
6,32923	27129
6,33367	26063
6,33812	24988
6,34255	26119
6,34700	25687
6,35143	25504
6,35588	25441
6,36032	25368
6,36477	25063
6,36920	24520
6,37365	23946
6,37808	25971
6,38253	24671
6,38697	26437
6,39142	24676
6,39585	23532
6,40030	23786
6,40473	24006
6,40918	25109
6,41362	25179
6,41807	24979
6,42250	23532
6,42695	23448
6,43138	25148
6,43583	23638
6,44027	23314
6,44472	23490
6,44917	23440
6,45360	23962
6,45805	23926
6,46248	22980
6,46693	23289
6,47137	24145
6,47582	24216
6,48025	23561
6,48470	23819
6,48913	24508
6,49358	23746
6,49802	27348
6,50247	35747
6,50690	48416
6,51135	70184
6,51578	106639
6,52023	155330
6,52467	207394
6,52912	265914
6,53355	310542
6,53800	342648
6,54243	362519
6,54688	369394
6,55132	367657
6,55577	360413
6,56020	350437
6,56465	345143
6,56910	330928
6,57353	320266
6,57798	316246
6,58242	310553
6,58687	298947
6,59130	291692
6,59575	281911
6,60018	270176
6,60463	265415
6,60907	252192
6,61352	242218
6,61795	235362
6,62240	222361
6,62683	212322
6,63128	195890
6,63572	189317
6,64017	172735
6,64460	161390
6,64905	148068
6,65348	135471
6,65793	124287
6,66237	109610
6,66682	100860
6,67125	89922
6,67570	81371
6,68013	73458
6,68458	66213
6,68903	60210
6,69347	54622
6,69792	51883
6,70235	45420
6,70680	42542
6,71123	40917
6,71568	36977
6,72012	34622
6,72457	34066
6,72900	32435
6,73345	30567
6,73788	28254
6,74233	29436
6,74677	27822
6,75122	27430
6,75565	27189
6,76010	25845
6,76453	25524
6,76898	24438
6,77342	24223
6,77787	23512
6,78230	23730
6,78675	23641
6,79118	22525
6,79563	23686
6,80007	22081
6,80452	23653
6,80895	22716
6,81340	22824
6,81785	22567
6,82228	22046
6,82673	22537
6,83117	20907
6,83562	23794
6,84005	21793
6,84450	22182
6,84893	22616
6,85338	22101
6,85782	21806
6,86227	22028
6,86670	21324
6,87115	21927
6,87558	21639
6,88003	20843
6,88447	21243
6,88892	20857
6,89335	19846
6,89780	22020
6,90223	20890
6,90668	21615
6,91112	20008
6,91557	19795
6,92000	20611
6,92445	21063
6,92888	20672
6,93333	21342
6,93778	21551
6,94222	18602
6,94667	19958
6,95110	19248
6,95555	20121
6,95998	18988
6,96443	20103
6,96887	20139
6,97332	18885
6,97775	19404
6,98220	20244
6,98663	20051
6,99108	19626
6,99552	19918
6,99997	19446
7,00440	20219
7,00885	18580
7,01328	18597
7,01773	19415
7,02217	19324
7,02662	20117
7,03105	17182
7,03550	19015
7,03993	20141
7,04438	18222
7,04882	19962
7,05327	19541
7,05772	19302
7,06215	18704
7,06660	19656
7,07103	18961
7,07548	20102
7,07992	20111
7,08437	19334
7,08880	19872
7,09325	20356
7,09768	18639
7,10213	19788
7,10657	19740
7,11102	20099
7,11545	21660
7,11990	23354
7,12433	33075
7,12878	51032
7,13322	86766
7,13767	142992
7,14210	225605
7,14655	334345
7,15098	455172
7,15543	568671
7,15987	670414
7,16432	748217
7,16875	795583
7,17320	817931
7,17765	818603
7,18208	806805
7,18653	783664
7,19097	756144
7,19542	738992
7,19985	717296
7,20430	699640
7,20873	680936
7,21318	654020
7,21762	641953
7,22207	616276
7,22650	596454
7,23095	557734
7,23538	535159
7,23983	503514
7,24427	468553
7,24872	435221
7,25315	397240
7,25760	358057
7,26203	321791
7,26648	279113
7,27092	250993
7,27537	208874
7,27980	183920
7,28425	158496
7,28868	136523
7,29313	123773
7,29758	106354
7,30202	91391
7,30647	81748
7,31090	69651
7,31535	61362
7,31978	56816
7,32423	48687
7,32867	42839
7,33312	39851
7,33755	38081
7,34200	34981
7,34643	33304
7,35088	30701
7,35532	28057
7,35977	28499
7,36420	25897
7,36865	25415
7,37308	25073
7,37753	24130
7,38197	22987
7,38642	23507
7,39085	22715
7,39530	20791
7,39973	21729
7,40418	21555
7,40862	22168
7,41307	22030
7,41752	22028
7,42195	21447
7,42640	23193
7,43083	21684
7,43528	21229
7,43972	22922
7,44417	20389
7,44860	22606
7,45305	21853
7,45748	21904
7,46193	18740
7,46637	19915
7,47082	21033
7,47525	19852
7,47970	21443
7,48413	20262
7,48858	20610
7,49302	19951
7,49747	19129
7,50190	21593
7,50635	20159
7,51078	20727
7,51523	19184
7,51967	19255
7,52412	18144
7,52855	20513
7,53300	20028
7,53743	18175
7,54188	17995
7,54633	19181
7,55077	18369
7,55522	17212
7,55965	18636
7,56410	17995
7,56853	18308
7,57298	16983
7,57742	18315
7,58187	16411
7,58630	17578
7,59075	16675
7,59518	17182
7,59963	18177
7,60407	17820
7,60852	17644
7,61295	18482
7,61740	17747
7,62183	16862
7,62628	18137
7,63072	17984
7,63517	18787
7,63960	18824
7,64405	18303
7,64848	18307
7,65293	19356
7,65737	19645
7,66182	21996
7,66627	27975
7,67070	42490
7,67515	60788
7,67958	94930
7,68403	136632
7,68847	186486
7,69292	246003
7,69735	304498
7,70180	347961
7,70623	380115
7,71068	404651
7,71512	413338
7,71957	404285
7,72400	406708
7,72845	398012
7,73288	387236
7,73733	369558
7,74177	369034
7,74622	352400
7,75065	340203
7,75510	332564
7,75953	319903
7,76398	302460
7,76842	285130
7,77287	263540
7,77730	238492
7,78175	213653
7,78620	194697
7,79063	172755
7,79508	157013
7,79952	138515
7,80397	119650
7,80840	106173
7,81285	89549
7,81728	80840
7,82173	69425
7,82617	64796
7,83062	59187
7,83505	60914
7,83950	72535
7,84393	88312
7,84838	122742
7,85282	170491
7,85727	228438
7,86170	297020
7,86615	345270
7,87058	394470
7,87503	432167
7,87947	453242
7,88392	460256
7,88835	463217
7,89280	445787
7,89723	439253
7,90168	424564
7,90613	404974
7,91057	397539
7,91502	387004
7,91945	378322
7,92390	357589
7,92833	341288
7,93278	318543
7,93722	300502
7,94167	282581
7,94610	248755
7,95055	227832
7,95498	203519
7,95943	176151
7,96387	155664
7,96832	133221
7,97275	115793
7,97720	99263
7,98163	86417
7,98608	73455
7,99052	65537
7,99497	53871
7,99940	50206
8,00385	43951
8,00828	39259
8,01273	35292
8,01717	33813
8,02162	29925
8,02607	26057
8,03050	26529
8,03495	23755
8,03938	21441
8,04383	21620
8,04827	20994
8,05272	21101
8,05715	18749
8,06160	18684
8,06603	19236
8,07048	18486
8,07492	16815
8,07937	17438
8,08380	17534
8,08825	16994
8,09268	16192
8,09713	15146
8,10157	15816
8,10602	14862
8,11045	16065
8,11490	13490
8,11933	15795
8,12378	15370
8,12822	15349
8,13267	15180
8,13710	13576
8,14155	15041
8,14600	15272
8,15043	14716
8,15488	14896
8,15932	15305
8,16377	14541
8,16820	15096
8,17265	13961
8,17708	13625
8,18153	13181
8,18597	14054
8,19042	14571
8,19485	14165
8,19930	13657
8,20373	14367
8,20818	12758
8,21262	15096
8,21707	15041
8,22150	13756
8,22595	14307
8,23038	13007
8,23483	14319
8,23927	13773
8,24372	14556
8,24815	12831
8,25260	12892
8,25703	13406
8,26148	13796
8,26592	13308
8,27037	12328
8,27482	13620
8,27925	11783
8,28370	13640
8,28813	13549
8,29258	13182
8,29702	14146
8,30147	13274
8,30590	13059
8,31035	13746
8,31478	13063
8,31923	13538
8,32367	13405
8,32812	13190
8,33255	14131
8,33700	13696
8,34143	12931
8,34588	12672
8,35032	12405
8,35477	13824
8,35920	13322
8,36365	13391
8,36808	13155
8,37253	12336
8,37697	13960
8,38142	12921
8,38585	12905
8,39030	14704
8,39475	13574
8,39918	12252
8,40363	13463
8,40807	14386
8,41252	13430
8,41695	14613
8,42140	14197
8,42583	16539
8,43028	23146
8,43472	34934
8,43917	53604
8,44360	86549
8,44805	132729
8,45248	186723
8,45693	241999
8,46137	306048
8,46582	363836
8,47025	407197
8,47470	446942
8,47913	461996
8,48358	477557
8,48802	472948
8,49247	459694
8,49690	451687
8,50135	437760
8,50578	421323
8,51023	400326
8,51468	383792
8,51912	365202
8,52357	338843
8,52800	309638
8,53245	283284
8,53688	253099
8,54133	225589
8,54577	194063
8,55022	167133
8,55465	144399
8,55910	123966
8,56353	106387
8,56798	89735
8,57242	78665
8,57687	64972
8,58130	58211
8,58575	49067
8,59018	42537
8,59463	37050
8,59907	35864
8,60352	39196
8,60795	44787
8,61240	62528
8,61683	97325
8,62128	161771
8,62572	261839
8,63017	397398
8,63462	562113
8,63905	769027
8,64350	975066
8,64793	1189512
8,65238	1346220
8,65682	1464222
8,66127	1538958
8,66570	1569741
8,67015	1564457
8,67458	1537643
8,67903	1483842
8,68347	1430262
8,68792	1350112
8,69235	1299142
8,69680	1218101
8,70123	1137597
8,70568	1034808
8,71012	932400
8,71457	821132
8,71900	729656
8,72345	622588
8,72788	523739
8,73233	442729
8,73677	371710
8,74122	319501
8,74565	261558
8,75010	217563
8,75455	176592
8,75898	151884
8,76343	130462
8,76787	112433
8,77232	92977
8,77675	81546
8,78120	70371
8,78563	62613
8,79008	56443
8,79452	51494
8,79897	45038
8,80340	42505
8,80785	39185
8,81228	36215
8,81673	33271
8,82117	31639
8,82562	30220
8,83005	28211
8,83450	28343
8,83893	26700
8,84338	25982
8,84782	24689
8,85227	24019
8,85670	23620
8,86115	22102
8,86558	23086
8,87003	22317
8,87448	22322
8,87892	20049
8,88337	18557
8,88780	18994
8,89225	17226
8,89668	18494
8,90113	17164
8,90557	18665
8,91002	16478
8,91445	16899
8,91890	16133
8,92333	16631
8,92778	16127
8,93222	15389
8,93667	15777
8,94110	14536
8,94555	14616
8,94998	15203
8,95443	15019
8,95887	14659
8,96332	13568
8,96775	15619
8,97220	15175
8,97663	15080
8,98108	13703
8,98552	13978
8,98997	13882
8,99442	14511
8,99885	13893
9,00330	12950
9,00773	13793
9,01218	13935
9,01662	13703
9,02107	12256
9,02550	13573
9,02995	13388
9,03438	12518
9,03883	12939
9,04327	13232
9,04772	13568
9,05215	13961
9,05660	12927
9,06103	12237
9,06548	13253
9,06992	13131
9,07437	12532
9,07880	13036
9,08325	12815
9,08768	13279
9,09213	14306
9,09657	13518
9,10102	13375
9,10545	14200
9,10990	13068
9,11433	13194
9,11878	13083
9,12323	12392
9,12767	13472
9,13212	14043
9,13655	17240
9,14100	21590
9,14543	33229
9,14988	52912
9,15432	83185
9,15877	125143
9,16320	181925
9,16765	249907
9,17208	312796
9,17653	385799
9,18097	437317
9,18542	486917
9,18985	510269
9,19430	537001
9,19873	529157
9,20318	513531
9,20762	503968
9,21207	472357
9,21650	444342
9,22095	425971
9,22538	393557
9,22983	354659
9,23427	316904
9,23872	287177
9,24317	249065
9,24760	214909
9,25205	185081
9,25648	152041
9,26093	129456
9,26537	109688
9,26982	95915
9,27425	80053
9,27870	68077
9,28313	58005
9,28758	50417
9,29202	44502
9,29647	38640
9,30090	37095
9,30535	31217
9,30978	29923
9,31423	27982
9,31867	26561
9,32312	23924
9,32755	22791
9,33200	21592
9,33643	20095
9,34088	20724
9,34532	17059
9,34977	17585
9,35420	15321
9,35865	15714
9,36310	16236
9,36753	14478
9,37198	14824
9,37642	13850
9,38087	13551
9,38530	14768
9,38975	12934
9,39418	12335
9,39863	12835
9,40307	13603
9,40752	12512
9,41195	12787
9,41640	13348
9,42083	12656
9,42528	12980
9,42972	14084
9,43417	14753
9,43860	18573
9,44305	26220
9,44748	39596
9,45193	60714
9,45637	96448
9,46082	147371
9,46525	214399
9,46970	290985
9,47413	373522
9,47858	444759
9,48303	511407
9,48747	555391
9,49192	579130
9,49635	590379
9,50080	582740
9,50523	566341
9,50968	539611
9,51412	509941
9,51857	476067
9,52300	431569
9,52745	384851
9,53188	341984
9,53633	294486
9,54077	255158
9,54522	216056
9,54965	180085
9,55410	150550
9,55853	125697
9,56298	105085
9,56742	87837
9,57187	70897
9,57630	61839
9,58075	53374
9,58518	45575
9,58963	41586
9,59407	34034
9,59852	33519
9,60297	27961
9,60740	27883
9,61185	24647
9,61628	21484
9,62073	21408
9,62517	20017
9,62962	19505
9,63405	17911
9,63850	18372
9,64293	17009
9,64738	16313
9,65182	15362
9,65627	16328
9,66070	14984
9,66515	14161
9,66958	14315
9,67403	14734
9,67847	13237
9,68292	13920
9,68735	13826
9,69180	12396
9,69623	13524
9,70068	12730
9,70512	11900
9,70957	11952
9,71400	13148
9,71845	12590
9,72290	12450
9,72733	12132
9,73178	11924
9,73622	11794
9,74067	12112
9,74510	11303
9,74955	11708
9,75398	12056
9,75843	11751
9,76287	11362
9,76732	11511
9,77175	11836
9,77620	11406
9,78063	10866
9,78508	11845
9,78952	11795
9,79397	12780
9,79840	10998
9,80285	11927
9,80728	11412
9,81173	10961
9,81617	11344
9,82062	12226
9,82505	10890
9,82950	11113
9,83393	11479
9,83838	11749
9,84282	10941
9,84727	11178
9,85172	12522
9,85615	11598
9,86060	12129
9,86503	10692
9,86948	10310
9,87392	12701
9,87837	11606
9,88280	11086
9,88725	11541
9,89168	11000
9,89613	10603
9,90057	11437
9,90502	10493
9,90945	11631
9,91390	10342
9,91833	11473
9,92278	9783
9,92722	11677
9,93167	11907
9,93610	12174
9,94055	11476
9,94498	11766
9,94943	10839
9,95387	11256
9,95832	12375
9,96275	11515
9,96720	11342
9,97165	10588
9,97608	12147
9,98053	11240
9,98497	12867
9,98942	13887
9,99385	18031
9,99830	25790
10,00273	38419
10,00718	61536
10,01162	96655
10,01607	145901
10,02050	211852
10,02495	286610
10,02938	370516
10,03383	444377
10,03827	514093
10,04272	573276
10,04715	603082
10,05160	613306
10,05603	605843
10,06048	585758
10,06492	547560
10,06937	514036
10,07380	465361
10,07825	420616
10,08268	372549
10,08713	321631
10,09158	275804
10,09602	228742
10,10047	188735
10,10490	158802
10,10935	132433
10,11378	108694
10,11823	92115
10,12267	74002
10,12712	61368
10,13155	53595
10,13600	47034
10,14043	39419
10,14488	35245
10,14932	31487
10,15377	28152
10,15820	26470
10,16265	26150
10,16708	21910
10,17153	20657
10,17597	19874
10,18042	19233
10,18485	18201
10,18930	17292
10,19373	16598
10,19818	16359
10,20262	16218
10,20707	14265
10,21152	14862
10,21595	15566
10,22040	14301
10,22483	13630
10,22928	13329
10,23372	13831
10,23817	11904
10,24260	12075
10,24705	12709
10,25148	12067
10,25593	11469
10,26037	11515
10,26482	12241
10,26925	10920
10,27370	11572
10,27813	10830
10,28258	11067
10,28702	11159
10,29147	11001
10,29590	12578
10,30035	13876
10,30478	19136
10,30923	29152
10,31367	46566
10,31812	83459
10,32255	138981
10,32700	221499
10,33145	335869
10,33588	472698
10,34033	641254
10,34477	818327
10,34922	992515
10,35365	1145917
10,35810	1270192
10,36253	1352091
10,36698	1382850
10,37142	1356930
10,37587	1298498
10,38030	1219466
10,38475	1096996
10,38918	961690
10,39363	818139
10,39807	696998
10,40252	569497
10,40695	459604
10,41140	373454
10,41583	306723
10,42028	243155
10,42472	196807
10,42917	162731
10,43360	139906
10,43805	118235
10,44248	100291
10,44693	85950
10,45138	77903
10,45582	67036
10,46027	61661
10,46470	54304
10,46915	49974
10,47358	46285
10,47803	43344
10,48247	39374
10,48692	35908
10,49135	33312
10,49580	30014
10,50023	28817
10,50468	27335
10,50912	24499
10,51357	23026
10,51800	23099
10,52245	22645
10,52688	20601
10,53133	19733
10,53577	19949
10,54022	19564
10,54465	19251
10,54910	18112
10,55353	17122
10,55798	16313
10,56242	15666
10,56687	15966
10,57130	16556
10,57575	15690
10,58020	13970
10,58463	15792
10,58908	15010
10,59352	14560
10,59797	14697
10,60240	14278
10,60685	13993
10,61128	13299
10,61573	12439
10,62017	13187
10,62462	13140
10,62905	15124
10,63350	18899
10,63793	27223
10,64238	41302
10,64682	67476
10,65127	106716
10,65570	155680
10,66015	223397
10,66458	310500
10,66903	396909
10,67347	483512
10,67792	566445
10,68235	620629
10,68680	653703
10,69123	672140
10,69568	661164
10,70013	623983
10,70457	571272
10,70902	515625
10,71345	447622
10,71790	386832
10,72233	326855
10,72678	266127
10,73122	213634
10,73567	178825
10,74010	146913
10,74455	120263
10,74898	100427
10,75343	86131
10,75787	68875
10,76232	58429
10,76675	51920
10,77120	45181
10,77563	38486
10,78008	35079
10,78452	31781
10,78897	29874
10,79340	30035
10,79785	30358
10,80228	36625
10,80673	49556
10,81117	71381
10,81562	116798
10,82007	180457
10,82450	278327
10,82895	402197
10,83338	560483
10,83783	724994
10,84227	902598
10,84672	1075811
10,85115	1226112
10,85560	1320695
10,86003	1355811
10,86448	1350495
10,86892	1293844
10,87337	1198504
10,87780	1069978
10,88225	934214
10,88668	789491
10,89113	659134
10,89557	530857
10,90002	430818
10,90445	353032
10,90890	280044
10,91333	227253
10,91778	183983
10,92222	153871
10,92667	127486
10,93110	106496
10,93555	91828
10,94000	81997
10,94443	71961
10,94888	63000
10,95332	54729
10,95777	47895
10,96220	44424
10,96665	41189
10,97108	38061
10,97553	36287
10,97997	35064
10,98442	31450
10,98885	28197
10,99330	28323
10,99773	26344
11,00218	24715
11,00662	23187
11,01107	23309
11,01550	22350
11,01995	20988
11,02438	19923
11,02883	20063
11,03327	20288
11,03772	18245
11,04215	18630
11,04660	16708
11,05103	17089
11,05548	17370
11,05993	16558
11,06437	16522
11,06882	14590
11,07325	14481
11,07770	14824
11,08213	14572
11,08658	13506
11,09102	14615
11,09547	13296
11,09990	12715
11,10435	12948
11,10878	12594
11,11323	11794
11,11767	12702
11,12212	12154
11,12655	12524
11,13100	12537
11,13543	12416
11,13988	11742
11,14432	11481
11,14877	12431
11,15320	13137
11,15765	13893
11,16208	16062
11,16653	21529
11,17097	28857
11,17542	47963
11,17987	74194
11,18430	119249
11,18875	176406
11,19318	252405
11,19763	340650
11,20207	427574
11,20652	515220
11,21095	584681
11,21540	627918
11,21983	645985
11,22428	633338
11,22872	603191
11,23317	563332
11,23760	498491
11,24205	424843
11,24648	356895
11,25093	296891
11,25537	245445
11,25982	201145
11,26425	160843
11,26870	131443
11,27313	109263
11,27758	87457
11,28202	72886
11,28647	62167
11,29090	53088
11,29535	47069
11,29978	40916
11,30423	37077
11,30868	32558
11,31312	29183
11,31757	28481
11,32200	24678
11,32645	23208
11,33088	22186
11,33533	20554
11,33977	18602
11,34422	18478
11,34865	19008
11,35310	18988
11,35753	16485
11,36198	15998
11,36642	16385
11,37087	13890
11,37530	14969
11,37975	14781
11,38418	14023
11,38863	14437
11,39307	13678
11,39752	13600
11,40195	13476
11,40640	13340
11,41083	12838
11,41528	14319
11,41972	12585
11,42417	14383
11,42862	13329
11,43305	12213
11,43750	13967
11,44193	12941
11,44638	13749
11,45082	11922
11,45527	12068
11,45970	12483
11,46415	12316
11,46858	12152
11,47303	13759
11,47747	11567
11,48192	12519
11,48635	12037
11,49080	11984
11,49523	12425
11,49968	11809
11,50412	11886
11,50857	11683
11,51300	12169
11,51745	10631
11,52188	10999
11,52633	9904
11,53077	10363
11,53522	10749
11,53965	11011
11,54410	12100
11,54855	12164
11,55298	14418
11,55743	19477
11,56187	30790
11,56632	47298
11,57075	79300
11,57520	124311
11,57963	184557
11,58408	250984
11,58852	335247
11,59297	421182
11,59740	502638
11,60185	564255
11,60628	616401
11,61073	631476
11,61517	622290
11,61962	587277
11,62405	532394
11,62850	469676
11,63293	406697
11,63738	344415
11,64182	283996
11,64627	233786
11,65070	182819
11,65515	152596
11,65958	125125
11,66403	102028
11,66848	82928
11,67292	68201
11,67737	58909
11,68180	50968
11,68625	45658
11,69068	40762
11,69513	35561
11,69957	31374
11,70402	30266
11,70845	27277
11,71290	25861
11,71733	25608
11,72178	23894
11,72622	23320
11,73067	22054
11,73510	20546
11,73955	20621
11,74398	19934
11,74843	18713
11,75287	18005
11,75732	16605
11,76175	16696
11,76620	15951
11,77063	14295
11,77508	13308
11,77952	13046
11,78397	12543
11,78842	14212
11,79285	13327
11,79730	13172
11,80173	11599
11,80618	13157
11,81062	13283
11,81507	13353
11,81950	12457
11,82395	12330
11,82838	12253
11,83283	11745
11,83727	12155
11,84172	12186
11,84615	11594
11,85060	11911
11,85503	11167
11,85948	11378
11,86392	11100
11,86837	11148
11,87280	10304
11,87725	11406
11,88168	11254
11,88613	11550
11,89057	10123
11,89502	10285
11,89945	10288
11,90390	10785
11,90835	11116
11,91278	12023
11,91723	10563
11,92167	10267
11,92612	9521
11,93055	9665
11,93500	10936
11,93943	10550
11,94388	11533
11,94832	11076
11,95277	10156
11,95720	9318
11,96165	9924
11,96608	10377
11,97053	10531
11,97497	10742
11,97942	11426
11,98385	10219
11,98830	11517
11,99273	10294
11,99718	10962
12,00162	10200
12,00607	9651
12,01050	9474
12,01495	9795
12,01938	9084
12,02383	10232
12,02827	10041
12,03272	9490
12,03717	9735
12,04160	9283
12,04605	9604
12,05048	8786
12,05493	9367
12,05937	8858
12,06382	8955
12,06825	10627
12,07270	9555
12,07713	10195
12,08158	11702
12,08602	14418
12,09047	22360
12,09490	37166
12,09935	65896
12,10378	115364
12,10823	193480
12,11267	321243
12,11712	477896
12,12155	696660
12,12600	951274
12,13043	1253690
12,13488	1562069
12,13932	1812684
12,14377	2045506
12,14820	2175063
12,15265	2219456
12,15710	2166183
12,16153	2000225
12,16598	1749220
12,17042	1460677
12,17487	1201355
12,17930	954552
12,18375	754567
12,18818	594829
12,19263	469811
12,19707	378688
12,20152	303428
12,20595	248582
12,21040	203577
12,21483	172338
12,21928	148841
12,22372	123669
12,22817	111803
12,23260	95909
12,23705	88117
12,24148	78518
12,24593	71632
12,25037	66265
12,25482	57677
12,25925	55084
12,26370	49158
12,26813	45738
12,27258	42447
12,27703	40871
12,28147	39699
12,28592	33509
12,29035	33130
12,29480	33225
12,29923	31725
12,30368	30338
12,30812	27934
12,31257	27093
12,31700	25429
12,32145	24378
12,32588	24242
12,33033	23452
12,33477	22872
12,33922	20629
12,34365	20765
12,34810	21367
12,35253	19418
12,35698	18504
12,36142	18403
12,36587	18854
12,37030	20161
12,37475	19489
12,37918	22079
12,38363	22817
12,38807	23271
12,39252	22635
12,39697	24774
12,40140	25155
12,40585	24236
12,41028	26045
12,41473	23557
12,41917	23458
12,42362	22655
12,42805	22536
12,43250	23897
12,43693	23222
12,44138	30826
12,44582	40386
12,45027	58042
12,45470	84764
12,45915	126609
12,46358	184739
12,46803	254707
12,47247	333734
12,47692	411668
12,48135	487431
12,48580	538927
12,49023	571908
12,49468	579817
12,49912	567988
12,50357	518143
12,50800	459580
12,51245	398256
12,51690	330209
12,52133	280739
12,52578	223942
12,53022	184095
12,53467	146141
12,53910	121099
12,54355	96689
12,54798	79947
12,55243	68316
12,55687	55517
12,56132	48943
12,56575	44010
12,57020	39651
12,57463	35219
12,57908	35241
12,58352	36165
12,58797	39331
12,59240	51193
12,59685	68616
12,60128	100925
12,60573	145319
12,61017	218844
12,61462	302438
12,61905	401854
12,62350	506086
12,62793	603620
12,63238	685441
12,63683	732338
12,64127	743963
12,64572	719989
12,65015	663732
12,65460	591188
12,65903	503584
12,66348	419112
12,66792	341033
12,67237	273317
12,67680	221291
12,68125	173534
12,68568	143199
12,69013	122217
12,69457	101633
12,69902	85979
12,70345	73960
12,70790	63301
12,71233	57304
12,71678	50531
12,72122	47164
12,72567	42219
12,73010	38098
12,73455	35975
12,73898	34168
12,74343	32958
12,74787	29293
12,75232	28877
12,75675	26405
12,76120	25851
12,76565	24539
12,77008	23448
12,77453	22470
12,77897	20900
12,78342	22680
12,78785	19859
12,79230	19314
12,79673	20041
12,80118	17426
12,80562	18122
12,81007	19732
12,81450	17190
12,81895	15234
12,82338	16906
12,82783	15804
12,83227	15758
12,83672	17318
12,84115	16973
12,84560	16597
12,85003	16887
12,85448	18862
12,85892	17811
12,86337	16473
12,86780	16495
12,87225	14701
12,87668	16613
12,88113	14733
12,88558	13874
12,89002	13880
12,89447	11979
12,89890	14101
12,90335	13983
12,90778	12934
12,91223	12997
12,91667	11514
12,92112	12920
12,92555	13221
12,93000	12323
12,93443	13043
12,93888	11010
12,94332	12008
12,94777	12214
12,95220	12697
12,95665	11708
12,96108	11327
12,96553	12661
12,96997	12542
12,97442	12732
12,97885	15519
12,98330	17376
12,98773	26157
12,99218	35909
12,99662	57799
13,00107	94360
13,00552	149127
13,00995	218436
13,01440	318078
13,01883	432085
13,02328	561393
13,02772	679044
13,03217	771129
13,03660	824360
13,04105	839838
13,04548	808514
13,04993	727258
13,05437	626507
13,05882	520337
13,06325	416666
13,06770	340588
13,07213	266558
13,07658	212086
13,08102	176539
13,08547	141387
13,08990	115601
13,09435	96385
13,09878	84455
13,10323	73086
13,10767	63939
13,11212	56107
13,11655	50630
13,12100	45564
13,12545	41568
13,12988	37436
13,13433	36673
13,13877	35883
13,14322	33842
13,14765	31073
13,15210	28511
13,15653	27295
13,16098	25487
13,16542	26444
13,16987	22411
13,17430	23319
13,17875	23030
13,18318	22249
13,18763	23003
13,19207	22547
13,19652	23164
13,20095	21043
13,20540	21307
13,20983	20455
13,21428	19087
13,21872	20035
13,22317	18966
13,22760	17292
13,23205	17189
13,23648	17085
13,24093	15798
13,24538	17295
13,24982	15995
13,25427	14877
13,25870	14701
13,26315	16154
13,26758	14250
13,27203	14464
13,27647	14935
13,28092	14966
13,28535	15260
13,28980	14233
13,29423	13617
13,29868	14241
13,30312	13701
13,30757	12881
13,31200	13407
13,31645	13875
13,32088	12140
13,32533	12816
13,32977	13701
13,33422	13023
13,33865	13915
13,34310	19002
13,34753	24453
13,35198	37351
13,35642	58830
13,36087	91718
13,36532	141784
13,36975	205501
13,37420	287753
13,37863	381975
13,38308	474762
13,38752	574342
13,39197	631833
13,39640	669330
13,40085	666784
13,40528	631386
13,40973	568658
13,41417	488361
13,41862	412700
13,42305	337879
13,42750	279171
13,43193	220688
13,43638	177413
13,44082	144107
13,44527	116909
13,44970	96659
13,45415	82260
13,45858	69388
13,46303	61090
13,46747	52922
13,47192	48573
13,47635	44313
13,48080	39091
13,48523	37026
13,48968	32163
13,49413	30991
13,49857	29128
13,50302	27877
13,50745	25542
13,51190	23568
13,51633	23073
13,52078	22668
13,52522	21907
13,52967	21246
13,53410	19421
13,53855	20288
13,54298	19701
13,54743	18477
13,55187	18132
13,55632	17344
13,56075	17018
13,56520	16873
13,56963	16893
13,57408	17162
13,57852	14885
13,58297	16357
13,58740	14055
13,59185	14940
13,59628	14385
13,60073	14561
13,60517	14681
13,60962	14361
13,61407	14371
13,61850	15738
13,62295	13060
13,62738	14019
13,63183	13330
13,63627	13391
13,64072	13595
13,64515	14901
13,64960	14387
13,65403	13973
13,65848	13551
13,66292	13697
13,66737	13040
13,67180	12636
13,67625	12703
13,68068	12389
13,68513	13436
13,68957	13017
13,69402	11098
13,69845	11846
13,70290	12614
13,70733	12472
13,71178	12242
13,71622	12729
13,72067	12939
13,72510	12274
13,72955	12952
13,73400	12475
13,73843	12637
13,74288	13202
13,74732	12416
13,75177	12760
13,75620	12708
13,76065	12158
13,76508	11914
13,76953	13429
13,77397	13341
13,77842	13179
13,78285	12141
13,78730	11603
13,79173	11791
13,79618	13182
13,80062	12918
13,80507	12135
13,80950	13810
13,81395	12199
13,81838	12376
13,82283	11898
13,82727	12552
13,83172	11840
13,83615	13017
13,84060	11155
13,84503	10974
13,84948	11990
13,85393	12682
13,85837	14464
13,86282	16377
13,86725	21943
13,87170	31202
13,87613	50768
13,88058	85474
13,88502	134363
13,88947	218106
13,89390	335945
13,89835	490393
13,90278	699726
13,90723	946349
13,91167	1224065
13,91612	1521218
13,92055	1831557
13,92500	2103995
13,92943	2257125
13,93388	2323581
13,93832	2220447
13,94277	2017204
13,94720	1752059
13,95165	1458891
13,95608	1177938
13,96053	932306
13,96497	745968
13,96942	591764
13,97387	470203
13,97830	385030
13,98275	308937
13,98718	261167
13,99163	223844
13,99607	181965
14,00052	165317
14,00495	145527
14,00940	127562
14,01383	114673
14,01828	103350
14,02272	95689
14,02717	88961
14,03160	81023
14,03605	73574
14,04048	69631
14,04493	67528
14,04937	63513
14,05382	60634
14,05825	58481
14,06270	55432
14,06713	51041
14,07158	49296
14,07602	47154
14,08047	44531
14,08490	42542
14,08935	40511
14,09380	37316
14,09823	38872
14,10268	34708
14,10712	34773
14,11157	33986
14,11600	31213
14,12045	32788
14,12488	31451
14,12933	27971
14,13377	28263
14,13822	28172
14,14265	26561
14,14710	25785
14,15153	26797
14,15598	24689
14,16042	24553
14,16487	24032
14,16930	22673
14,17375	23460
14,17818	23596
14,18263	22601
14,18707	21867
14,19152	22105
14,19595	22183
14,20040	21223
14,20483	22798
14,20928	24675
14,21372	24956
14,21817	31538
14,22262	43249
14,22705	59898
14,23150	84327
14,23593	132022
14,24038	191796
14,24482	273315
14,24927	355881
14,25370	441088
14,25815	526544
14,26258	586150
14,26703	623039
14,27147	623724
14,27592	584702
14,28035	540661
14,28480	475832
14,28923	406817
14,29368	350689
14,29812	316906
14,30257	293037
14,30700	300538
14,31145	319432
14,31588	361535
14,32033	424320
14,32477	492532
14,32922	547159
14,33365	588820
14,33810	607188
14,34255	595318
14,34698	576848
14,35143	525508
14,35587	476794
14,36032	416939
14,36475	381001
14,36920	361471
14,37363	370236
14,37808	404092
14,38252	466374
14,38697	539624
14,39140	637615
14,39585	720057
14,40028	787484
14,40473	816199
14,40917	806977
14,41362	753836
14,41805	677908
14,42250	592327
14,42693	503746
14,43138	409018
14,43582	330364
14,44027	272594
14,44470	226593
14,44915	188228
14,45358	158806
14,45803	136664
14,46248	116015
14,46692	103520
14,47137	93357
14,47580	83203
14,48025	77261
14,48468	68706
14,48913	64166
14,49357	59663
14,49802	56171
14,50245	51780
14,50690	48580
14,51133	45525
14,51578	44379
14,52022	42082
14,52467	38109
14,52910	37162
14,53355	36297
14,53798	35761
14,54243	34037
14,54687	34404
14,55132	33566
14,55575	30202
14,56020	31047
14,56463	28417
14,56908	27946
14,57352	27260
14,57797	27668
14,58242	26744
14,58685	25677
14,59130	25756
14,59573	23213
14,60018	22086
14,60462	24221
14,60907	22255
14,61350	20783
14,61795	23496
14,62238	21565
14,62683	22602
14,63127	20797
14,63572	22152
14,64015	21302
14,64460	19670
14,64903	19963
14,65348	19311
14,65792	18835
14,66237	20649
14,66680	20359
14,67125	18850
14,67568	20072
14,68013	19028
14,68457	19460
14,68902	18347
14,69345	17828
14,69790	19808
14,70235	18350
14,70678	17947
14,71123	18114
14,71567	18202
14,72012	18580
14,72455	18264
14,72900	22535
14,73343	25758
14,73788	31716
14,74232	43437
14,74677	66445
14,75120	99292
14,75565	151788
14,76008	218505
14,76453	309734
14,76897	413445
14,77342	541676
14,77785	657594
14,78230	751796
14,78673	820161
14,79118	827229
14,79562	797608
14,80007	725599
14,80450	627015
14,80895	524144
14,81338	432426
14,81783	347938
14,82228	281327
14,82672	231740
14,83117	194864
14,83560	165592
14,84005	139418
14,84448	121947
14,84893	104264
14,85337	92271
14,85782	83164
14,86225	76106
14,86670	69483
14,87113	61609
14,87558	59699
14,88002	53351
14,88447	47938
14,88890	47625
14,89335	45564
14,89778	42444
14,90223	42177
14,90667	39426
14,91112	38132
14,91555	35457
14,92000	36014
14,92443	35595
14,92888	33588
14,93332	33322
14,93777	31234
14,94220	33300
14,94665	29477
14,95110	29778
14,95553	28603
14,95998	28265
14,96442	27016
14,96887	27997
14,97330	28286
14,97775	27010
14,98218	24399
14,98663	23666
14,99107	26220
14,99552	23401
14,99995	21584
15,00440	22533
15,00883	23983
15,01328	20677
15,01772	22187
15,02217	21431
15,02660	21877
15,03105	21712
15,03548	23379
15,03993	22515
15,04437	21535
15,04882	22823
15,05325	21855
15,05770	23116
15,06213	20927
15,06658	21291
15,07103	20736
15,07547	23021
15,07992	24296
15,08435	26185
15,08880	29846
15,09323	35294
15,09768	47671
15,10212	73246
15,10657	109661
15,11100	165482
15,11545	245449
15,11988	335843
15,12433	444223
15,12877	535093
15,13322	620258
15,13765	668419
15,14210	691161
15,14653	668616
15,15098	615134
15,15542	540874
15,15987	456847
15,16430	373034
15,16875	308931
15,17318	250709
15,17763	203672
15,18207	171816
15,18652	152117
15,19097	141485
15,19540	143765
15,19985	161365
15,20428	192799
15,20873	239839
15,21317	301156
15,21762	366453
15,22205	435314
15,22650	490352
15,23093	529038
15,23538	550470
15,23982	539585
15,24427	514643
15,24870	465991
15,25315	404615
15,25758	342495
15,26203	286716
15,26647	238369
15,27092	191625
15,27535	164478
15,27980	131933
15,28423	113347
15,28868	98055
15,29312	84595
15,29757	75771
15,30200	66384
15,30645	61344
15,31090	55593
15,31533	49786
15,31978	46715
15,32422	45295
15,32867	43334
15,33310	38460
15,33755	38066
15,34198	36527
15,34643	34529
15,35087	35000
15,35532	33389
15,35975	31300
15,36420	30360
15,36863	29851
15,37308	27312
15,37752	29898
15,38197	27773
15,38640	28083
15,39085	27849
15,39528	27831
15,39973	26267
15,40417	26117
15,40862	26322
15,41305	24636
15,41750	23363
15,42193	23742
15,42638	25096
15,43083	22650
15,43527	23461
15,43972	23512
15,44415	22206
15,44860	21434
15,45303	22704
15,45748	21942
15,46192	21158
15,46637	20966
15,47080	21901
15,47525	20832
15,47968	21232
15,48413	20656
15,48857	20412
15,49302	18279
15,49745	21613
15,50190	21095
15,50633	19859
15,51078	20414
15,51522	20697
15,51967	19264
15,52410	19044
15,52855	19387
15,53298	20487
15,53743	18556
15,54187	20492
15,54632	18902
15,55075	19295
15,55520	19511
15,55965	19463
15,56408	19227
15,56853	19128
15,57297	19990
15,57742	21425
15,58185	22542
15,58630	27137
15,59073	36408
15,59518	48679
15,59962	71374
15,60407	105181
15,60850	155329
15,61295	224958
15,61738	321060
15,62183	435902
15,62627	577575
15,63072	751057
15,63515	940675
15,63960	1137159
15,64403	1323624
15,64848	1466958
15,65292	1551948
15,65737	1575676
15,66180	1497744
15,66625	1339674
15,67068	1135401
15,67513	925990
15,67958	737694
15,68402	581178
15,68847	472143
15,69290	387273
15,69735	312300
15,70178	263400
15,70623	229760
15,71067	203014
15,71512	175650
15,71955	158730
15,72400	142162
15,72843	127078
15,73288	115276
15,73732	107034
15,74177	96880
15,74620	92413
15,75065	88134
15,75508	81526
15,75953	77993
15,76397	72576
15,76842	68737
15,77285	65688
15,77730	63923
15,78173	60759
15,78618	57170
15,79062	53502
15,79507	53878
15,79952	50807
15,80395	48372
15,80840	48621
15,81283	44812
15,81728	44354
15,82172	43133
15,82617	43489
15,83060	43740
15,83505	40281
15,83948	37781
15,84393	37899
15,84837	36798
15,85282	36412
15,85725	35782
15,86170	35884
15,86613	35244
15,87058	35895
15,87502	32861
15,87947	32948
15,88390	33289
15,88835	33074
15,89278	31322
15,89723	28975
15,90167	30779
15,90612	29661
15,91055	28513
15,91500	29084
15,91945	28641
15,92388	28180
15,92833	28250
15,93277	24906
15,93722	27207
15,94165	28377
15,94610	27868
15,95053	27442
15,95498	27388
15,95942	26516
15,96387	24136
15,96830	25583
15,97275	24751
15,97718	25277
15,98163	25900
15,98607	24331
15,99052	25778
15,99495	24201
15,99940	25146
16,00383	24793
16,00828	24248
16,01272	26386
16,01717	22377
16,02160	26164
16,02605	23742
16,03048	24763
16,03493	25228
16,03938	25175
16,04382	27966
16,04827	29685
16,05270	34590
16,05715	44036
16,06158	59523
16,06603	83936
16,07047	120823
16,07492	184991
16,07935	253381
16,08380	349205
16,08823	451113
16,09268	559703
16,09712	658657
16,10157	716951
16,10600	765686
16,11045	751474
16,11488	696007
16,11933	627557
16,12377	534973
16,12822	456505
16,13265	376445
16,13710	316448
16,14153	259869
16,14598	219599
16,15042	184521
16,15487	157572
16,15932	135168
16,16375	120532
16,16820	107907
16,17263	95294
16,17708	88768
16,18152	78089
16,18597	74351
16,19040	66599
16,19485	63001
16,19928	60690
16,20373	58955
16,20817	53004
16,21262	50720
16,21705	48606
16,22150	47099
16,22593	48348
16,23038	43334
16,23482	42978
16,23927	40465
16,24370	40145
16,24815	38136
16,25258	36396
16,25703	37482
16,26147	35408
16,26592	36253
16,27035	34613
16,27480	33202
16,27923	33250
16,28368	32604
16,28813	31943
16,29257	31534
16,29702	30459
16,30145	29498
16,30590	28795
16,31033	29339
16,31478	29839
16,31922	30044
16,32367	29841
16,32810	27717
16,33255	27075
16,33698	28708
16,34143	27922
16,34587	25766
16,35032	26260
16,35475	27323
16,35920	25924
16,36363	26399
16,36808	25088
16,37252	25433
16,37697	25498
16,38140	25186
16,38585	24796
16,39028	25032
16,39473	24766
16,39917	22860
16,40362	24304
16,40807	24516
16,41250	24760
16,41695	24979
16,42138	24461
16,42583	25670
16,43027	24963
16,43472	26544
16,43915	27491
16,44360	27496
16,44803	27619
16,45248	27228
16,45692	23973
16,46137	25422
16,46580	25594
16,47025	24630
16,47468	25330
16,47913	24052
16,48357	25077
16,48802	23151
16,49245	24370
16,49690	23818
16,50133	22573
16,50578	24891
16,51022	23121
16,51467	23760
16,51910	23147
16,52355	23722
16,52800	23241
16,53243	22685
16,53688	22606
16,54132	23342
16,54577	24045
16,55020	21883
16,55465	23237
16,55908	22613
16,56353	22308
16,56797	22586
16,57242	21153
16,57685	21319
16,58130	21079
16,58573	22233
16,59018	20645
16,59462	21570
16,59907	22554
16,60350	22535
16,60795	21123
16,61238	23430
16,61683	22365
16,62127	21734
16,62572	22852
16,63015	21048
16,63460	21990
16,63903	22440
16,64348	21496
16,64793	22556
16,65237	22197
16,65682	23362
16,66125	22372
16,66570	22518
16,67013	21248
16,67458	22517
16,67902	22517
16,68347	22925
16,68790	23851
16,69235	24161
16,69678	23517
16,70123	25701
16,70567	25500
16,71012	26406
16,71455	26851
16,71900	27370
16,72343	26534
16,72788	25192
16,73232	25315
16,73677	25529
16,74120	22615
16,74565	24141
16,75008	23225
16,75453	22449
16,75897	22567
16,76342	21422
16,76787	20776
16,77230	21626
16,77675	22377
16,78118	21730
16,78563	22511
16,79007	21804
16,79452	22601
16,79895	21517
16,80340	21267
16,80783	20663
16,81228	22322
16,81672	21661
16,82117	23133
16,82560	23017
16,83005	22875
16,83448	24693
16,83893	23545
16,84337	21056
16,84782	21155
16,85225	22622
16,85670	22169
16,86113	23575
16,86558	21710
16,87002	22270
16,87447	21364
16,87890	23131
16,88335	22859
16,88780	22771
16,89223	21927
16,89668	22652
16,90112	22833
16,90557	22160
16,91000	22193
16,91445	23926
16,91888	21809
16,92333	24479
16,92777	20768
16,93222	21856
16,93665	22827
16,94110	22008
16,94553	23413
16,94998	21938
16,95442	22966
16,95887	22747
16,96330	21628
16,96775	21819
16,97218	23274
16,97663	23609
16,98107	22116
16,98552	21416
16,98995	23447
16,99440	23093
16,99883	23050
17,00328	22743
17,00772	22778
17,01217	22421
17,01662	20895
17,02105	23682
17,02550	22817
17,02993	22669
17,03438	23715
17,03882	21774
17,04327	20783
17,04770	21179
17,05215	21683
17,05658	21830
17,06103	20851
17,06547	22469
17,06992	22012
17,07435	21158
17,07880	20064
17,08323	22668
17,08768	24984
17,09212	21919
17,09657	20897
17,10100	22598
17,10545	20571
17,10988	20859
17,11433	21623
17,11877	21612
17,12322	21457
17,12765	21202
17,13210	24019
17,13655	22001
17,14098	22480
17,14543	22408
17,14987	21749
17,15432	21432
17,15875	22306
17,16320	23050
17,16763	21758
17,17208	22320
17,17652	22090
17,18097	22448
17,18540	21809
17,18985	21609
17,19428	22659
17,19873	21129
17,20317	20945
17,20762	20536
17,21205	22380
17,21650	22774
17,22093	22570
17,22538	22016
17,22982	22328
17,23427	22424
17,23870	21350
17,24315	21701
17,24758	22573
17,25203	22802
17,25648	22356
17,26092	21550
17,26537	21859
17,26980	21446
17,27425	22350
17,27868	20958
17,28313	22216
17,28757	22645
17,29202	23089
17,29645	21979
17,30090	23128
17,30533	23254
17,30978	26090
17,31422	26007
17,31867	31508
17,32310	40360
17,32755	50776
17,33198	70072
17,33643	96338
17,34087	134362
17,34532	187195
17,34975	240079
17,35420	299387
17,35863	352570
17,36308	406603
17,36752	433283
17,37197	452951
17,37642	435536
17,38085	418301
17,38530	379809
17,38973	341444
17,39418	292363
17,39862	247874
17,40307	211464
17,40750	180360
17,41195	151669
17,41638	128359
17,42083	109977
17,42527	98611
17,42972	87731
17,43415	77533
17,43860	72144
17,44303	62681
17,44748	57424
17,45192	53865
17,45637	52405
17,46080	49771
17,46525	46469
17,46968	47667
17,47413	42620
17,47857	40359
17,48302	38154
17,48745	37887
17,49190	35792
17,49635	35418
17,50078	34269
17,50523	34883
17,50967	33246
17,51412	33989
17,51855	31947
17,52300	31705
17,52743	31756
17,53188	31388
17,53632	29648
17,54077	30201
17,54520	30773
17,54965	30069
17,55408	28610
17,55853	28648
17,56297	29066
17,56742	28624
17,57185	28222
17,57630	27207
17,58073	27012
17,58518	27731
17,58962	27131
17,59407	28293
17,59850	27526
17,60295	26293
17,60738	25482
17,61183	25671
17,61628	26371
17,62072	25888
17,62517	25459
17,62960	26333
17,63405	25453
17,63848	27361
17,64293	27039
17,64737	26989
17,65182	24933
17,65625	25799
17,66070	24984
17,66513	26097
17,66958	25636
17,67402	24488
17,67847	24818
17,68290	23149
17,68735	24330
17,69178	24240
17,69623	24119
17,70067	24981
17,70512	24418
17,70955	23205
17,71400	25408
17,71843	25955
17,72288	23861
17,72732	24769
17,73177	24423
17,73620	25219
17,74065	23493
17,74510	24957
17,74953	24672
17,75398	25255
17,75842	24269
17,76287	23965
17,76730	22495
17,77175	24624
17,77618	23438
17,78063	23957
17,78507	24695
17,78952	24642
17,79395	25269
17,79840	25484
17,80283	23311
17,80728	24867
17,81172	25224
17,81617	25517
17,82060	23171
17,82505	24559
17,82948	24685
17,83393	25792
17,83837	24323
17,84282	25153
17,84725	22678
17,85170	23872
17,85613	24998
17,86058	25524
17,86503	24682
17,86947	25245
17,87392	24889
17,87835	25548
17,88280	25779
17,88723	24226
17,89168	23461
17,89612	23350
17,90057	23498
17,90500	23346
17,90945	23333
17,91388	24484
17,91833	25181
17,92277	23418
17,92722	23239
17,93165	24624
17,93610	23060
17,94053	25415
17,94498	24527
17,94942	25765
17,95387	24442
17,95830	26045
17,96275	22478
17,96718	22867
17,97163	23791
17,97607	23718
17,98052	24840
17,98497	24560
17,98940	23699
17,99385	23649
17,99828	23370
18,00273	24078
18,00717	23834
18,01162	23993
18,01605	21817
18,02050	22741
18,02493	25026
18,02938	23738
18,03382	22192
18,03827	23251
18,04270	24631
18,04715	22898
18,05158	23165
18,05603	23226
18,06047	22259
18,06492	24888
18,06935	24702
18,07380	25169
18,07823	23267
18,08268	24034
18,08712	27192
18,09157	25432
18,09600	24466
18,10045	23291
18,10490	23162
18,10933	24279
18,11378	25696
18,11822	24947
18,12267	24734
18,12710	25741
18,13155	23151
18,13598	23096
18,14043	23203
18,14487	24206
18,14932	24494
18,15375	24851
18,15820	25323
18,16263	24811
18,16708	24082
18,17152	23916
18,17597	24319
18,18040	21695
18,18485	23191
18,18928	25424
18,19373	23764
18,19817	26722
18,20262	23999
18,20705	24391
18,21150	23804
18,21593	25007
18,22038	24631
18,22483	23698
18,22927	23818
18,23372	24434
18,23815	23899
18,24260	26429
18,24703	23204
18,25148	23669
18,25592	23780
18,26037	24686
18,26480	25237
18,26925	24546
18,27368	23645
18,27813	22465
18,28257	24986
18,28702	24062
18,29145	23680
18,29590	23342
18,30033	24518
