D:\MassHunter\GCMS\1\data\Amal\Constant flow\100C\100C_1ml-min_10C-min_3.D Wed Sep 18 19:29:32 2024
Start of data points
5,64108,78373
5,64520,78653
5,64933,78193
5,65345,77165
5,65757,76435
5,66170,79180
5,66582,79714
5,66993,77272
5,67407,78603
5,67818,75465
5,68230,80531
5,68643,73679
5,69055,74199
5,69467,73537
5,69878,73340
5,70292,78170
5,70703,74740
5,71115,72642
5,71528,73752
5,71940,72498
5,72352,72989
5,72765,75094
5,73177,71164
5,73588,71121
5,74002,72951
5,74413,69207
5,74825,72422
5,75238,66513
5,75650,69903
5,76062,70165
5,76475,70736
5,76887,69813
5,77298,69612
5,77712,69032
5,78123,67506
5,78535,68765
5,78947,66985
5,79360,68707
5,79772,66058
5,80183,65584
5,80597,67822
5,81008,70065
5,81420,71264
5,81833,71465
5,82245,70475
5,82657,73841
5,83070,72166
5,83482,72162
5,83893,74631
5,84307,73420
5,84718,75428
5,85130,77356
5,85543,75966
5,85955,74419
5,86367,73656
5,86780,75580
5,87192,75227
5,87603,77812
5,88015,75935
5,88428,77371
5,88840,80599
5,89252,79869
5,89665,79411
5,90077,76420
5,90488,78146
5,90902,78040
5,91313,76860
5,91725,77649
5,92138,80024
5,92550,76638
5,92962,76510
5,93375,77655
5,93787,77571
5,94198,74788
5,94612,76131
5,95023,74369
5,95435,72923
5,95848,71562
5,96260,72624
5,96672,70651
5,97085,69839
5,97497,68581
5,97908,66014
5,98320,67824
5,98733,67972
5,99145,66285
5,99557,70735
5,99970,66777
6,00382,65430
6,00793,65163
6,01207,64632
6,01618,62793
6,02030,63829
6,02443,65070
6,02855,63692
6,03267,61333
6,03680,62565
6,04092,62581
6,04503,63103
6,04917,64375
6,05328,74133
6,05740,93114
6,06153,133314
6,06565,198655
6,06977,298941
6,07388,435506
6,07802,585987
6,08213,733893
6,08625,862159
6,09038,960974
6,09450,1016278
6,09862,1033968
6,10275,1009913
6,10687,978370
6,11098,927722
6,11512,880341
6,11923,829671
6,12335,778509
6,12748,731620
6,13160,680201
6,13572,632281
6,13985,593826
6,14397,543070
6,14808,507469
6,15222,477245
6,15633,447790
6,16045,421854
6,16457,392080
6,16870,360353
6,17282,334600
6,17693,310445
6,18107,289655
6,18518,265513
6,18930,248420
6,19343,227243
6,19755,203062
6,20167,187306
6,20580,170604
6,20992,159396
6,21403,143350
6,21817,134459
6,22228,126518
6,22640,117129
6,23053,108678
6,23465,100172
6,23877,95405
6,24290,89939
6,24702,84145
6,25113,82655
6,25525,75882
6,25938,73352
6,26350,69081
6,26762,67314
6,27175,64397
6,27587,63337
6,27998,60518
6,28412,59691
6,28823,57915
6,29235,56266
6,29648,53511
6,30060,52163
6,30472,52298
6,30885,50545
6,31297,50456
6,31708,49366
6,32122,48573
6,32533,47932
6,32945,47493
6,33358,46361
6,33770,46476
6,34182,47203
6,34593,48100
6,35007,44828
6,35418,45958
6,35830,43822
6,36243,42939
6,36655,44878
6,37067,43784
6,37480,42944
6,37892,42479
6,38303,43351
6,38717,44197
6,39128,43126
6,39540,42726
6,39953,39170
6,40365,42892
6,40777,41316
6,41190,41557
6,41602,40721
6,42013,39196
6,42427,41604
6,42838,40214
6,43250,40633
6,43662,42190
6,44075,40678
6,44487,39474
6,44898,39820
6,45312,40668
6,45723,39176
6,46135,37641
6,46548,37931
6,46960,38522
6,47372,40250
6,47785,39009
6,48197,38110
6,48608,39697
6,49022,37761
6,49433,38022
6,49845,36418
6,50258,35663
6,50670,36771
6,51082,37327
6,51495,37017
6,51907,37210
6,52318,35520
6,52730,38412
6,53143,37942
6,53555,36051
6,53967,37276
6,54380,38081
6,54792,37756
6,55203,37334
6,55617,35155
6,56028,37315
6,56440,37249
6,56853,34933
6,57265,36762
6,57677,36796
6,58090,36450
6,58502,35779
6,58913,35076
6,59327,33443
6,59738,36023
6,60150,33953
6,60563,34347
6,60975,35134
6,61387,35509
6,61798,33348
6,62212,34750
6,62623,35254
6,63035,34556
6,63448,34067
6,63860,32789
6,64272,34391
6,64685,34747
6,65097,32710
6,65508,34874
6,65922,31786
6,66333,33292
6,66745,33759
6,67158,32362
6,67570,33267
6,67982,35741
6,68395,33295
6,68807,34562
6,69218,33102
6,69632,33253
6,70043,33428
6,70455,34314
6,70867,33764
6,71280,33933
6,71692,34181
6,72103,32732
6,72517,34501
6,72928,35739
6,73340,33810
6,73753,33681
6,74165,33753
6,74577,32716
6,74990,33665
6,75402,32807
6,75813,30031
6,76227,32716
6,76638,32658
6,77050,31578
6,77463,32080
6,77875,32535
6,78287,30980
6,78700,30136
6,79112,32410
6,79523,31063
6,79935,32001
6,80348,30116
6,80760,31704
6,81172,30563
6,81585,30971
6,81997,30336
6,82408,31470
6,82822,32153
6,83233,28997
6,83645,30097
6,84058,31538
6,84470,30253
6,84882,29132
6,85295,29706
6,85707,29740
6,86118,31431
6,86532,32006
6,86943,31083
6,87355,31965
6,87768,34899
6,88180,32525
6,88592,32600
6,89003,32038
6,89417,33581
6,89828,32033
6,90240,32440
6,90653,32875
6,91065,31253
6,91477,32703
6,91890,31334
6,92302,30846
6,92713,30660
6,93127,30872
6,93538,28729
6,93950,27644
6,94363,29793
6,94775,29958
6,95187,29435
6,95600,27383
6,96012,27710
6,96423,28659
6,96837,27863
6,97248,27544
6,97660,27927
6,98072,28889
6,98485,27384
6,98897,27256
6,99308,26998
6,99722,27363
7,00133,27734
7,00545,27111
7,00958,26840
7,01370,27266
7,01782,28190
7,02195,26644
7,02607,27753
7,03018,27106
7,03432,29374
7,03843,27519
7,04255,27413
7,04668,27453
7,05080,27052
7,05492,26530
7,05905,26351
7,06317,26882
7,06728,26302
7,07140,25543
7,07553,25200
7,07965,25829
7,08377,25308
7,08790,27057
7,09202,26328
7,09613,25591
7,10027,25764
7,10438,25543
7,10850,25779
7,11263,24812
7,11675,26370
7,12087,26192
7,12500,25833
7,12912,25925
7,13323,27014
7,13737,26968
7,14148,25068
7,14560,26112
7,14973,25568
7,15385,26726
7,15797,24616
7,16208,26017
7,16622,26038
7,17033,24393
7,17445,25917
7,17858,26698
7,18270,23755
7,18682,26263
7,19095,24727
7,19507,26104
7,19918,23302
7,20332,24804
7,20743,24530
7,21155,27111
7,21568,25098
7,21980,24484
7,22392,26811
7,22805,26118
7,23217,26574
7,23628,25369
7,24042,25058
7,24453,26415
7,24865,25589
7,25277,26436
7,25690,28088
7,26102,26309
7,26513,25597
7,26927,23640
7,27338,25108
7,27750,24496
7,28163,24546
7,28575,24627
7,28987,25048
7,29400,24284
7,29812,23285
7,30223,23208
7,30637,24902
7,31048,27062
7,31460,32448
7,31873,44732
7,32285,69066
7,32697,122534
7,33110,212310
7,33522,358711
7,33933,544235
7,34345,773158
7,34758,1014397
7,35170,1237096
7,35582,1431791
7,35995,1532878
7,36407,1585154
7,36818,1583174
7,37232,1505910
7,37643,1425229
7,38055,1307027
7,38468,1184893
7,38880,1064300
7,39292,954093
7,39705,842285
7,40117,743623
7,40528,643768
7,40942,562405
7,41353,484220
7,41765,405928
7,42178,347805
7,42590,296412
7,43002,256463
7,43413,214911
7,43827,184920
7,44238,160457
7,44650,136237
7,45063,118449
7,45475,107642
7,45887,94147
7,46300,84712
7,46712,75600
7,47123,70117
7,47537,65607
7,47948,61523
7,48360,56521
7,48773,53029
7,49185,50593
7,49597,48048
7,50010,46697
7,50422,42899
7,50833,41528
7,51247,38951
7,51658,37644
7,52070,38322
7,52483,38078
7,52895,35937
7,53307,35089
7,53718,35180
7,54132,34858
7,54543,32719
7,54955,33928
7,55368,32566
7,55780,30978
7,56192,31080
7,56605,31566
7,57017,29052
7,57428,28409
7,57842,28683
7,58253,31124
7,58665,29162
7,59078,28984
7,59490,27305
7,59902,28991
7,60315,26607
7,60727,28574
7,61138,25741
7,61552,26745
7,61963,25487
7,62375,26299
7,62787,26459
7,63200,26181
7,63612,24931
7,64023,24277
7,64437,25208
7,64848,24750
7,65260,25836
7,65673,24174
7,66085,24254
7,66497,23091
7,66910,23935
7,67322,23770
7,67733,24691
7,68147,26141
7,68558,24307
7,68970,25911
7,69383,24391
7,69795,24348
7,70207,25550
7,70620,23421
7,71032,24420
7,71443,25724
7,71855,24781
7,72268,24168
7,72680,25223
7,73092,24354
7,73505,23735
7,73917,23419
7,74328,23853
7,74742,23341
7,75153,22623
7,75565,22585
7,75978,23964
7,76390,21987
7,76802,21220
7,77215,22169
7,77627,20966
7,78038,22518
7,78452,22145
7,78863,22552
7,79275,21180
7,79688,22748
7,80100,21408
7,80512,20569
7,80923,20224
7,81337,19845
7,81748,22064
7,82160,21256
7,82573,20281
7,82985,21357
7,83397,20127
7,83810,19679
7,84222,20867
7,84633,21105
7,85047,22058
7,85458,22898
7,85870,20379
7,86283,20415
7,86695,21020
7,87107,22767
7,87520,22435
7,87932,21590
7,88343,21618
7,88757,21699
7,89168,20322
7,89580,20352
7,89992,21551
7,90405,21626
7,90817,21252
7,91228,20005
7,91642,21884
7,92053,19407
7,92465,20369
7,92878,20731
7,93290,20449
7,93702,21794
7,94115,19168
7,94527,20222
7,94938,19498
7,95352,19888
7,95763,20066
7,96175,19322
7,96588,19397
7,97000,19962
7,97412,19745
7,97825,18912
7,98237,21032
7,98648,20926
7,99060,21563
7,99473,20075
7,99885,19557
8,00297,20157
8,00710,19543
8,01122,20151
8,01533,18457
8,01947,20132
8,02358,18267
8,02770,18826
8,03183,18700
8,03595,20252
8,04007,23601
8,04420,33258
8,04832,48446
8,05243,83553
8,05657,141308
8,06068,230160
8,06480,346707
8,06893,491357
8,07305,645933
8,07717,784639
8,08128,900110
8,08542,966024
8,08953,973264
8,09365,943294
8,09778,884945
8,10190,800639
8,10602,710889
8,11015,622173
8,11427,533646
8,11838,452302
8,12252,369272
8,12663,310885
8,13075,252473
8,13488,208172
8,13900,173830
8,14312,146360
8,14725,122179
8,15137,105075
8,15548,88322
8,15962,79118
8,16373,68426
8,16785,62479
8,17197,56888
8,17610,49750
8,18022,48160
8,18433,44142
8,18847,40767
8,19258,39719
8,19670,36886
8,20083,34130
8,20495,32593
8,20907,30749
8,21320,30806
8,21732,28421
8,22143,29809
8,22557,27201
8,22968,28010
8,23380,26623
8,23793,26520
8,24205,26119
8,24617,25001
8,25030,24039
8,25442,26161
8,25853,25711
8,26265,24810
8,26678,25171
8,27090,27188
8,27502,27518
8,27915,26672
8,28327,28195
8,28738,28058
8,29152,26790
8,29563,27458
8,29975,24308
8,30388,23467
8,30800,25561
8,31212,24325
8,31625,23474
8,32037,22834
8,32448,21712
8,32862,21602
8,33273,22145
8,33685,24124
8,34098,21865
8,34510,22564
8,34922,22873
8,35333,25060
8,35747,23088
8,36158,23986
8,36570,24769
8,36983,23491
8,37395,22256
8,37807,23955
8,38220,21785
8,38632,20653
8,39043,19930
8,39457,20118
8,39868,18926
8,40280,18176
8,40693,17805
8,41105,18933
8,41517,19049
8,41930,17696
8,42342,15263
8,42753,17003
8,43167,18328
8,43578,17802
8,43990,14643
8,44402,16116
8,44815,17624
8,45227,16841
8,45638,16472
8,46052,17087
8,46463,16481
8,46875,17629
8,47288,17546
8,47700,17273
8,48112,15918
8,48525,16054
8,48937,15449
8,49348,16762
8,49762,17412
8,50173,16970
8,50585,15607
8,50998,15333
8,51410,16773
8,51822,16685
8,52235,16401
8,52647,15663
8,53058,16194
8,53470,15159
8,53883,15622
8,54295,15754
8,54707,16413
8,55120,14772
8,55532,15517
8,55943,15729
8,56357,16422
8,56768,15871
8,57180,15861
8,57593,16068
8,58005,15754
8,58417,16562
8,58830,15814
8,59242,16231
8,59653,16669
8,60067,14592
8,60478,17960
8,60890,16458
8,61303,16153
8,61715,16085
8,62127,16211
8,62538,16023
8,62952,15683
8,63363,16781
8,63775,16738
8,64188,15002
8,64600,15645
8,65012,14608
8,65425,16462
8,65837,15895
8,66248,15794
8,66662,15447
8,67073,15816
8,67485,16713
8,67898,17050
8,68310,14995
8,68722,17351
8,69135,17268
8,69547,16898
8,69958,16753
8,70372,18064
8,70783,16783
8,71195,14687
8,71607,15939
8,72020,15724
8,72432,15725
8,72843,16388
8,73257,15150
8,73668,16245
8,74080,14422
8,74493,13818
8,74905,14820
8,75317,14523
8,75730,15550
8,76142,15553
8,76553,15666
8,76967,14635
8,77378,14343
8,77790,15541
8,78203,16060
8,78615,19272
8,79027,26810
8,79440,48090
8,79852,86478
8,80263,171381
8,80675,314433
8,81088,536904
8,81500,835740
8,81912,1212776
8,82325,1573383
8,82737,1919494
8,83148,2189026
8,83562,2313047
8,83973,2316083
8,84385,2180446
8,84798,1971228
8,85210,1706067
8,85622,1415449
8,86035,1162026
8,86447,939113
8,86858,739047
8,87272,588016
8,87683,463748
8,88095,367141
8,88508,297294
8,88920,237115
8,89332,199048
8,89743,164051
8,90157,142915
8,90568,122570
8,90980,110139
8,91393,93705
8,91805,84097
8,92217,76664
8,92630,69363
8,93042,64079
8,93453,58735
8,93867,56413
8,94278,50661
8,94690,49730
8,95103,43396
8,95515,43597
8,95927,41319
8,96340,38058
8,96752,36487
8,97163,35062
8,97577,34624
8,97988,33341
8,98400,31985
8,98812,30494
8,99225,30707
8,99637,28321
9,00048,29259
9,00462,27614
9,00873,27079
9,01285,26701
9,01698,24832
9,02110,25779
9,02522,25227
9,02935,25221
9,03347,23625
9,03758,22957
9,04172,21480
9,04583,22914
9,04995,22308
9,05408,21444
9,05820,21686
9,06232,22191
9,06645,20498
9,07057,20330
9,07468,19394
9,07880,19808
9,08293,19337
9,08705,19461
9,09117,19733
9,09530,18496
9,09942,17329
9,10353,16237
9,10767,17782
9,11178,18450
9,11590,18912
9,12003,18379
9,12415,17616
9,12827,17650
9,13240,17622
9,13652,16207
9,14063,16828
9,14477,17445
9,14888,17197
9,15300,17030
9,15713,17151
9,16125,16635
9,16537,15691
9,16950,15719
9,17362,16820
9,17773,16660
9,18185,16776
9,18598,16384
9,19010,16559
9,19422,16860
9,19835,16957
9,20247,17289
9,20658,16369
9,21072,14657
9,21483,16158
9,21895,15985
9,22308,16522
9,22720,15404
9,23132,13818
9,23545,14949
9,23957,16479
9,24368,16058
9,24782,14122
9,25193,15302
9,25605,15974
9,26018,16108
9,26430,17038
9,26842,17129
9,27253,17004
9,27667,17543
9,28078,16831
9,28490,15838
9,28903,16928
9,29315,16367
9,29727,15934
9,30140,17001
9,30552,16100
9,30963,17179
9,31377,17009
9,31788,15942
9,32200,15359
9,32613,14055
9,33025,16466
9,33437,15670
9,33850,16787
9,34262,15148
9,34673,15434
9,35087,15995
9,35498,17167
9,35910,17742
9,36322,15974
9,36735,17441
9,37147,18188
9,37558,19868
9,37972,21022
9,38383,24312
9,38795,23722
9,39208,24414
9,39620,25366
9,40032,24695
9,40445,27170
9,40857,25620
9,41268,24939
9,41682,25215
9,42093,23982
9,42505,20730
9,42918,19742
9,43330,22008
9,43742,19149
9,44155,18768
9,44567,17341
9,44978,17471
9,45390,16807
9,45803,15840
9,46215,15977
9,46627,16516
9,47040,14602
9,47452,14967
9,47863,14303
9,48277,14719
9,48688,14196
9,49100,13280
9,49513,14729
9,49925,15101
9,50337,13046
9,50750,13228
9,51162,13826
9,51573,12503
9,51987,13850
9,52398,14189
9,52810,15106
9,53223,13209
9,53635,13930
9,54047,15881
9,54458,20115
9,54872,30945
9,55283,56358
9,55695,101596
9,56108,184255
9,56520,316601
9,56932,494150
9,57345,713865
9,57757,940027
9,58168,1141107
9,58582,1280106
9,58993,1346320
9,59405,1278089
9,59818,1172195
9,60230,1007449
9,60642,838078
9,61055,667058
9,61467,528796
9,61878,411603
9,62292,320997
9,62703,247314
9,63115,201817
9,63527,159678
9,63940,130865
9,64352,108752
9,64763,93387
9,65177,83904
9,65588,68984
9,66000,62073
9,66413,57241
9,66825,48993
9,67237,46250
9,67650,42688
9,68062,38356
9,68473,36535
9,68887,34814
9,69298,31621
9,69710,31798
9,70123,30246
9,70535,29034
9,70947,28879
9,71360,26753
9,71772,25600
9,72183,24408
9,72595,22439
9,73008,22679
9,73420,23454
9,73832,22608
9,74245,20129
9,74657,19561
9,75068,20357
9,75482,19591
9,75893,20765
9,76305,18675
9,76718,18454
9,77130,18976
9,77542,18202
9,77955,17006
9,78367,17575
9,78778,16280
9,79192,16310
9,79603,15623
9,80015,15367
9,80428,16328
9,80840,15923
9,81252,16754
9,81663,16232
9,82077,16063
9,82488,14819
9,82900,14141
9,83313,14535
9,83725,15167
9,84137,15795
9,84550,14876
9,84962,14917
9,85373,13473
9,85787,14863
9,86198,14048
9,86610,15107
9,87023,13691
9,87435,14372
9,87847,12757
9,88260,13215
9,88672,15664
9,89083,13925
9,89497,14617
9,89908,13913
9,90320,13053
9,90732,13799
9,91145,13367
9,91557,13805
9,91968,14387
9,92382,11850
9,92793,14342
9,93205,14140
9,93618,14246
9,94030,15626
9,94442,16416
9,94855,17598
9,95267,18951
9,95678,20374
9,96092,20249
9,96503,19704
9,96915,18443
9,97328,18532
9,97740,18511
9,98152,16245
9,98565,15398
9,98977,15053
9,99388,14497
9,99800,14343
10,00213,14150
10,00625,14507
10,01037,15240
10,01450,14221
10,01862,13007
10,02273,14110
10,02687,13437
10,03098,13826
10,03510,14192
10,03923,12884
10,04335,13031
10,04747,12800
10,05160,12375
10,05572,11337
10,05983,13194
10,06397,12776
10,06808,12011
10,07220,11890
10,07633,12916
10,08045,12028
10,08457,13009
10,08868,13347
10,09282,13106
10,09693,13719
10,10105,13722
10,10518,15664
10,10930,13863
10,11342,14821
10,11755,16144
10,12167,17136
10,12578,17618
10,12992,18147
10,13403,19193
10,13815,19586
10,14228,18793
10,14640,18169
10,15052,16868
10,15465,17393
10,15877,16507
10,16288,17535
10,16702,15797
10,17113,14401
10,17525,14300
10,17937,12966
10,18350,13078
10,18762,13979
10,19173,14224
10,19587,12897
10,19998,13202
10,20410,12177
10,20823,12841
10,21235,12621
10,21647,12978
10,22060,12156
10,22472,13759
10,22883,12400
10,23297,12054
10,23708,11118
10,24120,11829
10,24533,12576
10,24945,13041
10,25357,12072
10,25770,12276
10,26182,13151
10,26593,11756
10,27005,12250
10,27418,12385
10,27830,11105
10,28242,13655
10,28655,19013
10,29067,31010
10,29478,59108
10,29892,122392
10,30303,245418
10,30715,455948
10,31128,781893
10,31540,1226641
10,31952,1744076
10,32365,2271572
10,32777,2679855
10,33188,2951432
10,33602,2960495
10,34013,2767773
10,34425,2417484
10,34838,2000545
10,35250,1584719
10,35662,1218438
10,36073,919791
10,36487,698444
10,36898,530462
10,37310,413659
10,37723,323052
10,38135,263652
10,38547,215573
10,38960,186519
10,39372,159170
10,39783,137942
10,40197,124393
10,40608,111897
10,41020,101019
10,41433,94118
10,41845,87544
10,42257,79223
10,42670,72937
10,43082,68540
10,43493,58928
10,43907,56831
10,44318,54481
10,44730,47396
10,45142,46901
10,45555,42296
10,45967,39730
10,46378,38215
10,46792,34593
10,47203,32895
10,47615,32567
10,48028,29938
10,48440,29232
10,48852,27551
10,49265,27339
10,49677,26001
10,50088,24558
10,50502,24411
10,50913,24420
10,51325,23748
10,51738,23854
10,52150,22302
10,52562,23143
10,52975,20851
10,53387,21990
10,53798,21646
10,54210,21978
10,54623,24071
10,55035,22197
10,55447,23654
10,55860,23796
10,56272,27093
10,56683,27202
10,57097,27278
10,57508,28664
10,57920,26697
10,58333,26665
10,58745,24112
10,59157,23272
10,59570,21055
10,59982,21753
10,60393,20280
10,60807,19080
10,61218,17209
10,61630,18070
10,62043,17491
10,62455,16001
10,62867,15719
10,63278,15310
10,63692,15996
10,64103,14663
10,64515,14598
10,64928,15302
10,65340,15272
10,65752,15675
10,66165,14304
10,66577,14973
10,66988,15971
10,67402,16579
10,67813,16622
10,68225,18449
10,68638,20213
10,69050,19208
10,69462,19947
10,69875,19189
10,70287,18407
10,70698,17705
10,71112,16509
10,71523,15873
10,71935,15458
10,72347,14544
10,72760,14737
10,73172,14105
10,73583,14767
10,73997,12768
10,74408,14875
10,74820,13082
10,75233,12579
10,75645,12983
10,76057,12450
10,76470,13690
10,76882,13299
10,77293,11642
10,77707,12429
10,78118,13261
10,78530,14220
10,78943,12811
10,79355,12554
10,79767,12516
10,80180,12263
10,80592,12996
10,81003,13719
10,81415,15472
10,81828,18916
10,82240,26670
10,82652,46626
10,83065,84818
10,83477,159665
10,83888,286631
10,84302,466861
10,84713,698415
10,85125,955722
10,85538,1180307
10,85950,1332751
10,86362,1385466
10,86775,1345102
10,87187,1205195
10,87598,1027327
10,88012,843505
10,88423,660305
10,88835,518145
10,89248,402078
10,89660,310151
10,90072,253116
10,90485,202832
10,90897,173101
10,91308,143773
10,91720,122515
10,92133,104313
10,92545,88696
10,92957,78466
10,93370,67503
10,93782,58932
10,94193,53963
10,94607,46875
10,95018,44230
10,95430,42619
10,95843,37777
10,96255,35424
10,96667,33425
10,97080,30126
10,97492,28751
10,97903,27991
10,98317,27133
10,98728,26505
10,99140,25809
10,99553,24458
10,99965,23908
11,00377,24240
11,00788,23348
11,01202,26126
11,01613,32409
11,02025,46316
11,02438,82975
11,02850,154754
11,03262,282598
11,03675,476451
11,04087,741962
11,04498,1030954
11,04912,1300264
11,05323,1504883
11,05735,1600791
11,06148,1567562
11,06560,1438202
11,06972,1230199
11,07385,998074
11,07797,781199
11,08208,597104
11,08622,452047
11,09033,341937
11,09445,264597
11,09857,212009
11,10270,169279
11,10682,138576
11,11093,116191
11,11507,99539
11,11918,85205
11,12330,75489
11,12743,68923
11,13155,59423
11,13567,55203
11,13980,50160
11,14392,46031
11,14803,44493
11,15217,39051
11,15628,37940
11,16040,35219
11,16453,34935
11,16865,31772
11,17277,31345
11,17690,27788
11,18102,25618
11,18513,26001
11,18925,25519
11,19338,23944
11,19750,23788
11,20162,20909
11,20575,21287
11,20987,21069
11,21398,21716
11,21812,21231
11,22223,20172
11,22635,20730
11,23048,18901
11,23460,18805
11,23872,17196
11,24285,17266
11,24697,18821
11,25108,16678
11,25522,15649
11,25933,17197
11,26345,17196
11,26758,15283
11,27170,16038
11,27582,15483
11,27993,15487
11,28407,14850
11,28818,14672
11,29230,14612
11,29643,14973
11,30055,15988
11,30467,16002
11,30880,14549
11,31292,13234
11,31703,15577
11,32117,15164
11,32528,14469
11,32940,13559
11,33353,14481
11,33765,13807
11,34177,12949
11,34590,14694
11,35002,14060
11,35413,13956
11,35827,12675
11,36238,13217
11,36650,14897
11,37062,13797
11,37475,15207
11,37887,14224
11,38298,13174
11,38712,12298
11,39123,13618
11,39535,13344
11,39948,13039
11,40360,13039
11,40772,12865
11,41185,13883
11,41597,13340
11,42008,12746
11,42422,14217
11,42833,13355
11,43245,13941
11,43658,13950
11,44070,12866
11,44482,12921
11,44895,13957
11,45307,12846
11,45718,15317
11,46130,14904
11,46543,14338
11,46955,14857
11,47367,14303
11,47780,16770
11,48192,14563
11,48603,13912
11,49017,14182
11,49428,14864
11,49840,14485
11,50253,14036
11,50665,12475
11,51077,12524
11,51490,13966
11,51902,12572
11,52313,13674
11,52727,12897
11,53138,13719
11,53550,18231
11,53963,26498
11,54375,43883
11,54787,86709
11,55198,166267
11,55612,299149
11,56023,500883
11,56435,753088
11,56848,1033651
11,57260,1282713
11,57672,1452450
11,58085,1506802
11,58497,1441687
11,58908,1298224
11,59322,1084948
11,59733,890267
11,60145,701275
11,60558,534671
11,60970,409375
11,61382,307191
11,61795,246637
11,62207,191870
11,62618,156766
11,63032,130791
11,63443,108723
11,63855,92684
11,64267,80685
11,64680,69181
11,65092,64190
11,65503,56290
11,65917,51692
11,66328,47721
11,66740,43725
11,67153,42194
11,67565,38837
11,67977,37488
11,68390,36619
11,68802,32717
11,69213,32009
11,69627,29053
11,70038,29342
11,70450,29649
11,70863,28912
11,71275,30164
11,71687,41794
11,72100,64499
11,72512,131045
11,72923,265294
11,73335,532763
11,73748,966447
11,74160,1607728
11,74572,2421038
11,74985,3387502
11,75397,4269806
11,75808,4924944
11,76222,5252541
11,76633,5143337
11,77045,4672511
11,77458,3926530
11,77870,3116658
11,78282,2361496
11,78695,1771042
11,79107,1320582
11,79518,989461
11,79932,767510
11,80343,606939
11,80755,483067
11,81168,396904
11,81580,327151
11,81992,281906
11,82403,241546
11,82817,212137
11,83228,184373
11,83640,161680
11,84053,145682
11,84465,129652
11,84877,117807
11,85290,109708
11,85702,100133
11,86113,88552
11,86527,87487
11,86938,78850
11,87350,72778
11,87763,69946
11,88175,66289
11,88587,61044
11,89000,59538
11,89412,56682
11,89823,50783
11,90237,49989
11,90648,46467
11,91060,48583
11,91472,44662
11,91885,40343
11,92297,36213
11,92708,39845
11,93122,36688
11,93533,34623
11,93945,33140
11,94358,33188
11,94770,31678
11,95182,30288
11,95595,29795
11,96007,30059
11,96418,28785
11,96832,29191
11,97243,31621
11,97655,26403
11,98068,27798
11,98480,26568
11,98892,25493
11,99305,25735
11,99717,25061
12,00128,22413
12,00540,22249
12,00953,23661
12,01365,23267
12,01777,23986
12,02190,22703
12,02602,22764
12,03013,22964
12,03427,23928
12,03838,23767
12,04250,23551
12,04663,21806
12,05075,22412
12,05487,21696
12,05900,20784
12,06312,20770
12,06723,20341
12,07137,19937
12,07548,18207
12,07960,18635
12,08373,18283
12,08785,17931
12,09197,19594
12,09608,17898
12,10022,18764
12,10433,20356
12,10845,20179
12,11258,18725
12,11670,19226
12,12082,19026
12,12495,19322
12,12907,19324
12,13318,21228
12,13732,21179
12,14143,30550
12,14555,52692
12,14968,98508
12,15380,184883
12,15792,335156
12,16205,545166
12,16617,825115
12,17028,1110194
12,17442,1378192
12,17853,1562301
12,18265,1586242
12,18677,1518949
12,19090,1359860
12,19502,1142379
12,19913,917826
12,20327,721217
12,20738,543536
12,21150,425749
12,21563,325893
12,21975,255270
12,22387,206962
12,22800,168922
12,23212,137768
12,23623,120417
12,24037,102603
12,24448,90187
12,24860,77806
12,25273,74635
12,25685,67506
12,26097,66689
12,26510,63652
12,26922,59099
12,27333,57656
12,27745,51678
12,28158,48641
12,28570,45551
12,28982,41506
12,29395,39954
12,29807,39311
12,30218,40271
12,30632,38710
12,31043,39490
12,31455,41605
12,31868,43044
12,32280,44159
12,32692,47369
12,33105,44313
12,33517,43453
12,33928,40569
12,34342,38823
12,34753,33902
12,35165,32717
12,35578,30131
12,35990,26710
12,36402,25902
12,36813,24609
12,37227,21704
12,37638,23387
12,38050,23210
12,38463,21678
12,38875,24166
12,39287,27715
12,39700,38262
12,40112,64907
12,40523,118827
12,40937,225648
12,41348,409657
12,41760,664410
12,42173,997821
12,42585,1353068
12,42997,1661430
12,43410,1844586
12,43822,1899436
12,44233,1779404
12,44647,1541896
12,45058,1265595
12,45470,993685
12,45883,763098
12,46295,572120
12,46707,440887
12,47118,337896
12,47532,265114
12,47943,211050
12,48355,179455
12,48768,147604
12,49180,126189
12,49592,109464
12,50005,97289
12,50417,85438
12,50828,74551
12,51242,68949
12,51653,63509
12,52065,60670
12,52478,52646
12,52890,51049
12,53302,46610
12,53715,41905
12,54127,42016
12,54538,40525
12,54952,37938
12,55363,34997
12,55775,34186
12,56187,33718
12,56600,30845
12,57012,29867
12,57423,29474
12,57837,27460
12,58248,29328
12,58660,28114
12,59073,26442
12,59485,27130
12,59897,25377
12,60310,23960
12,60722,26191
12,61133,25996
12,61547,26408
12,61958,24803
12,62370,24695
12,62783,26323
12,63195,25816
12,63607,24674
12,64020,24416
12,64432,22944
12,64843,22048
12,65255,21761
12,65668,21991
12,66080,20508
12,66492,20472
12,66905,19874
12,67317,19655
12,67728,20132
12,68142,19012
12,68553,19622
12,68965,18901
12,69378,18396
12,69790,19182
12,70202,19420
12,70615,18283
12,71027,18418
12,71438,16596
12,71852,17401
12,72263,17230
12,72675,18600
12,73088,17976
12,73500,17894
12,73912,15983
12,74323,17791
12,74737,17104
12,75148,18693
12,75560,17758
12,75973,17155
12,76385,16957
12,76797,17297
12,77210,19156
12,77622,17149
12,78033,17557
12,78447,16029
12,78858,16653
12,79270,16610
12,79683,18089
12,80095,18294
12,80507,25749
12,80920,37706
12,81332,67637
12,81743,127627
12,82157,240660
12,82568,431040
12,82980,693926
12,83392,1013642
12,83805,1346165
12,84217,1604172
12,84628,1750515
12,85042,1759796
12,85453,1648382
12,85865,1409468
12,86278,1157997
12,86690,920589
12,87102,707985
12,87515,539187
12,87927,412359
12,88338,323036
12,88752,254307
12,89163,208979
12,89575,171868
12,89988,144165
12,90400,121473
12,90812,107672
12,91225,93463
12,91637,87683
12,92048,77425
12,92460,68213
12,92873,62786
12,93285,58152
12,93697,53840
12,94110,53812
12,94522,48307
12,94933,43040
12,95347,41638
12,95758,40540
12,96170,39760
12,96583,35400
12,96995,34980
12,97407,34898
12,97820,32134
12,98232,31981
12,98643,30702
12,99057,30050
12,99468,29568
12,99880,29269
13,00293,26676
13,00705,27053
13,01117,26719
13,01528,26722
13,01942,25242
13,02353,25583
13,02765,24006
13,03178,23457
13,03590,24365
13,04002,25981
13,04415,29930
13,04827,42967
13,05238,75479
13,05652,147163
13,06063,281898
13,06475,543172
13,06888,939098
13,07300,1485268
13,07712,2170418
13,08125,2915423
13,08537,3599218
13,08948,4072492
13,09362,4212142
13,09773,4007577
13,10185,3495269
13,10597,2856021
13,11010,2233356
13,11422,1692575
13,11833,1267326
13,12247,969558
13,12658,753661
13,13070,604925
13,13483,483089
13,13895,397444
13,14307,330468
13,14720,279145
13,15132,237795
13,15543,209792
13,15957,187882
13,16368,160819
13,16780,146071
13,17193,132293
13,17605,119747
13,18017,109166
13,18430,99197
13,18842,97714
13,19253,86826
13,19665,82358
13,20078,75994
13,20490,71868
13,20902,69232
13,21315,65511
13,21727,62618
13,22138,60961
13,22552,58872
13,22963,52903
13,23375,51419
13,23788,49357
13,24200,48875
13,24612,46714
13,25025,44005
13,25437,44077
13,25848,42799
13,26262,43342
13,26673,40579
13,27085,42522
13,27498,43686
13,27910,61048
13,28322,92960
13,28733,158747
13,29147,284652
13,29558,486620
13,29970,754562
13,30383,1096940
13,30795,1436201
13,31207,1738637
13,31620,1906235
13,32032,1931425
13,32443,1815682
13,32857,1577434
13,33268,1289141
13,33680,1036531
13,34093,806300
13,34505,612765
13,34917,479989
13,35330,378500
13,35742,303530
13,36153,248242
13,36567,204079
13,36978,174017
13,37390,151595
13,37802,135876
13,38215,122747
13,38627,107347
13,39038,101627
13,39452,103905
13,39863,124765
13,40275,176172
13,40688,288561
13,41100,501000
13,41512,863197
13,41925,1380494
13,42337,2022942
13,42748,2728609
13,43162,3385016
13,43573,3817799
13,43985,3934494
13,44398,3752402
13,44810,3303105
13,45222,2736442
13,45635,2160448
13,46047,1664828
13,46458,1267423
13,46870,961026
13,47283,755212
13,47695,590274
13,48107,479903
13,48520,398823
13,48932,339670
13,49343,287341
13,49757,247326
13,50168,220522
13,50580,197727
13,50993,176734
13,51405,159375
13,51817,143648
13,52230,131238
13,52642,124486
13,53053,112285
13,53467,106168
13,53878,98088
13,54290,93698
13,54703,86235
13,55115,83773
13,55527,76515
13,55938,74821
13,56352,71358
13,56763,66978
13,57175,63774
13,57588,61808
13,58000,60819
13,58412,58116
13,58825,52723
13,59237,52903
13,59648,51030
13,60062,48951
13,60473,47889
13,60885,45350
13,61298,45029
13,61710,45131
13,62122,43675
13,62535,42042
13,62947,41680
13,63358,38159
13,63772,40673
13,64183,44331
13,64595,51247
13,65007,68326
13,65420,108059
13,65832,200207
13,66243,343413
13,66657,575286
13,67068,868882
13,67480,1227858
13,67893,1576888
13,68305,1896048
13,68717,2173803
13,69130,2411888
13,69542,2730860
13,69953,3096792
13,70367,3589118
13,70778,4120356
13,71190,4556736
13,71603,4734520
13,72015,4532228
13,72427,4067481
13,72840,3376087
13,73252,2669466
13,73663,2050216
13,74075,1542746
13,74488,1184584
13,74900,919635
13,75312,734477
13,75725,588467
13,76137,490785
13,76548,421455
13,76962,361486
13,77373,315531
13,77785,274655
13,78198,250526
13,78610,221471
13,79022,201124
13,79435,185047
13,79847,167142
13,80258,152862
13,80672,141932
13,81083,135090
13,81495,123847
13,81908,119461
13,82320,112695
13,82732,110635
13,83143,103441
13,83557,99770
13,83968,96556
13,84380,89454
13,84793,87949
13,85205,82008
13,85617,78739
13,86030,78578
13,86442,75142
13,86853,72150
13,87267,71215
13,87678,67079
13,88090,66460
13,88503,61898
13,88915,65419
13,89327,60257
13,89740,58921
13,90152,53951
13,90563,51377
13,90977,53725
13,91388,55832
13,91800,61201
13,92212,77781
13,92625,111214
13,93037,187535
13,93448,327929
13,93862,532155
13,94273,793199
13,94685,1099322
13,95098,1393955
13,95510,1599160
13,95922,1692492
13,96335,1653148
13,96747,1477714
13,97158,1253375
13,97572,1030824
13,97983,805912
13,98395,632406
13,98808,494270
13,99220,388654
13,99632,316210
14,00045,259921
14,00457,216087
14,00868,183376
14,01280,160459
14,01693,139149
14,02105,124833
14,02517,116507
14,02930,104716
14,03342,100600
14,03753,90173
14,04167,89510
14,04578,81331
14,04990,77274
14,05403,73427
14,05815,70215
14,06227,66457
14,06640,62865
14,07052,59478
14,07463,57221
14,07877,54450
14,08288,54915
14,08700,49985
14,09113,50943
14,09525,48050
14,09937,49031
14,10350,44748
14,10762,46528
14,11173,43892
14,11585,45522
14,11998,43486
14,12410,42126
14,12822,41096
14,13235,39092
14,13647,38721
14,14058,37714
14,14472,38609
14,14883,36688
14,15295,35681
14,15708,35814
14,16120,37883
14,16532,35260
14,16945,35858
14,17357,33501
14,17768,34703
14,18182,34720
14,18593,36033
14,19005,34777
14,19418,34794
14,19830,36097
14,20242,37063
14,20653,35745
14,21067,35318
14,21478,33417
14,21890,31468
14,22303,33535
14,22715,32294
14,23127,32286
14,23540,31442
14,23952,29721
14,24363,32668
14,24777,31443
14,25188,30097
14,25600,29205
14,26013,29184
14,26425,29442
14,26837,30386
14,27250,36706
14,27662,50159
14,28073,84119
14,28487,168753
14,28898,327830
14,29310,629275
14,29722,1108027
14,30135,1817364
14,30547,2770213
14,30958,3875680
14,31372,4946883
14,31783,5675557
14,32195,6069454
14,32608,5964732
14,33020,5429180
14,33432,4623234
14,33845,3756934
14,34257,2967288
14,34668,2295181
14,35082,1757440
14,35493,1360064
14,35905,1072877
14,36318,866411
14,36730,706375
14,37142,591088
14,37555,500700
14,37967,429317
14,38378,380274
14,38790,332828
14,39203,297882
14,39615,268772
14,40027,239522
14,40440,224884
14,40852,202646
14,41263,184443
14,41677,175128
14,42088,161270
14,42500,152951
14,42913,140925
14,43325,133522
14,43737,126472
14,44150,120770
14,44562,114287
14,44973,106614
14,45387,101357
14,45798,100146
14,46210,93627
14,46623,89934
14,47035,85053
14,47447,83410
14,47858,81029
14,48272,75479
14,48683,76255
14,49095,75596
14,49508,70800
14,49920,71214
14,50332,68733
14,50745,71927
14,51157,73542
14,51568,83214
14,51982,102225
14,52393,148919
14,52805,231715
14,53218,366949
14,53630,562876
14,54042,812458
14,54455,1085430
14,54867,1299915
14,55278,1450615
14,55692,1501588
14,56103,1416601
14,56515,1259311
14,56927,1062645
14,57340,866772
14,57752,702630
14,58163,544746
14,58577,425169
14,58988,342918
14,59400,288509
14,59813,239581
14,60225,211270
14,60637,207838
14,61050,234853
14,61462,309099
14,61873,448226
14,62287,695310
14,62698,1022117
14,63110,1415492
14,63523,1801654
14,63935,2098972
14,64347,2252078
14,64760,2191832
14,65172,1985711
14,65583,1687074
14,65995,1381060
14,66408,1104144
14,66820,876445
14,67232,685516
14,67645,549206
14,68057,450262
14,68468,370877
14,68882,320660
14,69293,278347
14,69705,243579
14,70118,218777
14,70530,193998
14,70942,172160
14,71355,158657
14,71767,145777
14,72178,138338
14,72592,125844
14,73003,119684
14,73415,113893
14,73828,105526
14,74240,98876
14,74652,94082
14,75063,91603
14,75477,86807
14,75888,85961
14,76300,80834
14,76713,81236
14,77125,74257
14,77537,71592
14,77950,68896
14,78362,72394
14,78773,67972
14,79187,66280
14,79598,62279
14,80010,64145
14,80423,62002
14,80835,62122
14,81247,64083
14,81660,60992
14,82072,60439
14,82483,57830
14,82897,57225
14,83308,56242
14,83720,54952
14,84132,55151
14,84545,52640
14,84957,55319
14,85368,65768
14,85782,84232
14,86193,136767
14,86605,235005
14,87018,415362
14,87430,706143
14,87842,1097605
14,88255,1577764
14,88667,2023868
14,89078,2389649
14,89492,2540739
14,89903,2476120
14,90315,2209516
14,90728,1854158
14,91140,1488165
14,91552,1165089
14,91965,916654
14,92377,724151
14,92788,588709
14,93200,482110
14,93613,401452
14,94025,337103
14,94437,293088
14,94850,258183
14,95262,230705
14,95673,208704
14,96087,187071
14,96498,173161
14,96910,157611
14,97323,151441
14,97735,140534
14,98147,130717
14,98560,123036
14,98972,118322
14,99383,111183
14,99797,107301
15,00208,105314
15,00620,100506
15,01033,99607
15,01445,92845
15,01857,92485
15,02268,87415
15,02682,84649
15,03093,81058
15,03505,79848
15,03918,74266
15,04330,73390
15,04742,69570
15,05155,74030
15,05567,70997
15,05978,70277
15,06392,68880
15,06803,63465
15,07215,63148
15,07628,63509
15,08040,62348
15,08452,59942
15,08865,60455
15,09277,61625
15,09688,68081
15,10102,84478
15,10513,120591
15,10925,197727
15,11337,330036
15,11750,553976
15,12162,842402
15,12573,1185594
15,12987,1508935
15,13398,1740471
15,13810,1848600
15,14223,1840298
15,14635,1675810
15,15047,1435019
15,15460,1183984
15,15872,958754
15,16283,768201
15,16697,608831
15,17108,493548
15,17520,398620
15,17933,330221
15,18345,282048
15,18757,242418
15,19170,218947
15,19582,193140
15,19993,171561
15,20405,157547
15,20818,148134
15,21230,133043
15,21642,126448
15,22055,121377
15,22467,108716
15,22878,104263
15,23292,99045
15,23703,96874
15,24115,87423
15,24528,84926
15,24940,83204
15,25352,83252
15,25765,77380
15,26177,73816
15,26588,75057
15,27002,73822
15,27413,70466
15,27825,70513
15,28238,66034
15,28650,65606
15,29062,65851
15,29473,61431
15,29887,61273
15,30298,60600
15,30710,60315
15,31123,57625
15,31535,55553
15,31947,56962
15,32360,54690
15,32772,56476
15,33183,54086
15,33597,54264
15,34008,53214
15,34420,53564
15,34833,53799
15,35245,52802
15,35657,52093
15,36070,53335
15,36482,50534
15,36893,50635
15,37307,50920
15,37718,51569
15,38130,51442
15,38542,50815
15,38955,49945
15,39367,50508
15,39778,48533
15,40192,48159
15,40603,48560
15,41015,49393
15,41428,49287
15,41840,52162
15,42252,69473
15,42665,95175
15,43077,157112
15,43488,279137
15,43902,495200
15,44313,821266
15,44725,1309396
15,45138,1958291
15,45550,2735868
15,45962,3576008
15,46375,4397855
15,46787,5008119
15,47198,5301449
15,47610,5239217
15,48023,4900869
15,48435,4448923
15,48847,3990763
15,49260,3586036
15,49672,3243922
15,50083,2928832
15,50497,2591444
15,50908,2248307
15,51320,1901231
15,51733,1588812
15,52145,1319694
15,52557,1092406
15,52970,912123
15,53382,767617
15,53793,658743
15,54207,569861
15,54618,499684
15,55030,448151
15,55443,397737
15,55855,363364
15,56267,331911
15,56678,311555
15,57092,284936
15,57503,262560
15,57915,245503
15,58328,231497
15,58740,216086
15,59152,203291
15,59565,193504
15,59977,181126
15,60388,175056
15,60802,164246
15,61213,160915
15,61625,157168
15,62038,151365
15,62450,148058
15,62862,134894
15,63275,134064
15,63687,129939
15,64098,124376
15,64512,125148
15,64923,120369
15,65335,118914
15,65748,114922
15,66160,111613
15,66572,117048
15,66983,114481
15,67397,118932
15,67808,126799
15,68220,153537
15,68633,197066
15,69045,281650
15,69457,426735
15,69870,628930
15,70282,874345
15,70693,1131057
15,71107,1375349
15,71518,1544988
15,71930,1602403
15,72343,1556906
15,72755,1445380
15,73167,1268445
15,73580,1094474
15,73992,948174
15,74403,850222
15,74817,832266
15,75228,900229
15,75640,1069065
15,76052,1348524
15,76465,1696831
15,76877,2105078
15,77288,2542646
15,77702,2925933
15,78113,3184953
15,78525,3343014
15,78938,3337728
15,79350,3181674
15,79762,2874582
15,80175,2495894
15,80587,2096706
15,80998,1734809
15,81412,1432590
15,81823,1176834
15,82235,971638
15,82648,837465
15,83060,711237
15,83472,614970
15,83885,539432
15,84297,482864
15,84708,431476
15,85120,393547
15,85533,363643
15,85945,334173
15,86357,305991
15,86770,288285
15,87182,261168
15,87593,250221
15,88007,229840
15,88418,212704
15,88830,204059
15,89243,195840
15,89655,186474
15,90067,175924
15,90480,164288
15,90892,160340
15,91303,154378
15,91717,150599
15,92128,142074
15,92540,137447
15,92953,136071
15,93365,128427
15,93777,125595
15,94188,121112
15,94602,118911
15,95013,114433
15,95425,112166
15,95838,110097
15,96250,109108
15,96662,101619
15,97075,100871
15,97487,100032
15,97898,95188
15,98312,98965
15,98723,101921
15,99135,114749
15,99548,138552
15,99960,189445
16,00372,278833
16,00785,433067
16,01197,657211
16,01608,983783
16,02022,1362311
16,02433,1775866
16,02845,2105990
16,03257,2313792
16,03670,2383915
16,04082,2295399
16,04493,2072480
16,04907,1781395
16,05318,1501339
16,05730,1238719
16,06143,1023400
16,06555,843205
16,06967,717599
16,07380,617595
16,07792,530451
16,08203,468959
16,08617,409907
16,09028,374398
16,09440,341062
16,09853,306925
16,10265,284134
16,10677,263340
16,11090,242465
16,11502,227728
16,11913,212817
16,12325,199847
16,12738,192703
16,13150,180328
16,13562,174177
16,13975,164836
16,14387,161024
16,14798,156155
16,15212,153990
16,15623,151635
16,16035,144548
16,16448,141585
16,16860,140690
16,17272,137046
16,17685,129546
16,18097,129836
16,18508,123608
16,18922,120967
16,19333,113210
16,19745,108885
16,20158,108725
16,20570,105869
16,20982,101198
16,21393,103181
16,21807,97816
16,22218,97957
16,22630,95966
16,23043,93796
16,23455,91045
16,23867,93942
16,24280,91838
16,24692,91158
16,25103,92213
16,25517,93295
16,25928,109424
16,26340,131846
16,26753,180408
16,27165,271640
16,27577,411807
16,27990,606913
16,28402,862999
16,28813,1158292
16,29227,1431392
16,29638,1638455
16,30050,1756559
16,30462,1751852
16,30875,1687660
16,31287,1550943
16,31698,1330667
16,32112,1135331
16,32523,969605
16,32935,807400
16,33348,689547
16,33760,584873
16,34172,493405
16,34585,434469
16,34997,385337
16,35408,340602
16,35822,313652
16,36233,295632
16,36645,290735
16,37058,306360
16,37470,345391
16,37882,421005
16,38295,528778
16,38707,673313
16,39118,843725
16,39530,999638
16,39943,1137572
16,40355,1218237
16,40767,1236612
16,41180,1221941
16,41592,1127887
16,42003,1012545
16,42417,883058
16,42828,765183
16,43240,659948
16,43653,558133
16,44065,475479
16,44477,409571
16,44890,358447
16,45302,314509
16,45713,280516
16,46127,257796
16,46538,233847
16,46950,212923
16,47363,195879
16,47775,184479
16,48187,174041
16,48598,162166
16,49012,151494
16,49423,145066
16,49835,138397
16,50248,132675
16,50660,126906
16,51072,120165
16,51485,120078
16,51897,114756
16,52308,112880
16,52722,109081
16,53133,103363
16,53545,102552
16,53958,103104
16,54370,99709
16,54782,96777
16,55195,93483
16,55607,94259
16,56018,92237
16,56432,93563
16,56843,90582
16,57255,93035
16,57667,101946
16,58080,117632
16,58492,148785
16,58903,204423
16,59317,298733
16,59728,460762
16,60140,702777
16,60553,1055036
16,60965,1484122
16,61377,2018670
16,61790,2621358
16,62202,3270685
16,62613,3806340
16,63027,4196558
16,63438,4302961
16,63850,4194160
16,64263,3861790
16,64675,3393150
16,65087,2884857
16,65500,2405393
16,65912,2011982
16,66323,1671295
16,66735,1402398
16,67148,1205562
16,67560,1015270
16,67972,902262
16,68385,793394
16,68797,706077
16,69208,632066
16,69622,576283
16,70033,531694
16,70445,477817
16,70858,445298
16,71270,414591
16,71682,384507
16,72095,365844
16,72507,339753
16,72918,323477
16,73332,305285
16,73743,289251
16,74155,270898
16,74568,256366
16,74980,248122
16,75392,238900
16,75803,228105
16,76217,217830
16,76628,208252
16,77040,200588
16,77453,194519
16,77865,188011
16,78277,178401
16,78690,172473
16,79102,169087
16,79513,166906
16,79927,155360
16,80338,155272
16,80750,149998
16,81163,144751
16,81575,141346
16,81987,141073
16,82400,137100
16,82812,130368
16,83223,129519
16,83637,125051
16,84048,121844
16,84460,124747
16,84872,119417
16,85285,117953
16,85697,115215
16,86108,113221
16,86522,114162
16,86933,109555
16,87345,106518
16,87758,107297
16,88170,106220
16,88582,101139
16,88995,98415
16,89407,103090
16,89818,95767
16,90232,97682
16,90643,96112
16,91055,97677
16,91468,96413
16,91880,94904
16,92292,98424
16,92705,100631
16,93117,112912
16,93528,134109
16,93940,170173
16,94353,233141
16,94765,327616
16,95177,480636
16,95590,673415
16,96002,930886
16,96413,1208143
16,96827,1469779
16,97238,1694292
16,97650,1838616
16,98063,1913579
16,98475,1879524
16,98887,1770733
16,99300,1599387
16,99712,1422038
17,00123,1231840
17,00537,1066465
17,00948,915705
17,01360,788137
17,01773,693374
17,02185,606464
17,02597,533133
17,03008,481878
17,03422,434517
17,03833,399678
17,04245,367875
17,04658,341409
17,05070,311237
17,05482,288266
17,05895,269002
17,06307,253059
17,06718,242082
17,07132,227545
17,07543,213991
17,07955,204371
17,08368,196653
17,08780,188422
17,09192,180431
17,09605,175977
17,10017,167354
17,10428,160875
17,10842,158145
17,11253,154260
17,11665,147547
17,12077,145584
17,12490,142309
17,12902,139430
17,13313,132600
17,13727,128242
17,14138,128612
17,14550,123563
17,14963,120529
17,15375,117703
17,15787,111912
17,16200,114449
17,16612,113390
17,17023,109864
17,17437,108044
17,17848,105483
17,18260,102795
17,18673,99859
17,19085,99439
17,19497,95797
17,19910,92729
17,20322,93403
17,20733,94502
17,21145,91736
17,21558,96265
17,21970,93566
17,22382,91449
17,22795,88834
17,23207,88812
17,23618,88440
17,24032,87226
17,24443,84826
17,24855,83466
17,25268,84477
17,25680,83708
17,26092,81794
17,26505,80785
17,26917,80956
17,27328,78843
17,27742,77527
17,28153,77136
17,28565,77096
17,28978,75358
17,29390,77323
17,29802,76894
17,30213,75832
17,30627,76706
17,31038,74360
17,31450,77194
17,31863,78411
17,32275,77397
17,32687,77658
17,33100,76719
17,33512,76191
17,33923,76176
17,34337,71455
17,34748,70919
17,35160,70277
17,35573,67284
17,35985,68106
17,36397,67503
17,36810,65006
17,37222,66457
17,37633,66447
17,38047,64499
17,38458,64664
17,38870,62616
17,39283,62991
17,39695,63412
17,40107,63205
17,40518,62359
17,40932,60807
17,41343,64390
17,41755,63873
17,42168,62696
17,42580,66210
17,42992,69863
17,43405,70353
17,43817,77004
17,44228,79891
17,44642,89630
17,45053,98732
17,45465,105717
17,45878,115302
17,46290,116512
17,46702,127218
17,47115,125324
17,47527,124020
17,47938,118846
17,48352,115683
17,48763,113798
17,49175,104649
17,49587,104532
17,50000,93973
17,50412,88448
17,50823,84963
17,51237,79138
17,51648,74023
17,52060,75741
17,52473,74280
17,52885,69559
17,53297,68775
17,53710,67130
17,54122,66465
17,54533,66271
17,54947,64610
17,55358,60934
17,55770,65250
17,56183,62742
17,56595,63170
17,57007,61699
17,57420,63099
17,57832,60979
17,58243,60322
17,58655,59575
17,59068,60941
17,59480,60089
17,59892,57160
17,60305,59603
17,60717,56439
17,61128,57714
17,61542,58712
17,61953,56819
17,62365,56974
17,62778,55594
17,63190,56397
17,63602,57348
17,64015,57493
17,64427,58858
17,64838,55671
17,65252,57592
17,65663,58363
17,66075,59262
17,66488,56504
17,66900,56244
17,67312,56707
17,67723,52420
17,68137,57114
17,68548,55962
17,68960,52995
17,69373,52205
17,69785,55651
17,70197,53363
17,70610,54407
17,71022,53111
17,71433,50750
17,71847,51332
17,72258,52015
17,72670,52624
17,73083,53902
17,73495,52656
17,73907,53849
17,74320,53909
17,74732,55118
17,75143,53433
17,75557,54963
17,75968,54066
17,76380,52867
17,76792,53909
17,77205,52662
17,77617,54872
17,78028,52530
17,78442,53816
17,78853,53047
17,79265,52843
17,79678,49809
17,80090,52810
17,80502,49521
17,80915,52817
17,81327,50690
17,81738,50932
17,82152,50516
17,82563,50721
17,82975,52024
17,83388,53420
17,83800,51896
17,84212,50157
17,84625,52883
17,85037,50592
17,85448,49655
17,85860,47979
17,86273,50421
17,86685,51148
17,87097,50060
17,87510,49226
17,87922,48885
17,88333,51184
17,88747,50956
17,89158,50728
17,89570,48287
17,89983,49443
17,90395,50089
17,90807,49182
17,91220,47873
17,91632,49002
17,92043,48148
17,92457,48798
17,92868,49143
17,93280,48035
17,93693,47460
17,94105,49807
17,94517,52801
17,94928,48596
17,95342,51253
17,95753,49627
17,96165,48396
17,96578,51345
17,96990,51251
17,97402,47678
17,97815,51736
17,98227,47921
17,98638,48728
17,99052,49545
17,99463,48710
17,99875,53922
18,00288,53019
18,00700,60166
18,01112,68985
18,01525,86262
18,01937,117505
18,02348,155199
18,02762,211851
18,03173,286088
18,03585,367853
18,03997,465828
18,04410,566822
18,04822,650720
18,05233,723449
18,05647,772916
18,06058,786356
18,06470,781023
18,06883,754637
18,07295,709270
18,07707,657010
18,08120,598531
18,08532,541009
18,08943,482279
18,09357,430455
18,09768,390321
18,10180,339644
18,10593,310821
18,11005,278613
18,11417,253945
18,11830,235693
18,12242,212056
18,12653,195449
18,13065,183957
18,13478,170557
18,13890,159123
18,14302,150268
18,14715,142083
18,15127,135385
18,15538,131130
18,15952,121844
18,16363,117847
18,16775,113276
18,17188,106639
18,17600,104108
18,18012,101307
18,18425,97996
18,18837,94853
18,19248,90209
18,19662,89557
18,20073,89934
18,20485,85645
18,20898,85160
18,21310,80858
18,21722,78984
18,22133,76996
18,22547,78303
18,22958,76452
18,23370,74333
18,23783,74244
18,24195,73312
18,24607,73009
18,25020,73114
18,25432,69166
18,25843,68674
18,26257,67776
18,26668,69771
18,27080,69142
18,27493,68126
18,27905,66038
18,28317,65591
18,28730,63562
18,29142,64633
18,29553,64275
18,29967,62337
18,30378,62372
18,30790,61594
18,31202,61166
18,31615,58420
18,32027,64712
18,32438,61511
18,32852,60194
18,33263,62224
18,33675,59320
18,34088,58500
18,34500,57312
18,34912,60096
18,35325,57747
18,35737,57689
18,36148,56537
18,36562,57030
18,36973,55191
18,37385,54907
18,37798,55836
18,38210,54989
18,38622,54025
18,39035,59025
18,39447,55900
18,39858,49772
18,40270,53357
18,40683,53123
18,41095,56032
18,41507,54384
18,41920,54718
18,42332,54149
18,42743,51951
18,43157,56023
18,43568,53085
18,43980,52710
18,44393,52477
18,44805,52971
18,45217,50302
18,45630,51491
18,46042,53474
18,46453,52750
18,46867,50207
18,47278,52238
18,47690,50052
18,48103,50055
18,48515,50693
18,48927,51111
18,49338,52859
18,49752,49185
18,50163,49985
18,50575,48782
18,50988,49955
18,51400,52144
18,51812,50716
18,52225,51495
18,52637,50840
18,53048,50613
18,53462,49119
18,53873,49700
18,54285,49254
18,54698,50526
18,55110,49682
18,55522,46850
18,55935,48490
18,56347,45221
18,56758,50511
18,57172,49627
18,57583,50288
18,57995,49866
18,58407,46206
18,58820,49644
18,59232,49425
18,59643,48058
18,60057,47108
18,60468,47946
18,60880,49860
18,61293,46199
18,61705,47847
18,62117,48240
18,62530,47394
18,62942,47674
18,63353,49120
18,63767,45950
18,64178,46896
18,64590,45763
18,65003,45534
18,65415,47015
18,65827,48156
18,66240,49059
18,66652,45399
18,67063,47258
18,67475,46608
18,67888,47497
18,68300,47152
18,68712,45847
18,69125,47553
18,69537,47404
18,69948,48614
18,70362,47283
18,70773,48326
18,71185,48175
18,71598,46755
18,72010,47469
18,72422,46503
18,72835,46821
18,73247,45903
18,73658,47483
18,74072,49082
18,74483,46794
18,74895,44907
18,75308,48376
18,75720,46250
18,76132,46729
18,76543,45991
18,76957,47978
18,77368,45956
18,77780,46567
18,78193,47395
18,78605,44694
18,79017,46159
18,79430,46734
18,79842,48001
18,80253,43690
18,80667,45342
18,81078,46567
18,81490,45694
18,81903,44128
18,82315,47764
18,82727,43756
18,83140,48589
18,83552,44548
18,83963,45638
18,84377,42822
18,84788,44250
18,85200,45780
18,85612,44867
18,86025,45267
18,86437,42963
18,86848,47252
18,87262,46645
18,87673,44757
18,88085,44103
18,88498,45985
18,88910,45596
18,89322,44034
18,89735,44659
18,90147,43774
18,90558,44503
18,90972,47736
18,91383,44364
18,91795,43783
18,92208,43169
18,92620,45429
18,93032,42594
18,93445,43669
18,93857,43540
18,94268,43231
18,94680,44819
18,95093,42558
18,95505,44464
18,95917,42779
18,96330,42479
18,96742,42433
18,97153,44409
18,97567,46444
18,97978,45634
18,98390,42970
18,98803,43950
18,99215,44731
18,99627,41651
19,00040,46059
19,00452,45155
19,00863,45003
19,01277,46207
19,01688,45800
19,02100,45122
19,02513,45642
19,02925,45311
19,03337,44101
19,03750,47116
19,04162,43922
19,04573,46221
19,04985,48178
19,05398,47888
19,05810,47894
19,06222,45268
19,06635,46356
19,07047,44210
19,07458,45535
19,07872,46903
19,08283,45698
19,08695,47301
19,09108,47385
19,09520,43599
19,09932,44634
19,10345,46879
19,10757,44521
19,11168,47676
19,11582,44783
19,11993,43394
19,12405,46228
19,12818,42827
19,13230,42951
19,13642,43526
19,14053,43127
19,14467,44523
19,14878,45136
19,15290,45825
19,15703,45170
19,16115,44711
19,16527,45943
19,16940,42376
19,17352,44690
19,17763,43393
19,18177,44466
19,18588,44734
19,19000,45327
19,19413,45037
19,19825,44049
19,20237,44403
19,20650,44364
19,21062,44450
19,21473,44978
19,21887,43346
19,22298,44162
19,22710,45036
19,23122,42414
19,23535,41168
19,23947,43125
19,24358,44265
19,24772,42869
19,25183,41046
19,25595,42252
19,26008,40889
19,26420,42445
19,26832,41694
19,27245,43095
19,27657,45124
19,28068,43039
19,28482,44418
19,28893,44237
19,29305,44765
19,29718,43772
19,30130,45370
19,30542,44406
19,30955,44629
19,31367,44448
19,31778,41768
19,32190,43572
19,32603,43823
19,33015,42451
19,33427,42121
19,33840,40565
19,34252,42157
19,34663,42416
19,35077,41857
19,35488,41861
19,35900,43091
19,36313,43441
19,36725,44466
19,37137,43210
19,37550,41748
19,37962,40784
19,38373,41615
19,38787,42098
19,39198,41602
19,39610,41181
19,40023,43055
19,40435,41160
19,40847,43331
19,41258,42173
19,41672,40647
19,42083,38626
19,42495,41599
19,42908,42997
19,43320,40129
19,43732,41560
19,44145,40999
19,44557,39374
19,44968,42981
19,45382,42832
19,45793,41854
19,46205,44259
19,46618,42501
19,47030,41151
19,47442,42356
19,47855,42189
19,48267,42281
19,48678,43205
19,49092,40323
19,49503,44363
19,49915,43130
19,50327,43042
19,50740,43820
19,51152,41944
19,51563,42722
19,51977,46190
19,52388,44786
19,52800,45016
19,53213,45011
19,53625,42340
19,54037,43253
19,54450,40221
19,54862,43057
19,55273,43389
19,55687,42959
19,56098,43587
19,56510,44072
19,56923,42669
19,57335,43529
19,57747,42685
19,58160,42544
19,58572,43596
19,58983,40369
19,59395,42478
19,59808,41192
19,60220,41265
19,60632,41990
19,61045,43220
19,61457,40439
19,61868,41553
19,62282,42114
19,62693,40617
19,63105,42384
19,63518,39251
19,63930,41987
19,64342,42767
19,64755,44370
19,65167,42379
19,65578,41716
19,65992,41682
19,66403,42471
19,66815,42650
19,67228,40299
19,67640,41327
19,68052,41421
19,68463,40933
19,68877,41051
19,69288,42177
19,69700,41864
19,70113,41605
19,70525,42096
19,70937,40403
19,71350,38049
19,71762,41299
19,72173,42042
19,72587,41238
19,72998,40756
19,73410,42203
19,73823,41943
19,74235,39835
19,74647,41422
19,75060,43438
19,75472,40083
19,75883,38381
19,76297,41772
19,76708,41751
19,77120,42485
19,77532,40617
19,77945,39987
19,78357,40546
19,78768,43190
19,79182,38073
19,79593,41967
19,80005,42494
19,80418,42275
19,80830,42603
19,81242,41916
19,81655,41648
19,82067,39948
19,82478,42440
19,82892,40990
19,83303,41877
19,83715,37851
19,84128,39424
19,84540,40811
19,84952,41825
19,85365,37653
19,85777,39471
19,86188,41067
19,86600,42059
19,87013,40139
19,87425,39497
19,87837,44229
19,88250,40968
19,88662,41503
19,89073,39511
19,89487,41478
19,89898,40644
19,90310,38607
19,90723,41603
19,91135,38486
19,91547,38983
19,91960,41086
19,92372,41166
19,92783,41077
19,93197,40399
19,93608,42138
19,94020,41152
19,94433,41123
19,94845,42036
19,95257,41013
19,95668,42635
19,96082,40887
19,96493,39850
19,96905,42878
19,97318,41144
19,97730,40535
19,98142,39598
19,98555,41444
19,98967,40137
19,99378,41779
