D:\MassHunter\GCMS\1\data\Amal\Constant flow\90C\90C_1ml-min_5C-min_1.D Thu Aug 01 16:56:39 2024
Start of data points
6,09083,19582
6,09495,18986
6,09908,20898
6,10320,20684
6,10732,22939
6,11145,27062
6,11557,32514
6,11968,41031
6,12382,59099
6,12793,82400
6,13205,117597
6,13617,158176
6,14030,210111
6,14442,265845
6,14853,318288
6,15267,365551
6,15678,404942
6,16090,423046
6,16503,450722
6,16915,458613
6,17327,454549
6,17740,440478
6,18152,431273
6,18563,399134
6,18977,391337
6,19388,379675
6,19800,350318
6,20213,339814
6,20625,329491
6,21037,312083
6,21450,291346
6,21862,271718
6,22273,262458
6,22685,251422
6,23098,235305
6,23510,226286
6,23922,213488
6,24335,204799
6,24747,194592
6,25158,188190
6,25572,176414
6,25983,166843
6,26395,160216
6,26808,152706
6,27220,144682
6,27632,133895
6,28045,132892
6,28457,121260
6,28868,115909
6,29282,109278
6,29693,103240
6,30105,93549
6,30518,87905
6,30930,83262
6,31342,78586
6,31753,74385
6,32167,67514
6,32578,62554
6,32990,61928
6,33403,55313
6,33815,53819
6,34227,49161
6,34640,47814
6,35052,45173
6,35463,42932
6,35877,41960
6,36288,38186
6,36700,36307
6,37113,34220
6,37525,32025
6,37937,31749
6,38350,29556
6,38762,30040
6,39173,27455
6,39587,27583
6,39998,24419
6,40410,25232
6,40822,25152
6,41235,23986
6,41647,24287
6,42058,22110
6,42472,22390
6,42883,22176
6,43295,19204
6,43708,19557
6,44120,20962
6,44532,19477
6,44945,18995
6,45357,18362
6,45768,19591
6,46182,17935
6,46593,16745
6,47005,15873
6,47418,16851
6,47830,15894
6,48242,16775
6,48655,17387
6,49067,16324
6,49478,14852
6,49890,16245
6,50303,16043
6,50715,15256
6,51127,16106
6,51540,16387
6,51952,15915
6,52363,16060
6,52777,15552
6,53188,14195
6,53600,15080
6,54013,14946
6,54425,15731
6,54837,14899
6,55250,14676
6,55662,13598
6,56073,14678
6,56487,14634
6,56898,12936
6,57310,14460
6,57723,14027
6,58135,14458
6,58547,14600
6,58958,13376
6,59372,14133
6,59783,13409
6,60195,14741
6,60608,13688
6,61020,13176
6,61432,13488
6,61845,12847
6,62257,13877
6,62668,13178
6,63082,13125
6,63493,13958
6,63905,14193
6,64318,13198
6,64730,12840
6,65142,13474
6,65555,12504
6,65967,12481
6,66378,13353
6,66792,12607
6,67203,12330
6,67615,12977
6,68027,12983
6,68440,12835
6,68852,12533
6,69263,12933
6,69677,12153
6,70088,11940
6,70500,12075
6,70913,12406
6,71325,12240
6,71737,12998
6,72150,12325
6,72562,12055
6,72973,11652
6,73387,11345
6,73798,11281
6,74210,12862
6,74623,11555
6,75035,10630
6,75447,11633
6,75860,11953
6,76272,11549
6,76683,11403
6,77095,12606
6,77508,11372
6,77920,11556
6,78332,10900
6,78745,12468
6,79157,11161
6,79568,12067
6,79982,12496
6,80393,10695
6,80805,11484
6,81218,10994
6,81630,10988
6,82042,11661
6,82455,10475
6,82867,10432
6,83278,11193
6,83692,11657
6,84103,11209
6,84515,10963
6,84928,11106
6,85340,10175
6,85752,12052
6,86163,11290
6,86577,10046
6,86988,11892
6,87400,11873
6,87813,10110
6,88225,11853
6,88637,11662
6,89050,10371
6,89462,11146
6,89873,12058
6,90287,11487
6,90698,10740
6,91110,11248
6,91523,10448
6,91935,11347
6,92347,10545
6,92760,10741
6,93172,11214
6,93583,10422
6,93997,10490
6,94408,11123
6,94820,9860
6,95232,10378
6,95645,11056
6,96057,10884
6,96468,9768
6,96882,9975
6,97293,9706
6,97705,10341
6,98118,10407
6,98530,11429
6,98942,10483
6,99355,9558
6,99767,9491
7,00178,9688
7,00592,10264
7,01003,9620
7,01415,10532
7,01828,10014
7,02240,8714
7,02652,10869
7,03065,10362
7,03477,9528
7,03888,9747
7,04300,10218
7,04713,9217
7,05125,10114
7,05537,9299
7,05950,9719
7,06362,9996
7,06773,9843
7,07187,9782
7,07598,9836
7,08010,9513
7,08423,10440
7,08835,10047
7,09247,9508
7,09660,8879
7,10072,9262
7,10483,9882
7,10897,9371
7,11308,9822
7,11720,8871
7,12133,9027
7,12545,9172
7,12957,8897
7,13370,9778
7,13782,9708
7,14193,9053
7,14605,9310
7,15018,9483
7,15430,9387
7,15842,9414
7,16255,9367
7,16667,8948
7,17078,9586
7,17492,8949
7,17903,8770
7,18315,9866
7,18728,8785
7,19140,8955
7,19552,9111
7,19965,8997
7,20377,9473
7,20788,8644
7,21202,8986
7,21613,8932
7,22025,9148
7,22438,8906
7,22850,8926
7,23262,9054
7,23673,8576
7,24087,8561
7,24498,9198
7,24910,8963
7,25323,8938
7,25735,9332
7,26147,9075
7,26560,8684
7,26972,8768
7,27383,9282
7,27797,9021
7,28208,8895
7,28620,8787
7,29033,9100
7,29445,9455
7,29857,9458
7,30270,10169
7,30682,9962
7,31093,9253
7,31507,9413
7,31918,9624
7,32330,10453
7,32742,9011
7,33155,8985
7,33567,8574
7,33978,9172
7,34392,9685
7,34803,9181
7,35215,8900
7,35628,8868
7,36040,9276
7,36452,9166
7,36865,8730
7,37277,8650
7,37688,9343
7,38102,8375
7,38513,8563
7,38925,9096
7,39338,7961
7,39750,8284
7,40162,8204
7,40575,8635
7,40987,8176
7,41398,7851
7,41810,7976
7,42223,8347
7,42635,8732
7,43047,8425
7,43460,8543
7,43872,7944
7,44283,8815
7,44697,8376
7,45108,7918
7,45520,7927
7,45933,7546
7,46345,8358
7,46757,8424
7,47170,7739
7,47582,7982
7,47993,8203
7,48407,7727
7,48818,7745
7,49230,8373
7,49643,7987
7,50055,8164
7,50467,8284
7,50878,7139
7,51292,8169
7,51703,8044
7,52115,7898
7,52528,8826
7,52940,7880
7,53352,8414
7,53765,8076
7,54177,8197
7,54588,8283
7,55002,8337
7,55413,8203
7,55825,8401
7,56238,7884
7,56650,7403
7,57062,7543
7,57475,7834
7,57887,7872
7,58298,7043
7,58712,7002
7,59123,7412
7,59535,7710
7,59947,8566
7,60360,7418
7,60772,7463
7,61183,8483
7,61597,7490
7,62008,7479
7,62420,8260
7,62833,7254
7,63245,7418
7,63657,6778
7,64070,7284
7,64482,8027
7,64893,7291
7,65307,7160
7,65718,7444
7,66130,7030
7,66543,7249
7,66955,8064
7,67367,7004
7,67780,7143
7,68192,7364
7,68603,7109
7,69015,7762
7,69428,6837
7,69840,7238
7,70252,7153
7,70665,7713
7,71077,7055
7,71488,7781
7,71902,6782
7,72313,7210
7,72725,7790
7,73138,7064
7,73550,6948
7,73962,7596
7,74375,7613
7,74787,6757
7,75198,7479
7,75612,7628
7,76023,7249
7,76435,7251
7,76848,7224
7,77260,7812
7,77672,5987
7,78083,8051
7,78497,7423
7,78908,6888
7,79320,7354
7,79733,6777
7,80145,6568
7,80557,7256
7,80970,6380
7,81382,7061
7,81793,7230
7,82207,6744
7,82618,6741
7,83030,7597
7,83443,6674
7,83855,6449
7,84267,6455
7,84680,6825
7,85092,7113
7,85503,7129
7,85917,7080
7,86328,7031
7,86740,6857
7,87152,6805
7,87565,7156
7,87977,7790
7,88388,7103
7,88802,8572
7,89213,11217
7,89625,14086
7,90038,18637
7,90450,25419
7,90862,34259
7,91275,45132
7,91687,60849
7,92098,75160
7,92512,93492
7,92923,108152
7,93335,120197
7,93748,127983
7,94160,138340
7,94572,142007
7,94985,139231
7,95397,137566
7,95808,137812
7,96220,130422
7,96633,124668
7,97045,117699
7,97457,110901
7,97870,103024
7,98282,95439
7,98693,90272
7,99107,84736
7,99518,75674
7,99930,72945
8,00343,67349
8,00755,62063
8,01167,55374
8,01580,49666
8,01992,44876
8,02403,43570
8,02817,37496
8,03228,35528
8,03640,32147
8,04053,30530
8,04465,26144
8,04877,23684
8,05288,22694
8,05702,19593
8,06113,17517
8,06525,17846
8,06938,16099
8,07350,15523
8,07762,14553
8,08175,12686
8,08587,12495
8,08998,11781
8,09412,11184
8,09823,10132
8,10235,10314
8,10648,10410
8,11060,9428
8,11472,9057
8,11885,8039
8,12297,9330
8,12708,8562
8,13122,7772
8,13533,7613
8,13945,8102
8,14357,8008
8,14770,7253
8,15182,7912
8,15593,7555
8,16007,6905
8,16418,6786
8,16830,6631
8,17243,7278
8,17655,6678
8,18067,7336
8,18480,6719
8,18892,7190
8,19303,7289
8,19717,7835
8,20128,6773
8,20540,6459
8,20953,6710
8,21365,6667
8,21777,6550
8,22190,5941
8,22602,6504
8,23013,5902
8,23425,6648
8,23838,6863
8,24250,6429
8,24662,5988
8,25075,6576
8,25487,6889
8,25898,6133
8,26312,5640
8,26723,6569
8,27135,6287
8,27548,5902
8,27960,5198
8,28372,5328
8,28785,5676
8,29197,5506
8,29608,6432
8,30022,5956
8,30433,5444
8,30845,5684
8,31258,6063
8,31670,6077
8,32082,6270
8,32493,6366
8,32907,6195
8,33318,5707
8,33730,5576
8,34143,5677
8,34555,5471
8,34967,5304
8,35380,5685
8,35792,5504
8,36203,6242
8,36617,6373
8,37028,5470
8,37440,5649
8,37853,5809
8,38265,5523
8,38677,5624
8,39090,5596
8,39502,5537
8,39913,6178
8,40327,5198
8,40738,5990
8,41150,5110
8,41562,5384
8,41975,5349
8,42387,5734
8,42798,4984
8,43212,5571
8,43623,5483
8,44035,5691
8,44448,5394
8,44860,5277
8,45272,6019
8,45685,5522
8,46097,5039
8,46508,5215
8,46922,4916
8,47333,5526
8,47745,5125
8,48158,5824
8,48570,5071
8,48982,5010
8,49395,5470
8,49807,6175
8,50218,5388
8,50630,5826
8,51043,6482
8,51455,6371
8,51867,7877
8,52280,7072
8,52692,7705
8,53103,7766
8,53517,8082
8,53928,7863
8,54340,6950
8,54753,7545
8,55165,6610
8,55577,7204
8,55990,5987
8,56402,6074
8,56813,6162
8,57227,5980
8,57638,6466
8,58050,6078
8,58463,5768
8,58875,6144
8,59287,4986
8,59698,5261
8,60112,5441
8,60523,5146
8,60935,5876
8,61348,5883
8,61760,5708
8,62172,5817
8,62585,5321
8,62997,5269
8,63408,5025
8,63822,4988
8,64233,5595
8,64645,5532
8,65058,5208
8,65470,5340
8,65882,5100
8,66295,5129
8,66707,5168
8,67118,5435
8,67532,5107
8,67943,5214
8,68355,5417
8,68767,5463
8,69180,4456
8,69592,4590
8,70003,4353
8,70417,5127
8,70828,4446
8,71240,4527
8,71653,4840
8,72065,4949
8,72477,4579
8,72890,4974
8,73302,4852
8,73713,5360
8,74127,5045
8,74538,4659
8,74950,4684
8,75363,4774
8,75775,4675
8,76187,5285
8,76600,4819
8,77012,4891
8,77423,4780
8,77837,5274
8,78248,4398
8,78660,5062
8,79072,5095
8,79485,5032
8,79897,5076
8,80308,5487
8,80722,4274
8,81133,4367
8,81545,4535
8,81958,5226
8,82370,4867
8,82782,5053
8,83195,4670
8,83607,4445
8,84018,5036
8,84432,5039
8,84843,5129
8,85255,4920
8,85668,4401
8,86080,4697
8,86492,4658
8,86905,5517
8,87317,4578
8,87728,5120
8,88140,4628
8,88553,4704
8,88965,4911
8,89377,4697
8,89790,4727
8,90202,4977
8,90613,4315
8,91027,4199
8,91438,5135
8,91850,4486
8,92263,4503
8,92675,4218
8,93087,4631
8,93500,4599
8,93912,4695
8,94323,4374
8,94737,4707
8,95148,4772
8,95560,4588
8,95973,4377
8,96385,4431
8,96797,4238
8,97208,4758
8,97622,4535
8,98033,4112
8,98445,4351
8,98858,4874
8,99270,4883
8,99682,4851
9,00095,4739
9,00507,4188
9,00918,4419
9,01332,4344
9,01743,5009
9,02155,4322
9,02568,4743
9,02980,4912
9,03392,4264
9,03805,4443
9,04217,3996
9,04628,5093
9,05042,4776
9,05453,4312
9,05865,4454
9,06277,4775
9,06690,3987
9,07102,4757
9,07513,4525
9,07927,4429
9,08338,4461
9,08750,5062
9,09163,4619
9,09575,3853
9,09987,4460
9,10400,4179
9,10812,4357
9,11223,4317
9,11637,4649
9,12048,4000
9,12460,4824
9,12873,4454
9,13285,4250
9,13697,4336
9,14110,4524
9,14522,4627
9,14933,3910
9,15345,4016
9,15758,4854
9,16170,4393
9,16582,4762
9,16995,4521
9,17407,4680
9,17818,4017
9,18232,4635
9,18643,4033
9,19055,4586
9,19468,4265
9,19880,4499
9,20292,4568
9,20705,4612
9,21117,4176
9,21528,5154
9,21942,4686
9,22353,4600
9,22765,4874
9,23178,4808
9,23590,4304
9,24002,5272
9,24413,4418
9,24827,4707
9,25238,4754
9,25650,4554
9,26063,4637
9,26475,3934
9,26887,4701
9,27300,4453
9,27712,4042
9,28123,4048
9,28537,4191
9,28948,3905
9,29360,4253
9,29773,4343
9,30185,4496
9,30597,4173
9,31010,4896
9,31422,4558
9,31833,4750
9,32247,5037
9,32658,4922
9,33070,4911
9,33482,5443
9,33895,5369
9,34307,6155
9,34718,7139
9,35132,6804
9,35543,6436
9,35955,6656
9,36368,6991
9,36780,6551
9,37192,6321
9,37605,6448
9,38017,5658
9,38428,6195
9,38842,5674
9,39253,5948
9,39665,5482
9,40078,5349
9,40490,5467
9,40902,4672
9,41315,5336
9,41727,5138
9,42138,5074
9,42550,4990
9,42963,4662
9,43375,4280
9,43787,4755
9,44200,4311
9,44612,4207
9,45023,3738
9,45437,4698
9,45848,4429
9,46260,4300
9,46673,3930
9,47085,4390
9,47497,3781
9,47910,3982
9,48322,4475
9,48733,3776
9,49147,4097
9,49558,4036
9,49970,4592
9,50383,3751
9,50795,3583
9,51207,3885
9,51618,4563
9,52032,4883
9,52443,3775
9,52855,3802
9,53268,3881
9,53680,5202
9,54092,4436
9,54505,4426
9,54917,3884
9,55328,4308
9,55742,4015
9,56153,4163
9,56565,4164
9,56978,4778
9,57390,4139
9,57802,4073
9,58215,4189
9,58627,4062
9,59038,3815
9,59452,4421
9,59863,3757
9,60275,4265
9,60687,3402
9,61100,4031
9,61512,3966
9,61923,3556
9,62337,3912
9,62748,3634
9,63160,3709
9,63573,3814
9,63985,3708
9,64397,3714
9,64810,3529
9,65222,3692
9,65633,4286
9,66047,3928
9,66458,3455
9,66870,4183
9,67283,3644
9,67695,3945
9,68107,3959
9,68520,4079
9,68932,4393
9,69343,4365
9,69755,3894
9,70168,3681
9,70580,3799
9,70992,3846
9,71405,3772
9,71817,3641
9,72228,4031
9,72642,3737
9,73053,3538
9,73465,3692
9,73878,4531
9,74290,3639
9,74702,3269
9,75115,4028
9,75527,3823
9,75938,4211
9,76352,4111
9,76763,3941
9,77175,3724
9,77588,3846
9,78000,3114
9,78412,3986
9,78823,3639
9,79237,4205
9,79648,4480
9,80060,3203
9,80473,4055
9,80885,3865
9,81297,3806
9,81710,3961
9,82122,3878
9,82533,3951
9,82947,3723
9,83358,3419
9,83770,3365
9,84183,3877
9,84595,3456
9,85007,3418
9,85420,4201
9,85832,3757
9,86243,3640
9,86657,3171
9,87068,3922
9,87480,3516
9,87892,3366
9,88305,3653
9,88717,3757
9,89128,3377
9,89542,3266
9,89953,3990
9,90365,3513
9,90778,3499
9,91190,3469
9,91602,3456
9,92015,3478
9,92427,2820
9,92838,3200
9,93252,3219
9,93663,3536
9,94075,3509
9,94488,3882
9,94900,3692
9,95312,3524
9,95725,3737
9,96137,3632
9,96548,3573
9,96960,3700
9,97373,3430
9,97785,3363
9,98197,3310
9,98610,3357
9,99022,3105
9,99433,3166
9,99847,3676
10,00258,2737
10,00670,3191
10,01083,3733
10,01495,3769
10,01907,3258
10,02320,3468
10,02732,3655
10,03143,3293
10,03557,2765
10,03968,3880
10,04380,3317
10,04793,3351
10,05205,3464
10,05617,2944
10,06028,3462
10,06442,3532
10,06853,3497
10,07265,3782
10,07678,4018
10,08090,4095
10,08502,4298
10,08915,3263
10,09327,3877
10,09738,3680
10,10152,4204
10,10563,3925
10,10975,3419
10,11388,3259
10,11800,3855
10,12212,3911
10,12625,3464
10,13037,3849
10,13448,3918
10,13862,3486
10,14273,3158
10,14685,3678
10,15097,3535
10,15510,3556
10,15922,3100
10,16333,3633
10,16747,3287
10,17158,3332
10,17570,3318
10,17983,3366
10,18395,3544
10,18807,3250
10,19220,3666
10,19632,3511
10,20043,3917
10,20457,2727
10,20868,3217
10,21280,3528
10,21693,3210
10,22105,3621
10,22517,3767
10,22930,3079
10,23342,3310
10,23753,3781
10,24165,3445
10,24578,3659
10,24990,3588
10,25402,3522
10,25815,4040
10,26227,2956
10,26638,3507
10,27052,2889
10,27463,3546
10,27875,3182
10,28288,3138
10,28700,3534
10,29112,3169
10,29525,3771
10,29937,3396
10,30348,3437
10,30762,3123
10,31173,3126
10,31585,3333
10,31998,3244
10,32410,2971
10,32822,3507
10,33233,3527
10,33647,2900
10,34058,2810
10,34470,3040
10,34883,3193
10,35295,3210
10,35707,2986
10,36120,3719
10,36532,2885
10,36943,2527
10,37357,2707
10,37768,3010
10,38180,3546
10,38593,3422
10,39005,3444
10,39417,3360
10,39830,2518
10,40242,3214
10,40653,3358
10,41067,3120
10,41478,3447
10,41890,3101
10,42303,3546
10,42715,3676
10,43127,3257
10,43538,4032
10,43952,3470
10,44363,3541
10,44775,2887
10,45188,2945
10,45600,3572
10,46012,3704
10,46425,2925
10,46837,3066
10,47248,3797
10,47662,3910
10,48073,3205
10,48485,3828
10,48898,3406
10,49310,2942
10,49722,3961
10,50135,2898
10,50547,3607
10,50958,2760
10,51372,3528
10,51783,3159
10,52195,2660
10,52607,3194
10,53020,3051
10,53432,3310
10,53843,3293
10,54257,3649
10,54668,3029
10,55080,3065
10,55493,2792
10,55905,3053
10,56317,2681
10,56730,3134
10,57142,3296
10,57553,3353
10,57967,4087
10,58378,5954
10,58790,8062
10,59203,14161
10,59615,22951
10,60027,36627
10,60440,57690
10,60852,83809
10,61263,123326
10,61675,171450
10,62088,236633
10,62500,306533
10,62912,385449
10,63325,458969
10,63737,539911
10,64148,606052
10,64562,650923
10,64973,693480
10,65385,714673
10,65798,713282
10,66210,696859
10,66622,666156
10,67035,620164
10,67447,568433
10,67858,513537
10,68272,463462
10,68683,406309
10,69095,357313
10,69508,315831
10,69920,268985
10,70332,231626
10,70743,201247
10,71157,171680
10,71568,142090
10,71980,122075
10,72393,107626
10,72805,91020
10,73217,78768
10,73630,68001
10,74042,61704
10,74453,56644
10,74867,48493
10,75278,41574
10,75690,39564
10,76103,35105
10,76515,32322
10,76927,28644
10,77340,27560
10,77752,23675
10,78163,22271
10,78577,21871
10,78988,18587
10,79400,18138
10,79812,16951
10,80225,15074
10,80637,15337
10,81048,15193
10,81462,13474
10,81873,12720
10,82285,12465
10,82698,11252
10,83110,11721
10,83522,11215
10,83935,10814
10,84347,10106
10,84758,8797
10,85172,8968
10,85583,9752
10,85995,7786
10,86408,7280
10,86820,8060
10,87232,7698
10,87645,7758
10,88057,8010
10,88468,7120
10,88880,7534
10,89293,6506
10,89705,6440
10,90117,6744
10,90530,5874
10,90942,7084
10,91353,5856
10,91767,5408
10,92178,6122
10,92590,5344
10,93003,5423
10,93415,5064
10,93827,5057
10,94240,5611
10,94652,5175
10,95063,6444
10,95477,4936
10,95888,4775
10,96300,5688
10,96713,5072
10,97125,5210
10,97537,5065
10,97948,5341
10,98362,5566
10,98773,4919
10,99185,5097
10,99598,3871
11,00010,4592
11,00422,4020
11,00835,4532
11,01247,4704
11,01658,4834
11,02072,4775
11,02483,4284
11,02895,4078
11,03308,3720
11,03720,3700
11,04132,3821
11,04545,4488
11,04957,3404
11,05368,4407
11,05782,3811
11,06193,4249
11,06605,3072
11,07017,2837
11,07430,3854
11,07842,3759
11,08253,3045
11,08667,3010
11,09078,3336
11,09490,3494
11,09903,3279
11,10315,3812
11,10727,3165
11,11140,3411
11,11552,3893
11,11963,3378
11,12377,3197
11,12788,3179
11,13200,2979
11,13613,3618
11,14025,3200
11,14437,3361
11,14850,4018
11,15262,3098
11,15673,3271
11,16085,2906
11,16498,3054
11,16910,2818
11,17322,3784
11,17735,3069
11,18147,2822
11,18558,3499
11,18972,3256
11,19383,2944
11,19795,3512
11,20208,2989
11,20620,3340
11,21032,3543
11,21445,3089
11,21857,2854
11,22268,3519
11,22682,2953
11,23093,3600
11,23505,2827
11,23918,3041
11,24330,2740
11,24742,3227
11,25153,2717
11,25567,3183
11,25978,3513
11,26390,3163
11,26803,2913
11,27215,2808
11,27627,3029
11,28040,2849
11,28452,2963
11,28863,3098
11,29277,2932
11,29688,2662
11,30100,3542
11,30513,2599
11,30925,3079
11,31337,3565
11,31750,2772
11,32162,3846
11,32573,3168
11,32987,2941
11,33398,3243
11,33810,2667
11,34222,2851
11,34635,2857
11,35047,3031
11,35458,2850
11,35872,2601
11,36283,2352
11,36695,2965
11,37108,3064
11,37520,3137
11,37932,2829
11,38345,2890
11,38757,2844
11,39168,2873
11,39582,3220
11,39993,2812
11,40405,2651
11,40818,2519
11,41230,2556
11,41642,2705
11,42055,2156
11,42467,2947
11,42878,2620
11,43290,2098
11,43703,2581
11,44115,2634
11,44527,2416
11,44940,2656
11,45352,2806
11,45763,2526
11,46177,2580
11,46588,2685
11,47000,2486
11,47413,2953
11,47825,2805
11,48237,2892
11,48650,2854
11,49062,2888
11,49473,2321
11,49887,2452
11,50298,2541
11,50710,2557
11,51123,2536
11,51535,2532
11,51947,3143
11,52358,2649
11,52772,2666
11,53183,2536
11,53595,2657
11,54008,2248
11,54420,2845
11,54832,2385
11,55245,2211
11,55657,2322
11,56068,2289
11,56482,2416
11,56893,2633
11,57305,2149
11,57718,3155
11,58130,2093
11,58542,2043
11,58955,3143
11,59367,2358
11,59778,2337
11,60192,2111
11,60603,2609
11,61015,3030
11,61427,2514
11,61840,2423
11,62252,2553
11,62663,2606
11,63077,2350
11,63488,3015
11,63900,2523
11,64313,2179
11,64725,2552
11,65137,2569
11,65550,2295
11,65962,2534
11,66373,2348
11,66787,2195
11,67198,2468
11,67610,2785
11,68023,2355
11,68435,2405
11,68847,2343
11,69260,2543
11,69672,2546
11,70083,2778
11,70495,2985
11,70908,2199
11,71320,3209
11,71732,3098
11,72145,3927
11,72557,4879
11,72968,4814
11,73382,5999
11,73793,5800
11,74205,5203
11,74618,5157
11,75030,4620
11,75442,4322
11,75855,3945
11,76267,3247
11,76678,2477
11,77092,2841
11,77503,2787
11,77915,2507
11,78328,2966
11,78740,2777
11,79152,3053
11,79563,2971
11,79977,2367
11,80388,2178
11,80800,2866
11,81213,2295
11,81625,2272
11,82037,2979
11,82450,2906
11,82862,2514
11,83273,2631
11,83687,2100
11,84098,2563
11,84510,1688
11,84923,2704
11,85335,2975
11,85747,2532
11,86160,1934
11,86572,2495
11,86983,2411
11,87397,2323
11,87808,2497
11,88220,2469
11,88632,2459
11,89045,2700
11,89457,2824
11,89868,2333
11,90282,2292
11,90693,2568
11,91105,2537
11,91518,2047
11,91930,2227
11,92342,2458
11,92755,2240
11,93167,2155
11,93578,2568
11,93992,2243
11,94403,2795
11,94815,2246
11,95228,2261
11,95640,2815
11,96052,2384
11,96465,2217
11,96877,1927
11,97288,2659
11,97702,2897
11,98113,1803
11,98525,2283
11,98937,2319
11,99350,2562
11,99762,1975
12,00173,2855
12,00587,2832
12,00998,2324
12,01410,2482
12,01823,2423
12,02235,2517
12,02647,2513
12,03060,2813
12,03472,2423
12,03883,2957
12,04297,2616
12,04708,3096
12,05120,3332
12,05533,3366
12,05945,3577
12,06357,4444
12,06770,4655
12,07182,4720
12,07593,4499
12,08005,4502
12,08418,4532
12,08830,4449
12,09242,4145
12,09655,4518
12,10067,4511
12,10478,4282
12,10892,4621
12,11303,4789
12,11715,6058
12,12128,8065
12,12540,11064
12,12952,18471
12,13365,28691
12,13777,43588
12,14188,64457
12,14602,96248
12,15013,135796
12,15425,176330
12,15838,224253
12,16250,275400
12,16662,325370
12,17073,376319
12,17487,415406
12,17898,448987
12,18310,465171
12,18723,466622
12,19135,453978
12,19547,434685
12,19960,400594
12,20372,367126
12,20783,328777
12,21197,285262
12,21608,249922
12,22020,211598
12,22433,180901
12,22845,152674
12,23257,127577
12,23670,107241
12,24082,88827
12,24493,76574
12,24907,66583
12,25318,55955
12,25730,49810
12,26142,45397
12,26555,37786
12,26967,33003
12,27378,30099
12,27792,25687
12,28203,23925
12,28615,20754
12,29028,19509
12,29440,17869
12,29852,17426
12,30265,16237
12,30677,14647
12,31088,13273
12,31502,11983
12,31913,13351
12,32325,11248
12,32738,10027
12,33150,10290
12,33562,9626
12,33975,8020
12,34387,9368
12,34798,7795
12,35210,8278
12,35623,7354
12,36035,7366
12,36447,6948
12,36860,6746
12,37272,7379
12,37683,5511
12,38097,6243
12,38508,6296
12,38920,5011
12,39333,5265
12,39745,5473
12,40157,5368
12,40570,5071
12,40982,5441
12,41393,5282
12,41807,5114
12,42218,4047
12,42630,4678
12,43043,4534
12,43455,4163
12,43867,4730
12,44278,4636
12,44692,4471
12,45103,3462
12,45515,3405
12,45928,3325
12,46340,3659
12,46752,3689
12,47165,3598
12,47577,3745
12,47988,3813
12,48402,3991
12,48813,3899
12,49225,3378
12,49638,3379
12,50050,3558
12,50462,2985
12,50875,3058
12,51287,3007
12,51698,3441
12,52112,3316
12,52523,3285
12,52935,3117
12,53347,2742
12,53760,2570
12,54172,2291
12,54583,2815
12,54997,2926
12,55408,3099
12,55820,2784
12,56233,2283
12,56645,2618
12,57057,2625
12,57470,2230
12,57882,2642
12,58293,2649
12,58707,2295
12,59118,2592
12,59530,2168
12,59943,2733
12,60355,2416
12,60767,3066
12,61180,2648
12,61592,2504
12,62003,2745
12,62415,2018
12,62828,2421
12,63240,2524
12,63652,2726
12,64065,2558
12,64477,2273
12,64888,2454
12,65302,2363
12,65713,2687
12,66125,2360
12,66538,2372
12,66950,3174
12,67362,2022
12,67775,2448
12,68187,2051
12,68598,2615
12,69012,2384
12,69423,2870
12,69835,2157
12,70248,2114
12,70660,2439
12,71072,2365
12,71483,2396
12,71897,2405
12,72308,2230
12,72720,2455
12,73133,2699
12,73545,1639
12,73957,2373
12,74370,2352
12,74782,2261
12,75193,2066
12,75607,2619
12,76018,2955
12,76430,2342
12,76843,2479
12,77255,2946
12,77667,3409
12,78080,3369
12,78492,3044
12,78903,3308
12,79317,4080
12,79728,4191
12,80140,4383
12,80552,3531
12,80965,4105
12,81377,3424
12,81788,3451
12,82202,2873
12,82613,2875
12,83025,2734
12,83438,3389
12,83850,3143
12,84262,2856
12,84675,2890
12,85087,2620
12,85498,3054
12,85912,2391
12,86323,2243
12,86735,2133
12,87148,2251
12,87560,1908
12,87972,2257
12,88385,2312
12,88797,2488
12,89208,2387
12,89620,2551
12,90033,2276
12,90445,1827
12,90857,1914
12,91270,1957
12,91682,2206
12,92093,2332
12,92507,2453
12,92918,1834
12,93330,2560
12,93743,1907
12,94155,1944
12,94567,1640
12,94980,2187
12,95392,1555
12,95803,1955
12,96217,1566
12,96628,2759
12,97040,2060
12,97453,2265
12,97865,1868
12,98277,2147
12,98688,1905
12,99102,2002
12,99513,2110
12,99925,1907
13,00338,2056
13,00750,1649
13,01162,1970
13,01575,1880
13,01987,2025
13,02398,2160
13,02812,2228
13,03223,2021
13,03635,1938
13,04048,2155
13,04460,2228
13,04872,2149
13,05285,1853
13,05697,2036
13,06108,2178
13,06522,2029
13,06933,2480
13,07345,2058
13,07757,1941
13,08170,2146
13,08582,2110
13,08993,1727
13,09407,1763
13,09818,2034
13,10230,1834
13,10643,2036
13,11055,1935
13,11467,1580
13,11880,2084
13,12292,2045
13,12703,2344
13,13117,2154
13,13528,1938
13,13940,2089
13,14353,2026
13,14765,1711
13,15177,1859
13,15590,2009
13,16002,1933
13,16413,2458
13,16825,1671
13,17238,2203
13,17650,1833
13,18062,2383
13,18475,2018
13,18887,1682
13,19298,1501
13,19712,2138
13,20123,1616
13,20535,2012
13,20948,2493
13,21360,1840
13,21772,1573
13,22185,1751
13,22597,2091
13,23008,1967
13,23422,2031
13,23833,1406
13,24245,1626
13,24658,1832
13,25070,1800
13,25482,2018
13,25893,1895
13,26307,2391
13,26718,1789
13,27130,1982
13,27543,1898
13,27955,1944
13,28367,2013
13,28780,1698
13,29192,2130
13,29603,2024
13,30017,2254
13,30428,1745
13,30840,1940
13,31253,2574
13,31665,1684
13,32077,1785
13,32490,1684
13,32902,1642
13,33313,2116
13,33727,1789
13,34138,2318
13,34550,1930
13,34962,2256
13,35375,1788
13,35787,2022
13,36198,2523
13,36612,2976
13,37023,2593
13,37435,2646
13,37848,2549
13,38260,2556
13,38672,2502
13,39085,2224
13,39497,1910
13,39908,2526
13,40322,2076
13,40733,1903
13,41145,1694
13,41558,2678
13,41970,1833
13,42382,2386
13,42795,2502
13,43207,2206
13,43618,2109
13,44030,2298
13,44443,2167
13,44855,1749
13,45267,1949
13,45680,2146
13,46092,2290
13,46503,2050
13,46917,1911
13,47328,1767
13,47740,1953
13,48153,2384
13,48565,2097
13,48977,1554
13,49390,1893
13,49802,1721
13,50213,1781
13,50627,1781
13,51038,2148
13,51450,1658
13,51863,1988
13,52275,1814
13,52687,1561
13,53098,1680
13,53512,1630
13,53923,1881
13,54335,1900
13,54748,1928
13,55160,2046
13,55572,2043
13,55985,2049
13,56397,1600
13,56808,1925
13,57222,1323
13,57633,1409
13,58045,1762
13,58458,1739
13,58870,2161
13,59282,1756
13,59695,1776
13,60107,1401
13,60518,1690
13,60932,1923
13,61343,1622
13,61755,1683
13,62167,1779
13,62580,2138
13,62992,1530
13,63403,1632
13,63817,1909
13,64228,1843
13,64640,2007
13,65053,1647
13,65465,2048
13,65877,1485
13,66290,1597
13,66702,1509
13,67113,2192
13,67527,2166
13,67938,3620
13,68350,4671
13,68763,7652
13,69175,13543
13,69587,23129
13,70000,41127
13,70412,66607
13,70823,104319
13,71237,157037
13,71648,225616
13,72060,317462
13,72472,420817
13,72885,541359
13,73297,657945
13,73708,787132
13,74122,890814
13,74533,1016413
13,74945,1090947
13,75358,1126389
13,75770,1119203
13,76182,1100966
13,76595,1034006
13,77007,938812
13,77418,837687
13,77832,730763
13,78243,620802
13,78655,527890
13,79068,434522
13,79480,366708
13,79892,306049
13,80305,251927
13,80717,204338
13,81128,179059
13,81540,144341
13,81953,127038
13,82365,107012
13,82777,93889
13,83190,80041
13,83602,69978
13,84013,62515
13,84427,56554
13,84838,52129
13,85250,47949
13,85663,40482
13,86075,39196
13,86487,36044
13,86900,31532
13,87312,29490
13,87723,27372
13,88137,24638
13,88548,25070
13,88960,21714
13,89373,19830
13,89785,20143
13,90197,18674
13,90608,16958
13,91022,16314
13,91433,16287
13,91845,14784
13,92258,13520
13,92670,13133
13,93082,12697
13,93495,11684
13,93907,11786
13,94318,10824
13,94732,10594
13,95143,8820
13,95555,8859
13,95968,9010
13,96380,9062
13,96792,7818
13,97205,8520
13,97617,7241
13,98028,7221
13,98442,7152
13,98853,7311
13,99265,6335
13,99677,6400
14,00090,6998
14,00502,6697
14,00913,6325
14,01327,6019
14,01738,5715
14,02150,6510
14,02563,4991
14,02975,5193
14,03387,4713
14,03800,4853
14,04212,4252
14,04623,4615
14,05037,4879
14,05448,3716
14,05860,3699
14,06273,4240
14,06685,3736
14,07097,3645
14,07510,3773
14,07922,4010
14,08333,4536
14,08745,3751
14,09158,4045
14,09570,3729
14,09982,3425
14,10395,2816
14,10807,3401
14,11218,3321
14,11632,2586
14,12043,3125
14,12455,2762
14,12868,3310
14,13280,3358
14,13692,2874
14,14105,2659
14,14517,2719
14,14928,2580
14,15342,2486
14,15753,2759
14,16165,2383
14,16578,3035
14,16990,3359
14,17402,2932
14,17813,2620
14,18227,2477
14,18638,2952
14,19050,2997
14,19463,2349
14,19875,2923
14,20287,2795
14,20700,2863
14,21112,2262
14,21523,2508
14,21937,2257
14,22348,2521
14,22760,2239
14,23173,2219
14,23585,2095
14,23997,2649
14,24410,2524
14,24822,2441
14,25233,2704
14,25647,2553
14,26058,2523
14,26470,2735
14,26882,2435
14,27295,2235
14,27707,2902
14,28118,3063
14,28532,2057
14,28943,2974
14,29355,3028
14,29768,2872
14,30180,3141
14,30592,3259
14,31005,2604
14,31417,3602
14,31828,4623
14,32242,4695
14,32653,5655
14,33065,5523
14,33478,6136
14,33890,7434
14,34302,6645
14,34715,7160
14,35127,7407
14,35538,8306
14,35950,7592
14,36363,7441
14,36775,6864
14,37187,7403
14,37600,6672
14,38012,6606
14,38423,5928
14,38837,4971
14,39248,5453
14,39660,5558
14,40073,4938
14,40485,3978
14,40897,3693
14,41310,3131
14,41722,3137
14,42133,2747
14,42547,2721
14,42958,2280
14,43370,1817
14,43783,2332
14,44195,2482
14,44607,2700
14,45018,2195
14,45432,1704
14,45843,1645
14,46255,1882
14,46668,2198
14,47080,1626
14,47492,1943
14,47905,1767
14,48317,1656
14,48728,1918
14,49142,1934
14,49553,2089
14,49965,1903
14,50378,1903
14,50790,1790
14,51202,1944
14,51615,2011
14,52027,1746
14,52438,2127
14,52852,1300
14,53263,1391
14,53675,1768
14,54087,2355
14,54500,1923
14,54912,2233
14,55323,2062
14,55737,1945
14,56148,1452
14,56560,1223
14,56973,1996
14,57385,1818
14,57797,2301
14,58210,1488
14,58622,2021
14,59033,1981
14,59447,2216
14,59858,1352
14,60270,1340
14,60683,1508
14,61095,1681
14,61507,1604
14,61920,1780
14,62332,1749
14,62743,1610
14,63155,1666
14,63568,1177
14,63980,2064
14,64392,1615
14,64805,1234
14,65217,1587
14,65628,1450
14,66042,1561
14,66453,1842
14,66865,1701
14,67278,1529
14,67690,1423
14,68102,1392
14,68515,1677
14,68927,1546
14,69338,1188
14,69752,1534
14,70163,1099
14,70575,1990
14,70988,1479
14,71400,2050
14,71812,1538
14,72223,1405
14,72637,864
14,73048,1522
14,73460,1496
14,73873,1447
14,74285,1201
14,74697,1281
14,75110,1484
14,75522,1592
14,75933,1816
14,76347,1451
14,76758,1668
14,77170,1521
14,77583,1254
14,77995,1312
14,78407,1623
14,78820,1508
14,79232,1543
14,79643,1560
14,80057,1337
14,80468,1910
14,80880,1578
14,81292,985
14,81705,1741
14,82117,1240
14,82528,1864
14,82942,1447
14,83353,1870
14,83765,2007
14,84178,1704
14,84590,1911
14,85002,1333
14,85415,1374
14,85827,1411
14,86238,1083
14,86652,1720
14,87063,1817
14,87475,1921
14,87888,1366
14,88300,1984
14,88712,1552
14,89125,1122
14,89537,1166
14,89948,1561
14,90360,1561
14,90773,1276
14,91185,1727
14,91597,1733
14,92010,1372
14,92422,1363
14,92833,1372
14,93247,1532
14,93658,1451
14,94070,1321
14,94483,1447
14,94895,1339
14,95307,1355
14,95720,1613
14,96132,1524
14,96543,1601
14,96957,1406
14,97368,1521
14,97780,1531
14,98193,1859
14,98605,1731
14,99017,1543
14,99428,2171
14,99842,1683
15,00253,2508
15,00665,3209
15,01078,3340
15,01490,3951
15,01902,3787
15,02315,3743
15,02727,2508
15,03138,2088
15,03552,2236
15,03963,1730
15,04375,2054
15,04788,1285
15,05200,1249
15,05612,1295
15,06025,1241
15,06437,1263
15,06848,1369
15,07262,1504
15,07673,1492
15,08085,1691
15,08497,1908
15,08910,1519
15,09322,1719
15,09733,1661
15,10147,1663
15,10558,1554
15,10970,1575
15,11383,1412
15,11795,1670
15,12207,766
15,12620,1333
15,13032,1616
15,13443,1358
15,13857,1072
15,14268,1402
15,14680,1466
15,15093,1681
15,15505,1319
15,15917,1224
15,16330,1062
15,16742,1222
15,17153,1225
15,17565,1449
15,17978,1395
15,18390,1190
15,18802,845
15,19215,1906
15,19627,1584
15,20038,887
15,20452,1416
15,20863,951
15,21275,1129
15,21688,1255
15,22100,1249
15,22512,1641
15,22925,930
15,23337,1451
15,23748,1405
15,24162,2043
15,24573,2338
15,24985,4210
15,25398,6685
15,25810,11308
15,26222,19487
15,26635,33602
15,27047,53622
15,27458,81803
15,27870,122543
15,28283,174891
15,28695,239273
15,29107,312555
15,29520,386781
15,29932,458407
15,30343,524694
15,30757,576035
15,31168,606806
15,31580,634050
15,31993,627444
15,32405,592941
15,32817,552858
15,33230,500622
15,33642,435291
15,34053,377368
15,34467,318697
15,34878,265713
15,35290,222306
15,35703,184374
15,36115,152772
15,36527,124800
15,36938,105816
15,37352,87471
15,37763,77141
15,38175,62544
15,38588,53765
15,39000,46957
15,39412,40959
15,39825,35544
15,40237,31262
15,40648,28652
15,41062,26060
15,41473,22455
15,41885,20528
15,42298,18889
15,42710,18915
15,43122,16840
15,43535,14414
15,43947,14800
15,44358,14019
15,44772,11801
15,45183,10811
15,45595,9993
15,46007,10552
15,46420,9682
15,46832,10202
15,47243,9122
15,47657,7956
15,48068,7573
15,48480,6617
15,48893,7424
15,49305,6317
15,49717,6166
15,50130,5730
15,50542,5610
15,50953,6037
15,51367,5765
15,51778,5007
15,52190,4715
15,52603,4877
15,53015,4347
15,53427,4162
15,53840,4318
15,54252,4403
15,54663,3152
15,55075,3556
15,55488,3965
15,55900,3735
15,56312,2747
15,56725,3276
15,57137,3397
15,57548,3251
15,57962,2822
15,58373,2976
15,58785,3382
15,59198,2818
15,59610,2445
15,60022,2858
15,60435,2066
15,60847,2380
15,61258,2329
15,61672,1834
15,62083,2496
15,62495,2449
15,62908,1861
15,63320,1665
15,63732,2368
15,64143,1947
15,64557,1937
15,64968,1918
15,65380,2436
15,65793,2007
15,66205,2329
15,66617,1686
15,67030,1520
15,67442,1374
15,67853,2275
15,68267,1472
15,68678,2470
15,69090,2408
15,69503,1673
15,69915,1777
15,70327,2195
15,70740,1599
15,71152,1824
15,71563,1311
15,71977,1657
15,72388,1813
15,72800,1894
15,73212,2031
15,73625,1553
15,74037,1744
15,74448,1833
15,74862,2180
15,75273,1461
15,75685,1544
15,76098,1529
15,76510,1936
15,76922,1437
15,77335,1691
15,77747,1354
15,78158,1079
15,78572,1349
15,78983,1493
15,79395,1222
15,79808,1578
15,80220,1306
15,80632,1469
15,81045,1482
15,81457,1600
15,81868,1664
15,82280,1198
15,82693,1149
15,83105,1262
15,83517,1404
15,83930,1197
15,84342,878
15,84753,1254
15,85167,1772
15,85578,1346
15,85990,1351
15,86403,1438
15,86815,1319
15,87227,1323
15,87640,1347
15,88052,1342
15,88463,1309
15,88877,1031
15,89288,1188
15,89700,1047
15,90113,1566
15,90525,1098
15,90937,1119
15,91348,930
15,91762,764
15,92173,1474
15,92585,1527
15,92998,1192
15,93410,1268
15,93822,870
15,94235,987
15,94647,1211
15,95058,1287
15,95472,833
15,95883,1419
15,96295,1234
15,96708,1358
15,97120,1377
15,97532,968
15,97945,1310
15,98357,831
15,98768,1076
15,99182,1239
15,99593,1249
16,00005,1700
16,00417,2005
16,00830,1717
16,01242,2240
16,01653,2922
16,02067,2719
16,02478,2814
16,02890,2648
16,03303,3168
16,03715,2544
16,04127,3134
16,04540,4031
16,04952,2850
16,05363,2674
16,05777,2748
16,06188,2059
16,06600,2762
16,07013,2709
16,07425,2963
16,07837,2732
16,08250,3639
16,08662,3802
16,09073,3293
16,09485,3845
16,09898,3922
16,10310,2959
16,10722,2413
16,11135,3866
16,11547,2439
16,11958,3074
16,12372,3364
16,12783,1690
16,13195,2499
16,13608,1612
16,14020,1712
16,14432,1763
16,14845,1688
16,15257,1219
16,15668,1589
16,16082,1432
16,16493,1100
16,16905,1219
16,17318,1170
16,17730,1315
16,18142,1212
16,18553,804
16,18967,1467
16,19378,1473
16,19790,1056
16,20203,857
16,20615,1668
16,21027,804
16,21440,1549
16,21852,1507
16,22263,982
16,22677,1235
16,23088,1044
16,23500,1005
16,23913,1117
16,24325,877
16,24737,1031
16,25150,1150
16,25562,1088
16,25973,985
16,26387,730
16,26798,1447
16,27210,1437
16,27622,1247
16,28035,922
16,28447,916
16,28858,1102
16,29272,582
16,29683,1229
16,30095,553
16,30508,685
16,30920,1382
16,31332,1328
16,31745,1057
16,32157,1020
16,32568,1165
16,32982,1187
16,33393,931
16,33805,732
16,34218,1330
16,34630,1132
16,35042,904
16,35455,1051
16,35867,1016
16,36278,816
16,36690,787
16,37103,637
16,37515,1316
16,37927,823
16,38340,825
16,38752,1518
16,39163,990
16,39577,1008
16,39988,826
16,40400,746
16,40813,922
16,41225,972
16,41637,563
16,42050,831
16,42462,883
16,42873,762
16,43287,756
16,43698,886
16,44110,1363
16,44523,877
16,44935,1191
16,45347,956
16,45758,798
16,46172,1414
16,46583,1115
16,46995,1195
16,47408,1273
16,47820,650
16,48232,1639
16,48645,530
16,49057,1365
16,49468,831
16,49882,1018
16,50293,1254
16,50705,1452
16,51118,1171
16,51530,960
16,51942,1581
16,52355,1278
16,52767,1591
16,53178,1582
16,53592,1621
16,54003,2205
16,54415,2540
16,54827,3256
16,55240,3111
16,55652,3491
16,56063,4088
16,56477,4704
16,56888,4013
16,57300,4386
16,57713,4864
16,58125,3825
16,58537,3683
16,58950,3707
16,59362,3050
16,59773,3122
16,60187,2775
16,60598,2838
16,61010,2263
16,61423,1969
16,61835,1671
16,62247,2126
16,62660,1247
16,63072,1867
16,63483,1625
16,63895,1569
16,64308,1228
16,64720,1042
16,65132,1258
16,65545,984
16,65957,626
16,66368,1166
16,66782,918
16,67193,831
16,67605,1137
16,68018,1175
16,68430,1281
16,68842,1092
16,69255,1132
16,69667,818
16,70078,1247
16,70492,669
16,70903,764
16,71315,928
16,71728,871
16,72140,1377
16,72552,1528
16,72963,2083
16,73377,3137
16,73788,2242
16,74200,2416
16,74613,3532
16,75025,3420
16,75437,4450
16,75850,4757
16,76262,5379
16,76673,4490
16,77087,5612
16,77498,6102
16,77910,7344
16,78323,8919
16,78735,13690
16,79147,23236
16,79560,37558
16,79972,60532
16,80383,97051
16,80797,145916
16,81208,220900
16,81620,314960
16,82032,427691
16,82445,576812
16,82857,716029
16,83268,877348
16,83682,1040017
16,84093,1185864
16,84505,1315249
16,84918,1376561
16,85330,1413378
16,85742,1390478
16,86155,1302191
16,86567,1200694
16,86978,1062432
16,87392,923627
16,87803,777421
16,88215,641163
16,88628,525612
16,89040,431930
16,89452,354142
16,89865,286892
16,90277,239976
16,90688,195223
16,91102,162857
16,91513,138703
16,91925,118367
16,92337,102882
16,92750,86694
16,93162,77778
16,93573,69724
16,93987,59635
16,94398,56424
16,94810,48985
16,95223,45325
16,95635,39426
16,96047,36923
16,96460,34625
16,96872,32289
16,97283,28372
16,97697,26410
16,98108,24551
16,98520,23046
16,98933,21278
16,99345,19597
16,99757,18720
17,00170,17906
17,00582,16450
17,00993,15785
17,01405,14294
17,01818,13973
17,02230,13294
17,02642,12062
17,03055,12062
17,03467,10396
17,03878,10627
17,04292,10490
17,04703,9204
17,05115,7876
17,05528,9307
17,05940,9298
17,06352,7787
17,06765,7669
17,07177,7697
17,07588,8076
17,08002,6919
17,08413,5709
17,08825,5666
17,09238,6476
17,09650,5451
17,10062,5463
17,10473,5384
17,10887,4819
17,11298,5294
17,11710,4669
17,12123,4004
17,12535,4724
17,12947,4045
17,13360,4169
17,13772,3631
17,14183,3680
17,14597,3245
17,15008,3642
17,15420,3722
17,15833,3278
17,16245,3246
17,16657,2696
17,17070,2888
17,17482,3468
17,17893,3005
17,18307,2608
17,18718,2895
17,19130,2823
17,19542,2155
17,19955,1785
17,20367,1910
17,20778,1740
17,21192,2349
17,21603,1696
17,22015,2223
17,22428,2234
17,22840,2134
17,23252,2092
17,23665,2150
17,24077,1672
17,24488,1981
17,24902,1590
17,25313,1578
17,25725,1922
17,26138,2438
17,26550,1946
17,26962,1123
17,27375,1814
17,27787,1566
17,28198,1470
17,28610,1644
17,29023,1530
17,29435,1429
17,29847,2026
17,30260,1357
17,30672,1269
17,31083,1107
17,31497,1262
17,31908,1281
17,32320,1063
17,32733,1083
17,33145,1587
17,33557,1602
17,33970,1510
17,34382,1536
17,34793,1119
17,35207,1292
17,35618,1566
17,36030,1060
17,36443,1202
17,36855,1457
17,37267,1435
17,37678,1182
17,38092,1615
17,38503,1383
17,38915,1000
17,39328,1684
17,39740,971
17,40152,986
17,40565,1295
17,40977,1210
17,41388,1240
17,41802,1222
17,42213,1271
17,42625,1225
17,43038,892
17,43450,1278
17,43862,1221
17,44275,1332
17,44687,904
17,45098,1150
17,45512,1044
17,45923,1071
17,46335,1079
17,46747,1269
17,47160,1034
17,47572,1144
17,47983,792
17,48397,1261
17,48808,1258
17,49220,674
17,49633,1253
17,50045,780
17,50457,644
17,50870,1207
17,51282,462
17,51693,719
17,52107,573
17,52518,448
17,52930,608
17,53343,958
17,53755,1216
17,54167,1006
17,54580,1260
17,54992,867
17,55403,1087
17,55815,1109
17,56228,1371
17,56640,1371
17,57052,1720
17,57465,1343
17,57877,1592
17,58288,1804
17,58702,2705
17,59113,2513
17,59525,2534
17,59938,2360
17,60350,2325
17,60762,1787
17,61175,1827
17,61587,2327
17,61998,2181
17,62412,1565
17,62823,1329
17,63235,1749
17,63648,1342
17,64060,1327
17,64472,624
17,64883,1189
17,65297,1195
17,65708,1340
17,66120,981
17,66533,1228
17,66945,832
17,67357,972
17,67770,909
17,68182,1007
17,68593,637
17,69007,633
17,69418,1215
17,69830,929
17,70243,1161
17,70655,874
17,71067,819
17,71480,1217
17,71892,1218
17,72303,694
17,72717,1066
17,73128,1074
17,73540,717
17,73952,1097
17,74365,572
17,74777,1004
17,75188,1289
17,75602,826
17,76013,890
17,76425,544
17,76838,820
17,77250,455
17,77662,883
17,78075,700
17,78487,881
17,78898,1354
17,79312,1870
17,79723,1526
17,80135,3196
17,80548,4509
17,80960,8722
17,81372,17298
17,81785,30455
17,82197,47944
17,82608,76162
17,83020,112816
17,83433,166413
17,83845,222401
17,84257,302941
17,84670,375067
17,85082,456673
17,85493,522066
17,85907,581487
17,86318,626892
17,86730,654617
17,87143,641204
17,87555,619550
17,87967,577518
17,88380,525625
17,88792,458516
17,89203,400475
17,89617,345064
17,90028,286333
17,90440,238324
17,90853,195297
17,91265,161196
17,91677,134372
17,92088,112953
17,92502,92640
17,92913,79344
17,93325,63767
17,93738,57221
17,94150,49131
17,94562,43288
17,94975,37412
17,95387,33181
17,95798,30128
17,96212,28170
17,96623,23509
17,97035,22388
17,97448,20298
17,97860,16894
17,98272,16828
17,98685,15174
17,99097,14865
17,99508,12618
17,99922,11332
18,00333,12273
18,00745,9534
18,01157,9830
18,01570,8432
18,01982,9056
18,02393,7371
18,02807,6833
18,03218,6345
18,03630,5998
18,04043,5946
18,04455,6339
18,04867,5237
18,05280,6146
18,05692,6399
18,06103,6368
18,06517,6171
18,06928,7293
18,07340,6417
18,07753,6345
18,08165,4837
18,08577,4556
18,08990,3452
18,09402,3137
18,09813,3277
18,10225,3545
18,10638,2541
18,11050,2056
18,11462,2368
18,11875,2411
18,12287,1855
18,12698,2117
18,13112,1711
18,13523,1622
18,13935,2345
18,14348,1358
18,14760,1492
18,15172,1662
18,15585,2007
18,15997,1460
18,16408,1868
18,16822,1887
18,17233,861
18,17645,1086
18,18058,1122
18,18470,1695
18,18882,1192
18,19293,806
18,19707,1003
18,20118,1462
18,20530,1153
18,20943,1025
18,21355,1177
18,21767,895
18,22180,1335
18,22592,1089
18,23003,1358
18,23417,1059
18,23828,1114
18,24240,1216
18,24653,688
18,25065,1896
18,25477,1467
18,25890,1509
18,26302,1783
18,26713,2606
18,27127,4327
18,27538,9390
18,27950,15849
18,28362,29349
18,28775,49954
18,29187,76088
18,29598,120066
18,30012,170909
18,30423,237433
18,30835,312912
18,31248,395899
18,31660,488330
18,32072,564291
18,32485,628907
18,32897,689830
18,33308,719347
18,33722,719430
18,34133,704588
18,34545,653168
18,34958,597683
18,35370,521344
18,35782,447166
18,36195,376522
18,36607,308259
18,37018,259173
18,37430,207828
18,37843,172350
18,38255,138179
18,38667,113971
18,39080,94558
18,39492,79172
18,39903,68004
18,40317,58007
18,40728,51792
18,41140,43733
18,41553,37934
18,41965,34383
18,42377,30656
18,42790,26783
18,43202,25440
18,43613,22354
18,44027,21026
18,44438,19409
18,44850,18315
18,45263,15356
18,45675,14903
18,46087,14548
18,46498,12955
18,46912,11429
18,47323,11002
18,47735,10579
18,48148,9231
18,48560,8565
18,48972,7930
18,49385,7948
18,49797,7154
18,50208,6702
18,50622,6251
18,51033,5545
18,51445,6091
18,51858,5465
18,52270,4630
18,52682,4546
18,53095,5496
18,53507,4696
18,53918,4618
18,54332,4589
18,54743,3950
18,55155,3917
18,55567,3456
18,55980,3502
18,56392,3357
18,56803,3296
18,57217,3094
18,57628,2837
18,58040,2955
18,58453,3403
18,58865,2620
18,59277,2400
18,59690,2064
18,60102,3057
18,60513,3304
18,60927,2908
18,61338,2803
18,61750,3673
18,62163,2747
18,62575,3142
18,62987,2879
18,63400,3133
18,63812,2474
18,64223,2533
18,64637,2182
18,65048,2448
18,65460,1972
18,65872,1793
18,66285,1550
18,66697,1583
18,67108,1877
18,67522,1425
18,67933,2000
18,68345,1810
18,68758,1952
18,69170,1213
18,69582,1569
18,69995,902
18,70407,1523
18,70818,1335
18,71232,1110
18,71643,1290
18,72055,1317
18,72468,1135
18,72880,1506
18,73292,1216
18,73705,1021
18,74117,638
18,74528,1175
18,74940,933
18,75353,749
18,75765,860
18,76177,1039
18,76590,1011
18,77002,593
18,77413,1203
18,77827,1315
18,78238,629
18,78650,878
18,79063,843
18,79475,1083
18,79887,902
18,80300,1042
18,80712,1337
18,81123,1174
18,81537,735
18,81948,1329
18,82360,865
18,82773,1280
18,83185,804
18,83597,764
18,84008,840
18,84422,787
18,84833,750
18,85245,713
18,85658,1183
18,86070,777
18,86482,1486
18,86895,581
18,87307,665
18,87718,602
18,88132,670
18,88543,1020
18,88955,633
18,89368,630
18,89780,457
18,90192,840
18,90605,607
18,91017,939
18,91428,808
18,91842,810
18,92253,831
18,92665,953
18,93077,787
18,93490,1157
18,93902,1055
18,94313,791
18,94727,885
18,95138,705
18,95550,770
18,95963,853
18,96375,604
18,96787,613
18,97200,915
18,97612,808
18,98023,482
18,98437,548
18,98848,1092
18,99260,1030
18,99673,590
19,00085,436
19,00497,756
19,00910,960
19,01322,836
19,01733,1140
19,02145,1233
19,02558,768
19,02970,725
19,03382,915
19,03795,893
19,04207,645
19,04618,381
19,05032,542
19,05443,523
19,05855,432
19,06268,542
19,06680,854
19,07092,670
19,07505,710
19,07917,730
19,08328,455
19,08742,772
19,09153,563
19,09565,702
19,09978,796
19,10390,258
19,10802,1583
19,11213,724
19,11627,1175
19,12038,1575
19,12450,800
19,12863,1920
19,13275,1143
19,13687,1046
19,14100,1594
19,14512,1382
19,14923,1377
19,15337,1626
19,15748,1021
19,16160,1319
19,16573,821
19,16985,1640
19,17397,929
19,17810,857
19,18222,876
19,18633,943
19,19047,798
19,19458,255
19,19870,837
19,20282,683
19,20695,219
19,21107,1066
19,21518,912
19,21932,567
19,22343,1042
19,22755,730
19,23168,828
19,23580,398
19,23992,696
19,24405,819
19,24817,705
19,25228,499
19,25642,796
19,26053,989
19,26465,1230
19,26878,3228
19,27290,4234
19,27702,9843
19,28115,19141
19,28527,31126
19,28938,53190
19,29350,84412
19,29763,130424
19,30175,183426
19,30587,246642
19,31000,327175
19,31412,408547
19,31823,489864
19,32237,565042
19,32648,630274
19,33060,679009
19,33473,692093
19,33885,682609
19,34297,657235
19,34710,608334
19,35122,547413
19,35533,480867
19,35947,407916
19,36358,344614
19,36770,285020
19,37183,233706
19,37595,192323
19,38007,161046
19,38418,129890
19,38832,108142
19,39243,90938
19,39655,78610
19,40068,65448
19,40480,54938
19,40892,48506
19,41305,43125
19,41717,37375
19,42128,35275
19,42542,29384
19,42953,26444
19,43365,22681
19,43778,20422
19,44190,19971
19,44602,17423
19,45015,16168
19,45427,14812
19,45838,13896
19,46252,12749
19,46663,9828
19,47075,11254
19,47487,10357
19,47900,8602
19,48312,9592
19,48723,7994
19,49137,7674
19,49548,6944
19,49960,6503
19,50373,6280
19,50785,5832
19,51197,5314
19,51610,5510
19,52022,4435
19,52433,4624
19,52847,3852
19,53258,3572
19,53670,3695
19,54083,3951
19,54495,3719
19,54907,2693
19,55320,3001
19,55732,2728
19,56143,2707
19,56555,2736
19,56968,1745
19,57380,2605
19,57792,2448
19,58205,1780
19,58617,2509
19,59028,1734
19,59442,2317
19,59853,1053
19,60265,1330
19,60678,1239
19,61090,1630
19,61502,1957
19,61915,1622
19,62327,1324
19,62738,1379
19,63152,1009
19,63563,1448
19,63975,932
19,64388,1257
19,64800,1211
19,65212,900
19,65623,1177
19,66037,1402
19,66448,1218
19,66860,1017
19,67273,1226
19,67685,894
19,68097,1171
19,68510,1563
19,68922,1378
19,69333,2255
19,69747,3548
19,70158,5834
19,70570,9659
19,70983,17471
19,71395,27733
19,71807,51713
19,72220,83539
19,72632,130700
19,73043,204141
19,73457,288614
19,73868,407389
19,74280,544941
19,74692,713756
19,75105,908882
19,75517,1122556
19,75928,1341804
19,76342,1554556
19,76753,1764462
19,77165,1967305
19,77578,2143073
19,77990,2230005
19,78402,2269893
19,78815,2189660
19,79227,2027560
19,79638,1832871
19,80052,1585249
19,80463,1333631
19,80875,1082193
19,81288,881295
19,81700,707239
19,82112,562849
19,82525,453964
19,82937,377094
19,83348,308261
19,83760,254901
19,84173,221464
19,84585,184603
19,84997,162852
19,85410,138673
19,85822,121557
19,86233,107395
19,86647,96130
19,87058,86967
19,87470,76817
19,87883,69907
19,88295,65317
19,88707,57476
19,89120,57142
19,89532,51314
19,89943,47049
19,90357,44188
19,90768,39711
19,91180,38205
19,91593,34245
19,92005,31632
19,92417,29542
19,92828,27322
19,93242,25578
19,93653,26247
19,94065,23010
19,94478,22357
19,94890,22641
19,95302,19248
19,95715,19160
19,96127,18337
19,96538,16586
19,96952,15766
19,97363,15386
19,97775,13647
19,98188,13918
19,98600,11945
19,99012,12021
19,99425,11818
19,99837,9996
20,00248,10607
20,00662,10086
20,01073,10075
20,01485,8986
20,01897,8216
20,02310,8776
20,02722,8837
20,03133,7230
20,03547,7501
20,03958,6401
20,04370,6187
20,04783,5470
20,05195,5801
20,05607,5267
20,06020,5258
20,06432,5118
20,06843,5636
20,07257,5574
20,07668,4568
20,08080,4718
20,08493,5111
20,08905,4568
20,09317,4407
20,09730,3198
20,10142,4400
20,10553,3588
20,10965,3671
20,11378,3493
20,11790,3269
20,12202,3232
20,12615,3233
20,13027,3574
20,13438,3015
20,13852,3320
20,14263,2748
20,14675,3692
20,15088,2678
20,15500,2386
20,15912,2223
20,16325,2131
20,16737,2258
20,17148,2486
20,17562,2466
20,17973,2498
20,18385,2367
20,18798,1889
20,19210,2141
20,19622,1664
20,20035,2034
20,20447,2061
20,20858,2421
20,21270,2079
20,21683,1736
20,22095,1923
20,22507,1671
20,22920,1772
20,23332,1769
20,23743,1943
20,24157,1591
20,24568,1314
20,24980,2093
20,25393,1611
20,25805,1621
20,26217,1665
20,26630,1579
20,27042,1179
20,27453,1650
20,27867,1893
20,28278,1611
20,28690,2330
20,29103,2115
20,29515,1629
20,29927,1690
20,30338,2567
20,30752,2479
20,31163,2248
20,31575,3049
20,31988,3203
20,32400,2591
20,32812,3999
20,33225,5985
20,33637,6272
20,34048,7307
20,34462,7830
20,34873,7781
20,35285,8399
20,35698,8304
20,36110,8274
20,36522,8460
20,36935,7569
20,37347,7109
20,37758,6192
20,38172,5573
20,38583,5499
20,38995,3561
20,39407,4247
20,39820,3720
20,40232,3615
20,40643,2755
20,41057,2978
20,41468,2758
20,41880,3134
20,42293,3076
20,42705,3138
20,43117,3092
20,43530,2287
20,43942,2038
20,44353,2370
20,44767,2108
20,45178,1680
20,45590,1401
20,46003,1919
20,46415,1618
20,46827,1300
20,47240,1234
20,47652,1303
20,48063,1273
20,48475,2078
20,48888,1705
20,49300,2488
20,49712,4524
20,50125,5624
20,50537,12664
20,50948,21104
20,51362,37117
20,51773,62149
20,52185,93738
20,52598,139629
20,53010,195188
20,53422,265328
20,53835,344500
20,54247,433365
20,54658,517860
20,55072,591712
20,55483,652582
20,55895,687041
20,56308,699358
20,56720,691783
20,57132,656942
20,57543,609947
20,57957,540535
20,58368,470764
20,58780,397525
20,59193,338683
20,59605,279485
20,60017,228121
20,60430,191540
20,60842,154070
20,61253,129634
20,61667,106947
20,62078,90813
20,62490,76510
20,62903,65573
20,63315,54552
20,63727,48421
20,64140,43214
20,64552,38360
20,64963,34379
20,65377,28481
20,65788,26285
20,66200,25307
20,66612,20944
20,67025,19068
20,67437,18538
20,67848,18266
20,68262,15687
20,68673,14804
20,69085,13118
20,69498,12910
20,69910,12726
20,70322,11687
20,70735,11499
20,71147,10466
20,71558,8984
20,71972,8279
20,72383,9560
20,72795,9692
20,73208,10125
20,73620,9380
20,74032,9966
20,74445,9158
20,74857,8778
20,75268,9573
20,75680,8914
20,76093,7052
20,76505,5427
20,76917,6576
20,77330,5840
20,77742,6346
20,78153,4820
20,78567,4719
20,78978,4383
20,79390,3567
20,79803,2989
20,80215,3229
20,80627,3416
20,81040,2501
20,81452,3039
20,81863,2946
20,82277,1566
20,82688,3329
20,83100,2347
20,83513,2147
20,83925,1877
20,84337,1955
20,84748,1337
20,85162,1580
20,85573,1782
20,85985,1685
20,86398,1587
20,86810,1296
20,87222,1269
20,87635,1949
20,88047,1784
20,88458,1525
20,88872,1772
20,89283,1695
20,89695,1008
20,90108,1791
20,90520,1407
20,90932,2247
20,91345,2112
20,91757,2133
20,92168,2124
20,92582,2314
20,92993,1559
20,93405,1583
20,93817,2661
20,94230,3795
20,94642,3234
20,95053,4269
20,95467,4357
20,95878,3976
20,96290,3493
20,96703,2604
20,97115,2133
20,97527,1897
20,97940,1179
20,98352,957
20,98763,896
20,99177,1017
20,99588,1317
21,00000,883
21,00413,692
21,00825,1388
21,01237,1022
21,01650,700
21,02062,758
21,02473,839
21,02885,395
21,03298,921
21,03710,966
21,04122,1019
21,04535,607
21,04947,788
21,05358,770
21,05772,913
21,06183,635
21,06595,1229
21,07008,705
21,07420,1445
21,07832,2590
21,08245,4319
21,08657,7675
21,09068,12838
21,09482,23377
21,09893,40648
21,10305,65504
21,10718,103891
21,11130,145426
21,11542,210005
21,11953,294056
21,12367,371870
21,12778,483337
21,13190,564345
21,13603,657849
21,14015,722359
21,14427,778854
21,14840,786026
21,15252,768440
21,15663,740132
21,16077,666786
21,16488,586026
21,16900,510047
21,17313,428348
21,17725,357760
21,18137,296413
21,18550,238794
21,18962,192607
21,19373,155536
21,19787,129668
21,20198,109483
21,20610,92058
21,21022,75962
21,21435,66526
21,21847,54920
21,22258,49865
21,22672,46021
21,23083,38400
21,23495,36961
21,23908,31752
21,24320,29196
21,24732,26961
21,25145,24636
21,25557,22239
21,25968,19320
21,26382,19224
21,26793,17331
21,27205,15891
21,27618,14283
21,28030,14381
21,28442,11572
21,28855,11750
21,29267,10693
21,29678,9832
21,30090,9304
21,30503,8221
21,30915,7638
21,31327,7176
21,31740,7413
21,32152,6988
21,32563,6510
21,32977,6408
21,33388,5621
21,33800,4542
21,34213,5438
21,34625,4644
21,35037,5961
21,35450,4067
21,35862,3403
21,36273,3216
21,36687,3192
21,37098,3096
21,37510,4670
21,37923,2871
21,38335,3304
21,38747,2789
21,39158,4345
21,39572,3082
21,39983,3178
21,40395,2839
21,40808,1871
21,41220,2625
21,41632,2322
21,42045,2232
21,42457,2268
21,42868,2056
21,43282,2067
21,43693,2023
21,44105,2130
21,44518,1697
21,44930,2140
21,45342,1381
21,45755,1636
21,46167,2018
21,46578,1562
21,46992,1318
21,47403,1157
21,47815,1503
21,48227,1252
21,48640,1286
21,49052,2022
21,49463,1290
21,49877,1720
21,50288,1181
21,50700,1621
21,51113,1632
21,51525,1762
21,51937,1814
21,52350,1242
21,52762,901
21,53173,1536
21,53587,1379
21,53998,1654
21,54410,1640
21,54823,1245
21,55235,885
21,55647,1897
21,56060,1569
21,56472,1066
21,56883,1673
21,57295,1229
21,57708,1686
21,58120,1191
21,58532,2404
21,58945,1867
21,59357,1540
21,59768,1912
21,60182,1588
21,60593,1197
21,61005,1196
21,61418,811
21,61830,1115
21,62242,587
21,62655,788
21,63067,891
21,63478,1504
21,63892,1488
21,64303,1109
21,64715,1177
21,65128,823
21,65540,772
21,65952,738
21,66363,701
21,66777,884
21,67188,706
21,67600,1350
21,68013,621
21,68425,771
21,68837,751
21,69250,896
21,69662,715
21,70073,1058
21,70487,1030
21,70898,1390
21,71310,814
21,71723,1043
21,72135,594
21,72547,588
21,72960,1462
21,73372,450
21,73783,587
21,74197,559
21,74608,750
21,75020,606
21,75433,1273
21,75845,833
21,76257,1023
21,76668,1114
21,77082,771
21,77493,491
21,77905,1022
21,78318,490
21,78730,876
21,79142,594
21,79555,558
21,79967,802
21,80378,794
21,80792,437
21,81203,859
21,81615,570
21,82028,515
21,82440,797
21,82852,1051
21,83265,456
21,83677,829
21,84088,1427
21,84502,1149
21,84913,2533
21,85325,3996
21,85737,7103
21,86150,12456
21,86562,22144
21,86973,37785
21,87387,63893
21,87798,97955
21,88210,144932
21,88623,207848
21,89035,277797
21,89447,355251
21,89860,454944
21,90272,540722
21,90683,622277
21,91097,678138
21,91508,739046
21,91920,750877
21,92333,739329
21,92745,713166
21,93157,659529
21,93570,586031
21,93982,514064
21,94393,439406
21,94805,369526
21,95218,313899
21,95630,259487
21,96042,212205
21,96455,179570
21,96867,152272
21,97278,125478
21,97692,108878
21,98103,94500
21,98515,81082
21,98928,69514
21,99340,63327
21,99752,57076
22,00165,51242
22,00577,47017
22,00988,39057
22,01402,35326
22,01813,32859
22,02225,27020
22,02638,23893
22,03050,24606
22,03462,21972
22,03873,19080
22,04287,16901
22,04698,16241
22,05110,13874
22,05523,13595
22,05935,12643
22,06347,12105
22,06760,10356
22,07172,11453
22,07583,10001
22,07997,9406
22,08408,7819
22,08820,8710
22,09233,6840
22,09645,7067
22,10057,7133
22,10470,6162
22,10882,5331
22,11293,5671
22,11707,3992
22,12118,4487
22,12530,3835
22,12942,4311
22,13355,3851
22,13767,4159
22,14178,3203
22,14592,4063
22,15003,3088
22,15415,3027
22,15828,3552
22,16240,2355
22,16652,2519
22,17065,2564
22,17477,2607
22,17888,2040
22,18302,3601
22,18713,2462
22,19125,2148
22,19538,2013
22,19950,2338
22,20362,2171
22,20775,2427
22,21187,2209
22,21598,2177
22,22010,1974
22,22423,1688
22,22835,1920
22,23247,2226
22,23660,1391
22,24072,1934
22,24483,1417
22,24897,1469
22,25308,1697
22,25720,1586
22,26133,1572
22,26545,2032
22,26957,1678
22,27370,1823
22,27782,1526
22,28193,1144
22,28607,1882
22,29018,1087
22,29430,1502
22,29843,1997
22,30255,1552
22,30667,1651
22,31078,2231
22,31492,902
22,31903,2068
22,32315,2032
22,32728,1106
22,33140,1834
22,33552,1382
22,33965,1234
22,34377,1491
22,34788,1368
22,35202,1351
22,35613,1095
22,36025,925
22,36438,943
22,36850,924
22,37262,759
22,37675,1474
22,38087,784
22,38498,805
22,38912,791
22,39323,1507
22,39735,1808
22,40147,2689
22,40560,3189
22,40972,4696
22,41383,8455
22,41797,14412
22,42208,25721
22,42620,42134
22,43033,68038
22,43445,105172
22,43857,155648
22,44270,219946
22,44682,307323
22,45093,408755
22,45507,537950
22,45918,680934
22,46330,848163
22,46743,1026315
22,47155,1198509
22,47567,1345756
22,47980,1487917
22,48392,1594430
22,48803,1631005
22,49215,1626179
22,49628,1547095
22,50040,1436895
22,50452,1266329
22,50865,1097786
22,51277,909993
22,51688,759157
22,52102,615259
22,52513,492822
22,52925,404974
22,53338,325569
22,53750,266886
22,54162,225028
22,54575,186594
22,54987,158851
22,55398,136439
22,55812,120134
22,56223,101934
22,56635,92770
22,57048,82733
22,57460,76374
22,57872,66117
22,58283,58689
22,58697,57211
22,59108,49497
22,59520,45830
22,59933,40838
22,60345,39169
22,60757,37020
22,61170,35633
22,61582,31203
22,61993,30125
22,62407,27253
22,62818,25416
22,63230,23879
22,63643,23080
22,64055,21616
22,64467,19536
22,64880,20192
22,65292,17704
22,65703,16033
22,66117,16725
22,66528,14301
22,66940,13266
22,67352,12923
22,67765,11481
22,68177,12436
22,68588,12115
22,69002,10124
22,69413,9985
22,69825,9355
22,70238,9062
22,70650,7896
22,71062,7235
22,71475,8722
22,71887,8462
22,72298,6697
22,72712,6358
22,73123,6287
22,73535,6993
22,73948,6267
22,74360,5532
22,74772,6162
22,75185,5398
22,75597,5268
22,76008,5260
22,76420,4674
22,76833,5095
22,77245,4593
22,77657,4606
22,78070,4471
22,78482,3731
22,78893,3728
22,79307,3509
22,79718,3583
22,80130,3555
22,80543,4026
22,80955,3352
22,81367,3684
22,81780,3212
22,82192,3053
22,82603,3115
22,83017,2972
22,83428,3275
22,83840,5335
22,84253,8360
22,84665,14078
22,85077,23836
22,85488,36424
22,85902,60342
22,86313,92288
22,86725,131929
22,87138,184200
22,87550,247749
22,87962,324995
22,88375,410251
22,88787,506695
22,89198,588220
22,89612,661443
22,90023,717713
22,90435,758554
22,90848,775147
22,91260,752058
22,91672,712342
22,92085,656682
22,92497,593496
22,92908,503468
22,93322,438748
22,93733,361003
22,94145,307165
22,94557,248023
22,94970,206870
22,95382,171403
22,95793,141869
22,96207,117681
22,96618,98428
22,97030,84219
22,97443,73824
22,97855,62677
22,98267,56119
22,98680,47575
22,99092,43774
22,99503,37806
22,99917,37079
23,00328,32660
23,00740,29352
23,01153,25885
23,01565,25064
23,01977,21779
23,02390,21032
23,02802,18202
23,03213,17217
23,03625,16603
23,04038,16454
23,04450,14716
23,04862,15753
23,05275,21605
23,05687,25484
23,06098,35923
23,06512,50508
23,06923,76424
23,07335,112704
23,07748,168162
23,08160,238067
23,08572,333129
23,08985,445590
23,09397,581322
23,09808,740516
23,10222,899161
23,10633,1081721
23,11045,1244387
23,11458,1397811
23,11870,1507338
23,12282,1554526
23,12693,1544893
23,13107,1492638
23,13518,1372629
23,13930,1234739
23,14343,1081829
23,14755,911125
23,15167,763268
23,15580,624850
23,15992,507456
23,16403,415413
23,16817,338024
23,17228,281108
23,17640,235369
23,18053,197580
23,18465,167194
23,18877,144965
23,19290,126956
23,19702,111052
23,20113,99602
23,20527,87243
23,20938,82159
23,21350,70733
23,21762,64548
23,22175,61304
23,22587,56133
23,22998,49430
23,23412,45631
23,23823,42343
23,24235,40175
23,24648,38869
23,25060,34768
23,25472,30999
23,25885,29550
23,26297,27388
23,26708,24695
23,27122,22955
23,27533,22222
23,27945,21142
23,28358,20117
23,28770,17901
23,29182,19072
23,29595,17792
23,30007,14980
23,30418,14723
23,30830,13624
23,31243,13443
23,31655,12854
23,32067,11689
23,32480,10938
23,32892,10711
23,33303,10792
23,33717,10751
23,34128,9914
23,34540,9111
23,34953,9421
23,35365,9238
23,35777,8803
23,36190,8179
23,36602,6755
23,37013,6989
23,37427,7091
23,37838,7515
23,38250,5534
23,38663,6848
23,39075,6713
23,39487,5277
23,39900,4674
23,40312,4604
23,40723,5531
23,41135,4092
23,41548,4511
23,41960,5118
23,42372,4834
23,42785,3915
23,43197,4348
23,43608,3665
23,44022,4198
23,44433,3763
23,44845,3984
23,45258,3997
23,45670,4211
23,46082,4009
23,46495,4066
23,46907,3926
23,47318,4572
23,47732,3789
23,48143,4129
23,48555,4521
23,48968,3838
23,49380,3167
23,49792,3611
23,50203,3622
23,50617,2791
23,51028,3103
23,51440,2990
23,51853,3276
23,52265,3129
23,52677,3770
23,53090,2686
23,53502,2589
23,53913,2562
23,54327,2847
23,54738,2004
23,55150,2385
23,55563,1753
23,55975,1873
23,56387,2940
23,56800,2828
23,57212,3803
23,57623,4779
23,58037,7333
23,58448,10723
23,58860,15085
23,59272,27818
23,59685,48012
23,60097,75214
23,60508,114960
23,60922,167645
23,61333,232892
23,61745,311684
23,62158,392332
23,62570,484130
23,62982,569001
23,63395,654368
23,63807,705394
23,64218,722572
23,64632,727494
23,65043,704925
23,65455,652117
23,65868,588043
23,66280,515546
23,66692,442752
23,67105,375792
23,67517,312633
23,67928,261229
23,68340,214036
23,68753,177015
23,69165,144925
23,69577,120079
23,69990,102274
23,70402,88031
23,70813,75540
23,71227,61653
23,71638,59409
23,72050,52808
23,72463,48880
23,72875,44107
23,73287,40502
23,73700,36597
23,74112,33449
23,74523,31717
23,74937,27713
23,75348,26791
23,75760,27370
23,76173,23392
23,76585,20579
23,76997,17439
23,77408,18120
23,77822,18058
23,78233,15036
23,78645,14459
23,79058,13241
23,79470,11494
23,79882,10816
23,80295,10345
23,80707,9893
23,81118,8957
23,81532,8684
23,81943,8007
23,82355,8986
23,82768,7509
23,83180,7557
23,83592,6684
23,84005,6152
23,84417,5805
23,84828,5890
23,85242,4793
23,85653,6459
23,86065,6170
23,86477,4823
23,86890,6088
23,87302,5480
23,87713,4711
23,88127,5008
23,88538,5167
23,88950,5679
23,89363,4741
23,89775,4519
23,90187,5368
23,90600,5834
23,91012,4960
23,91423,3271
23,91837,2966
23,92248,3302
23,92660,3572
23,93073,2828
23,93485,3515
23,93897,3074
23,94310,2408
23,94722,2947
23,95133,2928
23,95545,2204
23,95958,2757
23,96370,2771
23,96782,2554
23,97195,2438
23,97607,3191
23,98018,3081
23,98432,2794
23,98843,3405
23,99255,4330
23,99668,3636
24,00080,4503
24,00492,3574
24,00905,3684
24,01317,4087
24,01728,4238
24,02142,3725
24,02553,3803
24,02965,4240
24,03378,3832
24,03790,3308
24,04202,3434
24,04613,3537
24,05027,3338
24,05438,2800
24,05850,3292
24,06263,3806
24,06675,6989
24,07087,8465
24,07500,16283
24,07912,26857
24,08323,43063
24,08737,65407
24,09148,100533
24,09560,150435
24,09973,208083
24,10385,281761
24,10797,350587
24,11210,440818
24,11622,524619
24,12033,584767
24,12447,636488
24,12858,677031
24,13270,689186
24,13682,669912
24,14095,634510
24,14507,569497
24,14918,513430
24,15332,432407
24,15743,377033
24,16155,311913
24,16568,261885
24,16980,217269
24,17392,176662
24,17805,146341
24,18217,125643
24,18628,103254
24,19042,87009
24,19453,74341
24,19865,64906
24,20278,57439
24,20690,50058
24,21102,44020
24,21515,38486
24,21927,35132
24,22338,31842
24,22750,29717
24,23163,27629
24,23575,22617
24,23987,22655
24,24400,19978
24,24812,18699
24,25223,17663
24,25637,16829
24,26048,14871
24,26460,14131
24,26873,12822
24,27285,12687
24,27697,12036
24,28110,11376
24,28522,9966
24,28933,10761
24,29347,8831
24,29758,8373
24,30170,8826
24,30583,8857
24,30995,7649
24,31407,7194
24,31818,7556
24,32232,5945
24,32643,7040
24,33055,6843
24,33468,6159
24,33880,6269
24,34292,6133
24,34705,6387
24,35117,5373
24,35528,5802
24,35942,4879
24,36353,5631
24,36765,4375
24,37178,4151
24,37590,5284
24,38002,5117
24,38415,3871
24,38827,4814
24,39238,3590
24,39652,3324
24,40063,3768
24,40475,3833
24,40887,2885
24,41300,3478
24,41712,3675
24,42123,1939
24,42537,3216
24,42948,2627
24,43360,3093
24,43773,3591
24,44185,2463
24,44597,3294
24,45010,3012
24,45422,2815
24,45833,2611
24,46247,2521
24,46658,2108
24,47070,2255
24,47483,2074
24,47895,2475
24,48307,2111
24,48720,1868
24,49132,2269
24,49543,1724
24,49955,2115
24,50368,1880
24,50780,2042
24,51192,1979
24,51605,2507
24,52017,1406
24,52428,1480
24,52842,1442
24,53253,2091
24,53665,1420
24,54078,1922
24,54490,2242
24,54902,1357
24,55315,1611
24,55727,1839
24,56138,1851
24,56552,1538
24,56963,2613
24,57375,1358
24,57788,1236
24,58200,1649
24,58612,862
24,59023,1179
24,59437,997
24,59848,1402
24,60260,1863
24,60673,1753
24,61085,1169
24,61497,1075
24,61910,1755
24,62322,2108
24,62733,1833
24,63147,1025
24,63558,1267
24,63970,1734
24,64383,1756
24,64795,1271
24,65207,1940
24,65620,1995
24,66032,786
24,66443,1008
24,66857,1537
24,67268,964
24,67680,1425
24,68092,1540
24,68505,2357
24,68917,1642
24,69328,1784
24,69742,1772
24,70153,1283
24,70565,1565
24,70978,1855
24,71390,1504
24,71802,1103
24,72215,1389
24,72627,1303
24,73038,1553
24,73452,1317
24,73863,1238
24,74275,1302
24,74688,1241
24,75100,1806
24,75512,1467
24,75925,1399
24,76337,1638
24,76748,2495
24,77160,3635
24,77573,5701
24,77985,10273
24,78397,18047
24,78810,29701
24,79222,49704
24,79633,75464
24,80047,113016
24,80458,159156
24,80870,219187
24,81283,290259
24,81695,359157
24,82107,427527
24,82520,497674
24,82932,550008
24,83343,591301
24,83757,604877
24,84168,609474
24,84580,583161
24,84993,546074
24,85405,492234
24,85817,441360
24,86228,378530
24,86642,318861
24,87053,269973
24,87465,225790
24,87878,193928
24,88290,162300
24,88702,136742
24,89115,121294
24,89527,106031
24,89938,90546
24,90352,84138
24,90763,82054
24,91175,81309
24,91588,89621
24,92000,102133
24,92412,126036
24,92825,165967
24,93237,214244
24,93648,280608
24,94062,371927
24,94473,473287
24,94885,588301
24,95298,728962
24,95710,877198
24,96122,1037419
24,96533,1221260
24,96947,1382087
24,97358,1515693
24,97770,1654799
24,98183,1731919
24,98595,1720328
24,99007,1662587
24,99420,1545239
24,99832,1369407
25,00243,1167903
25,00657,994009
25,01068,823867
25,01480,664402
25,01893,549205
25,02305,442168
25,02717,363506
25,03130,299200
25,03542,254672
25,03953,216158
25,04367,188651
25,04778,161710
25,05190,142502
25,05602,125270
25,06015,111431
25,06427,100696
25,06838,91665
25,07252,83467
25,07663,76526
25,08075,71956
25,08488,64854
25,08900,60239
25,09312,55930
25,09725,50605
25,10137,48466
25,10548,46403
25,10962,42022
25,11373,39996
25,11785,36843
25,12198,34153
25,12610,34178
25,13022,30544
25,13435,27573
25,13847,28193
25,14258,26046
25,14670,23907
25,15083,23607
25,15495,21707
25,15907,20753
25,16320,19877
25,16732,19067
25,17143,18280
25,17557,18185
25,17968,17495
25,18380,16496
25,18793,14076
25,19205,14153
25,19617,13883
25,20030,14013
25,20442,14519
25,20853,12322
25,21267,10969
25,21678,12391
25,22090,11521
25,22503,11446
25,22915,12042
25,23327,13488
25,23738,16667
25,24152,22251
25,24563,32099
25,24975,46095
25,25388,69667
25,25800,103020
25,26212,142575
25,26625,197590
25,27037,265933
25,27448,330392
25,27862,404264
25,28273,478282
25,28685,518427
25,29098,573888
25,29510,596253
25,29922,601287
25,30335,578389
25,30747,544741
25,31158,487193
25,31572,431803
25,31983,374731
25,32395,320412
25,32807,267266
25,33220,222379
25,33632,185496
25,34043,149482
25,34457,132011
25,34868,109873
25,35280,93155
25,35693,77569
25,36105,68545
25,36517,61080
25,36930,54322
25,37342,48918
25,37753,44141
25,38167,38036
25,38578,36181
25,38990,32752
25,39403,29403
25,39815,26583
25,40227,24727
25,40640,23253
25,41052,21543
25,41463,20587
25,41875,18700
25,42288,17497
25,42700,16796
25,43112,14789
25,43525,14918
25,43937,14873
25,44348,13514
25,44762,12654
25,45173,12051
25,45585,11179
25,45998,10430
25,46410,10593
25,46822,10079
25,47235,10031
25,47647,9154
25,48058,8515
25,48472,9228
25,48883,8704
25,49295,10066
25,49708,9603
25,50120,10840
25,50532,13306
25,50943,17427
25,51357,26539
25,51768,40614
25,52180,61104
25,52593,87274
25,53005,131707
25,53417,181509
25,53830,248889
25,54242,324789
25,54653,414483
25,55067,498396
25,55478,579526
25,55890,671961
25,56303,731125
25,56715,787729
25,57127,806702
25,57540,786504
25,57952,745538
25,58363,678523
25,58777,608417
25,59188,526915
25,59600,450129
25,60012,375222
25,60425,311080
25,60837,259512
25,61248,216515
25,61662,179314
25,62073,152239
25,62485,130678
25,62898,111245
25,63310,97152
25,63722,84262
25,64135,75079
25,64547,66034
25,64958,60960
25,65372,53851
25,65783,47138
25,66195,45953
25,66608,39483
25,67020,37523
25,67432,33636
25,67845,31964
25,68257,29279
25,68668,28463
25,69080,25035
25,69493,24565
25,69905,22537
25,70317,19770
25,70730,21016
25,71142,19534
25,71553,18813
25,71967,15688
25,72378,15825
25,72790,14495
25,73203,12069
25,73615,13292
25,74027,13174
25,74440,12724
25,74852,10643
25,75263,10925
25,75677,10463
25,76088,9517
25,76500,8507
25,76913,8847
25,77325,8988
25,77737,7992
25,78148,8481
25,78562,8060
25,78973,6880
25,79385,7716
25,79798,7171
25,80210,7012
25,80622,7261
25,81035,6563
25,81447,5545
25,81858,5090
25,82272,6489
25,82683,5668
25,83095,5411
25,83508,6162
25,83920,4484
25,84332,5679
25,84745,4735
25,85157,5298
25,85568,3677
25,85982,3512
25,86393,5403
25,86805,4433
25,87217,3942
25,87630,3697
25,88042,3956
25,88453,3525
25,88867,3902
25,89278,3778
25,89690,4595
25,90103,3835
25,90515,4132
25,90927,2922
25,91340,3236
25,91752,4000
25,92163,3934
25,92577,4073
25,92988,3079
25,93400,3138
25,93813,3341
25,94225,3511
25,94637,3877
25,95050,2839
25,95462,3738
25,95873,2584
25,96285,2877
25,96698,3081
25,97110,3408
25,97522,2590
25,97935,2485
25,98347,2886
25,98758,2376
25,99172,2875
25,99583,2915
25,99995,2684
26,00408,3332
26,00820,3067
26,01232,2947
26,01645,2828
26,02057,2998
26,02468,2314
26,02882,2604
26,03293,3180
26,03705,2483
26,04118,2426
26,04530,3164
26,04942,2543
26,05353,3849
26,05767,1913
26,06178,2793
26,06590,2902
26,07003,5047
26,07415,7226
26,07827,9249
26,08240,15935
26,08652,24787
26,09063,41082
26,09477,62822
26,09888,92501
26,10300,140110
26,10713,190924
26,11125,260890
26,11537,338033
26,11950,434707
26,12362,542621
26,12773,638911
26,13187,738883
26,13598,809392
26,14010,853404
26,14422,890861
26,14835,874382
26,15247,821681
26,15658,747257
26,16072,655811
26,16483,556040
26,16895,469716
26,17308,394589
26,17720,326635
26,18132,268481
26,18545,224008
26,18957,183384
26,19368,157672
26,19782,137896
26,20193,115873
26,20605,99475
26,21018,85617
26,21430,81090
26,21842,68933
26,22255,62270
26,22667,59714
26,23078,54551
26,23490,50412
26,23903,48140
26,24315,42427
26,24727,40830
26,25140,38852
26,25552,35322
26,25963,33066
26,26377,29471
26,26788,28197
26,27200,26380
26,27613,25115
26,28025,23906
26,28437,23150
26,28850,21842
26,29262,20078
26,29673,19940
26,30087,18937
26,30498,19302
26,30910,17608
26,31323,16318
26,31735,16174
26,32147,14987
26,32558,14333
26,32972,13388
26,33383,12342
26,33795,11757
26,34208,10458
26,34620,10587
26,35032,10799
26,35445,10202
26,35857,9737
26,36268,8947
26,36682,9108
26,37093,9911
26,37505,7664
26,37918,8132
26,38330,8520
26,38742,7511
26,39155,7222
26,39567,6510
26,39978,7962
26,40392,6421
26,40803,6816
26,41215,6547
26,41627,7376
26,42040,6255
26,42452,6607
26,42863,6053
26,43277,5920
26,43688,5334
26,44100,4843
26,44513,5731
26,44925,5629
26,45337,4999
26,45750,5364
26,46162,6571
26,46573,7710
26,46987,11981
26,47398,18699
26,47810,29431
26,48223,43866
26,48635,67175
26,49047,98938
26,49460,141460
26,49872,202623
26,50283,267684
26,50695,346632
26,51108,436111
26,51520,518790
26,51932,587536
26,52345,653464
26,52757,684783
26,53168,696921
26,53582,693428
26,53993,659835
26,54405,605237
26,54818,538808
26,55230,478371
26,55642,408942
26,56055,334856
26,56467,285870
26,56878,236645
26,57292,197817
26,57703,166529
26,58115,139137
26,58528,117417
26,58940,101295
26,59352,86978
26,59765,75409
26,60177,65069
26,60588,58391
26,61000,51445
26,61413,48255
26,61825,43940
26,62237,39819
26,62650,36300
26,63062,33060
26,63473,30581
26,63887,26917
26,64298,26722
26,64710,24439
26,65123,24116
26,65535,21884
26,65947,20091
26,66360,18354
26,66772,18046
26,67183,16999
26,67597,15801
26,68008,16279
26,68420,14722
26,68833,14029
26,69245,12563
26,69657,12963
26,70068,11231
26,70482,11066
26,70893,10560
26,71305,11253
26,71718,11098
26,72130,10032
26,72542,9793
26,72955,8242
26,73367,8762
26,73778,8101
26,74192,8012
26,74603,8461
26,75015,7081
26,75428,7070
26,75840,7556
26,76252,6679
26,76665,5994
26,77077,6669
26,77488,5300
26,77902,5485
26,78313,6523
26,78725,5453
26,79137,5940
26,79550,6097
26,79962,4590
26,80373,3972
26,80787,5292
26,81198,4678
26,81610,4830
26,82023,5174
26,82435,4413
26,82847,5636
26,83260,4441
26,83672,4533
26,84083,4329
26,84497,4973
26,84908,4364
26,85320,5373
26,85733,4993
26,86145,4578
26,86557,5378
26,86970,4523
26,87382,5072
26,87793,4797
26,88205,4654
26,88618,5197
26,89030,4259
26,89442,4418
26,89855,5338
26,90267,5205
26,90678,5257
26,91092,5849
26,91503,4566
26,91915,4950
26,92328,4163
26,92740,3689
26,93152,4625
26,93565,3952
26,93977,4473
26,94388,4566
26,94802,4104
26,95213,3136
26,95625,4546
26,96038,3938
26,96450,3701
26,96862,5079
26,97273,4122
26,97687,4233
26,98098,4819
26,98510,4325
26,98923,4205
26,99335,5088
26,99747,6014
27,00160,6498
27,00572,5099
27,00983,6208
27,01397,5262
27,01808,6144
27,02220,7381
27,02633,5773
27,03045,6161
27,03457,5740
27,03870,6032
27,04282,5264
27,04693,4559
27,05107,3804
27,05518,5554
27,05930,4581
27,06342,5015
27,06755,4566
27,07167,4609
27,07578,3541
27,07992,3442
27,08403,3715
27,08815,3539
27,09228,3158
27,09640,2746
27,10052,3042
27,10465,2568
27,10877,2819
27,11288,3310
27,11702,2666
27,12113,3908
27,12525,4967
27,12938,6359
27,13350,9804
27,13762,14462
27,14175,21798
27,14587,35099
27,14998,54340
27,15410,83798
27,15823,123122
27,16235,173026
27,16647,233098
27,17060,304033
27,17472,378060
27,17883,455769
27,18297,526484
27,18708,581944
27,19120,621370
27,19533,637393
27,19945,627983
27,20357,597891
27,20770,564498
27,21182,515201
27,21593,459406
27,22007,407092
27,22418,356535
27,22830,323954
27,23243,303369
27,23655,301540
27,24067,316680
27,24478,347439
27,24892,395735
27,25303,467442
27,25715,556158
27,26128,660828
27,26540,764444
27,26952,904703
27,27365,1047425
27,27777,1207519
27,28188,1353857
27,28602,1506886
27,29013,1641892
27,29425,1730791
27,29838,1770009
27,30250,1737961
27,30662,1625754
27,31075,1472851
27,31487,1265090
27,31898,1081532
27,32312,897840
27,32723,735450
27,33135,610163
27,33547,492667
27,33960,419792
27,34372,360111
27,34783,305811
27,35197,259078
27,35608,228438
27,36020,200596
27,36433,176196
27,36845,160468
27,37257,147581
27,37670,133693
27,38082,119703
27,38493,107910
27,38907,101328
27,39318,96059
27,39730,89355
27,40143,82690
27,40555,75935
27,40967,69327
27,41380,64982
27,41792,63031
27,42203,60014
27,42615,56433
27,43028,53910
27,43440,49189
27,43852,46542
27,44265,44293
27,44677,42238
27,45088,39777
27,45502,38696
27,45913,37996
27,46325,35168
27,46738,34018
27,47150,31202
27,47562,30071
27,47975,29548
27,48387,29608
27,48798,28082
27,49212,27294
27,49623,27461
27,50035,24479
27,50448,24528
27,50860,23977
27,51272,22726
27,51683,25314
27,52097,22787
27,52508,22227
27,52920,23336
27,53333,22393
27,53745,20589
27,54157,20813
27,54570,22166
27,54982,20007
27,55393,21025
27,55807,23108
27,56218,25142
27,56630,29971
27,57043,39927
27,57455,53643
27,57867,79572
27,58280,108062
27,58692,151226
27,59103,204113
27,59517,267081
27,59928,339346
27,60340,422811
27,60752,500371
27,61165,555646
27,61577,605763
27,61988,645338
27,62402,653505
27,62813,647178
27,63225,623437
27,63638,584789
27,64050,556228
27,64462,517848
27,64875,494157
27,65287,486235
27,65698,490510
27,66112,513809
27,66523,541379
27,66935,577895
27,67348,612010
27,67760,628790
27,68172,658658
27,68585,652224
27,68997,632738
27,69408,597668
27,69820,555909
27,70233,499028
27,70645,443386
27,71057,378255
27,71470,327990
27,71882,284912
27,72293,235777
27,72707,204667
27,73118,174306
27,73530,147774
27,73943,130255
27,74355,112790
27,74767,100001
27,75180,86075
27,75592,77972
27,76003,69585
27,76417,64047
27,76828,60684
27,77240,54832
27,77653,52072
27,78065,48243
27,78477,51750
27,78888,52716
27,79302,59219
27,79713,73259
27,80125,90745
27,80538,117665
27,80950,155715
27,81362,208892
27,81775,271893
27,82187,348670
27,82598,430111
27,83012,532322
27,83423,622002
27,83835,705054
27,84248,766165
27,84660,814103
27,85072,829076
27,85485,804940
27,85897,763772
27,86308,704769
27,86722,629715
27,87133,552856
27,87545,471326
27,87957,399232
27,88370,339527
27,88782,283090
27,89193,238010
27,89607,207195
27,90018,172766
27,90430,152117
27,90843,134898
27,91255,119619
27,91667,106264
27,92080,93979
27,92492,85756
27,92903,78726
27,93317,71196
27,93728,66263
27,94140,62321
27,94553,57183
27,94965,53874
27,95377,52549
27,95790,49649
27,96202,43297
27,96613,42609
27,97025,41375
27,97438,35698
27,97850,34902
27,98262,35127
27,98675,32677
27,99087,30615
27,99498,27868
27,99912,26412
28,00323,25002
28,00735,23906
28,01148,25175
28,01560,23761
28,01972,21930
28,02385,20378
28,02797,20358
28,03208,19116
28,03622,18908
28,04033,18190
28,04445,19337
28,04858,19237
28,05270,17460
28,05682,16414
28,06093,15660
28,06507,17613
28,06918,15827
28,07330,13836
28,07743,13230
28,08155,13681
28,08567,14766
28,08980,12007
28,09392,13714
28,09803,11473
28,10217,11662
28,10628,9998
28,11040,11747
28,11453,10950
28,11865,10703
28,12277,9838
28,12690,10097
28,13102,9664
28,13513,10517
28,13927,10584
28,14338,9343
28,14750,8836
28,15162,9336
28,15575,8787
28,15987,8305
28,16398,8395
28,16812,8824
28,17223,7534
28,17635,7959
28,18048,8145
28,18460,6292
28,18872,7965
28,19285,6981
28,19697,7569
28,20108,7020
28,20522,7082
28,20933,7011
28,21345,6440
28,21758,6780
28,22170,7513
28,22582,7487
28,22995,6117
28,23407,6762
28,23818,7067
28,24232,6479
28,24643,6259
28,25055,7985
28,25467,7288
28,25880,7095
28,26292,7033
28,26703,6871
28,27117,6911
28,27528,6828
28,27940,6865
28,28353,7534
28,28765,7869
28,29177,8892
28,29590,11450
28,30002,12685
28,30413,17495
28,30827,25924
28,31238,38646
28,31650,53302
28,32063,80789
28,32475,119622
28,32887,164914
28,33300,229543
28,33712,296201
28,34123,383760
28,34535,479564
28,34948,576564
28,35360,670242
28,35772,751175
28,36185,817087
28,36597,867249
28,37008,875522
28,37422,847389
28,37833,793504
28,38245,714820
28,38658,626010
28,39070,531529
28,39482,446402
28,39895,373984
28,40307,322749
28,40718,270887
28,41132,231506
28,41543,198003
28,41955,171776
28,42368,151766
28,42780,134829
28,43192,116209
28,43603,104442
28,44017,94099
28,44428,85725
28,44840,78567
28,45253,71230
28,45665,69606
28,46077,64604
28,46490,57744
28,46902,54274
28,47313,47878
28,47727,48544
28,48138,41410
28,48550,42537
28,48963,39702
28,49375,38576
28,49787,37410
28,50200,33126
28,50612,32660
28,51023,31587
28,51437,30795
28,51848,28113
28,52260,29006
28,52672,27724
28,53085,25177
28,53497,25171
28,53908,22705
28,54322,22161
28,54733,22691
28,55145,19745
28,55558,21120
28,55970,20492
28,56382,18394
28,56795,16637
28,57207,16470
28,57618,18153
28,58032,15931
28,58443,15380
28,58855,14691
28,59268,13637
28,59680,15773
28,60092,15887
28,60505,13851
28,60917,14619
28,61328,12340
28,61740,12901
28,62153,12399
28,62565,13066
28,62977,11664
28,63390,12343
28,63802,12764
28,64213,12483
28,64627,11812
28,65038,14084
28,65450,12429
28,65863,15041
28,66275,13650
28,66687,14615
28,67100,13533
28,67512,13397
28,67923,13934
28,68337,14131
28,68748,16993
28,69160,19217
28,69573,26453
28,69985,35408
28,70397,53089
28,70808,75997
28,71222,106012
28,71633,155259
28,72045,208760
28,72458,282487
28,72870,361911
28,73282,446765
28,73695,537176
28,74107,616543
28,74518,680350
28,74932,740857
28,75343,767976
28,75755,777050
28,76168,780500
28,76580,761044
28,76992,739263
28,77405,730073
28,77817,719044
28,78228,720713
28,78642,729244
28,79053,720555
28,79465,715768
28,79877,709585
28,80290,675452
28,80702,640667
28,81113,593669
28,81527,523821
28,81938,469730
28,82350,413466
28,82763,352527
28,83175,308822
28,83587,265008
28,84000,228720
28,84412,191208
28,84823,170605
28,85237,144221
28,85648,125659
28,86060,112886
28,86473,105371
28,86885,91317
28,87297,84089
28,87710,75047
28,88122,68498
28,88533,64211
28,88945,57731
28,89358,53042
28,89770,53007
28,90182,48482
28,90595,45028
28,91007,41749
28,91418,40323
28,91832,38552
28,92243,36191
28,92655,35080
28,93068,32550
28,93480,27972
28,93892,28079
28,94305,28497
28,94717,27762
28,95128,23867
28,95542,23748
28,95953,22951
28,96365,25088
28,96778,21329
28,97190,21313
28,97602,20517
28,98013,18981
28,98427,19498
28,98838,19242
28,99250,18593
28,99663,15679
29,00075,17407
29,00487,15179
29,00900,15185
29,01312,16433
29,01723,16542
29,02137,14729
29,02548,14604
29,02960,13898
29,03373,13860
29,03785,12687
29,04197,13903
29,04610,11919
29,05022,13323
29,05433,11956
29,05847,11101
29,06258,12958
29,06670,10859
29,07082,11939
29,07495,10664
29,07907,10885
29,08318,11231
29,08732,10298
29,09143,10324
29,09555,10514
29,09968,11599
29,10380,9692
29,10792,10598
29,11205,11218
29,11617,8906
29,12028,10722
29,12442,9746
29,12853,11267
29,13265,9445
29,13678,9383
29,14090,10787
29,14502,9581
29,14915,9357
29,15327,9969
29,15738,7855
29,16150,10249
29,16563,10105
29,16975,8742
29,17387,9345
29,17800,7948
29,18212,7914
29,18623,8899
29,19037,9594
29,19448,9190
29,19860,8716
29,20273,8697
29,20685,9754
29,21097,8964
29,21510,8901
29,21922,9108
29,22333,8583
29,22747,9040
29,23158,9091
29,23570,8630
29,23983,8195
29,24395,7525
29,24807,8838
29,25218,6967
29,25632,7271
29,26043,8458
29,26455,7245
29,26868,6639
29,27280,6948
29,27692,6885
29,28105,7364
29,28517,7508
29,28928,6346
29,29342,6832
29,29753,7990
29,30165,7704
29,30578,6205
29,30990,7248
29,31402,7785
29,31815,6652
29,32227,7117
29,32638,6334
29,33052,6518
29,33463,7988
29,33875,8935
29,34287,7722
29,34700,8878
29,35112,8264
29,35523,9956
29,35937,14166
29,36348,18037
29,36760,26300
29,37173,34660
29,37585,51460
29,37997,75768
29,38410,111243
29,38822,151049
29,39233,208811
29,39647,273816
29,40058,359031
29,40470,452174
29,40883,560174
29,41295,680901
29,41707,810026
29,42120,955726
29,42532,1090522
29,42943,1219471
29,43355,1349250
29,43768,1461746
29,44180,1553548
29,44592,1589366
29,45005,1596555
29,45417,1526496
29,45828,1400344
29,46242,1229084
29,46653,1053955
29,47065,889384
29,47478,748214
29,47890,621902
29,48302,518519
29,48715,428952
29,49127,366347
29,49538,321729
29,49952,284152
29,50363,243357
29,50775,222650
29,51188,192841
29,51600,177777
29,52012,161463
29,52423,148599
29,52837,135736
29,53248,123510
29,53660,117146
29,54073,109039
29,54485,105331
29,54897,93067
29,55310,86518
29,55722,83821
29,56133,83557
29,56547,75348
29,56958,72969
29,57370,67607
29,57783,66579
29,58195,61271
29,58607,60285
29,59020,58482
29,59432,55452
29,59843,52768
29,60257,51349
29,60668,50522
29,61080,44754
29,61492,45516
29,61905,44039
29,62317,41267
29,62728,40647
29,63142,38595
29,63553,38469
29,63965,34876
29,64378,37734
29,64790,32107
29,65202,32517
29,65615,30949
29,66027,30590
29,66438,29473
29,66852,27724
29,67263,28252
29,67675,28249
29,68088,25304
29,68500,25085
29,68912,25584
29,69325,26344
29,69737,22809
29,70148,23322
29,70560,22451
29,70973,21445
29,71385,22356
29,71797,22511
29,72210,20775
29,72622,20775
29,73033,19544
29,73447,18507
29,73858,19335
29,74270,19792
29,74683,18759
29,75095,17029
29,75507,18711
29,75920,18745
29,76332,17693
29,76743,16150
29,77157,15760
29,77568,17750
29,77980,16257
29,78393,15411
29,78805,15217
29,79217,15823
29,79628,15149
29,80042,15117
29,80453,14660
29,80865,15682
29,81278,15492
29,81690,13638
29,82102,15246
29,82515,15183
29,82927,14205
29,83338,12474
29,83752,14233
29,84163,12660
29,84575,12593
29,84988,13153
29,85400,12205
29,85812,12961
29,86225,11195
29,86637,12795
29,87048,12601
29,87462,12144
29,87873,11470
29,88285,11821
29,88698,12470
29,89110,12407
29,89522,13697
29,89933,13724
29,90347,18930
29,90758,24022
29,91170,29539
29,91583,40885
29,91995,62371
29,92407,85373
29,92820,119152
29,93232,158948
29,93643,215186
29,94057,285814
29,94468,360892
29,94880,448498
29,95293,534457
29,95705,618031
29,96117,702600
29,96530,770029
29,96942,801612
29,97353,805695
29,97767,772982
29,98178,738184
29,98590,657614
29,99002,584073
29,99415,515040
29,99827,439533
30,00238,374603
30,00652,320499
30,01063,277052
30,01475,235576
30,01888,204259
30,02300,179411
30,02712,159981
30,03125,138874
30,03537,126026
30,03948,115066
30,04362,103896
30,04773,95479
30,05185,89054
30,05598,77868
30,06010,77899
30,06422,70558
30,06835,65546
30,07247,66333
30,07658,61801
30,08070,55657
30,08483,51479
30,08895,47867
30,09307,48119
30,09720,42695
30,10132,41529
30,10543,39868
30,10957,38359
30,11368,38060
30,11780,35426
30,12193,33536
30,12605,32863
30,13017,32240
30,13430,28817
30,13842,28986
30,14253,27765
30,14667,27736
30,15078,25402
30,15490,25542
30,15903,25838
30,16315,23562
30,16727,23105
30,17138,22530
30,17552,23770
30,17963,21097
30,18375,21864
30,18788,21673
30,19200,19853
30,19612,19387
30,20025,19487
30,20437,20007
30,20848,19045
30,21262,20396
30,21673,18132
30,22085,18242
30,22498,18388
30,22910,18465
30,23322,19467
30,23735,17898
30,24147,19206
30,24558,18995
30,24972,19614
30,25383,19642
30,25795,22689
30,26207,20556
30,26620,19954
30,27032,22521
30,27443,20570
30,27857,20428
30,28268,22216
30,28680,21098
30,29093,19214
30,29505,18229
30,29917,17051
30,30330,16978
30,30742,17177
30,31153,15318
30,31567,14194
30,31978,14930
30,32390,13934
30,32803,14397
30,33215,14672
30,33627,13827
30,34040,14544
30,34452,14394
30,34863,13922
30,35275,12863
30,35688,13731
30,36100,12545
30,36512,12877
30,36925,12446
30,37337,13233
30,37748,12854
30,38162,12461
30,38573,12658
30,38985,12877
30,39398,12682
30,39810,10926
30,40222,12414
30,40635,12197
30,41047,11219
30,41458,11067
30,41872,10502
30,42283,11301
30,42695,11104
30,43108,10070
30,43520,10365
30,43932,10505
30,44343,11118
30,44757,11679
30,45168,11442
30,45580,10351
30,45993,10466
30,46405,10952
30,46817,9463
30,47230,10341
30,47642,8770
30,48053,10333
30,48467,10544
30,48878,11444
30,49290,10123
30,49703,10110
30,50115,11959
30,50527,10834
30,50940,11394
30,51352,9827
30,51763,9634
30,52177,10787
30,52588,9989
30,53000,11523
30,53412,10015
30,53825,9541
30,54237,12301
30,54648,10591
30,55062,11188
30,55473,11602
30,55885,10482
30,56298,12203
30,56710,10396
30,57122,11439
30,57535,10722
30,57947,10732
30,58358,12519
30,58772,11878
30,59183,11357
30,59595,11159
30,60008,12811
30,60420,12119
30,60832,12766
30,61245,11298
30,61657,11130
30,62068,10391
30,62480,10158
30,62893,9235
30,63305,11280
30,63717,9495
30,64130,9919
30,64542,10084
30,64953,8517
30,65367,10120
30,65778,9920
30,66190,9665
30,66603,9427
30,67015,9367
30,67427,9107
30,67840,9511
30,68252,8551
30,68663,8090
30,69077,8729
30,69488,8699
30,69900,10031
30,70313,9688
30,70725,9388
30,71137,10178
30,71548,9813
30,71962,9085
30,72373,10336
30,72785,8619
30,73198,10577
30,73610,9292
30,74022,9942
30,74435,10038
30,74847,9376
30,75258,8885
30,75672,10069
30,76083,9582
30,76495,8006
30,76908,10309
30,77320,10595
30,77732,8867
30,78145,10599
30,78557,9777
30,78968,10424
30,79382,10329
30,79793,12349
30,80205,10905
30,80617,10809
30,81030,11052
30,81442,10369
30,81853,11200
30,82267,10387
30,82678,9922
30,83090,9373
30,83503,9841
30,83915,7711
30,84327,9506
30,84740,9882
30,85152,9156
30,85563,10187
30,85977,9696
30,86388,10550
30,86800,9721
30,87213,9539
30,87625,10519
30,88037,9392
30,88450,9867
30,88862,10107
30,89273,10349
30,89685,10712
30,90098,10389
30,90510,10131
30,90922,10128
30,91335,10029
30,91747,10817
30,92158,10192
30,92572,8631
30,92983,10013
30,93395,8814
30,93808,9940
30,94220,9350
30,94632,12068
30,95045,10143
30,95457,13507
30,95868,12147
30,96282,10538
30,96693,12255
30,97105,10608
30,97518,9864
30,97930,10654
30,98342,10222
30,98753,10463
30,99167,9322
30,99578,9754
30,99990,10521
31,00403,9072
31,00815,8008
31,01227,9527
31,01640,9485
31,02052,9977
31,02463,9134
31,02877,7042
31,03288,9504
31,03700,8688
31,04113,10596
31,04525,9777
31,04937,8345
31,05350,9036
31,05762,10067
31,06173,9696
31,06587,9524
31,06998,9237
31,07410,7438
31,07822,9475
31,08235,9208
31,08647,8031
31,09058,9121
31,09472,9455
31,09883,9620
31,10295,9085
31,10708,9142
31,11120,8298
31,11532,9484
31,11945,10609
31,12357,8304
31,12768,9147
31,13182,9195
31,13593,10333
31,14005,9200
31,14418,9105
31,14830,9516
31,15242,8992
31,15655,9542
31,16067,8907
31,16478,9014
31,16890,9426
31,17303,9995
31,17715,10384
31,18127,9933
31,18540,10090
31,18952,10098
31,19363,10070
31,19777,10288
31,20188,11320
31,20600,8200
31,21013,9592
31,21425,10274
31,21837,9672
31,22250,9654
31,22662,8603
31,23073,8983
31,23487,8724
31,23898,10068
31,24310,8308
31,24723,9668
31,25135,8125
31,25547,10337
31,25958,9638
31,26372,9955
31,26783,8326
31,27195,8901
31,27608,8771
31,28020,9369
31,28432,9598
31,28845,11253
31,29257,10196
31,29668,10491
31,30082,10912
31,30493,9373
31,30905,8501
31,31318,10349
31,31730,9554
31,32142,9591
31,32555,10614
31,32967,10259
31,33378,9223
31,33792,8683
31,34203,12310
31,34615,9418
31,35027,10327
31,35440,12291
31,35852,16480
31,36263,19874
31,36677,27631
31,37088,38364
31,37500,52385
31,37913,75611
31,38325,106179
31,38737,145297
31,39150,193978
31,39562,246037
31,39973,306100
31,40387,365468
31,40798,411274
31,41210,447657
31,41623,479247
31,42035,484884
31,42447,477378
31,42860,458676
31,43272,418187
31,43683,387028
31,44097,337832
31,44508,294712
31,44920,256760
31,45332,218426
31,45745,183686
31,46157,158530
31,46568,139012
31,46982,119992
31,47393,106058
31,47805,91587
31,48218,84058
31,48630,73132
31,49042,70642
31,49455,61599
31,49867,55915
31,50278,52079
31,50692,49385
31,51103,45566
31,51515,43018
31,51928,40173
31,52340,37369
31,52752,34941
31,53165,33600
31,53577,31952
31,53988,29817
31,54400,28795
31,54813,28427
31,55225,27777
31,55637,26054
31,56050,27385
31,56462,23965
31,56873,24610
31,57287,22485
31,57698,20106
31,58110,21588
31,58523,22226
31,58935,21337
31,59347,19760
31,59760,19441
31,60172,20127
31,60583,20547
31,60997,18963
31,61408,18914
31,61820,18256
31,62233,17541
31,62645,16652
31,63057,17602
31,63468,16911
31,63882,17021
31,64293,15355
31,64705,16350
31,65118,14774
31,65530,15506
31,65942,14852
31,66355,14762
31,66767,15463
31,67178,15263
31,67592,14478
31,68003,15659
31,68415,16531
31,68828,15831
31,69240,14340
31,69652,15176
31,70065,14064
31,70477,15889
31,70888,13657
31,71302,14037
31,71713,15052
31,72125,13426
31,72537,14270
31,72950,12570
31,73362,12884
31,73773,13772
31,74187,13573
31,74598,14148
31,75010,12071
31,75423,12380
31,75835,12916
31,76247,13694
31,76660,11975
31,77072,13769
31,77483,13226
31,77897,12325
31,78308,11349
31,78720,11260
31,79133,11552
31,79545,12130
31,79957,12627
31,80370,12354
31,80782,11708
31,81193,14809
31,81605,12876
31,82018,11461
31,82430,12255
31,82842,12512
31,83255,12971
31,83667,12227
31,84078,12809
31,84492,12694
31,84903,14004
31,85315,12713
31,85728,13071
31,86140,12669
31,86552,14226
31,86965,12818
31,87377,13711
31,87788,13494
31,88202,14086
31,88613,12463
31,89025,12059
31,89438,11774
31,89850,11629
31,90262,13290
31,90673,12141
31,91087,13123
31,91498,12754
31,91910,12550
31,92323,13664
31,92735,12516
31,93147,12910
31,93560,13305
31,93972,15421
31,94383,13619
31,94797,13374
31,95208,12746
31,95620,14678
31,96033,13356
31,96445,13654
31,96857,12154
31,97270,13509
31,97682,13427
31,98093,12847
31,98507,12876
31,98918,11912
31,99330,12147
