D:\MassHunter\GCMS\1\data\Amal\Constant flow\140C\140C_1ml-min_6C-min_3.D Fri Sep 13 14:48:06 2024
Start of data points
4,84108	3570416
4,84522	3453785
4,84933	3277561
4,85345	3040099
4,85757	2945270
4,86170	2760901
4,86582	2662477
4,86993	2483574
4,87407	2412770
4,87818	2278312
4,88230	2258644
4,88643	2242001
4,89055	2300205
4,89467	2399554
4,89880	2500198
4,90292	2607516
4,90703	2589693
4,91117	2595058
4,91528	2541820
4,91940	2461535
4,92353	2386226
4,92765	2302314
4,93177	2215502
4,93590	2133686
4,94002	2077406
4,94413	1994386
4,94825	1930324
4,95238	1845134
4,95650	1777388
4,96062	1704019
4,96475	1640498
4,96887	1579220
4,97298	1519487
4,97712	1472565
4,98123	1414182
4,98535	1344546
4,98948	1313195
4,99360	1260562
4,99772	1207927
5,00185	1170033
5,00597	1118228
5,01008	1072760
5,01422	1042948
5,01833	988847
5,02245	960561
5,02658	925658
5,03070	877559
5,03482	835141
5,03893	808940
5,04307	765181
5,04718	723312
5,05130	698601
5,05543	656031
5,05955	618241
5,06367	591858
5,06780	558399
5,07192	538120
5,07603	505693
5,08017	490847
5,08428	461456
5,08840	434564
5,09253	419792
5,09665	393169
5,10077	375330
5,10490	364526
5,10902	353356
5,11313	333123
5,11727	317275
5,12138	307453
5,12550	299362
5,12963	279762
5,13375	270828
5,13787	264812
5,14198	258567
5,14612	250665
5,15023	242753
5,15435	234616
5,15848	230102
5,16260	221020
5,16672	209042
5,17085	208010
5,17497	203586
5,17908	198038
5,18322	194574
5,18733	190710
5,19145	185916
5,19558	182025
5,19970	181093
5,20382	172737
5,20795	172668
5,21207	168968
5,21618	165130
5,22032	164951
5,22443	161576
5,22855	163118
5,23267	156341
5,23680	156045
5,24092	155108
5,24503	152324
5,24917	151048
5,25328	148320
5,25740	145944
5,26153	146360
5,26565	143179
5,26977	139204
5,27390	139474
5,27802	137817
5,28213	140808
5,28627	137815
5,29038	134370
5,29450	136026
5,29863	132021
5,30275	131737
5,30687	127811
5,31100	128104
5,31512	127349
5,31923	127693
5,32335	128950
5,32748	124643
5,33160	123606
5,33572	125132
5,33985	126393
5,34397	125503
5,34808	119901
5,35222	121051
5,35633	118271
5,36045	118343
5,36458	115990
5,36870	116709
5,37282	115523
5,37695	117846
5,38107	113430
5,38518	113162
5,38932	114673
5,39343	114706
5,39755	114436
5,40168	114108
5,40580	113394
5,40992	108553
5,41403	113904
5,41817	112237
5,42228	111384
5,42640	112763
5,43053	113804
5,43465	111170
5,43877	113909
5,44290	111904
5,44702	111643
5,45113	111948
5,45527	108054
5,45938	106686
5,46350	107623
5,46763	107803
5,47175	105797
5,47587	106232
5,48000	106874
5,48412	106285
5,48823	105150
5,49237	102482
5,49648	102812
5,50060	107041
5,50472	103491
5,50885	105808
5,51297	104845
5,51708	107726
5,52122	102783
5,52533	101229
5,52945	98248
5,53358	100495
5,53770	99835
5,54182	103921
5,54595	115977
5,55007	146513
5,55418	203477
5,55832	305024
5,56243	461856
5,56655	662809
5,57068	901679
5,57480	1122151
5,57892	1314136
5,58305	1478189
5,58717	1565690
5,59128	1624275
5,59540	1636474
5,59953	1628232
5,60365	1611903
5,60777	1584856
5,61190	1539998
5,61602	1488827
5,62013	1452783
5,62427	1409942
5,62838	1352323
5,63250	1319651
5,63663	1269797
5,64075	1220707
5,64487	1196309
5,64900	1139238
5,65312	1095119
5,65723	1053591
5,66137	1025073
5,66548	980942
5,66960	939838
5,67373	902726
5,67785	856070
5,68197	819411
5,68608	777848
5,69022	741030
5,69433	689210
5,69845	651097
5,70258	606802
5,70670	564717
5,71082	519993
5,71495	487093
5,71907	446706
5,72318	417213
5,72732	387400
5,73143	355395
5,73555	328114
5,73968	308054
5,74380	286494
5,74792	264244
5,75205	247237
5,75617	231109
5,76028	214189
5,76442	204048
5,76853	193280
5,77265	180785
5,77677	169945
5,78090	162572
5,78502	154657
5,78913	150820
5,79327	144886
5,79738	137702
5,80150	132655
5,80563	126028
5,80975	121119
5,81387	119830
5,81800	114386
5,82212	111400
5,82623	108609
5,83037	107684
5,83448	103196
5,83860	103601
5,84273	99354
5,84685	95808
5,85097	96589
5,85510	96717
5,85922	95452
5,86333	93146
5,86745	89969
5,87158	91734
5,87570	89000
5,87982	85066
5,88395	88861
5,88807	85896
5,89218	87039
5,89632	84323
5,90043	84221
5,90455	82341
5,90868	85920
5,91280	81421
5,91692	83186
5,92105	81909
5,92517	80445
5,92928	79672
5,93342	82088
5,93753	78753
5,94165	82766
5,94578	81015
5,94990	77931
5,95402	81643
5,95813	79759
5,96227	79142
5,96638	79306
5,97050	79307
5,97463	80291
5,97875	78133
5,98287	76896
5,98700	79918
5,99112	78420
5,99523	79349
5,99937	77519
6,00348	80858
6,00760	75515
6,01173	77690
6,01585	79225
6,01997	82693
6,02410	90747
6,02822	113434
6,03233	150944
6,03647	211770
6,04058	294101
6,04470	405517
6,04882	522863
6,05295	640479
6,05707	750991
6,06118	831085
6,06532	884554
6,06943	928570
6,07355	937235
6,07768	936258
6,08180	925966
6,08592	908293
6,09005	886341
6,09417	864160
6,09828	837280
6,10242	817134
6,10653	790645
6,11065	751059
6,11478	728025
6,11890	698545
6,12302	682295
6,12715	642085
6,13127	620997
6,13538	598348
6,13950	575179
6,14363	550604
6,14775	521147
6,15187	495186
6,15600	460363
6,16012	431735
6,16423	403592
6,16837	375143
6,17248	348517
6,17660	322603
6,18073	300808
6,18485	276794
6,18897	254490
6,19310	236101
6,19722	217664
6,20133	204974
6,20547	190779
6,20958	172729
6,21370	161593
6,21783	152403
6,22195	141268
6,22607	133077
6,23018	128053
6,23432	124583
6,23843	114384
6,24255	110440
6,24668	106558
6,25080	99629
6,25492	98722
6,25905	96171
6,26317	93756
6,26728	90138
6,27142	87769
6,27553	85662
6,27965	83005
6,28378	83266
6,28790	80498
6,29202	77831
6,29615	75535
6,30027	75166
6,30438	72258
6,30852	73382
6,31263	71555
6,31675	69599
6,32087	70729
6,32500	69064
6,32912	68127
6,33323	65813
6,33737	66467
6,34148	62909
6,34560	65147
6,34973	63671
6,35385	62255
6,35797	63741
6,36210	63237
6,36622	62804
6,37033	61830
6,37447	61133
6,37858	59895
6,38270	62129
6,38683	60627
6,39095	61820
6,39507	63770
6,39920	60825
6,40332	61917
6,40743	60130
6,41155	58691
6,41568	61823
6,41980	59069
6,42392	59172
6,42805	60385
6,43217	58919
6,43628	59791
6,44042	57695
6,44453	58985
6,44865	59590
6,45278	57702
6,45690	56713
6,46102	56134
6,46515	57662
6,46927	57174
6,47338	57038
6,47752	55291
6,48163	56653
6,48575	55817
6,48988	55394
6,49400	57252
6,49812	54138
6,50223	55138
6,50637	55285
6,51048	52727
6,51460	53882
6,51873	52747
6,52285	55553
6,52697	53867
6,53110	52830
6,53522	51895
6,53933	52020
6,54347	51927
6,54758	52220
6,55170	52957
6,55583	50875
6,55995	53423
6,56407	51893
6,56820	51771
6,57232	51955
6,57643	48461
6,58057	52677
6,58468	50686
6,58880	53720
6,59292	55175
6,59705	59077
6,60117	75054
6,60528	101543
6,60942	156200
6,61353	253169
6,61765	387295
6,62178	579733
6,62590	817189
6,63002	1065499
6,63415	1316304
6,63827	1540782
6,64238	1726989
6,64652	1884934
6,65063	1974266
6,65475	2015728
6,65888	2017080
6,66300	2008719
6,66712	1967266
6,67125	1917743
6,67537	1870347
6,67948	1814815
6,68360	1743707
6,68773	1689149
6,69185	1620379
6,69597	1546506
6,70010	1469782
6,70422	1408104
6,70833	1346490
6,71247	1272135
6,71658	1200064
6,72070	1117528
6,72483	1044042
6,72895	955162
6,73307	878873
6,73720	802120
6,74132	724168
6,74543	657390
6,74957	587478
6,75368	532725
6,75780	479274
6,76193	428223
6,76605	391353
6,77017	347632
6,77430	316099
6,77842	283064
6,78253	255808
6,78665	229665
6,79078	210708
6,79490	190578
6,79902	176824
6,80315	159765
6,80727	150566
6,81138	139262
6,81552	128728
6,81963	119515
6,82375	115533
6,82788	105675
6,83200	99307
6,83612	96581
6,84025	89267
6,84437	88463
6,84848	83074
6,85262	80566
6,85673	78723
6,86085	76596
6,86498	73240
6,86910	70572
6,87322	69383
6,87733	67445
6,88147	66617
6,88558	66246
6,88970	64196
6,89383	61197
6,89795	61606
6,90207	57619
6,90620	60955
6,91032	57163
6,91443	56628
6,91857	56454
6,92268	56844
6,92680	57381
6,93093	54818
6,93505	54016
6,93917	52476
6,94330	53620
6,94742	53237
6,95153	52424
6,95567	53171
6,95978	53502
6,96390	51567
6,96802	50838
6,97215	50194
6,97627	49742
6,98038	49556
6,98452	48534
6,98863	48434
6,99275	48114
6,99688	50442
7,00100	48366
7,00512	48032
7,00925	48312
7,01337	47751
7,01748	48728
7,02162	46279
7,02573	47213
7,02985	47930
7,03398	45911
7,03810	46819
7,04222	46046
7,04635	46655
7,05047	45555
7,05458	44356
7,05870	45411
7,06283	44568
7,06695	45795
7,07107	44800
7,07520	44813
7,07932	43953
7,08343	44430
7,08757	45584
7,09168	43717
7,09580	44341
7,09993	43181
7,10405	42664
7,10817	43226
7,11230	42488
7,11642	43050
7,12053	41487
7,12467	42891
7,12878	43346
7,13290	42411
7,13703	44416
7,14115	43269
7,14527	42355
7,14938	41911
7,15352	41646
7,15763	40803
7,16175	41635
7,16588	41777
7,17000	41326
7,17412	41183
7,17825	41817
7,18237	41194
7,18648	40267
7,19062	43019
7,19473	41040
7,19885	41748
7,20298	40352
7,20710	41063
7,21122	40213
7,21535	41608
7,21947	40063
7,22358	39349
7,22772	39741
7,23183	38956
7,23595	40184
7,24007	41809
7,24420	40283
7,24832	40879
7,25243	38886
7,25657	40437
7,26068	41332
7,26480	39738
7,26893	40417
7,27305	41140
7,27717	43325
7,28130	49510
7,28542	60697
7,28953	83011
7,29367	118949
7,29778	178811
7,30190	262932
7,30603	376791
7,31015	502579
7,31427	638950
7,31840	780720
7,32252	912561
7,32663	1018087
7,33075	1097865
7,33488	1147064
7,33900	1166749
7,34312	1181765
7,34725	1175796
7,35137	1140428
7,35548	1116207
7,35962	1091107
7,36373	1049052
7,36785	999605
7,37198	966193
7,37610	914285
7,38022	856447
7,38435	814009
7,38847	757631
7,39258	700301
7,39672	647589
7,40083	587946
7,40495	539863
7,40908	490305
7,41320	434840
7,41732	391571
7,42143	348745
7,42557	313303
7,42968	282331
7,43380	246791
7,43793	216817
7,44205	198524
7,44617	176776
7,45030	157189
7,45442	144737
7,45853	134664
7,46267	121011
7,46678	110877
7,47090	102791
7,47503	95995
7,47915	90770
7,48327	82441
7,48740	78927
7,49152	75603
7,49563	70600
7,49977	65881
7,50388	67981
7,50800	63543
7,51212	60820
7,51625	58726
7,52037	59667
7,52448	57002
7,52862	54982
7,53273	52793
7,53685	51229
7,54098	49721
7,54510	49439
7,54922	48720
7,55335	49309
7,55747	46270
7,56158	47518
7,56572	46641
7,56983	45556
7,57395	43957
7,57808	42006
7,58220	42975
7,58632	44306
7,59045	40923
7,59457	41146
7,59868	41367
7,60280	40581
7,60693	40749
7,61105	40926
7,61517	39514
7,61930	39445
7,62342	39456
7,62753	39437
7,63167	40093
7,63578	39437
7,63990	40383
7,64403	39517
7,64815	38469
7,65227	36324
7,65640	37829
7,66052	38907
7,66463	37962
7,66877	41016
7,67288	38886
7,67700	38528
7,68113	40672
7,68525	39225
7,68937	40357
7,69348	38746
7,69762	40181
7,70173	40414
7,70585	41717
7,70998	42331
7,71410	40995
7,71822	41857
7,72235	39652
7,72647	40117
7,73058	38916
7,73472	37240
7,73883	39315
7,74295	38901
7,74708	38521
7,75120	37596
7,75532	36926
7,75945	37348
7,76357	35016
7,76768	35111
7,77182	37591
7,77593	36472
7,78005	34330
7,78417	34643
7,78830	33607
7,79242	33920
7,79653	33223
7,80067	32641
7,80478	34758
7,80890	32933
7,81303	32604
7,81715	32421
7,82127	31566
7,82540	32102
7,82952	32097
7,83363	31599
7,83777	34187
7,84188	32608
7,84600	32119
7,85013	30952
7,85425	31409
7,85837	31016
7,86250	32723
7,86662	32379
7,87073	31493
7,87485	31798
7,87898	33061
7,88310	31351
7,88722	31404
7,89135	31941
7,89547	31311
7,89958	30958
7,90372	31093
7,90783	30878
7,91195	31060
7,91608	29552
7,92020	30917
7,92432	30005
7,92845	30943
7,93257	30849
7,93668	30374
7,94082	30262
7,94493	29821
7,94905	31256
7,95318	31595
7,95730	31309
7,96142	31045
7,96553	31134
7,96967	33496
7,97378	30468
7,97790	33854
7,98203	31031
7,98615	31206
7,99027	33004
7,99440	34415
7,99852	35737
8,00263	34849
8,00677	36000
8,01088	36269
8,01500	36534
8,01913	36690
8,02325	35250
8,02737	35629
8,03150	37098
8,03562	36881
8,03973	34654
8,04387	37694
8,04798	40380
8,05210	48317
8,05622	65944
8,06035	93528
8,06447	146028
8,06858	236430
8,07272	370176
8,07683	557689
8,08095	791423
8,08508	1082579
8,08920	1393319
8,09332	1710425
8,09745	2004745
8,10157	2253206
8,10568	2437705
8,10982	2595046
8,11393	2678538
8,11805	2697294
8,12218	2697984
8,12630	2621267
8,13042	2548523
8,13455	2439850
8,13867	2340932
8,14278	2209561
8,14690	2072160
8,15103	1922105
8,15515	1765524
8,15927	1584522
8,16340	1414888
8,16752	1260847
8,17163	1120490
8,17577	973818
8,17988	852612
8,18400	750666
8,18813	647370
8,19225	560459
8,19637	485852
8,20050	420555
8,20462	361438
8,20873	325437
8,21287	282185
8,21698	253001
8,22110	223773
8,22523	201736
8,22935	182387
8,23347	169643
8,23758	147090
8,24172	134922
8,24583	126416
8,24995	117141
8,25408	112338
8,25820	103170
8,26232	97300
8,26645	91339
8,27057	86403
8,27468	82151
8,27882	79203
8,28293	77831
8,28705	72150
8,29118	70645
8,29530	69001
8,29942	65865
8,30355	66564
8,30767	66178
8,31178	67235
8,31592	63220
8,32003	61332
8,32415	62992
8,32827	63293
8,33240	61146
8,33652	58533
8,34063	59316
8,34477	56874
8,34888	56752
8,35300	55718
8,35713	56438
8,36125	54847
8,36537	51025
8,36950	51466
8,37362	51276
8,37773	49080
8,38187	47990
8,38598	47118
8,39010	44871
8,39423	45938
8,39835	43865
8,40247	42077
8,40660	41086
8,41072	41147
8,41483	40704
8,41897	39086
8,42308	37152
8,42720	37300
8,43132	35921
8,43545	36402
8,43957	35784
8,44368	36162
8,44782	35549
8,45193	33802
8,45605	35707
8,46018	33179
8,46430	34082
8,46842	32217
8,47255	33698
8,47667	32151
8,48078	35771
8,48492	34886
8,48903	34692
8,49315	34595
8,49728	36335
8,50140	37944
8,50552	39998
8,50965	39210
8,51377	41718
8,51788	40106
8,52200	43133
8,52613	42302
8,53025	42828
8,53437	42619
8,53850	42183
8,54262	41845
8,54673	41986
8,55087	41160
8,55498	40819
8,55910	39045
8,56323	39501
8,56735	36345
8,57147	36385
8,57560	37048
8,57972	35320
8,58383	35671
8,58797	34460
8,59208	33558
8,59620	31799
8,60033	32848
8,60445	33224
8,60857	31713
8,61268	32309
8,61682	31585
8,62093	30249
8,62505	31241
8,62918	30983
8,63330	28582
8,63742	30266
8,64155	30958
8,64567	29592
8,64978	27396
8,65392	28691
8,65803	27413
8,66215	28409
8,66628	29386
8,67040	29252
8,67452	30448
8,67865	34012
8,68277	38164
8,68688	46296
8,69102	62426
8,69513	82773
8,69925	129955
8,70337	190374
8,70750	277610
8,71162	386189
8,71573	529440
8,71987	674751
8,72398	832053
8,72810	979220
8,73223	1104929
8,73635	1235424
8,74047	1303224
8,74460	1351856
8,74872	1364175
8,75283	1370585
8,75697	1329190
8,76108	1300421
8,76520	1229661
8,76933	1169410
8,77345	1087756
8,77757	998152
8,78170	906619
8,78582	809954
8,78993	724907
8,79405	648041
8,79818	561376
8,80230	488808
8,80642	427631
8,81055	369373
8,81467	322171
8,81878	276648
8,82292	245887
8,82703	214081
8,83115	188070
8,83528	163862
8,83940	146301
8,84352	133978
8,84765	119717
8,85177	111015
8,85588	97817
8,86002	92706
8,86413	87074
8,86825	81201
8,87238	74538
8,87650	72759
8,88062	68069
8,88473	62632
8,88887	65063
8,89298	58180
8,89710	61115
8,90123	62064
8,90535	68516
8,90947	87030
8,91360	115368
8,91772	165361
8,92183	240320
8,92597	345115
8,93008	483969
8,93420	642270
8,93833	810985
8,94245	987125
8,94657	1166029
8,95070	1297715
8,95482	1415491
8,95893	1507985
8,96307	1565508
8,96718	1567637
8,97130	1544537
8,97542	1513249
8,97955	1450085
8,98367	1356419
8,98778	1275406
8,99192	1159245
8,99603	1044878
9,00015	926635
9,00428	820290
9,00840	722074
9,01252	623055
9,01665	540709
9,02077	476686
9,02488	407696
9,02902	348601
9,03313	294378
9,03725	260903
9,04138	222314
9,04550	199658
9,04962	177301
9,05375	157821
9,05787	140503
9,06198	126343
9,06610	116760
9,07023	103703
9,07435	96512
9,07847	89221
9,08260	82372
9,08672	79057
9,09083	74291
9,09497	71117
9,09908	67579
9,10320	64869
9,10733	61246
9,11145	56835
9,11557	56102
9,11970	55031
9,12382	53386
9,12793	49078
9,13207	51957
9,13618	46847
9,14030	46464
9,14443	45711
9,14855	44676
9,15267	43044
9,15678	43630
9,16092	42913
9,16503	40447
9,16915	40415
9,17328	37040
9,17740	37096
9,18152	37186
9,18565	36521
9,18977	35793
9,19388	35992
9,19802	36024
9,20213	35394
9,20625	34749
9,21038	32691
9,21450	33951
9,21862	33606
9,22275	31786
9,22687	32130
9,23098	31518
9,23512	30747
9,23923	30911
9,24335	28691
9,24747	28666
9,25160	28675
9,25572	29946
9,25983	30058
9,26397	29100
9,26808	28719
9,27220	28564
9,27633	28072
9,28045	27740
9,28457	30143
9,28870	27352
9,29282	27996
9,29693	27583
9,30107	27636
9,30518	27691
9,30930	26982
9,31343	27420
9,31755	24726
9,32167	26594
9,32580	26573
9,32992	26746
9,33403	24301
9,33815	26057
9,34228	25222
9,34640	25629
9,35052	24923
9,35465	24161
9,35877	25528
9,36288	24951
9,36702	24584
9,37113	22964
9,37525	24109
9,37938	25245
9,38350	23320
9,38762	22740
9,39175	24252
9,39587	25685
9,39998	23420
9,40412	23299
9,40823	23599
9,41235	25027
9,41648	23742
9,42060	22025
9,42472	23351
9,42883	22841
9,43297	22780
9,43708	23017
9,44120	23198
9,44533	23293
9,44945	22427
9,45357	22341
9,45770	24039
9,46182	20864
9,46593	21902
9,47007	21865
9,47418	22704
9,47830	21723
9,48243	21790
9,48655	22219
9,49067	20861
9,49480	22050
9,49892	21699
9,50303	21383
9,50717	22386
9,51128	21283
9,51540	21498
9,51952	22090
9,52365	21616
9,52777	21693
9,53188	21366
9,53602	21925
9,54013	21804
9,54425	21432
9,54838	20637
9,55250	22697
9,55662	21703
9,56075	20389
9,56487	23731
9,56898	24371
9,57312	25836
9,57723	31381
9,58135	37083
9,58548	52910
9,58960	79985
9,59372	121577
9,59785	190141
9,60197	280176
9,60608	398526
9,61020	539105
9,61433	716803
9,61845	894073
9,62257	1070909
9,62670	1226621
9,63082	1359782
9,63493	1485073
9,63907	1544521
9,64318	1581502
9,64730	1552226
9,65143	1506476
9,65555	1447453
9,65967	1334703
9,66380	1217807
9,66792	1103550
9,67203	987452
9,67617	866002
9,68028	751098
9,68440	655981
9,68853	555758
9,69265	478750
9,69677	413032
9,70088	350929
9,70502	299330
9,70913	259109
9,71325	222415
9,71738	197602
9,72150	171883
9,72562	158144
9,72975	137987
9,73387	123941
9,73798	115061
9,74212	102402
9,74623	95894
9,75035	90095
9,75448	85205
9,75860	78606
9,76272	73532
9,76685	68374
9,77097	64399
9,77508	62401
9,77922	58506
9,78333	57421
9,78745	53751
9,79157	54268
9,79570	54296
9,79982	60029
9,80393	71996
9,80807	99187
9,81218	152059
9,81630	238406
9,82043	378812
9,82455	590015
9,82867	870483
9,83280	1239441
9,83692	1699183
9,84103	2234813
9,84517	2786901
9,84928	3368930
9,85340	3946797
9,85753	4422521
9,86165	4878003
9,86577	5158590
9,86990	5370623
9,87402	5376809
9,87813	5223804
9,88225	4937209
9,88638	4593573
9,89050	4145125
9,89462	3671628
9,89875	3177121
9,90287	2731840
9,90698	2307921
9,91112	1952355
9,91523	1637272
9,91935	1369139
9,92348	1147730
9,92760	965919
9,93172	829260
9,93585	712490
9,93997	613298
9,94408	532945
9,94822	461450
9,95233	408818
9,95645	364251
9,96058	328726
9,96470	298533
9,96882	271746
9,97295	253483
9,97707	229106
9,98118	212248
9,98530	193907
9,98943	180466
9,99355	168821
9,99767	158384
10,00180	149483
10,00592	143160
10,01003	136345
10,01417	126905
10,01828	119189
10,02240	113822
10,02653	109618
10,03065	102194
10,03477	97502
10,03890	93387
10,04302	89539
10,04713	87347
10,05127	84490
10,05538	80907
10,05950	77603
10,06363	74236
10,06775	73420
10,07187	69328
10,07598	67148
10,08012	65244
10,08423	63678
10,08835	63530
10,09248	60397
10,09660	57309
10,10072	56299
10,10485	54559
10,10897	55023
10,11308	54274
10,11722	52697
10,12133	48519
10,12545	48810
10,12958	45453
10,13370	45703
10,13782	46988
10,14195	44429
10,14607	44201
10,15018	43587
10,15432	40316
10,15843	41480
10,16255	40100
10,16667	39364
10,17080	40421
10,17492	37590
10,17903	37562
10,18317	36988
10,18728	35861
10,19140	35634
10,19553	34972
10,19965	32467
10,20377	36999
10,20790	33827
10,21202	33750
10,21613	31573
10,22027	32722
10,22438	32631
10,22850	31574
10,23263	33817
10,23675	32589
10,24087	33764
10,24500	33537
10,24912	32559
10,25323	30201
10,25735	30577
10,26148	30062
10,26560	30666
10,26972	30262
10,27385	30170
10,27797	28580
10,28208	29525
10,28622	28852
10,29033	28877
10,29445	28164
10,29858	27951
10,30270	28142
10,30682	26936
10,31095	26323
10,31507	27081
10,31918	27337
10,32332	27320
10,32743	25271
10,33155	27092
10,33568	26870
10,33980	26312
10,34392	27559
10,34803	29033
10,35217	28200
10,35628	29048
10,36040	29941
10,36453	28976
10,36865	29783
10,37277	29637
10,37690	29776
10,38102	31163
10,38513	34995
10,38927	41152
10,39338	56190
10,39750	78889
10,40163	118748
10,40575	179680
10,40987	267560
10,41400	393319
10,41812	548068
10,42223	727356
10,42637	929552
10,43048	1141268
10,43460	1328072
10,43872	1499641
10,44285	1619400
10,44697	1679827
10,45108	1701151
10,45522	1674828
10,45933	1621721
10,46345	1509150
10,46758	1384663
10,47170	1245725
10,47582	1083933
10,47995	930727
10,48407	811883
10,48818	682514
10,49232	574709
10,49643	506788
10,50055	418932
10,50468	359847
10,50880	307279
10,51292	262673
10,51705	230040
10,52117	202653
10,52528	183999
10,52940	161884
10,53353	148986
10,53765	135240
10,54177	123811
10,54590	115643
10,55002	109162
10,55413	101199
10,55827	95451
10,56238	91195
10,56650	88657
10,57063	85585
10,57475	83256
10,57887	76920
10,58300	73520
10,58712	69855
10,59123	65218
10,59537	63535
10,59948	60565
10,60360	58325
10,60773	56320
10,61185	52270
10,61597	54571
10,62008	51923
10,62422	51324
10,62833	52409
10,63245	52799
10,63658	50185
10,64070	53519
10,64482	53329
10,64895	52692
10,65307	52076
10,65718	51447
10,66132	48659
10,66543	50166
10,66955	48089
10,67368	45348
10,67780	45485
10,68192	45377
10,68605	42541
10,69017	40243
10,69428	39231
10,69842	37940
10,70253	36421
10,70665	34817
10,71077	32997
10,71490	31991
10,71902	29810
10,72313	30123
10,72727	30789
10,73138	33496
10,73550	34221
10,73963	39267
10,74375	49790
10,74787	67640
10,75200	103792
10,75612	156796
10,76023	240965
10,76437	364804
10,76848	515618
10,77260	699121
10,77673	929883
10,78085	1160590
10,78497	1395102
10,78910	1608276
10,79322	1774797
10,79733	1886696
10,80145	1956385
10,80558	1950963
10,80970	1886729
10,81382	1764088
10,81795	1608786
10,82207	1432004
10,82618	1248799
10,83032	1077406
10,83443	914431
10,83855	769892
10,84268	650874
10,84680	557924
10,85092	469138
10,85505	394904
10,85917	338226
10,86328	286960
10,86742	252334
10,87153	220292
10,87565	193232
10,87978	172024
10,88390	159768
10,88802	144927
10,89213	130729
10,89627	117913
10,90038	108952
10,90450	103803
10,90863	96295
10,91275	87361
10,91687	84833
10,92100	80925
10,92512	72952
10,92923	72857
10,93337	68557
10,93748	64125
10,94160	62436
10,94573	58690
10,94985	59581
10,95397	54739
10,95810	52516
10,96222	48842
10,96633	46502
10,97047	47261
10,97458	46918
10,97870	44662
10,98282	42447
10,98695	41041
10,99107	39686
10,99518	39442
10,99932	38653
11,00343	37557
11,00755	38252
11,01168	37277
11,01580	36495
11,01992	35813
11,02405	34839
11,02817	32256
11,03228	33557
11,03642	31994
11,04053	30510
11,04465	32705
11,04878	30644
11,05290	30218
11,05702	31375
11,06115	31236
11,06527	29733
11,06938	28482
11,07350	28687
11,07763	30456
11,08175	28594
11,08587	28959
11,09000	27750
11,09412	27802
11,09823	27649
11,10237	25646
11,10648	25634
11,11060	24885
11,11473	24983
11,11885	24804
11,12297	24076
11,12710	25656
11,13122	25907
11,13533	21930
11,13947	25222
11,14358	23921
11,14770	24748
11,15183	21962
11,15595	23946
11,16007	23408
11,16418	23679
11,16832	22881
11,17243	23302
11,17655	22474
11,18068	23938
11,18480	21156
11,18892	24817
11,19305	21577
11,19717	21226
11,20128	21424
11,20542	21661
11,20953	22294
11,21365	21685
11,21778	21426
11,22190	20771
11,22602	21241
11,23015	21337
11,23427	21573
11,23838	20305
11,24252	20480
11,24663	20301
11,25075	20409
11,25487	21012
11,25900	19944
11,26312	20354
11,26723	21014
11,27137	19883
11,27548	19572
11,27960	20437
11,28373	19452
11,28785	19054
11,29197	20254
11,29610	19491
11,30022	18527
11,30433	19782
11,30847	19201
11,31258	20014
11,31670	18789
11,32083	19500
11,32495	20496
11,32907	22341
11,33320	26685
11,33732	33614
11,34143	46696
11,34555	68390
11,34968	107861
11,35380	170821
11,35792	267427
11,36205	398188
11,36617	553328
11,37028	747452
11,37442	975190
11,37853	1204821
11,38265	1429443
11,38678	1633556
11,39090	1790510
11,39502	1874185
11,39915	1895400
11,40327	1862248
11,40738	1782191
11,41152	1641947
11,41563	1474840
11,41975	1296501
11,42388	1123622
11,42800	968252
11,43212	821149
11,43623	683289
11,44037	579894
11,44448	491615
11,44860	416572
11,45273	350332
11,45685	305450
11,46097	262213
11,46510	233369
11,46922	204273
11,47333	178702
11,47747	165942
11,48158	149379
11,48570	135083
11,48983	122927
11,49395	114109
11,49807	105295
11,50220	97871
11,50632	93124
11,51043	85091
11,51457	80751
11,51868	74785
11,52280	71579
11,52693	68751
11,53105	66289
11,53517	62071
11,53928	58060
11,54342	56776
11,54753	55070
11,55165	52526
11,55578	50166
11,55990	47428
11,56402	45993
11,56815	44683
11,57227	42624
11,57638	42032
11,58052	40600
11,58463	39908
11,58875	38051
11,59288	38816
11,59700	37126
11,60112	34664
11,60525	36121
11,60937	35554
11,61348	33410
11,61762	32375
11,62173	32106
11,62585	31971
11,62997	32737
11,63410	31260
11,63822	31372
11,64233	30757
11,64647	29738
11,65058	31493
11,65470	28446
11,65883	28980
11,66295	26145
11,66707	27413
11,67120	28459
11,67532	27742
11,67943	27847
11,68357	31824
11,68768	35588
11,69180	49152
11,69593	70308
11,70005	111620
11,70417	169468
11,70830	271053
11,71242	418891
11,71653	641459
11,72065	901481
11,72478	1237510
11,72890	1648090
11,73302	2103700
11,73715	2594441
11,74127	3108154
11,74538	3536599
11,74952	3946265
11,75363	4202720
11,75775	4350761
11,76188	4314738
11,76600	4087529
11,77012	3758218
11,77425	3363486
11,77837	2909308
11,78248	2465130
11,78662	2054595
11,79073	1711713
11,79485	1418418
11,79898	1179307
11,80310	981040
11,80722	827438
11,81133	704907
11,81547	601987
11,81958	522463
11,82370	459032
11,82783	403178
11,83195	363910
11,83607	324043
11,84020	291075
11,84432	262986
11,84843	244302
11,85257	215789
11,85668	205182
11,86080	190539
11,86493	177693
11,86905	166853
11,87317	153104
11,87730	140116
11,88142	140186
11,88553	128870
11,88967	120555
11,89378	117344
11,89790	108041
11,90202	104288
11,90615	98760
11,91027	95028
11,91438	90427
11,91852	92024
11,92263	84931
11,92675	79643
11,93088	75335
11,93500	76211
11,93912	72924
11,94325	71864
11,94737	69427
11,95148	65158
11,95562	65539
11,95973	59486
11,96385	62466
11,96798	56164
11,97210	56318
11,97622	57099
11,98035	54090
11,98447	51031
11,98858	49038
11,99270	48639
11,99683	46953
12,00095	49310
12,00507	44211
12,00920	46183
12,01332	43204
12,01743	43365
12,02157	42228
12,02568	42555
12,02980	43078
12,03393	45922
12,03805	55360
12,04217	69382
12,04630	90708
12,05042	135895
12,05453	207193
12,05867	303461
12,06278	430333
12,06690	614580
12,07103	834416
12,07515	1077086
12,07927	1315117
12,08338	1547113
12,08752	1754724
12,09163	1923246
12,09575	2035977
12,09988	2071085
12,10400	2015260
12,10812	1900336
12,11225	1733571
12,11637	1548328
12,12048	1349234
12,12462	1151635
12,12873	978312
12,13285	830001
12,13698	698098
12,14110	585575
12,14522	493943
12,14935	421601
12,15347	363231
12,15758	316356
12,16172	275476
12,16583	249153
12,16995	221188
12,17407	198974
12,17820	177732
12,18232	166708
12,18643	146144
12,19057	138260
12,19468	130583
12,19880	124156
12,20293	116919
12,20705	111207
12,21117	114582
12,21530	126305
12,21942	147873
12,22353	194075
12,22767	270618
12,23178	397818
12,23590	581573
12,24003	835846
12,24415	1163218
12,24827	1537576
12,25240	2000354
12,25652	2505468
12,26063	3007617
12,26475	3447802
12,26888	3865642
12,27300	4122864
12,27712	4225093
12,28125	4168499
12,28537	3935141
12,28948	3589842
12,29362	3154562
12,29773	2709918
12,30185	2301938
12,30598	1921455
12,31010	1609220
12,31422	1347961
12,31835	1127089
12,32247	942796
12,32658	803341
12,33072	693803
12,33483	599279
12,33895	517539
12,34308	458824
12,34720	416713
12,35132	365263
12,35543	331077
12,35957	302981
12,36368	273661
12,36780	250629
12,37193	234354
12,37605	211946
12,38017	204856
12,38430	189559
12,38842	175774
12,39253	163889
12,39667	155542
12,40078	142155
12,40490	142015
12,40903	131167
12,41315	128172
12,41727	121388
12,42140	114710
12,42552	109158
12,42963	106094
12,43377	99721
12,43788	95251
12,44200	90257
12,44612	89514
12,45025	86070
12,45437	82611
12,45848	78339
12,46262	79233
12,46673	73082
12,47085	70644
12,47498	68699
12,47910	66015
12,48322	62599
12,48735	61790
12,49147	59374
12,49558	57711
12,49972	56145
12,50383	54157
12,50795	54102
12,51208	52139
12,51620	52906
12,52032	49682
12,52445	48561
12,52857	46868
12,53268	44833
12,53680	46202
12,54093	46684
12,54505	45915
12,54917	43019
12,55330	43188
12,55742	41771
12,56153	40505
12,56567	39921
12,56978	39336
12,57390	37807
12,57803	37777
12,58215	36840
12,58627	38552
12,59040	36867
12,59452	37475
12,59863	39573
12,60277	44861
12,60688	53743
12,61100	69990
12,61513	102679
12,61925	156369
12,62337	239879
12,62748	353418
12,63162	513340
12,63573	708283
12,63985	942539
12,64398	1193451
12,64810	1449584
12,65222	1694149
12,65635	1908332
12,66047	2098838
12,66458	2246344
12,66872	2371243
12,67283	2499280
12,67695	2639537
12,68108	2854160
12,68520	3056615
12,68932	3380663
12,69345	3767243
12,69757	4124098
12,70168	4431450
12,70582	4692016
12,70993	4748771
12,71405	4683358
12,71817	4446137
12,72230	4018337
12,72642	3541969
12,73053	3046932
12,73467	2553342
12,73878	2142962
12,74290	1792600
12,74703	1492511
12,75115	1237498
12,75527	1040378
12,75940	892231
12,76352	768479
12,76763	666209
12,77177	591808
12,77588	520524
12,78000	477235
12,78413	427139
12,78825	388322
12,79237	351518
12,79650	325016
12,80062	296323
12,80473	275606
12,80885	257587
12,81298	240106
12,81710	225892
12,82122	212764
12,82535	200248
12,82947	185101
12,83358	177638
12,83772	167169
12,84183	156779
12,84595	151634
12,85008	143996
12,85420	137145
12,85832	133519
12,86245	127271
12,86657	120942
12,87068	115362
12,87482	114114
12,87893	106322
12,88305	106568
12,88718	100372
12,89130	94185
12,89542	93753
12,89953	87288
12,90367	88249
12,90778	84346
12,91190	82418
12,91603	76814
12,92015	79100
12,92427	75506
12,92840	73488
12,93252	71841
12,93663	71735
12,94077	68346
12,94488	66821
12,94900	64428
12,95313	63901
12,95725	60593
12,96137	61482
12,96550	59219
12,96962	56793
12,97373	57066
12,97787	54569
12,98198	53383
12,98610	51280
12,99022	51539
12,99435	51351
12,99847	50316
13,00258	51212
13,00672	53177
13,01083	60824
13,01495	76389
13,01908	100032
13,02320	149011
13,02732	211618
13,03145	313574
13,03557	448566
13,03968	624325
13,04382	819428
13,04793	1055202
13,05205	1264899
13,05618	1478148
13,06030	1658885
13,06442	1787029
13,06855	1833832
13,07267	1794513
13,07678	1713507
13,08092	1581356
13,08503	1427830
13,08915	1256291
13,09327	1079129
13,09740	907382
13,10152	778204
13,10563	656201
13,10977	548764
13,11388	469610
13,11800	401435
13,12213	346447
13,12625	305249
13,13037	269730
13,13450	236070
13,13862	214594
13,14273	191920
13,14687	174418
13,15098	160348
13,15510	143978
13,15923	135683
13,16335	128320
13,16747	118725
13,17160	108849
13,17572	105228
13,17983	99517
13,18395	94671
13,18808	87422
13,19220	87662
13,19632	82479
13,20045	80599
13,20457	79283
13,20868	78981
13,21282	73792
13,21693	72262
13,22105	71723
13,22518	66351
13,22930	67165
13,23342	61663
13,23755	61897
13,24167	57742
13,24578	56323
13,24992	56099
13,25403	53411
13,25815	52107
13,26228	49585
13,26640	48167
13,27052	46815
13,27463	45647
13,27877	43610
13,28288	44292
13,28700	43536
13,29113	42571
13,29525	43350
13,29937	41436
13,30350	40880
13,30762	37771
13,31173	40775
13,31587	39246
13,31998	38406
13,32410	38725
13,32823	35328
13,33235	38541
13,33647	34480
13,34060	32911
13,34472	35212
13,34883	32912
13,35297	29886
13,35708	32031
13,36120	31715
13,36532	31120
13,36945	29404
13,37357	31143
13,37768	30414
13,38182	29923
13,38593	29050
13,39005	29027
13,39418	28446
13,39830	28067
13,40242	28587
13,40655	27480
13,41067	25663
13,41478	28708
13,41892	28723
13,42303	26321
13,42715	27172
13,43128	26853
13,43540	25422
13,43952	24216
13,44365	25980
13,44777	25144
13,45188	25958
13,45600	25657
13,46013	25334
13,46425	26219
13,46837	24122
13,47250	25008
13,47662	24842
13,48073	24883
13,48487	24578
13,48898	24437
13,49310	24433
13,49723	23109
13,50135	23360
13,50547	24674
13,50960	24141
13,51372	23393
13,51783	24609
13,52197	23212
13,52608	23704
13,53020	23331
13,53433	22654
13,53845	23032
13,54257	22896
13,54668	20840
13,55082	22128
13,55493	22313
13,55905	21409
13,56318	22424
13,56730	22617
13,57142	27118
13,57555	32577
13,57967	46654
13,58378	65500
13,58792	106016
13,59203	171881
13,59615	279177
13,60028	438135
13,60440	662339
13,60852	969659
13,61265	1359416
13,61677	1810657
13,62088	2349827
13,62502	2912152
13,62913	3520249
13,63325	4050749
13,63737	4548756
13,64150	5008125
13,64562	5431043
13,64973	5648067
13,65387	5751841
13,65798	5612015
13,66210	5317822
13,66623	4880753
13,67035	4312579
13,67447	3701610
13,67860	3140861
13,68272	2596947
13,68683	2160978
13,69097	1799874
13,69508	1507227
13,69920	1263716
13,70333	1080547
13,70745	935246
13,71157	813690
13,71570	718050
13,71982	634774
13,72393	569537
13,72805	515000
13,73218	466526
13,73630	422531
13,74042	387165
13,74455	355563
13,74867	327291
13,75278	302841
13,75692	282575
13,76103	262087
13,76515	242220
13,76928	228329
13,77340	217806
13,77752	209314
13,78165	194405
13,78577	181764
13,78988	173708
13,79402	165490
13,79813	160719
13,80225	152602
13,80638	144398
13,81050	138981
13,81462	137211
13,81873	132796
13,82287	130279
13,82698	129905
13,83110	128860
13,83523	129832
13,83935	134437
13,84347	130775
13,84760	128971
13,85172	127616
13,85583	122821
13,85997	120657
13,86408	116977
13,86820	110908
13,87233	104001
13,87645	97240
13,88057	97062
13,88470	91518
13,88882	87775
13,89293	80405
13,89707	79789
13,90118	76682
13,90530	72433
13,90942	70613
13,91355	68382
13,91767	67679
13,92178	65276
13,92592	64867
13,93003	66403
13,93415	75136
13,93828	87154
13,94240	108337
13,94652	147814
13,95065	207152
13,95477	297621
13,95888	423212
13,96302	582095
13,96713	758922
13,97125	966219
13,97538	1175147
13,97950	1382980
13,98362	1519659
13,98775	1598196
13,99187	1619610
13,99598	1589377
14,00010	1486576
14,00423	1337529
14,00835	1200767
14,01247	1046551
14,01660	900440
14,02072	765591
14,02483	659210
14,02897	559436
14,03308	479095
14,03720	407139
14,04133	354050
14,04545	307604
14,04957	273513
14,05370	245235
14,05782	217452
14,06193	197016
14,06607	174999
14,07018	161373
14,07430	148774
14,07843	136426
14,08255	128402
14,08667	122717
14,09078	117702
14,09492	116721
14,09903	120424
14,10315	129094
14,10728	156978
14,11140	199227
14,11552	268807
14,11965	376849
14,12377	527427
14,12788	723437
14,13202	974958
14,13613	1251624
14,14025	1519664
14,14438	1795828
14,14850	2016046
14,15262	2173623
14,15675	2195182
14,16087	2164052
14,16498	2062097
14,16912	1894641
14,17323	1684837
14,17735	1454254
14,18147	1252829
14,18560	1067034
14,18972	903954
14,19383	769249
14,19797	656236
14,20208	566286
14,20620	477040
14,21033	423145
14,21445	376379
14,21857	334562
14,22270	302583
14,22682	269486
14,23093	249351
14,23507	230498
14,23918	210740
14,24330	193100
14,24743	181028
14,25155	167349
14,25567	157919
14,25980	150784
14,26392	141990
14,26803	132895
14,27215	123829
14,27628	120687
14,28040	113850
14,28452	109804
14,28865	102652
14,29277	98047
14,29688	94834
14,30102	91442
14,30513	88384
14,30925	85418
14,31338	80794
14,31750	80643
14,32162	77310
14,32575	74471
14,32987	71873
14,33398	68671
14,33812	67578
14,34223	66929
14,34635	63918
14,35048	60313
14,35460	61430
14,35872	58753
14,36283	61134
14,36697	55424
14,37108	53820
14,37520	53689
14,37933	52506
14,38345	49009
14,38757	48948
14,39170	48063
14,39582	47577
14,39993	47906
14,40407	44299
14,40818	45566
14,41230	44966
14,41643	41738
14,42055	43198
14,42467	42772
14,42880	41079
14,43292	41523
14,43703	41421
14,44117	41492
14,44528	38795
14,44940	39102
14,45352	39334
14,45765	38541
14,46177	39313
14,46588	36314
14,47002	38636
14,47413	37417
14,47825	34664
14,48238	35824
14,48650	36740
14,49062	35758
14,49475	34922
14,49887	35116
14,50298	34584
14,50712	35642
14,51123	36758
14,51535	37408
14,51948	44864
14,52360	57564
14,52772	80131
14,53185	121378
14,53597	189526
14,54008	283238
14,54420	421922
14,54833	608731
14,55245	851776
14,55657	1144399
14,56070	1442362
14,56482	1758262
14,56893	2032718
14,57307	2244002
14,57718	2383058
14,58130	2383252
14,58543	2290154
14,58955	2107684
14,59367	1878447
14,59780	1623701
14,60192	1371969
14,60603	1174693
14,61017	976193
14,61428	821782
14,61840	705458
14,62253	604402
14,62665	524147
14,63077	459646
14,63490	398625
14,63902	351594
14,64313	321355
14,64725	283031
14,65138	259350
14,65550	239274
14,65962	219151
14,66375	202600
14,66787	190219
14,67198	174563
14,67612	162547
14,68023	152443
14,68435	146292
14,68848	137890
14,69260	127863
14,69672	122872
14,70085	117652
14,70497	111747
14,70908	110093
14,71322	103775
14,71733	101745
14,72145	92118
14,72558	90374
14,72970	90771
14,73382	83637
14,73793	86878
14,74207	85173
14,74618	81670
14,75030	78709
14,75443	76429
14,75855	70147
14,76267	68708
14,76680	67613
14,77092	64985
14,77503	60381
14,77917	59115
14,78328	60628
14,78740	57668
14,79153	55860
14,79565	56085
14,79977	54093
14,80390	50909
14,80802	54485
14,81213	51495
14,81627	49233
14,82038	50419
14,82450	46535
14,82862	48221
14,83275	46516
14,83687	44969
14,84098	44267
14,84512	44076
14,84923	43349
14,85335	42077
14,85748	39736
14,86160	39584
14,86572	42444
14,86985	45461
14,87397	47085
14,87808	50905
14,88222	60574
14,88633	82460
14,89045	115210
14,89458	171548
14,89870	249174
14,90282	373531
14,90695	534446
14,91107	739850
14,91518	978519
14,91930	1218472
14,92343	1462101
14,92755	1678811
14,93167	1827287
14,93580	1899029
14,93992	1906209
14,94403	1831171
14,94817	1664012
14,95228	1494782
14,95640	1323120
14,96053	1135663
14,96465	978174
14,96877	829190
14,97290	705122
14,97702	604375
14,98113	517524
14,98527	443587
14,98938	383729
14,99350	342864
14,99763	307350
15,00175	272400
15,00587	246070
15,00998	217323
15,01412	202382
15,01823	186199
15,02235	170471
15,02648	160217
15,03060	145015
15,03472	138707
15,03885	131009
15,04297	121110
15,04708	117426
15,05122	111113
15,05533	104814
15,05945	99060
15,06358	95125
15,06770	93434
15,07182	88339
15,07595	84391
15,08007	81733
15,08418	76564
15,08832	76854
15,09243	71802
15,09655	70351
15,10067	70659
15,10480	68357
15,10892	67838
15,11303	64107
15,11717	60301
15,12128	59305
15,12540	58556
15,12953	56870
15,13365	58225
15,13777	54068
15,14190	52396
15,14602	48869
15,15013	47120
15,15427	49760
15,15838	48248
15,16250	47591
15,16663	47935
15,17075	45262
15,17487	45171
15,17900	42171
15,18312	41750
15,18723	40489
15,19135	41237
15,19548	41674
15,19960	38539
15,20372	39967
15,20785	38747
15,21197	39149
15,21608	38879
15,22022	38407
15,22433	36990
15,22845	38523
15,23258	38449
15,23670	34971
15,24082	34376
15,24495	36075
15,24907	36735
15,25318	34596
15,25732	34025
15,26143	31814
15,26555	31922
15,26968	32926
15,27380	31991
15,27792	33556
15,28203	33322
15,28617	34017
15,29028	32098
15,29440	33627
15,29853	35650
15,30265	33909
15,30677	34157
15,31090	34834
15,31502	34542
15,31913	33949
15,32327	35404
15,32738	33753
15,33150	34642
15,33563	32121
15,33975	34464
15,34387	34295
15,34800	30876
15,35212	32115
15,35623	31780
15,36037	31766
15,36448	32362
15,36860	30738
15,37272	30078
15,37685	28656
15,38097	28496
15,38508	29212
15,38922	28587
15,39333	29571
15,39745	30262
15,40158	28284
15,40570	27915
15,40982	30640
15,41395	28129
15,41807	33794
15,42218	37788
15,42632	47275
15,43043	68086
15,43455	100358
15,43868	165414
15,44280	272124
15,44692	422864
15,45105	649039
15,45517	969819
15,45928	1380070
15,46340	1906509
15,46753	2483220
15,47165	3139843
15,47577	3825779
15,47990	4513247
15,48402	5126229
15,48813	5654750
15,49227	5976905
15,49638	6137589
15,50050	6035742
15,50463	5801150
15,50875	5303744
15,51287	4660273
15,51700	4038544
15,52112	3421788
15,52523	2864190
15,52937	2412240
15,53348	2022866
15,53760	1693747
15,54173	1455307
15,54585	1273660
15,54997	1096305
15,55408	969487
15,55822	854178
15,56233	761730
15,56645	683968
15,57058	625899
15,57470	569338
15,57882	520226
15,58295	476282
15,58707	445090
15,59118	405191
15,59532	377741
15,59943	360322
15,60355	334258
15,60768	316263
15,61180	292796
15,61592	278724
15,62005	263830
15,62417	251646
15,62828	238644
15,63242	226127
15,63653	216421
15,64065	207115
15,64477	197569
15,64890	190436
15,65302	181538
15,65713	169517
15,66127	168254
15,66538	161282
15,66950	153036
15,67363	150125
15,67775	145631
15,68187	143208
15,68600	136153
15,69012	128261
15,69423	126435
15,69837	121286
15,70248	120395
15,70660	115315
15,71073	109880
15,71485	109809
15,71897	103927
15,72310	103997
15,72722	100103
15,73133	97564
15,73545	97151
15,73958	93833
15,74370	90938
15,74782	88493
15,75195	87351
15,75607	85595
15,76018	83698
15,76432	83800
15,76843	86277
15,77255	92268
15,77668	103460
15,78080	124074
15,78492	157922
15,78905	219952
15,79317	300093
15,79728	416879
15,80142	583286
15,80553	768399
15,80965	986665
15,81378	1215012
15,81790	1435528
15,82202	1610920
15,82613	1713170
15,83027	1764179
15,83438	1731019
15,83850	1635878
15,84263	1507047
15,84675	1382121
15,85087	1260807
15,85500	1157171
15,85912	1086204
15,86323	1063242
15,86737	1096985
15,87148	1179426
15,87560	1273884
15,87973	1430421
15,88385	1543272
15,88797	1678482
15,89210	1755489
15,89622	1804606
15,90033	1773651
15,90447	1707463
15,90858	1596178
15,91270	1463005
15,91682	1314453
15,92095	1171108
15,92507	1048168
15,92918	950490
15,93332	903141
15,93743	888529
15,94155	938266
15,94568	1034450
15,94980	1199141
15,95392	1400156
15,95805	1643855
15,96217	1886031
15,96628	2094360
15,97042	2264511
15,97453	2344118
15,97865	2351150
15,98278	2270321
15,98690	2147235
15,99102	1947663
15,99515	1735851
15,99927	1532772
16,00338	1314567
16,00750	1140500
16,01163	983306
16,01575	853443
16,01987	747788
16,02400	658092
16,02812	585310
16,03223	516487
16,03637	471522
16,04048	427799
16,04460	391064
16,04873	357058
16,05285	335480
16,05697	308895
16,06110	289708
16,06522	270231
16,06933	259405
16,07347	243370
16,07758	232689
16,08170	217615
16,08583	208278
16,08995	193389
16,09407	182569
16,09818	179772
16,10232	166187
16,10643	162638
16,11055	156657
16,11468	147999
16,11880	143667
16,12292	136892
16,12705	129338
16,13117	127874
16,13528	120964
16,13942	123639
16,14353	114812
16,14765	113069
16,15178	109644
16,15590	106512
16,16002	102685
16,16415	101015
16,16827	96197
16,17238	94969
16,17652	93775
16,18063	91329
16,18475	86724
16,18887	86671
16,19300	85467
16,19712	80689
16,20123	80662
16,20537	79994
16,20948	79786
16,21360	77238
16,21773	78698
16,22185	73400
16,22597	75729
16,23010	75990
16,23422	73620
16,23833	70587
16,24247	69249
16,24658	67816
16,25070	67118
16,25483	66963
16,25895	63552
16,26307	61400
16,26720	63105
16,27132	61686
16,27543	60186
16,27957	60607
16,28368	61363
16,28780	58956
16,29192	57977
16,29605	58557
16,30017	55813
16,30428	59987
16,30842	66823
16,31253	75062
16,31665	86183
16,32078	111700
16,32490	156057
16,32902	221633
16,33315	310457
16,33727	443042
16,34138	625490
16,34552	862647
16,34963	1117826
16,35375	1407613
16,35788	1715182
16,36200	1957414
16,36612	2178471
16,37025	2305767
16,37437	2322118
16,37848	2226942
16,38260	2050320
16,38673	1839072
16,39085	1603867
16,39497	1384441
16,39910	1187533
16,40322	1021406
16,40733	880250
16,41147	766083
16,41558	662097
16,41970	583382
16,42383	512053
16,42795	461189
16,43207	415905
16,43620	380626
16,44032	349129
16,44443	321582
16,44857	293151
16,45268	272033
16,45680	257158
16,46093	236719
16,46505	226372
16,46917	211323
16,47328	203337
16,47742	194928
16,48153	182512
16,48565	170672
16,48978	165883
16,49390	159200
16,49802	153508
16,50215	148760
16,50627	143859
16,51038	138359
16,51452	136119
16,51863	132389
16,52275	126341
16,52688	122230
16,53100	119408
16,53512	115857
16,53925	113635
16,54337	110442
16,54748	108369
16,55162	104323
16,55573	100109
16,55985	97267
16,56397	96508
16,56810	92077
16,57222	93282
16,57633	88698
16,58047	87513
16,58458	85169
16,58870	85779
16,59283	85612
16,59695	84503
16,60107	86511
16,60520	83181
16,60932	82779
16,61343	80155
16,61757	77899
16,62168	79165
16,62580	74265
16,62993	77359
16,63405	73972
16,63817	70654
16,64230	69300
16,64642	66524
16,65053	68831
16,65465	65493
16,65878	66892
16,66290	68474
16,66702	73009
16,67115	85923
16,67527	104977
16,67938	137302
16,68352	191937
16,68763	276991
16,69175	396588
16,69588	567046
16,70000	784028
16,70412	1013897
16,70825	1269568
16,71237	1521333
16,71648	1707337
16,72062	1841988
16,72473	1915918
16,72885	1907111
16,73298	1824759
16,73710	1682045
16,74122	1503575
16,74533	1326842
16,74947	1156648
16,75358	1001946
16,75770	865309
16,76183	771984
16,76595	712362
16,77007	677861
16,77420	677817
16,77832	710002
16,78243	779994
16,78657	893318
16,79068	1032105
16,79480	1191040
16,79893	1315805
16,80305	1445381
16,80717	1535623
16,81130	1583978
16,81542	1579770
16,81953	1515779
16,82367	1423931
16,82778	1296012
16,83190	1170028
16,83602	1032210
16,84015	906229
16,84427	790742
16,84838	683690
16,85252	596726
16,85663	527708
16,86075	461956
16,86488	417620
16,86900	373462
16,87312	335529
16,87725	306708
16,88137	281021
16,88548	256880
16,88962	245455
16,89373	224793
16,89785	214922
16,90198	198943
16,90610	189073
16,91022	179027
16,91435	169360
16,91847	161072
16,92258	153172
16,92670	145996
16,93083	140968
16,93495	136389
16,93907	125655
16,94320	127089
16,94732	119988
16,95143	115185
16,95557	113486
16,95968	109250
16,96380	106317
16,96793	104474
16,97205	102523
16,97617	98189
16,98030	92846
16,98442	94527
16,98853	93052
16,99267	89193
16,99678	87222
17,00090	84876
17,00503	86086
17,00915	82372
17,01327	81415
17,01738	78552
17,02152	76489
17,02563	76983
17,02975	76304
17,03388	75697
17,03800	73049
17,04212	72397
17,04625	70925
17,05037	70765
17,05448	69717
17,05862	68592
17,06273	66644
17,06685	67502
17,07098	67768
17,07510	66193
17,07922	64077
17,08335	62474
17,08747	64253
17,09158	61378
17,09572	59155
17,09983	59825
17,10395	58715
17,10807	59979
17,11220	58177
17,11632	54225
17,12043	53344
17,12457	54671
17,12868	54487
17,13280	54432
17,13693	54202
17,14105	51428
17,14517	51212
17,14930	51985
17,15342	53073
17,15753	53209
17,16167	52388
17,16578	54660
17,16990	56694
17,17403	62159
17,17815	73944
17,18227	85863
17,18640	111998
17,19052	151773
17,19463	215613
17,19875	304584
17,20288	434856
17,20700	603797
17,21112	813709
17,21525	1086110
17,21937	1406980
17,22348	1750373
17,22762	2151302
17,23173	2594780
17,23585	3061787
17,23998	3476528
17,24410	3838618
17,24822	4113551
17,25235	4257552
17,25647	4224296
17,26058	3972397
17,26472	3583829
17,26883	3148394
17,27295	2696260
17,27708	2286032
17,28120	1933788
17,28532	1650197
17,28943	1406397
17,29357	1226511
17,29768	1055643
17,30180	945611
17,30593	838158
17,31005	748076
17,31417	676115
17,31830	618379
17,32242	572662
17,32653	518017
17,33067	481680
17,33478	450032
17,33890	416107
17,34303	392365
17,34715	372127
17,35127	347163
17,35540	328373
17,35952	312033
17,36363	294765
17,36777	278637
17,37188	268157
17,37600	252779
17,38012	242249
17,38425	233571
17,38837	225621
17,39248	213479
17,39662	205037
17,40073	202696
17,40485	197398
17,40898	188251
17,41310	175024
17,41722	173235
17,42135	170214
17,42547	162021
17,42958	159936
17,43372	153296
17,43783	149638
17,44195	146286
17,44608	140007
17,45020	137296
17,45432	134179
17,45845	131336
17,46257	128682
17,46668	127788
17,47080	123878
17,47493	120028
17,47905	120885
17,48317	114163
17,48730	111920
17,49142	110974
17,49553	107967
17,49967	104341
17,50378	104701
17,50790	102937
17,51203	100083
17,51615	97640
17,52027	97251
17,52440	96987
17,52852	92367
17,53263	93968
17,53677	91286
17,54088	89869
17,54500	88629
17,54913	87634
17,55325	86248
17,55737	86805
17,56148	84518
17,56562	84140
17,56973	81342
17,57385	81884
17,57798	81773
17,58210	82775
17,58622	80959
17,59035	82357
17,59447	77886
17,59858	79507
17,60272	77780
17,60683	75368
17,61095	76661
17,61508	72957
17,61920	73720
17,62332	73694
17,62745	70876
17,63157	74062
17,63568	74077
17,63982	76737
17,64393	83984
17,64805	97328
17,65217	117647
17,65630	153137
17,66042	207177
17,66453	280008
17,66867	390596
17,67278	542022
17,67690	726067
17,68103	957818
17,68515	1204816
17,68927	1478062
17,69340	1717711
17,69752	1921951
17,70163	2039033
17,70577	2062981
17,70988	2004173
17,71400	1889865
17,71813	1734411
17,72225	1557672
17,72637	1367610
17,73050	1195828
17,73462	1037291
17,73873	904997
17,74285	785855
17,74698	696143
17,75110	609940
17,75522	552762
17,75935	498636
17,76347	450255
17,76758	414251
17,77172	384800
17,77583	348820
17,77995	326313
17,78408	307701
17,78820	287258
17,79232	268247
17,79645	254083
17,80057	243241
17,80468	227673
17,80882	216582
17,81293	207832
17,81705	193536
17,82118	185997
17,82530	180853
17,82942	171903
17,83353	166568
17,83767	164307
17,84178	159434
17,84590	152778
17,85003	144784
17,85415	138053
17,85827	137237
17,86240	135190
17,86652	128543
17,87063	129342
17,87477	125465
17,87888	120375
17,88300	117857
17,88713	114778
17,89125	114694
17,89537	111847
17,89950	107952
17,90362	105835
17,90773	103641
17,91187	104763
17,91598	101383
17,92010	97799
17,92423	96097
17,92835	93880
17,93247	94649
17,93658	90317
17,94072	88449
17,94483	86681
17,94895	84527
17,95308	85005
17,95720	83384
17,96132	82673
17,96545	81482
17,96957	78244
17,97368	78280
17,97782	77772
17,98193	76413
17,98605	77741
17,99018	75503
17,99430	73940
17,99842	71762
18,00255	75578
18,00667	74082
18,01078	75615
18,01492	74872
18,01903	75252
18,02315	76943
18,02727	76281
18,03140	77328
18,03552	77828
18,03963	77596
18,04377	77736
18,04788	78973
18,05200	78157
18,05613	81700
18,06025	87351
18,06437	90769
18,06850	101284
18,07262	111131
18,07673	122068
18,08087	133487
18,08498	146833
18,08910	155180
18,09323	164614
18,09735	168436
18,10147	163443
18,10560	170214
18,10972	163418
18,11383	152144
18,11795	142939
18,12208	133099
18,12620	123817
18,13032	117488
18,13445	104139
18,13857	99563
18,14268	94422
18,14682	88097
18,15093	84202
18,15505	81423
18,15918	72534
18,16330	72928
18,16742	67569
18,17155	67703
18,17567	68949
18,17978	65782
18,18392	65420
18,18803	66143
18,19215	63230
18,19628	61823
18,20040	62519
18,20452	62308
18,20863	61441
18,21277	58059
18,21688	59671
18,22100	59763
18,22513	57804
18,22925	59248
18,23337	56253
18,23750	55567
18,24162	58950
18,24573	58880
18,24987	57675
18,25398	58335
18,25810	53659
18,26223	57300
18,26635	57991
18,27047	57673
18,27460	56524
18,27872	56646
18,28283	56854
18,28697	55508
18,29108	56161
18,29520	56265
18,29932	55263
18,30345	58371
18,30757	55816
18,31168	55646
18,31582	55374
18,31993	54663
18,32405	54583
18,32818	53029
18,33230	55227
18,33642	50779
18,34055	51276
18,34467	51820
18,34878	52701
18,35292	51635
18,35703	51982
18,36115	51093
18,36528	49580
18,36940	52203
18,37352	48197
18,37765	50992
18,38177	48189
18,38588	49752
18,39000	47818
18,39413	50050
18,39825	50979
18,40237	49429
18,40650	51716
18,41062	51018
18,41473	52014
18,41887	50069
18,42298	50702
18,42710	49063
18,43123	48327
18,43535	51055
18,43947	51477
18,44360	46037
18,44772	49201
18,45183	47026
18,45597	49851
18,46008	50977
18,46420	48426
18,46833	49858
18,47245	48903
18,47657	48971
18,48068	50437
18,48482	49029
18,48893	50764
18,49305	51248
18,49718	48529
18,50130	50078
18,50542	48465
18,50955	49693
18,51367	49862
18,51778	49817
18,52192	49929
18,52603	48960
18,53015	51579
18,53428	50950
18,53840	51110
18,54252	50861
18,54665	50384
18,55077	52573
18,55488	51169
18,55902	50202
18,56313	51189
18,56725	50847
18,57137	49804
18,57550	51236
18,57962	49451
18,58373	49802
18,58787	49251
18,59198	49374
18,59610	48710
18,60023	47041
18,60435	47485
18,60847	47743
18,61260	47345
18,61672	48713
18,62083	47104
18,62497	47273
18,62908	48596
18,63320	46448
18,63733	47167
18,64145	46424
18,64557	46825
18,64970	44446
18,65382	45909
18,65793	46124
18,66205	45457
18,66618	44512
18,67030	46254
18,67442	45668
18,67855	46214
18,68267	47035
18,68678	44609
18,69092	46311
18,69503	45560
18,69915	43065
18,70328	46295
18,70740	46467
18,71152	46036
18,71565	43901
18,71977	44942
18,72388	45521
18,72802	47186
18,73213	45755
18,73625	44456
18,74038	45071
18,74450	46480
18,74862	43813
18,75273	46842
18,75687	44547
18,76098	43517
18,76510	42425
18,76923	45104
18,77335	45286
18,77747	42358
18,78160	43688
18,78572	45454
18,78983	45216
18,79397	44761
18,79808	44678
18,80220	45838
18,80633	43698
18,81045	44909
18,81457	44298
18,81870	44408
18,82282	44702
18,82693	43112
18,83107	46368
18,83518	45484
18,83930	45546
18,84342	44763
18,84755	45056
18,85167	44791
18,85578	44558
18,85992	45018
18,86403	44948
18,86815	46282
18,87228	43849
18,87640	45220
18,88052	46694
18,88465	43287
18,88877	45817
18,89288	45748
18,89702	46677
18,90113	47303
18,90525	48895
18,90938	50754
18,91350	55444
18,91762	62301
18,92175	71098
18,92587	91512
18,92998	122064
18,93410	163902
18,93823	227082
18,94235	305005
18,94647	410948
18,95060	531541
18,95472	657582
18,95883	800689
18,96297	931247
18,96708	1011138
18,97120	1058912
18,97533	1092764
18,97945	1077608
18,98357	1043729
18,98770	981392
18,99182	900041
18,99593	818641
19,00007	736350
19,00418	657966
19,00830	583659
19,01243	514083
19,01655	455282
19,02067	407449
19,02478	367229
19,02892	336032
19,03303	299686
19,03715	267307
19,04128	249485
19,04540	225483
19,04952	210705
19,05365	197862
19,05777	181890
19,06188	170877
19,06602	162250
19,07013	153985
19,07425	143219
19,07838	139737
19,08250	133628
19,08662	125461
19,09075	123549
19,09487	116522
19,09898	115361
19,10312	108994
19,10723	104033
19,11135	104253
19,11547	98884
19,11960	96518
19,12372	96084
19,12783	92046
19,13197	90376
19,13608	90836
19,14020	87585
19,14433	84384
19,14845	84264
19,15257	79821
19,15670	79583
19,16082	78903
19,16493	76024
19,16907	75335
19,17318	74290
19,17730	73116
19,18143	71513
19,18555	69911
19,18967	69881
19,19380	71107
19,19792	67251
19,20203	66422
19,20615	66890
19,21028	68459
19,21440	66295
19,21852	64795
19,22265	66742
19,22677	64125
19,23088	64481
19,23502	62819
19,23913	61644
19,24325	62534
19,24738	58609
19,25150	60386
19,25562	59493
19,25975	57784
19,26387	56753
19,26798	57910
19,27212	57099
19,27623	56821
19,28035	58712
19,28448	56556
19,28860	58086
19,29272	54958
19,29683	54218
19,30097	53386
19,30508	57529
19,30920	53589
19,31333	54863
19,31745	55800
19,32157	53754
19,32570	52986
19,32982	52811
19,33393	52090
19,33807	51534
19,34218	52829
19,34630	51279
19,35043	53220
19,35455	53705
19,35867	49549
19,36280	54260
19,36692	50188
19,37103	54422
19,37517	52210
19,37928	50661
19,38340	51895
19,38752	54455
19,39165	51583
19,39577	51364
19,39988	53758
19,40402	53512
19,40813	51859
19,41225	50391
19,41638	50500
19,42050	53227
19,42462	51316
19,42875	51366
19,43287	51120
19,43698	52351
19,44112	51306
19,44523	50729
19,44935	51567
19,45348	50882
19,45760	49267
19,46172	51583
19,46585	49963
19,46997	48942
19,47408	49894
19,47822	48684
19,48233	49732
19,48645	49930
19,49057	51485
19,49470	48556
19,49882	46799
19,50293	47697
19,50707	46932
19,51118	49164
19,51530	47420
19,51943	47254
19,52355	47691
19,52767	49350
19,53180	49927
19,53592	48752
19,54003	47798
19,54417	49762
19,54828	49324
19,55240	47766
19,55653	48075
19,56065	46695
19,56477	46127
19,56890	45929
19,57302	45742
19,57713	47345
19,58125	49033
19,58538	48386
19,58950	46361
19,59362	47845
19,59775	49894
19,60187	49139
19,60598	46823
19,61012	48010
19,61423	45595
19,61835	46743
19,62248	46480
19,62660	45120
19,63072	45180
19,63485	46722
19,63897	46541
19,64308	47441
19,64722	47056
19,65133	46136
19,65545	48635
19,65958	47597
19,66370	48768
19,66782	50398
19,67193	49172
19,67607	48732
19,68018	48192
19,68430	47958
19,68843	49357
19,69255	48314
19,69667	45402
19,70080	47422
19,70492	48785
19,70903	47693
19,71317	48186
19,71728	49095
19,72140	48864
19,72553	49140
19,72965	45817
19,73377	47945
19,73790	46171
19,74202	46984
19,74613	47922
19,75027	47383
19,75438	50788
19,75850	45083
19,76262	46539
19,76675	47853
19,77087	47426
19,77498	47203
19,77912	47044
19,78323	47348
19,78735	47390
19,79148	44538
19,79560	47135
19,79972	47524
19,80385	45546
19,80797	45406
19,81208	47542
19,81622	46389
19,82033	47622
19,82445	48031
19,82858	47086
19,83270	49388
19,83682	46459
19,84095	47642
19,84507	47695
19,84918	46557
19,85330	45891
19,85743	47191
19,86155	47330
19,86567	46774
19,86980	45657
19,87392	46443
19,87803	48063
19,88217	46680
19,88628	44895
19,89040	46013
19,89453	46535
19,89865	45211
19,90277	48176
19,90690	46076
19,91102	48026
19,91513	47530
19,91927	46281
19,92338	46105
19,92750	48150
19,93163	46896
19,93575	48474
19,93987	48623
19,94398	47417
19,94812	48724
19,95223	47958
19,95635	48714
19,96048	46817
19,96460	46330
19,96872	50101
19,97285	47830
19,97697	43934
19,98108	45398
19,98522	47537
19,98933	47693
19,99345	46070
19,99758	47358
20,00170	46880
20,00582	46875
20,00995	48410
20,01407	47778
20,01818	47608
20,02232	48591
20,02643	45715
20,03055	50641
20,03467	45281
20,03880	47691
20,04292	48388
20,04703	46306
20,05117	46030
20,05528	48240
20,05940	46241
20,06353	47143
20,06765	45081
20,07177	46326
20,07590	48332
20,08002	43976
20,08413	45288
20,08827	45449
20,09238	45724
20,09650	44032
20,10063	44690
20,10475	45010
20,10887	44386
20,11300	45683
20,11712	45842
20,12123	45113
20,12535	43321
20,12948	47052
20,13360	48417
20,13772	43662
20,14185	47416
20,14597	47816
20,15008	46193
20,15422	48475
20,15833	45701
20,16245	46802
20,16658	45947
20,17070	47046
20,17482	45463
20,17895	45959
20,18307	45722
20,18718	46317
20,19132	45529
20,19543	46656
20,19955	47653
20,20368	45591
20,20780	46462
20,21192	45528
20,21603	44797
20,22017	47707
20,22428	44817
20,22840	46245
20,23253	44737
20,23665	43529
20,24077	46427
20,24490	45400
20,24902	45679
20,25313	43178
20,25727	46059
20,26138	43073
20,26550	44406
20,26963	45353
20,27375	42372
20,27787	47200
20,28200	45404
20,28612	42374
20,29023	44076
20,29437	43327
20,29848	43188
20,30260	43634
20,30672	45362
20,31085	43252
20,31497	43561
20,31908	43129
20,32322	44532
20,32733	44564
20,33145	40647
20,33558	42801
20,33970	41244
20,34382	42962
20,34795	42993
20,35207	41010
20,35618	41658
20,36032	41489
20,36443	41672
20,36855	42844
20,37268	41589
20,37680	43753
20,38092	46285
20,38505	43866
20,38917	43924
20,39328	42987
20,39740	45190
20,40153	43268
20,40565	44759
20,40977	41261
20,41390	44208
20,41802	46977
20,42213	45126
20,42627	43826
20,43038	44235
20,43450	48244
20,43863	44534
20,44275	44362
20,44687	44438
20,45100	46353
20,45512	47493
20,45923	46663
20,46337	46350
20,46748	46218
20,47160	43805
20,47573	44550
20,47985	44807
20,48397	45429
20,48808	45377
20,49222	43721
20,49633	43209
20,50045	45326
20,50458	41529
20,50870	42773
20,51282	46734
20,51695	43996
20,52107	43470
20,52518	42919
20,52932	39818
20,53343	43427
20,53755	39836
20,54168	39741
20,54580	42916
20,54992	41148
20,55405	41813
20,55817	42227
20,56228	41364
20,56642	44178
20,57053	42435
20,57465	43739
20,57877	43479
20,58290	41580
20,58702	41461
20,59113	43553
20,59527	41113
20,59938	41647
20,60350	41999
20,60763	41946
20,61175	42538
20,61587	41161
20,62000	41527
20,62412	40798
20,62823	42665
20,63237	40011
20,63648	41971
20,64060	42254
20,64473	42465
20,64885	41543
20,65297	43682
20,65710	44101
20,66122	42242
20,66533	41249
20,66945	44195
20,67358	43609
20,67770	44621
20,68182	42150
20,68595	44238
20,69007	43734
20,69418	45592
20,69832	41638
20,70243	44737
20,70655	43213
20,71068	42533
20,71480	46295
20,71892	43114
20,72305	44724
20,72717	46720
20,73128	43473
20,73542	43781
20,73953	43659
20,74365	43579
20,74778	44490
20,75190	45155
20,75602	42171
20,76013	45620
20,76427	45937
20,76838	44857
20,77250	45758
20,77663	44219
20,78075	45798
20,78487	44650
20,78900	44007
20,79312	45034
20,79723	44057
20,80137	46479
20,80548	42634
20,80960	45111
20,81373	42842
20,81785	45364
20,82197	42922
20,82610	42824
20,83022	44621
20,83433	43296
20,83847	43210
20,84258	41991
20,84670	44762
20,85082	43475
20,85495	43929
20,85907	42841
20,86318	40168
20,86732	42751
20,87143	42405
20,87555	42255
20,87968	41619
20,88380	42050
20,88792	44620
20,89205	43263
20,89617	43255
20,90028	43416
20,90442	43500
20,90853	45863
20,91265	43762
20,91678	42468
20,92090	41336
20,92502	40007
20,92915	42188
20,93327	39690
20,93738	41845
20,94150	41712
20,94563	43268
20,94975	42257
20,95387	44852
20,95800	41513
20,96212	42433
20,96623	41324
20,97037	42676
20,97448	42454
20,97860	39269
20,98273	40536
20,98685	43165
20,99097	41012
20,99510	41770
20,99922	41425
21,00333	41032
21,00747	42427
21,01158	40491
21,01570	40660
21,01983	42276
21,02395	41329
21,02807	40893
21,03218	42012
21,03632	43092
21,04043	42832
21,04455	43415
21,04868	40954
21,05280	42730
21,05692	43152
21,06105	44096
21,06517	42536
21,06928	41866
21,07342	43231
21,07753	43936
21,08165	41934
21,08578	42301
21,08990	45329
21,09402	43397
21,09815	43835
21,10227	44844
21,10638	45789
21,11052	48430
21,11463	47347
21,11875	47156
21,12288	50119
21,12700	49693
21,13112	47672
21,13523	48404
21,13937	49107
21,14348	49025
21,14760	48751
21,15173	49108
21,15585	45774
21,15997	46589
21,16410	50187
21,16822	45119
21,17233	48332
21,17647	46653
21,18058	45103
21,18470	45137
21,18883	43624
21,19295	43037
21,19707	44890
21,20120	43647
21,20532	45759
21,20943	44649
21,21357	43728
21,21768	43779
21,22180	41818
21,22592	45289
21,23005	44509
21,23417	43998
21,23828	44095
21,24242	40335
21,24653	42781
21,25065	41972
21,25478	42442
21,25890	43390
21,26302	41713
21,26715	42216
21,27127	42558
21,27538	43089
21,27952	43420
21,28363	39008
21,28775	41000
21,29188	40037
21,29600	42683
21,30012	42260
21,30425	42068
21,30837	41761
21,31248	44213
21,31660	43880
21,32073	42653
21,32485	43310
21,32897	40808
21,33310	42290
21,33722	43881
21,34133	44970
21,34547	43758
21,34958	42134
21,35370	42303
21,35783	43762
21,36195	42922
21,36607	41480
21,37020	40771
21,37432	42488
21,37843	43835
21,38257	42098
21,38668	41455
21,39080	40975
21,39493	42826
21,39905	43552
21,40317	43011
21,40728	41163
21,41142	42589
21,41553	41085
21,41965	42608
21,42378	42709
21,42790	42260
21,43202	42341
21,43615	41920
21,44027	42288
21,44438	40947
21,44852	41780
21,45263	41418
21,45675	41321
21,46088	41485
21,46500	43074
21,46912	39043
21,47325	43198
21,47737	40657
21,48148	40346
21,48562	40474
21,48973	41485
21,49385	43202
21,49797	43069
21,50210	43874
21,50622	42328
21,51033	39719
21,51447	42380
21,51858	41760
21,52270	43061
21,52683	41716
21,53095	42074
21,53507	41726
21,53920	41785
21,54332	40263
21,54743	41388
21,55157	43147
21,55568	44056
21,55980	41403
21,56393	39913
21,56805	42100
21,57217	39852
21,57630	44584
21,58042	42001
21,58453	43942
21,58865	44051
21,59278	39712
21,59690	40868
21,60102	42126
21,60515	41765
21,60927	39176
21,61338	38497
21,61752	40923
21,62163	38235
21,62575	41786
21,62988	41118
21,63400	39955
21,63812	40407
21,64225	39721
21,64637	41485
21,65048	41340
21,65462	44238
21,65873	39299
21,66285	38345
21,66698	40062
21,67110	42021
21,67522	41326
21,67933	40305
21,68347	41974
21,68758	41271
21,69170	41940
21,69583	42446
21,69995	43400
21,70407	43073
21,70820	43698
21,71232	43128
21,71643	42576
21,72057	45142
21,72468	48233
21,72880	45866
21,73293	43835
21,73705	46788
21,74117	48247
21,74530	49322
21,74942	46840
21,75353	48142
21,75767	46673
21,76178	47096
21,76590	47907
21,77002	48832
21,77415	45176
21,77827	45879
21,78238	45818
21,78652	46065
21,79063	43430
21,79475	45555
21,79888	43134
21,80300	44744
21,80712	44870
21,81125	44280
21,81537	43007
21,81948	42002
21,82362	41858
21,82773	43356
21,83185	44270
21,83598	42601
21,84010	42580
21,84422	40182
21,84835	41086
21,85247	41951
21,85658	41469
21,86070	42374
21,86483	42390
21,86895	42050
21,87307	40572
21,87720	40472
21,88132	42122
21,88543	41302
21,88957	38642
21,89368	40586
21,89780	39514
21,90193	40209
21,90605	44141
21,91017	42177
21,91430	41078
21,91842	42083
21,92253	42610
21,92667	41260
21,93078	42605
21,93490	41728
21,93903	41679
21,94315	41504
21,94727	39447
21,95138	41067
21,95552	39851
21,95963	41615
21,96375	40381
21,96788	40838
21,97200	41936
21,97612	41202
21,98025	42096
21,98437	39282
21,98848	41147
21,99262	41028
21,99673	42737
22,00085	41755
22,00498	41408
22,00910	43394
22,01322	41291
22,01735	42159
22,02147	41225
22,02558	42612
22,02972	39218
22,03383	40769
22,03795	38856
22,04207	43132
22,04620	41784
22,05032	42591
22,05443	41027
22,05857	40779
22,06268	43053
22,06680	44524
22,07093	40631
22,07505	40983
22,07917	40945
22,08330	41352
22,08742	41747
22,09153	40565
22,09567	40161
22,09978	42204
22,10390	40632
22,10803	40890
22,11215	40968
22,11627	41697
22,12040	43141
22,12452	42090
22,12863	41402
22,13275	40449
22,13688	42662
22,14100	43774
22,14512	40450
22,14925	40343
22,15337	38402
22,15748	42772
22,16162	42915
22,16573	42302
22,16985	41765
22,17398	43225
22,17810	42291
22,18222	40376
22,18635	42438
22,19047	38472
22,19458	40640
22,19872	42450
22,20283	40658
22,20695	40237
22,21108	41220
22,21520	41398
22,21932	39547
22,22343	39875
22,22757	39312
22,23168	41083
22,23580	42861
22,23993	41050
22,24405	42956
22,24817	40440
22,25230	40652
22,25642	40569
22,26053	41505
22,26467	38784
22,26878	39233
22,27290	39934
22,27703	39038
22,28115	41892
22,28527	41395
22,28940	37963
22,29352	38859
22,29763	40351
22,30177	39517
22,30588	39011
22,31000	40496
22,31412	42137
22,31825	39521
22,32237	41005
22,32648	40280
22,33062	39535
22,33473	39735
22,33885	39427
22,34298	40193
22,34710	40279
22,35122	40423
22,35535	38091
22,35947	38222
22,36358	39607
22,36772	40711
22,37183	38077
22,37595	40419
22,38008	37890
22,38420	39447
22,38832	40083
22,39245	42279
22,39657	38229
22,40068	38263
22,40480	40554
22,40893	39775
22,41305	39559
22,41717	39085
22,42130	37756
22,42542	39614
22,42953	37515
22,43367	40444
22,43778	42931
22,44190	40430
22,44603	37692
22,45015	40762
22,45427	41626
22,45840	40163
22,46252	38493
22,46663	39598
22,47077	39267
22,47488	40849
22,47900	40558
22,48313	40197
22,48725	38080
22,49137	39609
22,49548	40334
22,49962	40737
22,50373	39861
22,50785	39438
22,51198	42715
22,51610	40435
22,52022	41733
22,52435	42170
22,52847	41539
22,53258	42733
22,53672	39750
22,54083	38432
22,54495	42064
22,54908	39854
22,55320	41349
22,55732	39527
22,56145	40779
22,56557	39591
22,56968	39113
22,57382	40326
22,57793	40455
22,58205	39793
22,58617	39602
22,59030	40617
22,59442	40508
22,59853	38904
22,60267	39907
22,60678	42698
22,61090	37585
22,61503	40041
22,61915	40936
22,62327	40534
22,62740	39907
22,63152	44885
22,63563	40917
22,63977	40506
22,64388	40561
22,64800	38087
22,65213	41418
22,65625	42199
22,66037	40407
22,66450	39902
22,66862	36835
22,67273	39394
22,67685	39122
22,68098	38649
22,68510	40388
22,68922	39746
22,69335	38506
22,69747	40257
22,70158	41052
22,70572	39270
22,70983	40679
22,71395	42216
22,71808	37464
22,72220	40786
22,72632	41486
22,73045	41678
22,73457	39897
22,73868	40977
22,74282	40967
22,74693	42262
22,75105	41058
22,75518	41827
22,75930	42484
22,76342	42529
22,76755	41105
22,77167	41250
22,77578	41243
22,77990	42853
22,78403	40485
22,78815	39421
22,79227	40726
22,79640	40323
22,80052	41710
22,80463	42234
22,80877	41237
22,81288	42713
22,81700	40237
22,82113	37765
22,82525	42688
22,82937	40334
22,83350	43094
22,83762	41654
22,84173	39128
22,84587	39581
22,84998	41669
22,85410	38727
22,85823	41570
22,86235	42043
22,86647	41662
22,87058	40590
22,87472	41377
22,87883	40195
22,88295	40902
22,88708	39891
22,89120	43906
22,89532	40733
22,89945	43045
22,90357	41460
22,90768	38712
22,91182	41650
22,91593	41766
22,92005	42095
22,92418	43240
22,92830	40919
22,93242	41907
22,93655	43476
22,94067	41375
22,94478	42139
22,94892	41136
22,95303	41198
22,95715	39598
22,96127	41629
22,96540	41598
22,96952	42876
22,97363	42223
22,97777	40265
22,98188	41961
22,98600	42429
22,99013	40465
22,99425	40198
22,99837	41002
23,00250	41677
23,00662	40526
23,01073	39902
23,01487	42050
23,01898	42513
23,02310	42037
23,02723	39686
23,03135	43580
23,03547	38452
23,03960	40728
23,04372	41528
