D:\MassHunter\GCMS\1\data\Amal\Constant flow\140C\140C_1ml-min_4C-min_2.D Fri Aug 30 20:03:53 2024
Start of data points
5,09085,894692
5,09497,848969
5,09908,830347
5,10322,790961
5,10733,765303
5,11145,735039
5,11558,713112
5,11970,680548
5,12382,666467
5,12795,636296
5,13207,624031
5,13618,594850
5,14030,575605
5,14443,557433
5,14855,537073
5,15267,512945
5,15680,499684
5,16092,485748
5,16503,469048
5,16917,455761
5,17328,432103
5,17740,423934
5,18153,411529
5,18565,400850
5,18977,382004
5,19390,368133
5,19802,357468
5,20213,341659
5,20627,327546
5,21038,315515
5,21450,303050
5,21863,291499
5,22275,278306
5,22687,267752
5,23098,256750
5,23512,245396
5,23923,236114
5,24335,226622
5,24748,219746
5,25160,211739
5,25572,202319
5,25985,195018
5,26397,188837
5,26808,185255
5,27222,176255
5,27633,171473
5,28045,170018
5,28458,165356
5,28870,158802
5,29282,158449
5,29695,149822
5,30107,146428
5,30518,143160
5,30932,141276
5,31343,139257
5,31755,136220
5,32168,136257
5,32580,132323
5,32992,131658
5,33403,129050
5,33817,125607
5,34228,122998
5,34640,120477
5,35053,120849
5,35465,116566
5,35877,117804
5,36290,117397
5,36702,114847
5,37113,117368
5,37527,113509
5,37938,111583
5,38350,111327
5,38763,109730
5,39175,110665
5,39587,107718
5,40000,107369
5,40412,107154
5,40823,106292
5,41237,105073
5,41648,107278
5,42060,102717
5,42472,102287
5,42885,101756
5,43297,103844
5,43708,101857
5,44122,100225
5,44533,102165
5,44945,100670
5,45358,97615
5,45770,97682
5,46182,97772
5,46595,95717
5,47007,94173
5,47418,96475
5,47832,95234
5,48243,94473
5,48655,95146
5,49068,96246
5,49480,96346
5,49892,92893
5,50305,92171
5,50717,93162
5,51128,93635
5,51540,94131
5,51953,91136
5,52365,89543
5,52777,86701
5,53190,86412
5,53602,90153
5,54013,87851
5,54427,87699
5,54838,88174
5,55250,86277
5,55663,84920
5,56075,87316
5,56487,84767
5,56900,84027
5,57312,86358
5,57723,84703
5,58137,81372
5,58548,86044
5,58960,82472
5,59373,85891
5,59785,84953
5,60197,84225
5,60608,85016
5,61022,83516
5,61433,84933
5,61845,81185
5,62258,85186
5,62670,81825
5,63082,82330
5,63495,83319
5,63907,83334
5,64318,83541
5,64732,84326
5,65143,81000
5,65555,82737
5,65968,84313
5,66380,81586
5,66792,80252
5,67205,82277
5,67617,81053
5,68028,79195
5,68442,82146
5,68853,80527
5,69265,79417
5,69677,77319
5,70090,79827
5,70502,76467
5,70913,79838
5,71327,77354
5,71738,79196
5,72150,79275
5,72563,74682
5,72975,76935
5,73387,76413
5,73800,76731
5,74212,76127
5,74623,76030
5,75037,75148
5,75448,74058
5,75860,73234
5,76273,73010
5,76685,72431
5,77097,75440
5,77510,71571
5,77922,71359
5,78333,74142
5,78745,72553
5,79158,74882
5,79570,72220
5,79982,73686
5,80395,76992
5,80807,88124
5,81218,108731
5,81632,148298
5,82043,215458
5,82455,311396
5,82868,439506
5,83280,599732
5,83692,749310
5,84105,873272
5,84517,981563
5,84928,1055915
5,85342,1097924
5,85753,1110768
5,86165,1110285
5,86578,1084078
5,86990,1056209
5,87402,1028916
5,87813,1005867
5,88227,956286
5,88638,922220
5,89050,897071
5,89463,857594
5,89875,826330
5,90287,787552
5,90700,757252
5,91112,738142
5,91523,706798
5,91937,675186
5,92348,663187
5,92760,626767
5,93173,603232
5,93585,575314
5,93997,553398
5,94410,530413
5,94822,512307
5,95233,483871
5,95647,466502
5,96058,451468
5,96470,428667
5,96882,411556
5,97295,394704
5,97707,374118
5,98118,355393
5,98532,340975
5,98943,321072
5,99355,310156
5,99768,284698
6,00180,271035
6,00592,258501
6,01005,240656
6,01417,233344
6,01828,212700
6,02242,202847
6,02653,192262
6,03065,176848
6,03478,169901
6,03890,161013
6,04302,154159
6,04715,143627
6,05127,135219
6,05538,129124
6,05950,123488
6,06363,119158
6,06775,115748
6,07187,107897
6,07600,105806
6,08012,99905
6,08423,96378
6,08837,96537
6,09248,90935
6,09660,89615
6,10073,83663
6,10485,83763
6,10897,81000
6,11310,80902
6,11722,78682
6,12133,76829
6,12547,74076
6,12958,73559
6,13370,71107
6,13783,70067
6,14195,72299
6,14607,66850
6,15018,66721
6,15432,67481
6,15843,65729
6,16255,66772
6,16668,63493
6,17080,63199
6,17492,61566
6,17905,60724
6,18317,60669
6,18728,61123
6,19142,60597
6,19553,60824
6,19965,60424
6,20378,58861
6,20790,58846
6,21202,58683
6,21615,59614
6,22027,58599
6,22438,58309
6,22852,57521
6,23263,56768
6,23675,57657
6,24087,57721
6,24500,56204
6,24912,55444
6,25323,58263
6,25737,56828
6,26148,55330
6,26560,55701
6,26973,53907
6,27385,57897
6,27797,54826
6,28210,55699
6,28622,55263
6,29033,53391
6,29447,53554
6,29858,54221
6,30270,54137
6,30683,52698
6,31095,53235
6,31507,52292
6,31920,52872
6,32332,50082
6,32743,52922
6,33155,52796
6,33568,51807
6,33980,50893
6,34392,49967
6,34805,51364
6,35217,51170
6,35628,51647
6,36042,51730
6,36453,48342
6,36865,51755
6,37278,49571
6,37690,49202
6,38102,49572
6,38515,48411
6,38927,48823
6,39338,51612
6,39752,53215
6,40163,61050
6,40575,75505
6,40988,101436
6,41400,135589
6,41812,185941
6,42223,245543
6,42637,318801
6,43048,389944
6,43460,466590
6,43873,529986
6,44285,558326
6,44697,592167
6,45110,612801
6,45522,619342
6,45933,606044
6,46347,595074
6,46758,590353
6,47170,568482
6,47583,553328
6,47995,535247
6,48407,507937
6,48820,493224
6,49232,473856
6,49643,456007
6,50057,437058
6,50468,416875
6,50880,397802
6,51292,382682
6,51705,369357
6,52117,358362
6,52528,335379
6,52942,325231
6,53353,307336
6,53765,296743
6,54178,280658
6,54590,266161
6,55002,253165
6,55415,244887
6,55827,232772
6,56238,223624
6,56652,213996
6,57063,195859
6,57475,187764
6,57888,174140
6,58300,164915
6,58712,154778
6,59125,143754
6,59537,137475
6,59948,126676
6,60360,121191
6,60773,111881
6,61185,108056
6,61597,100988
6,62010,98013
6,62422,92195
6,62833,89587
6,63247,83281
6,63658,78359
6,64070,75410
6,64483,72962
6,64895,70398
6,65307,66669
6,65720,65962
6,66132,63836
6,66543,64493
6,66957,60979
6,67368,61234
6,67780,58113
6,68193,56640
6,68605,56129
6,69017,56629
6,69428,53513
6,69842,54036
6,70253,51599
6,70665,51766
6,71078,50630
6,71490,50806
6,71902,48951
6,72315,47801
6,72727,48732
6,73138,49544
6,73552,47233
6,73963,45895
6,74375,47089
6,74788,44974
6,75200,44697
6,75612,43193
6,76025,44788
6,76437,44574
6,76848,43337
6,77262,44211
6,77673,42811
6,78085,42308
6,78497,42866
6,78910,44638
6,79322,41474
6,79733,42157
6,80147,43092
6,80558,41865
6,80970,41252
6,81383,41289
6,81795,41610
6,82207,41153
6,82620,40925
6,83032,41707
6,83443,41894
6,83857,40637
6,84268,40464
6,84680,40188
6,85093,40918
6,85505,40472
6,85917,39388
6,86330,39695
6,86742,39696
6,87153,38935
6,87565,39437
6,87978,38449
6,88390,38495
6,88802,36628
6,89215,37634
6,89627,37763
6,90038,37849
6,90452,38685
6,90863,36195
6,91275,38916
6,91688,36016
6,92100,35674
6,92512,37611
6,92925,36261
6,93337,36966
6,93748,35569
6,94162,35288
6,94573,37238
6,94985,36917
6,95398,36416
6,95810,35258
6,96222,35835
6,96633,35931
6,97047,36201
6,97458,34764
6,97870,35912
6,98283,34931
6,98695,34479
6,99107,36719
6,99520,36337
6,99932,33683
7,00343,34679
7,00757,35722
7,01168,34807
7,01580,35709
7,01993,35579
7,02405,34108
7,02817,34466
7,03230,35937
7,03642,35296
7,04053,36216
7,04467,35377
7,04878,34825
7,05290,35680
7,05703,34981
7,06115,35455
7,06527,33647
7,06938,34120
7,07352,36119
7,07763,35627
7,08175,34126
7,08588,33988
7,09000,36678
7,09412,35137
7,09825,33688
7,10237,32997
7,10648,34644
7,11062,33989
7,11473,33956
7,11885,33231
7,12298,34256
7,12710,33660
7,13122,39273
7,13535,43250
7,13947,54757
7,14358,75472
7,14772,105538
7,15183,164486
7,15595,236656
7,16007,346537
7,16420,478111
7,16832,631614
7,17243,783102
7,17657,934353
7,18068,1062315
7,18480,1165466
7,18893,1238294
7,19305,1286181
7,19717,1303535
7,20130,1316104
7,20542,1287932
7,20953,1270978
7,21367,1227401
7,21778,1194522
7,22190,1138522
7,22603,1100469
7,23015,1055744
7,23427,1022721
7,23840,957004
7,24252,905540
7,24663,861783
7,25075,809724
7,25488,772094
7,25900,727981
7,26312,701590
7,26725,654802
7,27137,620696
7,27548,585210
7,27962,552224
7,28373,516713
7,28785,489340
7,29198,454701
7,29610,417826
7,30022,391441
7,30435,361262
7,30847,335999
7,31258,305914
7,31672,284396
7,32083,260495
7,32495,240456
7,32908,223709
7,33320,200506
7,33732,184588
7,34143,167865
7,34557,155629
7,34968,144421
7,35380,133912
7,35793,122819
7,36205,115273
7,36617,106148
7,37030,99968
7,37442,92991
7,37853,86606
7,38267,83793
7,38678,76576
7,39090,71326
7,39503,70744
7,39915,65564
7,40327,64166
7,40740,60242
7,41152,56808
7,41563,56482
7,41977,52570
7,42388,54363
7,42800,49316
7,43212,48332
7,43625,47702
7,44037,45211
7,44448,44635
7,44862,44975
7,45273,42891
7,45685,42137
7,46098,42308
7,46510,42372
7,46922,39149
7,47335,40173
7,47747,36736
7,48158,37162
7,48572,37175
7,48983,37141
7,49395,34973
7,49808,37474
7,50220,35622
7,50632,35263
7,51045,36390
7,51457,33929
7,51868,35412
7,52280,33566
7,52693,35867
7,53105,34577
7,53517,32869
7,53930,33890
7,54342,33862
7,54753,32876
7,55167,33280
7,55578,34421
7,55990,31486
7,56403,31254
7,56815,33666
7,57227,32058
7,57640,32644
7,58052,33076
7,58463,33062
7,58877,32083
7,59288,32035
7,59700,29609
7,60113,32019
7,60525,30269
7,60937,31720
7,61348,30307
7,61762,28590
7,62173,29132
7,62585,30420
7,62998,29866
7,63410,29325
7,63822,29484
7,64235,29109
7,64647,29627
7,65058,29149
7,65472,28190
7,65883,29604
7,66295,28436
7,66708,28084
7,67120,27367
7,67532,27937
7,67945,27564
7,68357,30121
7,68768,30255
7,69182,29151
7,69593,28103
7,70005,29026
7,70417,27994
7,70830,28611
7,71242,28513
7,71653,27909
7,72067,28377
7,72478,27238
7,72890,28689
7,73303,27054
7,73715,28751
7,74127,27434
7,74540,27506
7,74952,27002
7,75363,28356
7,75777,26793
7,76188,25888
7,76600,27016
7,77013,27276
7,77425,27871
7,77837,26382
7,78250,26236
7,78662,27388
7,79073,27583
7,79485,27837
7,79898,27393
7,80310,27798
7,80722,27713
7,81135,27430
7,81547,26988
7,81958,26250
7,82372,24775
7,82783,27235
7,83195,26012
7,83608,25252
7,84020,26823
7,84432,26069
7,84845,26560
7,85257,25279
7,85668,25668
7,86082,25242
7,86493,24669
7,86905,26564
7,87318,25748
7,87730,24684
7,88142,26417
7,88553,26462
7,88967,25155
7,89378,24231
7,89790,25087
7,90203,24976
7,90615,24670
7,91027,24820
7,91440,24849
7,91852,25326
7,92263,25106
7,92677,25528
7,93088,24377
7,93500,24166
7,93913,25675
7,94325,26768
7,94737,26136
7,95150,24849
7,95562,25269
7,95973,26148
7,96387,26538
7,96798,25288
7,97210,26641
7,97622,27019
7,98035,26321
7,98447,26811
7,98858,29389
7,99272,27720
7,99683,25904
8,00095,27975
8,00508,27349
8,00920,28015
8,01332,26497
8,01745,28311
8,02157,29236
8,02568,30785
8,02982,33363
8,03393,38723
8,03805,49236
8,04218,65071
8,04630,92076
8,05042,126345
8,05455,177595
8,05867,236860
8,06278,305408
8,06690,388502
8,07103,463788
8,07515,541933
8,07927,607991
8,08340,665108
8,08752,700752
8,09163,726524
8,09577,740150
8,09988,736814
8,10400,730522
8,10813,707103
8,11225,685831
8,11637,664816
8,12050,636259
8,12462,608994
8,12873,582775
8,13287,548046
8,13698,519915
8,14110,487955
8,14523,457411
8,14935,431375
8,15347,407738
8,15758,379274
8,16172,351874
8,16583,326837
8,16995,303797
8,17408,277916
8,17820,256391
8,18232,240811
8,18645,218747
8,19057,202499
8,19468,181631
8,19882,168686
8,20293,152754
8,20705,138791
8,21118,128259
8,21530,117758
8,21942,105812
8,22355,100510
8,22767,91149
8,23178,85332
8,23592,78677
8,24003,71809
8,24415,65964
8,24827,62214
8,25240,58863
8,25652,55592
8,26063,52672
8,26477,50704
8,26888,47710
8,27300,44866
8,27713,44294
8,28125,40015
8,28537,40238
8,28950,38177
8,29362,35298
8,29773,37658
8,30187,35797
8,30598,34408
8,31010,33485
8,31423,30854
8,31835,33602
8,32247,30865
8,32660,30282
8,33072,31246
8,33483,29771
8,33895,30187
8,34308,29408
8,34720,28456
8,35132,28794
8,35545,28519
8,35957,26609
8,36368,27631
8,36782,25853
8,37193,27975
8,37605,24917
8,38018,25828
8,38430,25839
8,38842,26419
8,39255,25872
8,39667,25019
8,40078,25344
8,40492,23745
8,40903,23648
8,41315,24517
8,41728,23201
8,42140,23561
8,42552,23429
8,42963,23931
8,43377,24381
8,43788,23342
8,44200,23563
8,44613,23643
8,45025,22053
8,45437,22840
8,45850,22480
8,46262,23685
8,46673,22014
8,47087,22806
8,47498,22682
8,47910,22528
8,48323,21646
8,48735,22664
8,49147,21174
8,49560,23047
8,49972,23288
8,50383,22084
8,50797,24427
8,51208,21275
8,51620,22246
8,52032,21742
8,52445,21112
8,52857,22513
8,53268,20188
8,53682,21799
8,54093,21495
8,54505,22190
8,54918,22100
8,55330,21822
8,55742,21790
8,56155,22780
8,56567,22114
8,56978,23592
8,57392,22356
8,57803,22723
8,58215,23863
8,58628,25434
8,59040,24593
8,59452,26078
8,59865,25731
8,60277,23162
8,60688,24677
8,61100,24801
8,61513,23873
8,61925,24183
8,62337,22438
8,62750,21931
8,63162,24043
8,63573,23315
8,63987,24423
8,64398,22642
8,64810,21901
8,65223,22296
8,65635,21466
8,66047,22840
8,66460,20658
8,66872,22213
8,67283,20345
8,67697,20417
8,68108,22356
8,68520,20147
8,68933,20171
8,69345,19624
8,69757,19575
8,70168,20231
8,70582,19135
8,70993,19861
8,71405,19573
8,71818,20284
8,72230,20484
8,72642,19598
8,73055,19003
8,73467,19696
8,73878,19669
8,74292,19745
8,74703,19462
8,75115,18778
8,75528,19149
8,75940,19199
8,76352,19329
8,76765,18483
8,77177,19066
8,77588,18746
8,78002,18412
8,78413,19372
8,78825,19658
8,79238,18948
8,79650,18037
8,80062,19736
8,80473,17870
8,80887,18276
8,81298,19166
8,81710,19294
8,82123,19270
8,82535,17821
8,82947,19545
8,83360,18268
8,83772,18414
8,84183,19699
8,84597,18146
8,85008,18810
8,85420,18482
8,85833,17944
8,86245,18474
8,86657,19433
8,87070,19985
8,87482,19964
8,87893,20982
8,88307,20938
8,88718,22452
8,89130,22367
8,89542,23503
8,89955,23134
8,90367,22848
8,90778,21846
8,91192,23436
8,91603,23553
8,92015,24729
8,92428,23564
8,92840,23368
8,93252,23358
8,93665,23347
8,94077,22836
8,94488,22567
8,94902,21937
8,95313,21900
8,95725,22425
8,96138,23039
8,96550,22524
8,96962,21420
8,97375,21946
8,97787,21521
8,98198,21058
8,98610,20409
8,99023,19795
8,99435,20696
8,99847,19139
9,00260,18714
9,00672,19741
9,01083,20947
9,01497,17583
9,01908,20006
9,02320,19941
9,02733,16959
9,03145,20048
9,03557,19038
9,03970,18842
9,04382,18661
9,04793,18323
9,05207,18905
9,05618,19792
9,06030,18644
9,06443,23155
9,06855,24467
9,07267,33073
9,07678,46808
9,08092,66510
9,08503,101736
9,08915,151724
9,09328,221615
9,09740,321551
9,10152,445258
9,10565,588646
9,10977,746685
9,11388,913195
9,11802,1093556
9,12213,1258793
9,12625,1390893
9,13038,1486463
9,13450,1577795
9,13862,1614988
9,14275,1646807
9,14687,1652965
9,15098,1624757
9,15512,1584300
9,15923,1517895
9,16335,1460204
9,16747,1373699
9,17160,1296010
9,17572,1205283
9,17983,1132451
9,18397,1043880
9,18808,976231
9,19220,901666
9,19633,811770
9,20045,754526
9,20457,677763
9,20870,619453
9,21282,559601
9,21693,509177
9,22107,455435
9,22518,409432
9,22930,361225
9,23343,331089
9,23755,291631
9,24167,263153
9,24580,231332
9,24992,207538
9,25403,190584
9,25815,170772
9,26228,156099
9,26640,141338
9,27052,126044
9,27465,117262
9,27877,107374
9,28288,101047
9,28702,92471
9,29113,83900
9,29525,83335
9,29938,78507
9,30350,72717
9,30762,70613
9,31175,67125
9,31587,65553
9,31998,61758
9,32412,57246
9,32823,56064
9,33235,52491
9,33648,48621
9,34060,47125
9,34472,47922
9,34883,45342
9,35297,43209
9,35708,41861
9,36120,40312
9,36533,41557
9,36945,38552
9,37357,37738
9,37770,37290
9,38182,34651
9,38593,35144
9,39007,33307
9,39418,34649
9,39830,30171
9,40243,30225
9,40655,29396
9,41067,29783
9,41480,29383
9,41892,28925
9,42303,26793
9,42717,26551
9,43128,26067
9,43540,27445
9,43952,24766
9,44365,27093
9,44777,24057
9,45188,26154
9,45602,23023
9,46013,22628
9,46425,22572
9,46838,22481
9,47250,23638
9,47662,22051
9,48075,22309
9,48487,22040
9,48898,23085
9,49312,22033
9,49723,21495
9,50135,22243
9,50548,22811
9,50960,22048
9,51372,20094
9,51785,21619
9,52197,20461
9,52608,22577
9,53020,23825
9,53433,22470
9,53845,23448
9,54257,22553
9,54670,21851
9,55082,22409
9,55493,23716
9,55907,21456
9,56318,22378
9,56730,21052
9,57143,21575
9,57555,20633
9,57967,19925
9,58380,20237
9,58792,19985
9,59203,20272
9,59617,20580
9,60028,20912
9,60440,19311
9,60853,19585
9,61265,19043
9,61677,17344
9,62088,17938
9,62502,18696
9,62913,18229
9,63325,17798
9,63738,17036
9,64150,18650
9,64562,17223
9,64975,18583
9,65387,17755
9,65798,16472
9,66212,16802
9,66623,17403
9,67035,18251
9,67448,19368
9,67860,18518
9,68272,18875
9,68685,19947
9,69097,19248
9,69508,20294
9,69922,19500
9,70333,18728
9,70745,20216
9,71157,19343
9,71570,19388
9,71982,19232
9,72393,20458
9,72807,20456
9,73218,18814
9,73630,19557
9,74043,18975
9,74455,17904
9,74867,18066
9,75280,16644
9,75692,17784
9,76103,19014
9,76517,18379
9,76928,17174
9,77340,16764
9,77753,18721
9,78165,16246
9,78577,17719
9,78990,16893
9,79402,14981
9,79813,16467
9,80225,16429
9,80638,15824
9,81050,15945
9,81462,14932
9,81875,15399
9,82287,15498
9,82698,14556
9,83112,15146
9,83523,15022
9,83935,15908
9,84348,15897
9,84760,15368
9,85172,14536
9,85585,14673
9,85997,15560
9,86408,14471
9,86822,14961
9,87233,15317
9,87645,15155
9,88058,15288
9,88470,14567
9,88882,15669
9,89293,14957
9,89707,15194
9,90118,14619
9,90530,14675
9,90943,17784
9,91355,18485
9,91767,21835
9,92180,27196
9,92592,36347
9,93003,51242
9,93417,68184
9,93828,101527
9,94240,132732
9,94653,189115
9,95065,247337
9,95477,314699
9,95890,396925
9,96302,469987
9,96713,554168
9,97127,631827
9,97538,692412
9,97950,747160
9,98362,777562
9,98775,800330
9,99187,806888
9,99598,795886
10,00012,785840
10,00423,762972
10,00835,738327
10,01248,694696
10,01660,662363
10,02072,622223
10,02485,572920
10,02897,537877
10,03308,493889
10,03722,447393
10,04133,411815
10,04545,374252
10,04958,337840
10,05370,304258
10,05782,277032
10,06195,243823
10,06607,225168
10,07018,206020
10,07430,174607
10,07843,158012
10,08255,146679
10,08667,127056
10,09080,118151
10,09492,103370
10,09903,96045
10,10317,85095
10,10728,80411
10,11140,73748
10,11553,65526
10,11965,63279
10,12377,56117
10,12790,52774
10,13202,50405
10,13613,48053
10,14027,43800
10,14438,43521
10,14850,40523
10,15263,37678
10,15675,36036
10,16087,34558
10,16498,34853
10,16912,31523
10,17323,31571
10,17735,31606
10,18148,29667
10,18560,27962
10,18972,27430
10,19385,28277
10,19797,26381
10,20208,25386
10,20622,24952
10,21033,23844
10,21445,22781
10,21858,23058
10,22270,23351
10,22682,22972
10,23095,23973
10,23507,23975
10,23918,26190
10,24332,27564
10,24743,34958
10,25155,46090
10,25567,60961
10,25980,85190
10,26392,118153
10,26803,169718
10,27217,228451
10,27628,299286
10,28040,379206
10,28453,467627
10,28865,560391
10,29277,659112
10,29690,732810
10,30102,799480
10,30513,839228
10,30927,891457
10,31338,897815
10,31750,909041
10,32163,900892
10,32575,888733
10,32987,848300
10,33400,809827
10,33812,758467
10,34223,721809
10,34635,664358
10,35048,614565
10,35460,568298
10,35872,516327
10,36285,461892
10,36697,410561
10,37108,373788
10,37522,330282
10,37933,298870
10,38345,265332
10,38758,234783
10,39170,212040
10,39582,183572
10,39995,167570
10,40407,147955
10,40818,130981
10,41232,119174
10,41643,104841
10,42055,98008
10,42468,85681
10,42880,79075
10,43292,74505
10,43705,65293
10,44117,62672
10,44528,57530
10,44940,54084
10,45353,48824
10,45765,46803
10,46177,43082
10,46590,40716
10,47002,40191
10,47413,37184
10,47827,38527
10,48238,35167
10,48650,33540
10,49063,32376
10,49475,31826
10,49887,31624
10,50300,29276
10,50712,28833
10,51123,27279
10,51537,27256
10,51948,25143
10,52360,25117
10,52773,24666
10,53185,24234
10,53597,23680
10,54008,21047
10,54422,22038
10,54833,22203
10,55245,22694
10,55658,20816
10,56070,20924
10,56482,20178
10,56895,19566
10,57307,19442
10,57718,18745
10,58132,18707
10,58543,18864
10,58955,19421
10,59368,18888
10,59780,18065
10,60192,17267
10,60605,17319
10,61017,17384
10,61428,15263
10,61842,16780
10,62253,17185
10,62665,16454
10,63077,17114
10,63490,16398
10,63902,15658
10,64313,16843
10,64727,16280
10,65138,14770
10,65550,15185
10,65963,15706
10,66375,15475
10,66787,15131
10,67200,14581
10,67612,13492
10,68023,14454
10,68437,15534
10,68848,15359
10,69260,15725
10,69673,14252
10,70085,14256
10,70497,14392
10,70910,14765
10,71322,13961
10,71733,15524
10,72145,13683
10,72558,14783
10,72970,13897
10,73382,13836
10,73795,13072
10,74207,12576
10,74618,13008
10,75032,12697
10,75443,13611
10,75855,13396
10,76268,14076
10,76680,14734
10,77092,12572
10,77505,12986
10,77917,13128
10,78328,13486
10,78742,13883
10,79153,13838
10,79565,13156
10,79978,13426
10,80390,12555
10,80802,13556
10,81213,13774
10,81627,15236
10,82038,12553
10,82450,13436
10,82863,12788
10,83275,12518
10,83687,13613
10,84100,13270
10,84512,13761
10,84923,14098
10,85337,13038
10,85748,12369
10,86160,12054
10,86573,13315
10,86985,12305
10,87397,12823
10,87810,12440
10,88222,13065
10,88633,12867
10,89047,13116
10,89458,12744
10,89870,13360
10,90282,12121
10,90695,13390
10,91107,12602
10,91518,11865
10,91932,13865
10,92343,12623
10,92755,13260
10,93168,12170
10,93580,12009
10,93992,12006
10,94405,13242
10,94817,13204
10,95228,13143
10,95642,13068
10,96053,12547
10,96465,13419
10,96878,12206
10,97290,13296
10,97702,12253
10,98115,13117
10,98527,12406
10,98938,11468
10,99350,12318
10,99763,12764
11,00175,11315
11,00587,13310
11,01000,12692
11,01412,13433
11,01823,11601
11,02237,12315
11,02648,12780
11,03060,12809
11,03473,12962
11,03885,12203
11,04297,12044
11,04710,12294
11,05122,12170
11,05533,12202
11,05947,12243
11,06358,11315
11,06770,11757
11,07183,12293
11,07595,10485
11,08007,11895
11,08418,11375
11,08832,11376
11,09243,10808
11,09655,11695
11,10068,12552
11,10480,10972
11,10892,11745
11,11305,11924
11,11717,11839
11,12128,11467
11,12542,11783
11,12953,12067
11,13365,11056
11,13778,11104
11,14190,10955
11,14602,10265
11,15015,11688
11,15427,12361
11,15838,13602
11,16252,13459
11,16663,17183
11,17075,21957
11,17487,29409
11,17900,40097
11,18312,60362
11,18723,84909
11,19137,118015
11,19548,169754
11,19960,223172
11,20373,293967
11,20785,371438
11,21197,460748
11,21610,544039
11,22022,629851
11,22433,709201
11,22847,775609
11,23258,826816
11,23670,868986
11,24083,886405
11,24495,904753
11,24907,881854
11,25320,857490
11,25732,815427
11,26143,781301
11,26555,732209
11,26968,681840
11,27380,620956
11,27792,566922
11,28205,510466
11,28617,460175
11,29028,417264
11,29442,367188
11,29853,331375
11,30265,296154
11,30678,262946
11,31090,225880
11,31502,204574
11,31915,179733
11,32327,158820
11,32738,144177
11,33152,127191
11,33563,115229
11,33975,101224
11,34388,92577
11,34800,87160
11,35212,79197
11,35623,70577
11,36037,65201
11,36448,60972
11,36860,57655
11,37273,52149
11,37685,49877
11,38097,46130
11,38510,43627
11,38922,42280
11,39333,39633
11,39747,36840
11,40158,33425
11,40570,34478
11,40983,33418
11,41395,31347
11,41807,30462
11,42220,28250
11,42632,27786
11,43043,25614
11,43457,27889
11,43868,26602
11,44280,23891
11,44692,24068
11,45105,23079
11,45517,22941
11,45928,22046
11,46342,21611
11,46753,23057
11,47165,21349
11,47578,19463
11,47990,18979
11,48402,18513
11,48815,19532
11,49227,18669
11,49638,18888
11,50052,18519
11,50463,21861
11,50875,26145
11,51288,33235
11,51700,48635
11,52112,74509
11,52525,110622
11,52937,166252
11,53348,241137
11,53760,358745
11,54173,501675
11,54585,672047
11,54997,893737
11,55410,1117665
11,55822,1388090
11,56233,1674781
11,56647,1974944
11,57058,2252811
11,57470,2511721
11,57883,2744776
11,58295,2901634
11,58707,3040263
11,59120,3100289
11,59532,3076774
11,59943,2999402
11,60357,2887083
11,60768,2741275
11,61180,2544275
11,61593,2338906
11,62005,2128861
11,62417,1920197
11,62828,1718426
11,63242,1510674
11,63653,1338599
11,64065,1178052
11,64478,1032395
11,64890,905070
11,65302,794759
11,65715,678810
11,66127,594937
11,66538,529193
11,66952,456578
11,67363,409004
11,67775,362747
11,68188,325634
11,68600,285219
11,69012,260784
11,69425,233900
11,69837,209346
11,70248,193889
11,70662,175430
11,71073,160673
11,71485,153474
11,71897,137919
11,72310,129479
11,72722,117860
11,73133,109297
11,73547,104373
11,73958,99786
11,74370,90013
11,74783,84271
11,75195,79008
11,75607,76191
11,76020,72462
11,76432,68877
11,76843,67075
11,77257,62566
11,77668,60108
11,78080,57771
11,78493,53703
11,78905,51858
11,79317,51376
11,79730,49786
11,80142,47641
11,80553,46487
11,80965,41781
11,81378,42003
11,81790,39893
11,82202,39625
11,82615,37305
11,83027,34659
11,83438,36341
11,83852,36889
11,84263,31944
11,84675,32675
11,85088,32656
11,85500,30889
11,85912,31213
11,86325,30692
11,86737,25863
11,87148,29725
11,87562,29064
11,87973,26921
11,88385,26691
11,88798,25763
11,89210,27568
11,89622,25237
11,90033,24987
11,90447,24231
11,90858,24027
11,91270,22843
11,91683,21452
11,92095,23095
11,92507,21514
11,92920,20652
11,93332,20399
11,93743,20617
11,94157,20397
11,94568,19557
11,94980,19750
11,95393,19469
11,95805,18512
11,96217,18243
11,96630,17931
11,97042,19057
11,97453,17808
11,97867,17899
11,98278,17729
11,98690,17383
11,99103,16827
11,99515,16289
11,99927,17287
12,00338,17366
12,00752,16178
12,01163,17186
12,01575,15968
12,01988,15249
12,02400,16049
12,02812,15851
12,03225,15250
12,03637,16313
12,04048,14433
12,04462,14701
12,04873,15565
12,05285,14629
12,05698,15080
12,06110,14917
12,06522,14450
12,06935,15218
12,07347,14238
12,07758,14633
12,08172,14042
12,08583,14282
12,08995,14396
12,09407,15361
12,09820,14902
12,10232,14737
12,10643,14931
12,11057,14854
12,11468,14170
12,11880,14229
12,12293,14667
12,12705,14566
12,13117,14589
12,13530,14627
12,13942,13259
12,14353,13568
12,14767,12883
12,15178,13602
12,15590,13809
12,16003,11717
12,16415,12203
12,16827,12745
12,17240,13005
12,17652,11848
12,18063,11934
12,18475,12281
12,18888,11633
12,19300,12588
12,19712,11924
12,20125,12983
12,20537,11415
12,20948,12243
12,21362,12128
12,21773,11740
12,22185,11741
12,22598,12453
12,23010,12381
12,23422,13162
12,23835,12529
12,24247,12340
12,24658,13015
12,25072,12727
12,25483,13827
12,25895,13640
12,26308,13686
12,26720,14027
12,27132,12556
12,27543,12849
12,27957,12493
12,28368,13311
12,28780,12268
12,29193,13062
12,29605,12640
12,30017,12800
12,30430,13221
12,30842,14611
12,31253,15576
12,31667,18484
12,32078,23681
12,32490,32909
12,32903,44258
12,33315,64378
12,33727,91977
12,34140,131442
12,34552,177643
12,34963,238297
12,35377,315773
12,35788,400313
12,36200,483565
12,36612,585589
12,37025,675817
12,37437,758596
12,37848,835933
12,38262,892848
12,38673,934822
12,39085,946527
12,39498,952856
12,39910,936494
12,40322,913270
12,40735,863237
12,41147,812963
12,41558,753436
12,41972,681644
12,42383,618225
12,42795,558343
12,43208,508303
12,43620,453166
12,44032,395710
12,44445,351795
12,44857,308729
12,45268,271588
12,45680,244688
12,46093,212696
12,46505,188277
12,46917,172779
12,47330,153073
12,47742,138829
12,48153,124590
12,48567,113139
12,48978,101668
12,49390,93641
12,49803,83124
12,50215,77724
12,50627,75709
12,51040,66694
12,51452,64750
12,51863,60129
12,52277,54159
12,52688,53101
12,53100,49223
12,53513,47224
12,53925,44465
12,54337,43614
12,54748,42910
12,55162,39775
12,55573,38050
12,55985,37280
12,56398,37366
12,56810,37556
12,57222,36977
12,57635,33185
12,58047,34410
12,58458,31891
12,58872,30721
12,59283,29591
12,59695,29166
12,60108,26592
12,60520,26206
12,60932,25391
12,61345,26335
12,61757,25116
12,62168,23830
12,62582,24003
12,62993,22926
12,63405,22224
12,63817,21150
12,64230,21831
12,64642,20313
12,65053,21056
12,65467,19425
12,65878,17610
12,66290,18869
12,66703,18374
12,67115,17858
12,67527,16369
12,67940,16434
12,68352,17133
12,68763,16400
12,69177,17534
12,69588,14422
12,70000,14908
12,70413,14695
12,70825,13821
12,71237,14857
12,71650,13736
12,72062,14019
12,72473,14428
12,72885,12940
12,73298,14311
12,73710,13217
12,74122,13680
12,74535,13266
12,74947,12826
12,75358,13097
12,75772,13108
12,76183,14706
12,76595,12031
12,77008,12750
12,77420,12673
12,77832,11016
12,78245,12382
12,78657,11857
12,79068,12678
12,79482,12130
12,79893,12662
12,80305,11711
12,80718,11848
12,81130,11814
12,81542,10842
12,81953,11961
12,82367,12222
12,82778,12172
12,83190,12043
12,83603,11688
12,84015,12089
12,84427,13318
12,84840,13149
12,85252,16706
12,85663,21470
12,86077,28916
12,86488,40840
12,86900,58795
12,87313,80822
12,87725,116311
12,88137,171410
12,88550,232655
12,88962,305318
12,89373,399925
12,89787,494589
12,90198,602950
12,90610,706713
12,91022,802848
12,91435,894203
12,91847,987950
12,92258,1040201
12,92672,1077051
12,93083,1094466
12,93495,1069213
12,93908,1046848
12,94320,1002152
12,94732,932039
12,95145,859153
12,95557,789234
12,95968,715991
12,96382,637952
12,96793,558721
12,97205,493472
12,97618,431627
12,98030,380159
12,98442,333508
12,98855,291367
12,99267,253892
12,99678,221307
13,00090,199532
13,00503,173362
13,00915,153303
13,01327,140711
13,01740,125184
13,02152,113425
13,02563,102036
13,02977,92728
13,03388,85703
13,03800,76285
13,04213,73664
13,04625,66336
13,05037,61239
13,05450,57069
13,05862,52017
13,06273,49493
13,06687,46604
13,07098,44079
13,07510,42125
13,07923,39009
13,08335,37665
13,08747,36057
13,09158,34145
13,09572,33624
13,09983,31600
13,10395,29243
13,10808,30445
13,11220,27169
13,11632,29175
13,12045,25979
13,12457,25480
13,12868,24207
13,13282,24367
13,13693,23847
13,14105,22880
13,14518,22249
13,14930,21311
13,15342,21802
13,15755,21490
13,16167,19722
13,16578,20060
13,16992,19862
13,17403,16900
13,17815,20054
13,18227,18013
13,18640,18401
13,19052,18262
13,19463,18102
13,19877,17888
13,20288,15652
13,20700,15475
13,21113,16723
13,21525,16301
13,21937,14862
13,22350,13609
13,22762,14445
13,23173,16079
13,23587,14064
13,23998,14702
13,24410,14648
13,24823,13547
13,25235,12253
13,25647,12432
13,26060,14650
13,26472,13385
13,26883,13507
13,27295,12674
13,27708,12723
13,28120,13622
13,28532,12525
13,28945,12606
13,29357,12593
13,29768,12179
13,30182,12792
13,30593,11028
13,31005,11439
13,31418,11438
13,31830,12005
13,32242,11256
13,32655,11561
13,33067,12285
13,33478,11852
13,33892,11214
13,34303,11483
13,34715,10827
13,35128,11678
13,35540,11049
13,35952,11335
13,36363,10212
13,36777,11505
13,37188,9850
13,37600,10749
13,38013,11128
13,38425,10847
13,38837,10607
13,39250,9716
13,39662,11234
13,40073,11183
13,40487,10763
13,40898,10247
13,41310,10477
13,41723,10591
13,42135,10482
13,42547,10944
13,42960,10323
13,43372,10332
13,43783,10038
13,44197,10378
13,44608,9720
13,45020,9133
13,45432,10558
13,45845,9853
13,46257,10127
13,46668,9779
13,47082,9971
13,47493,9475
13,47905,8151
13,48318,10530
13,48730,9874
13,49142,9309
13,49555,9854
13,49967,9307
13,50378,10485
13,50792,10373
13,51203,9589
13,51615,9925
13,52028,9871
13,52440,9955
13,52852,9784
13,53265,10111
13,53677,9537
13,54088,10595
13,54500,10952
13,54913,11143
13,55325,10904
13,55737,9521
13,56150,9994
13,56562,9293
13,56973,10283
13,57387,10433
13,57798,9490
13,58210,10715
13,58623,10138
13,59035,9070
13,59447,9948
13,59860,10264
13,60272,10063
13,60683,9606
13,61097,10134
13,61508,9904
13,61920,9224
13,62333,9490
13,62745,10162
13,63157,8962
13,63570,8871
13,63982,9135
13,64393,9387
13,64805,9536
13,65218,10008
13,65630,10074
13,66042,9512
13,66455,9596
13,66867,10378
13,67278,10671
13,67692,12340
13,68103,12557
13,68515,16548
13,68928,19973
13,69340,30534
13,69752,42224
13,70165,56666
13,70577,83429
13,70988,122026
13,71402,167680
13,71813,232631
13,72225,320589
13,72638,398972
13,73050,502496
13,73462,609371
13,73873,711558
13,74287,804429
13,74698,885288
13,75110,971434
13,75523,1027706
13,75935,1029636
13,76347,1040804
13,76760,1033309
13,77172,992814
13,77583,948090
13,77997,888532
13,78408,813333
13,78820,742122
13,79233,658943
13,79645,590508
13,80057,526705
13,80470,461397
13,80882,406827
13,81293,357376
13,81707,313770
13,82118,277584
13,82530,244106
13,82942,214539
13,83355,192182
13,83767,170330
13,84178,147647
13,84592,133014
13,85003,119821
13,85415,111424
13,85828,99575
13,86240,91324
13,86652,83063
13,87065,75696
13,87477,73720
13,87888,67197
13,88302,60274
13,88713,56237
13,89125,51942
13,89538,51248
13,89950,46713
13,90362,45304
13,90775,41495
13,91187,41192
13,91598,39071
13,92010,34648
13,92423,34676
13,92835,33456
13,93247,32341
13,93660,30407
13,94072,30945
13,94483,29974
13,94897,28204
13,95308,27228
13,95720,25692
13,96133,23548
13,96545,24608
13,96957,24331
13,97370,24468
13,97782,23247
13,98193,22982
13,98607,23788
13,99018,24628
13,99430,23988
13,99843,25472
14,00255,26477
14,00667,26458
14,01078,25665
14,01492,25555
14,01903,26131
14,02315,26468
14,02728,25625
14,03140,25111
14,03552,24004
14,03965,24608
14,04377,24535
14,04788,22570
14,05202,21327
14,05613,22113
14,06025,20409
14,06438,20753
14,06850,20105
14,07262,18286
14,07675,18933
14,08087,16938
14,08498,15303
14,08912,15468
14,09323,16012
14,09735,15048
14,10147,14569
14,10560,14887
14,10972,15411
14,11383,13820
14,11797,13939
14,12208,15590
14,12620,13999
14,13033,15041
14,13445,12705
14,13857,12548
14,14270,12567
14,14682,13225
14,15093,13461
14,15507,12718
14,15918,12904
14,16330,11419
14,16743,11532
14,17155,13479
14,17567,11990
14,17980,11347
14,18392,11420
14,18803,11540
14,19215,11160
14,19628,11219
14,20040,10996
14,20452,11160
14,20865,10273
14,21277,11488
14,21688,12151
14,22102,12706
14,22513,12970
14,22925,14624
14,23338,17488
14,23750,24342
14,24162,36093
14,24575,54218
14,24987,80152
14,25398,121781
14,25812,179763
14,26223,256716
14,26635,355120
14,27048,485541
14,27460,636729
14,27872,817938
14,28283,1022914
14,28697,1248262
14,29108,1475505
14,29520,1709960
14,29933,1904578
14,30345,2088082
14,30757,2250785
14,31170,2351430
14,31582,2432683
14,31993,2390453
14,32407,2338115
14,32818,2233168
14,33230,2087235
14,33643,1929714
14,34055,1745993
14,34467,1551001
14,34880,1362166
14,35292,1188321
14,35703,1035661
14,36117,904384
14,36528,791458
14,36940,691420
14,37352,593744
14,37765,524571
14,38177,454116
14,38588,404048
14,39002,354149
14,39413,316763
14,39825,283425
14,40238,253698
14,40650,228290
14,41062,211378
14,41475,190090
14,41887,168945
14,42298,154623
14,42712,143255
14,43123,134375
14,43535,125690
14,43948,116855
14,44360,109243
14,44772,102199
14,45185,93428
14,45597,88867
14,46008,82405
14,46420,78111
14,46833,74259
14,47245,72170
14,47657,64455
14,48070,64205
14,48482,60017
14,48893,56290
14,49307,55677
14,49718,51516
14,50130,50350
14,50543,48708
14,50955,46166
14,51367,45448
14,51780,42737
14,52192,40460
14,52603,38113
14,53017,37243
14,53428,36306
14,53840,34839
14,54253,33684
14,54665,33972
14,55077,31702
14,55488,29775
14,55902,30259
14,56313,28665
14,56725,27930
14,57138,28034
14,57550,27088
14,57962,25828
14,58375,24222
14,58787,24748
14,59198,24474
14,59612,24319
14,60023,22945
14,60435,22066
14,60848,24350
14,61260,22877
14,61672,22090
14,62085,21863
14,62497,19704
14,62908,19669
14,63322,18378
14,63733,20843
14,64145,18690
14,64557,19959
14,64970,17527
14,65382,18246
14,65793,18692
14,66207,18121
14,66618,16660
14,67030,16515
14,67443,16904
14,67855,16044
14,68267,15953
14,68680,14599
14,69092,16030
14,69503,15888
14,69917,15364
14,70328,15941
14,70740,16505
14,71153,15936
14,71565,17892
14,71977,19621
14,72390,25338
14,72802,32130
14,73213,43493
14,73625,58050
14,74038,88201
14,74450,118670
14,74862,167979
14,75275,225040
14,75687,307250
14,76098,393462
14,76512,499494
14,76923,602001
14,77335,724561
14,77748,838108
14,78160,932060
14,78572,1023042
14,78985,1083020
14,79397,1121000
14,79808,1136502
14,80222,1122424
14,80633,1094671
14,81045,1044796
14,81458,970581
14,81870,898711
14,82282,814370
14,82693,731159
14,83107,650715
14,83518,571258
14,83930,504824
14,84343,444376
14,84755,390802
14,85167,334321
14,85580,303397
14,85992,263487
14,86403,231509
14,86817,209047
14,87228,188955
14,87640,168170
14,88053,149353
14,88465,137004
14,88877,119915
14,89290,108118
14,89702,101836
14,90113,92966
14,90527,88700
14,90938,81153
14,91350,74994
14,91762,69460
14,92175,64248
14,92587,63210
14,92998,57484
14,93412,55834
14,93823,52408
14,94235,49720
14,94648,48830
14,95060,47600
14,95472,45680
14,95885,45984
14,96297,52736
14,96708,60230
14,97122,74806
14,97533,95678
14,97945,134992
14,98358,183579
14,98770,254646
14,99182,345520
14,99595,460657
15,00007,610910
15,00418,777458
15,00830,968546
15,01243,1193516
15,01655,1400472
15,02067,1636256
15,02480,1834124
15,02892,2019075
15,03303,2185349
15,03717,2259908
15,04128,2301747
15,04540,2303904
15,04953,2245010
15,05365,2134406
15,05777,1989474
15,06190,1827236
15,06602,1651736
15,07013,1485185
15,07427,1322639
15,07838,1166688
15,08250,1016512
15,08663,888905
15,09075,769921
15,09487,677886
15,09898,592000
15,10312,517786
15,10723,460140
15,11135,408790
15,11548,360120
15,11960,325256
15,12372,285527
15,12785,266420
15,13197,242166
15,13608,220401
15,14022,199393
15,14433,183919
15,14845,166269
15,15258,155335
15,15670,139296
15,16082,134501
15,16495,123920
15,16907,114777
15,17318,109058
15,17732,103864
15,18143,97034
15,18555,90644
15,18967,84716
15,19380,81016
15,19792,78574
15,20203,74530
15,20617,69443
15,21028,63520
15,21440,63436
15,21853,60116
15,22265,56355
15,22677,55187
15,23090,51040
15,23502,49681
15,23913,47391
15,24327,44886
15,24738,42314
15,25150,44463
15,25563,42551
15,25975,40310
15,26387,40099
15,26800,38095
15,27212,37639
15,27623,36363
15,28037,35558
15,28448,34069
15,28860,31480
15,29272,30294
15,29685,31305
15,30097,30538
15,30508,29856
15,30922,27738
15,31333,28521
15,31745,28061
15,32158,28032
15,32570,25467
15,32982,25395
15,33395,23878
15,33807,26059
15,34218,24184
15,34632,22314
15,35043,22037
15,35455,22617
15,35868,22968
15,36280,20883
15,36692,20981
15,37105,19344
15,37517,20786
15,37928,19474
15,38340,19853
15,38753,19388
15,39165,19528
15,39577,19008
15,39990,17207
15,40402,18140
15,40813,16992
15,41227,17802
15,41638,17337
15,42050,16980
15,42463,16294
15,42875,16990
15,43287,16282
15,43700,15593
15,44112,15061
15,44523,15316
15,44937,15127
15,45348,13647
15,45760,14727
15,46173,14405
15,46585,15572
15,46997,14088
15,47408,13965
15,47822,14186
15,48233,12233
15,48645,14580
15,49058,14252
15,49470,13809
15,49882,13768
15,50295,14860
15,50707,12040
15,51118,12958
15,51532,13385
15,51943,14089
15,52355,14559
15,52768,14359
15,53180,14190
15,53592,15136
15,54005,17507
15,54417,17748
15,54828,23505
15,55242,27442
15,55653,38101
15,56065,51403
15,56477,75452
15,56890,103499
15,57302,141843
15,57713,201574
15,58127,268106
15,58538,351156
15,58950,443146
15,59363,546816
15,59775,655012
15,60187,763370
15,60600,855545
15,61012,944704
15,61423,1001009
15,61837,1026808
15,62248,1047098
15,62660,1025313
15,63073,1021222
15,63485,964188
15,63897,896247
15,64310,854076
15,64722,809119
15,65133,772460
15,65545,742410
15,65958,740124
15,66370,772716
15,66782,828879
15,67195,922625
15,67607,1040186
15,68018,1184265
15,68432,1358807
15,68843,1555150
15,69255,1748740
15,69668,1962803
15,70080,2160895
15,70492,2318788
15,70905,2479748
15,71317,2527707
15,71728,2523367
15,72142,2460050
15,72553,2342771
15,72965,2191584
15,73378,2001432
15,73790,1796497
15,74202,1612282
15,74613,1418792
15,75027,1244749
15,75438,1091507
15,75850,952876
15,76263,819993
15,76675,722761
15,77087,625834
15,77500,552712
15,77912,493766
15,78323,441112
15,78737,394109
15,79148,354842
15,79560,317897
15,79973,282023
15,80385,260743
15,80797,240443
15,81210,220712
15,81622,202975
15,82033,186143
15,82447,172455
15,82858,159624
15,83270,151380
15,83682,140596
15,84095,130136
15,84507,119708
15,84918,117043
15,85332,106042
15,85743,101028
15,86155,98114
15,86568,94516
15,86980,87068
15,87392,85762
15,87805,80305
15,88217,77118
15,88628,74236
15,89042,69657
15,89453,69060
15,89865,64886
15,90278,63322
15,90690,60830
15,91102,57577
15,91515,56491
15,91927,53716
15,92338,52531
15,92750,51560
15,93163,46927
15,93575,48773
15,93987,44173
15,94400,41836
15,94812,43451
15,95223,41327
15,95637,40510
15,96048,39429
15,96460,38268
15,96873,35473
15,97285,35351
15,97697,34081
15,98110,34006
15,98522,32211
15,98933,31727
15,99347,31594
15,99758,30987
16,00170,30440
16,00583,30466
16,00995,30219
16,01407,30106
16,01818,28793
16,02232,27346
16,02643,28530
16,03055,27572
16,03468,24661
16,03880,26006
16,04292,25069
16,04705,26987
16,05117,23695
16,05528,25480
16,05942,24307
16,06353,21953
16,06765,23458
16,07178,23224
16,07590,20801
16,08002,20158
16,08415,19697
16,08827,20186
16,09238,20882
16,09652,23455
16,10063,21907
16,10475,25147
16,10887,29591
16,11300,36012
16,11712,46230
16,12123,60482
16,12537,85615
16,12948,116295
16,13360,159682
16,13773,216612
16,14185,284286
16,14597,358650
16,15010,456085
16,15422,554541
16,15833,644124
16,16247,736291
16,16658,830837
16,17070,897805
16,17483,970957
16,17895,987383
16,18307,1007681
16,18720,990332
16,19132,955228
16,19543,914941
16,19955,834490
16,20368,767503
16,20780,702670
16,21192,628086
16,21605,558743
16,22017,500609
16,22428,442646
16,22842,387171
16,23253,339031
16,23665,307684
16,24078,268189
16,24490,235049
16,24902,209093
16,25315,186771
16,25727,168525
16,26138,152334
16,26552,137679
16,26963,126829
16,27375,113320
16,27788,102537
16,28200,94837
16,28612,88822
16,29023,82402
16,29437,74878
16,29848,71874
16,30260,66415
16,30673,64104
16,31085,60988
16,31497,56111
16,31910,52578
16,32322,48100
16,32733,45683
16,33147,44585
16,33558,42459
16,33970,42476
16,34383,38530
16,34795,36894
16,35207,36617
16,35620,35598
16,36032,36066
16,36443,32638
16,36857,32070
16,37268,30301
16,37680,29675
16,38092,26917
16,38505,26635
16,38917,27186
16,39328,25200
16,39742,26767
16,40153,26986
16,40565,24920
16,40978,24010
16,41390,25104
16,41802,23804
16,42215,24064
16,42627,22558
16,43038,24023
16,43452,22378
16,43863,22586
16,44275,21940
16,44688,20055
16,45100,21476
16,45512,20504
16,45925,19079
16,46337,19193
16,46748,19950
16,47160,18576
16,47573,19281
16,47985,19011
16,48397,16607
16,48810,18221
16,49222,17501
16,49633,17494
16,50047,16694
16,50458,16408
16,50870,16189
16,51283,14898
16,51695,14719
16,52107,15243
16,52520,13646
16,52932,14360
16,53343,13128
16,53757,14925
16,54168,15989
16,54580,14176
16,54993,12799
16,55405,13936
16,55817,13499
16,56228,13418
16,56642,12730
16,57053,13006
16,57465,13406
16,57878,15062
16,58290,12054
16,58702,11725
16,59115,12602
16,59527,13197
16,59938,13686
16,60352,12312
16,60763,12356
16,61175,12457
16,61588,12504
16,62000,12214
16,62412,11898
16,62825,11884
16,63237,12274
16,63648,12097
16,64062,13142
16,64473,12609
16,64885,12448
16,65297,11070
16,65710,11364
16,66122,10916
16,66533,12544
16,66947,10599
16,67358,10652
16,67770,11532
16,68183,9877
16,68595,12374
16,69007,10093
16,69420,10821
16,69832,10039
16,70243,10334
16,70657,11537
16,71068,11063
16,71480,10168
16,71893,10180
16,72305,10196
16,72717,10242
16,73130,9581
16,73542,9719
16,73953,11084
16,74365,10964
16,74778,10222
16,75190,10159
16,75602,11179
16,76015,10642
16,76427,10921
16,76838,9446
16,77252,9817
16,77663,9310
16,78075,8874
16,78488,10892
16,78900,10257
16,79312,8907
16,79725,9210
16,80137,9743
16,80548,9789
16,80962,10109
16,81373,10225
16,81785,10869
16,82198,10138
16,82610,9107
16,83022,9396
16,83433,10426
16,83847,8966
16,84258,9585
16,84670,9594
16,85083,9795
16,85495,11399
16,85907,10226
16,86320,8825
16,86732,9275
16,87143,9740
16,87557,8911
16,87968,9816
16,88380,10029
16,88793,10402
16,89205,9727
16,89617,9258
16,90030,9642
16,90442,10571
16,90853,11155
16,91267,11631
16,91678,14729
16,92090,17326
16,92503,26605
16,92915,33104
16,93327,47966
16,93738,67693
16,94152,97199
16,94563,132084
16,94975,179688
16,95388,241042
16,95800,306271
16,96212,386292
16,96625,478840
16,97037,573300
16,97448,660390
16,97862,743666
16,98273,794755
16,98685,846011
16,99098,879808
16,99510,876866
16,99922,877233
17,00335,842409
17,00747,804972
17,01158,747786
17,01572,695193
17,01983,628125
17,02395,574001
17,02807,524860
17,03220,467108
17,03632,431719
17,04043,400549
17,04457,385812
17,04868,392029
17,05280,413875
17,05693,457724
17,06105,525882
17,06517,627881
17,06930,747699
17,07342,901894
17,07753,1089365
17,08167,1289330
17,08578,1511361
17,08990,1719149
17,09403,1988871
17,09815,2225756
17,10227,2413933
17,10640,2568519
17,11052,2689906
17,11463,2690605
17,11875,2670045
17,12288,2572236
17,12700,2404621
17,13112,2209547
17,13525,1985694
17,13937,1775111
17,14348,1574832
17,14762,1389858
17,15173,1217698
17,15585,1056041
17,15998,920991
17,16410,803061
17,16822,708289
17,17235,624651
17,17647,560555
17,18058,499379
17,18472,451660
17,18883,403504
17,19295,362832
17,19708,331398
17,20120,299147
17,20532,273901
17,20943,248445
17,21357,229257
17,21768,212355
17,22180,200124
17,22593,183357
17,23005,171895
17,23417,158156
17,23830,147980
17,24242,140505
17,24653,136038
17,25067,127467
17,25478,118937
17,25890,112227
17,26303,105141
17,26715,100849
17,27127,93075
17,27540,91400
17,27952,87137
17,28363,83459
17,28777,81219
17,29188,73514
17,29600,72165
17,30012,71028
17,30425,66927
17,30837,65584
17,31248,61162
17,31662,62870
17,32073,57904
17,32485,55059
17,32898,53844
17,33310,51216
17,33722,45619
17,34135,49219
17,34547,46336
17,34958,46662
17,35372,44815
17,35783,42625
17,36195,42506
17,36608,41765
17,37020,36958
17,37432,38518
17,37845,37211
17,38257,36638
17,38668,35959
17,39080,35912
17,39493,33734
17,39905,31871
17,40317,33200
17,40730,31672
17,41142,31483
17,41553,29454
17,41967,28781
17,42378,28987
17,42790,26957
17,43203,27652
17,43615,27737
17,44027,29613
17,44440,30694
17,44852,35290
17,45263,40114
17,45677,47815
17,46088,61666
17,46500,85735
17,46913,111589
17,47325,152193
17,47737,202799
17,48148,264259
17,48562,333678
17,48973,411654
17,49385,500656
17,49798,588055
17,50210,668861
17,50622,757072
17,51035,804280
17,51447,861262
17,51858,878839
17,52272,881790
17,52683,870726
17,53095,838951
17,53508,802451
17,53920,740888
17,54332,685349
17,54745,626797
17,55157,561800
17,55568,500508
17,55982,440619
17,56393,398545
17,56805,348746
17,57217,307779
17,57630,268271
17,58042,241258
17,58453,215639
17,58867,191652
17,59278,174600
17,59690,155843
17,60103,143336
17,60515,128264
17,60927,115699
17,61340,105002
17,61752,98928
17,62163,91610
17,62577,83063
17,62988,78664
17,63400,73147
17,63813,68425
17,64225,64066
17,64637,60745
17,65050,55413
17,65462,54027
17,65873,52017
17,66285,46977
17,66698,46266
17,67110,46249
17,67522,42068
17,67935,40129
17,68347,39921
17,68758,37006
17,69172,36010
17,69583,33906
17,69995,36737
17,70408,32674
17,70820,31979
17,71232,29481
17,71645,30760
17,72057,31091
17,72468,29439
17,72882,28017
17,73293,28703
17,73705,28584
17,74118,30186
17,74530,33482
17,74942,37544
17,75353,44969
17,75767,56818
17,76178,73723
17,76590,100485
17,77003,137562
17,77415,190585
17,77827,254764
17,78240,336190
17,78652,439115
17,79063,542573
17,79477,663948
17,79888,784451
17,80300,906182
17,80713,1000617
17,81125,1097377
17,81537,1166229
17,81950,1187284
17,82362,1200160
17,82773,1180554
17,83187,1129035
17,83598,1063568
17,84010,974518
17,84422,902589
17,84835,809729
17,85247,725255
17,85658,651523
17,86072,575376
17,86483,510205
17,86895,448642
17,87308,395684
17,87720,353656
17,88132,315168
17,88545,279592
17,88957,253954
17,89368,230500
17,89782,204744
17,90193,186713
17,90605,172342
17,91018,154219
17,91430,142163
17,91842,133480
17,92255,122582
17,92667,113223
17,93078,103584
17,93490,102590
17,93903,92262
17,94315,86028
17,94727,81326
17,95140,73688
17,95552,73669
17,95963,67044
17,96377,65934
17,96788,62970
17,97200,59611
17,97613,57196
17,98025,54352
17,98437,51658
17,98850,48793
17,99262,48377
17,99673,44931
18,00087,43011
18,00498,42957
18,00910,41390
18,01323,40833
18,01735,36741
18,02147,39353
18,02558,35175
18,02972,32563
18,03383,32303
18,03795,32489
18,04208,34041
18,04620,30834
18,05032,30134
18,05445,29631
18,05857,28997
18,06268,27620
18,06682,26401
18,07093,27523
18,07505,24491
18,07918,26498
18,08330,25029
18,08742,24763
18,09155,23509
18,09567,22316
18,09978,22655
18,10392,22686
18,10803,22526
18,11215,21078
18,11627,20492
18,12040,20753
18,12452,19569
18,12863,19528
18,13277,19302
18,13688,19601
18,14100,19121
18,14513,18854
18,14925,18765
18,15337,18789
18,15750,16879
18,16162,18762
18,16573,18501
18,16987,16397
18,17398,17117
18,17810,17426
18,18223,16845
18,18635,15938
18,19047,17584
18,19460,16652
18,19872,15908
18,20283,15366
18,20695,16201
18,21108,15624
18,21520,16387
18,21932,15969
18,22345,15599
18,22757,15711
18,23168,15745
18,23582,15740
18,23993,15313
18,24405,14229
18,24818,15626
18,25230,14648
18,25642,14004
18,26055,14509
18,26467,13650
18,26878,14102
18,27292,12999
18,27703,13590
18,28115,13293
18,28528,13847
18,28940,13253
18,29352,13552
18,29763,12950
18,30177,12308
18,30588,13769
18,31000,12713
18,31413,13720
18,31825,13214
18,32237,12967
18,32650,13521
18,33062,12546
18,33473,13159
18,33887,13285
18,34298,12849
18,34710,13841
18,35123,13209
18,35535,12948
18,35947,13394
18,36360,12897
18,36772,12281
18,37183,12873
18,37597,12246
18,38008,11558
18,38420,13235
18,38832,12777
18,39245,11005
18,39657,13204
18,40068,12955
18,40482,16038
18,40893,17101
18,41305,20653
18,41718,27725
18,42130,34865
18,42542,53023
18,42955,73049
18,43367,106419
18,43778,147097
18,44192,209103
18,44603,285305
18,45015,377516
18,45428,484405
18,45840,614862
18,46252,736724
18,46665,867346
18,47077,1005877
18,47488,1108030
18,47900,1184065
18,48313,1258156
18,48725,1280199
18,49137,1279981
18,49550,1242905
18,49962,1197323
18,50373,1116111
18,50787,1016921
18,51198,915669
18,51610,822405
18,52023,736677
18,52435,645210
18,52847,577672
18,53260,508458
18,53672,450795
18,54083,396264
18,54497,355578
18,54908,312233
18,55320,277103
18,55733,252371
18,56145,233702
18,56557,208961
18,56970,190176
18,57382,174591
18,57793,161074
18,58205,152615
18,58618,139008
18,59030,126428
18,59442,116483
18,59855,109151
18,60267,100443
18,60678,96572
18,61092,92864
18,61503,86871
18,61915,84062
18,62328,78439
18,62740,72932
18,63152,69288
18,63565,68073
18,63977,64220
18,64388,63447
18,64802,58737
18,65213,57130
18,65625,55184
18,66038,54479
18,66450,51033
18,66862,50794
18,67273,47058
18,67687,46407
18,68098,45139
18,68510,42973
18,68923,41847
18,69335,41729
18,69747,39662
18,70160,37114
18,70572,37381
18,70983,36539
18,71397,34927
18,71808,32755
18,72220,34088
18,72633,32098
18,73045,30011
18,73457,28984
18,73870,29196
18,74282,29515
18,74693,27621
18,75107,27616
18,75518,27770
18,75930,26528
18,76342,25038
18,76755,25594
18,77167,25602
18,77578,24568
18,77992,25654
18,78403,23634
18,78815,23808
18,79228,22102
18,79640,23363
18,80052,22848
18,80465,21693
18,80877,21531
18,81288,21623
18,81702,21502
18,82113,21053
18,82525,19895
18,82938,19866
18,83350,18274
18,83762,18573
18,84175,17828
18,84587,19297
18,84998,19456
18,85410,18494
18,85823,18709
18,86235,17766
18,86647,18099
18,87060,19903
18,87472,20884
18,87883,22861
18,88297,25643
18,88708,33309
18,89120,43383
18,89533,54638
18,89945,76933
18,90357,106370
18,90770,146213
18,91182,206318
18,91593,263610
18,92007,354432
18,92418,449412
18,92830,551101
18,93243,665605
18,93655,758317
18,94067,865053
18,94478,938355
18,94892,998797
18,95303,1033829
18,95715,1043890
18,96128,1029037
18,96540,1008744
18,96952,948184
18,97365,875810
18,97777,815822
18,98188,730020
18,98602,660346
18,99013,592620
18,99425,531252
18,99838,479217
19,00250,416205
19,00662,374105
19,01075,331872
19,01487,292920
19,01898,265320
19,02312,235435
19,02723,210341
19,03135,192543
19,03547,174905
19,03960,158200
19,04372,147377
19,04783,133189
19,05197,121503
19,05608,112913
19,06020,103760
19,06433,100442
19,06845,94591
19,07257,84776
19,07670,83972
19,08082,75402
19,08493,73463
19,08907,67453
19,09318,63320
19,09730,61005
19,10143,55882
19,10555,55521
19,10967,52584
19,11380,50618
19,11792,46366
19,12203,44660
19,12615,45837
19,13028,43308
19,13440,43757
19,13852,40794
19,14265,39329
19,14677,36887
19,15088,34296
19,15502,35513
19,15913,33518
19,16325,32092
19,16738,33625
19,17150,32433
19,17562,31041
19,17975,30363
19,18387,29761
19,18798,27807
19,19212,27809
19,19623,27123
19,20035,29403
19,20448,27067
19,20860,25208
19,21272,25514
19,21683,24203
19,22097,22949
19,22508,22520
19,22920,24120
19,23333,21995
19,23745,21955
19,24157,22990
19,24570,21679
19,24982,21144
19,25393,20971
19,25807,20668
19,26218,19429
19,26630,19278
19,27043,19967
19,27455,18817
19,27867,19367
19,28280,19388
19,28692,20898
19,29103,17900
19,29517,18396
19,29928,18446
19,30340,18533
19,30752,18876
19,31165,19128
19,31577,17464
19,31988,18108
19,32402,17548
19,32813,17213
19,33225,16943
19,33638,18216
19,34050,18203
19,34462,15996
19,34875,15717
19,35287,16103
19,35698,16697
19,36112,16758
19,36523,16030
19,36935,15655
19,37348,16283
19,37760,14928
19,38172,16296
19,38585,14368
19,38997,15912
19,39408,15589
19,39820,14356
19,40233,15890
19,40645,13511
19,41057,14696
19,41470,13618
19,41882,14717
19,42293,13883
19,42707,13924
19,43118,15763
19,43530,13507
19,43943,13604
19,44355,13039
19,44767,14012
19,45180,14419
19,45592,13213
19,46003,14553
19,46417,14128
19,46828,14421
19,47240,13600
19,47653,14592
19,48065,15043
19,48477,15164
19,48888,14632
19,49302,15007
19,49713,14328
19,50125,15310
19,50538,16407
19,50950,16359
19,51362,15364
19,51775,16292
19,52187,16247
19,52598,17271
19,53012,15035
19,53423,15465
19,53835,15850
19,54248,16333
19,54660,13661
19,55072,14413
19,55485,14498
19,55897,14255
19,56308,14569
19,56722,15111
19,57133,13845
19,57545,13480
19,57957,15479
19,58370,14712
19,58782,13297
19,59193,13592
19,59607,13013
19,60018,12773
19,60430,13064
19,60843,13545
19,61255,12261
19,61667,13405
19,62080,13022
19,62492,11531
19,62903,12662
19,63317,11461
19,63728,13117
19,64140,12313
19,64553,13405
19,64965,12906
19,65377,13050
19,65790,13280
19,66202,13801
19,66613,14835
19,67025,15950
19,67438,18746
19,67850,25438
19,68262,31166
19,68675,43422
19,69087,61683
19,69498,84296
19,69912,119089
19,70323,163039
19,70735,219979
19,71148,283552
19,71560,362605
19,71972,453271
19,72385,543307
19,72797,632581
19,73208,731063
19,73622,810410
19,74033,859264
19,74445,907700
19,74858,915029
19,75270,923591
19,75682,902691
19,76093,872267
19,76507,834321
19,76918,777430
19,77330,718131
19,77743,674393
19,78155,630577
19,78567,604935
19,78980,589561
19,79392,596830
19,79803,615992
19,80217,670636
19,80628,734747
19,81040,843991
19,81453,965667
19,81865,1119307
19,82277,1298792
19,82690,1500037
19,83102,1709378
19,83513,1913515
19,83927,2117466
19,84338,2318588
19,84750,2457360
19,85162,2594375
19,85575,2645537
19,85987,2664604
19,86398,2596015
19,86812,2461692
19,87223,2318124
19,87635,2105810
19,88048,1907831
19,88460,1709143
19,88872,1510446
19,89285,1347282
19,89697,1177388
19,90108,1049584
19,90522,928535
19,90933,820145
19,91345,730562
19,91758,662718
19,92170,588799
19,92582,536091
19,92995,489046
19,93407,439121
19,93818,409328
19,94230,372030
19,94643,344793
19,95055,319961
19,95467,293694
19,95880,274882
19,96292,256074
19,96703,238900
19,97117,223357
19,97528,213996
19,97940,200075
19,98353,185853
19,98765,181091
19,99177,170923
19,99590,162545
20,00002,154457
20,00413,143963
20,00827,136587
20,01238,133499
20,01650,125178
20,02063,123070
20,02475,114722
20,02887,115367
20,03298,106680
20,03712,102308
20,04123,99703
20,04535,95094
20,04948,91987
20,05360,89419
20,05772,85300
20,06185,83852
20,06597,79643
20,07008,75748
20,07422,75222
20,07833,74247
20,08245,69876
20,08658,69526
20,09070,66255
20,09482,67051
20,09895,64746
20,10307,63519
20,10718,63234
20,11132,59969
20,11543,58276
20,11955,56325
20,12367,54619
20,12780,53495
20,13192,52976
20,13603,52581
20,14017,51124
20,14428,51758
20,14840,47873
20,15253,47137
20,15665,47008
20,16077,42754
20,16490,44592
20,16902,43099
20,17313,44464
20,17727,42549
20,18138,43421
20,18550,43687
20,18963,48748
20,19375,53446
20,19787,61852
20,20200,76267
20,20612,91832
20,21023,120840
20,21437,158587
20,21848,208808
20,22260,265310
20,22672,338182
20,23085,423741
20,23497,514915
20,23908,599285
20,24322,701188
20,24733,785783
20,25145,865843
20,25558,919686
20,25970,963137
20,26382,991405
20,26795,981120
20,27207,984052
20,27618,966371
20,28032,935570
20,28443,907691
20,28855,888564
20,29268,871177
20,29680,880318
20,30092,902478
20,30505,935347
20,30917,954080
20,31328,991256
20,31740,1021688
20,32153,1062055
20,32565,1086058
20,32977,1093918
20,33390,1089600
20,33802,1051457
20,34213,1020232
20,34627,966053
20,35038,904126
20,35450,833347
20,35863,775683
20,36275,713487
20,36687,639394
20,37100,586725
20,37512,510426
20,37923,462129
20,38337,414198
20,38748,373061
20,39160,339924
20,39573,306452
20,39985,280641
20,40397,252377
20,40808,225018
20,41222,207988
20,41633,192726
20,42045,174521
20,42458,164146
20,42870,154919
20,43282,139932
20,43695,135016
20,44107,124166
20,44518,118850
20,44932,108117
20,45343,107081
20,45755,105288
20,46168,106361
20,46580,103262
20,46992,110944
20,47405,121444
20,47817,139118
20,48228,162295
20,48642,199421
20,49053,240460
20,49465,298661
20,49877,372821
20,50290,467361
20,50702,566867
20,51113,676660
20,51527,793962
20,51938,910231
20,52350,1020816
20,52763,1099586
20,53175,1168171
20,53587,1209395
20,54000,1220778
20,54412,1212765
20,54823,1163988
20,55237,1114034
20,55648,1039644
20,56060,953325
20,56473,865719
20,56885,783518
20,57297,714276
20,57710,629801
20,58122,569740
20,58533,513922
20,58945,463436
20,59358,414492
20,59770,376382
20,60182,342318
20,60595,310828
20,61007,282556
20,61418,259316
20,61832,240086
20,62243,222134
20,62655,203196
20,63068,193104
20,63480,175293
20,63892,165760
20,64305,160584
20,64717,150770
20,65128,142943
20,65542,130918
20,65953,127387
20,66365,122296
20,66778,116471
20,67190,107648
20,67602,103436
20,68013,102231
20,68427,95452
20,68838,94563
20,69250,85586
20,69663,83955
20,70075,80119
20,70487,78156
20,70900,74708
20,71312,73107
20,71723,68378
20,72137,67847
20,72548,67269
20,72960,60792
20,73373,61515
20,73785,59233
20,74197,58504
20,74610,56086
20,75022,54090
20,75433,53797
20,75847,53272
20,76258,49613
20,76670,49469
20,77082,48187
20,77495,44872
20,77907,44962
20,78318,46528
20,78732,45750
20,79143,42230
20,79555,43440
20,79968,44528
20,80380,45809
20,80792,39522
20,81205,43825
20,81617,39968
20,82028,42454
20,82442,41355
20,82853,41061
20,83265,40614
20,83678,38195
20,84090,38702
20,84502,38045
20,84915,37865
20,85327,37677
20,85738,35614
20,86150,32846
20,86563,33392
20,86975,34903
20,87387,33328
20,87800,31328
20,88212,30862
20,88623,31014
20,89037,29904
20,89448,30737
20,89860,28824
20,90273,29843
20,90685,27995
20,91097,27805
20,91510,26168
20,91922,26856
20,92333,27802
20,92747,27849
20,93158,26156
20,93570,26562
20,93983,25893
20,94395,25353
20,94807,24038
20,95218,24018
20,95632,25470
20,96043,24384
20,96455,24705
20,96868,26742
20,97280,24035
20,97692,24260
20,98105,25056
20,98517,23662
20,98928,23606
20,99342,23694
20,99753,24108
21,00165,22683
21,00578,22929
21,00990,21555
21,01402,24294
21,01815,23093
21,02227,21995
21,02638,22688
21,03052,22280
21,03463,21862
21,03875,21627
21,04287,21006
21,04700,21791
21,05112,22066
21,05523,22313
21,05937,21929
21,06348,21611
21,06760,23346
21,07173,21549
21,07585,23977
21,07997,24682
21,08410,25831
21,08822,27445
21,09233,28675
21,09647,35980
21,10058,43961
21,10470,56740
21,10883,70834
21,11295,94097
21,11707,130320
21,12120,174177
21,12532,234208
21,12943,315614
21,13355,402917
21,13768,511565
21,14180,622384
21,14592,748154
21,15005,879754
21,15417,1005996
21,15828,1114401
21,16242,1198940
21,16653,1238032
21,17065,1250777
21,17478,1236376
21,17890,1190678
21,18302,1128901
21,18715,1052903
21,19127,961280
21,19538,882609
21,19952,792376
21,20363,703568
21,20775,636356
21,21188,565866
21,21600,517430
21,22012,463041
21,22423,416899
21,22837,379952
21,23248,343258
21,23660,313218
21,24073,284214
21,24485,262434
21,24897,239877
21,25310,223680
21,25722,205180
21,26133,196346
21,26547,182043
21,26958,169788
21,27370,157747
21,27783,150033
21,28195,140287
21,28607,134953
21,29020,126923
21,29432,118915
21,29843,114586
21,30257,107472
21,30668,103233
21,31080,101725
21,31492,97848
21,31905,93378
21,32317,90286
21,32728,86064
21,33142,86258
21,33553,78450
21,33965,79682
21,34378,77231
21,34790,72895
21,35202,68780
21,35615,69975
21,36027,67250
21,36438,63430
21,36852,60688
21,37263,60330
21,37675,58566
21,38088,55451
21,38500,54247
21,38912,53770
21,39325,53275
21,39737,50087
21,40148,48784
21,40560,49343
21,40973,48463
21,41385,47715
21,41797,44276
21,42210,47133
21,42622,42596
21,43033,42634
21,43447,41961
21,43858,40827
21,44270,39112
21,44683,38623
21,45095,38957
21,45507,37191
21,45920,37921
21,46332,36610
21,46743,34221
21,47157,35091
21,47568,37271
21,47980,33562
21,48393,33388
21,48805,34887
21,49217,31917
21,49628,30655
21,50042,30900
21,50453,31606
21,50865,32164
21,51278,30365
21,51690,30767
21,52102,29620
21,52515,29143
21,52927,29477
21,53338,28105
21,53752,28961
21,54163,27750
21,54575,28671
21,54988,31131
21,55400,32325
21,55812,34624
21,56225,41820
21,56637,50017
21,57048,61474
21,57462,80284
21,57873,103148
21,58285,140203
21,58697,185547
21,59110,252117
21,59522,326866
21,59933,417759
21,60347,532061
21,60758,653510
21,61170,763418
21,61583,885411
21,61995,998004
21,62407,1086434
21,62820,1170843
21,63232,1247073
21,63643,1309969
21,64057,1339245
21,64468,1356825
21,64880,1372356
21,65293,1370677
21,65705,1387869
21,66117,1393431
21,66530,1368081
21,66942,1361068
21,67353,1321580
21,67765,1271745
21,68178,1214198
21,68590,1152467
21,69002,1069129
21,69415,1003273
21,69827,916788
21,70238,847532
21,70652,771225
21,71063,696215
21,71475,626940
21,71888,564779
21,72300,500046
21,72712,455976
21,73125,409645
21,73537,378741
21,73948,346801
21,74362,311345
21,74773,285151
21,75185,262622
21,75598,234871
21,76010,220845
21,76422,203258
21,76833,189211
21,77247,179848
21,77658,167462
21,78070,157829
21,78483,146931
21,78895,138523
21,79307,130486
21,79720,124617
21,80132,119204
21,80543,111453
21,80957,106799
21,81368,103722
21,81780,96752
21,82193,93048
21,82605,89176
21,83017,87476
21,83430,83467
21,83842,79703
21,84253,77958
21,84667,72177
21,85078,74417
21,85490,69288
21,85903,65393
21,86315,65527
21,86727,63706
21,87138,60234
21,87552,60651
21,87963,55853
21,88375,54373
21,88788,54712
21,89200,54871
21,89612,50990
21,90025,52064
21,90437,49639
21,90848,48585
21,91262,44979
21,91673,46376
21,92085,44118
21,92498,44889
21,92910,42828
21,93322,40180
21,93735,41405
21,94147,41441
21,94558,38594
21,94972,40400
21,95383,37887
21,95795,38110
21,96207,38125
21,96620,36640
21,97032,36486
21,97443,32827
21,97857,36806
21,98268,33910
21,98680,34541
21,99093,32568
21,99505,33022
21,99917,33004
22,00330,33645
22,00742,30545
22,01153,32615
22,01567,31618
22,01978,31295
22,02390,30063
22,02803,29781
22,03215,29669
22,03627,28425
22,04040,30253
22,04452,30153
22,04863,28971
22,05275,28712
22,05688,26385
22,06100,28261
22,06512,28305
22,06925,25207
22,07337,27672
22,07748,28262
22,08162,28810
22,08573,28627
22,08985,27425
22,09398,27182
22,09810,25757
22,10222,26828
22,10635,26452
22,11047,26224
22,11458,25686
22,11872,26010
22,12283,25723
22,12695,25412
22,13108,25510
22,13520,26161
22,13932,25175
22,14343,25305
22,14757,24817
22,15168,24351
22,15580,24426
22,15993,23187
22,16405,23758
22,16817,24492
22,17230,24606
22,17642,23483
22,18053,23251
22,18467,25325
22,18878,24011
22,19290,22514
22,19703,22569
22,20115,22182
22,20527,21188
22,20940,20685
22,21352,22554
22,21763,22994
22,22177,21456
22,22588,21639
22,23000,21634
22,23412,22397
22,23825,22832
22,24237,21085
22,24648,21714
22,25062,22932
22,25473,20189
22,25885,20539
22,26298,19937
22,26710,21982
22,27122,21254
22,27535,22256
22,27947,20138
22,28358,21751
22,28772,21923
22,29183,22294
22,29595,21533
22,30008,21770
22,30420,21703
22,30832,21254
22,31245,22589
22,31657,21823
22,32068,21388
22,32480,22308
22,32893,21453
22,33305,21666
22,33717,20711
22,34130,19990
22,34542,21254
22,34953,21211
22,35367,21433
22,35778,21590
22,36190,21146
22,36603,21648
22,37015,22493
22,37427,22612
22,37840,22526
22,38252,24637
22,38663,28186
22,39077,30372
22,39488,37547
22,39900,44962
22,40313,58604
22,40725,77171
22,41137,101369
22,41548,136558
22,41962,185558
22,42373,246468
22,42785,324071
22,43198,416400
22,43610,532413
22,44022,660270
22,44435,803861
22,44847,995045
22,45258,1195468
22,45672,1399738
22,46083,1608764
22,46495,1816416
22,46908,2020083
22,47320,2207593
22,47732,2326417
22,48145,2407484
22,48557,2411719
22,48968,2366599
22,49382,2253267
22,49793,2114711
22,50205,1943224
22,50617,1767230
22,51030,1602457
22,51442,1416456
22,51853,1270441
22,52267,1133160
22,52678,1003104
22,53090,902816
22,53503,805406
22,53915,732074
22,54327,657362
22,54740,598326
22,55152,556696
22,55563,503794
22,55977,463817
22,56388,433744
22,56800,395805
22,57213,370990
22,57625,347684
22,58037,324058
22,58450,301849
22,58862,287231
22,59273,269872
22,59685,250984
22,60098,243763
22,60510,228813
22,60922,217304
22,61335,204852
22,61747,196394
22,62158,187264
22,62572,177686
22,62983,168548
22,63395,167796
22,63808,158846
22,64220,151499
22,64632,145292
22,65045,140688
22,65457,136774
22,65868,127992
22,66282,125364
22,66693,122623
22,67105,116947
22,67518,115053
22,67930,112854
22,68342,107706
22,68753,105586
22,69167,103947
22,69578,100510
22,69990,94223
22,70403,95256
22,70815,89855
22,71227,89849
22,71640,86489
22,72052,86151
22,72463,81387
22,72877,80003
22,73288,80798
22,73700,78189
22,74113,77614
22,74525,75892
22,74937,70532
22,75350,70696
22,75762,72841
22,76173,66864
22,76587,69001
22,76998,66055
22,77410,63632
22,77822,60864
22,78235,61400
22,78647,63132
22,79058,60892
22,79472,59557
22,79883,57458
22,80295,57015
22,80708,55951
22,81120,54927
22,81532,53404
22,81945,51250
22,82357,52290
22,82768,50506
22,83182,49383
22,83593,49971
22,84005,50643
22,84418,49037
22,84830,48202
22,85242,47036
22,85655,48753
22,86067,47595
22,86478,45406
22,86890,45425
22,87303,43015
22,87715,42950
22,88127,43461
22,88540,41621
22,88952,42569
22,89363,43194
22,89777,41522
22,90188,41246
22,90600,40814
22,91013,41720
22,91425,40232
22,91837,40370
22,92250,41125
22,92662,38306
22,93073,38436
22,93487,38652
22,93898,38630
22,94310,38431
22,94723,37603
22,95135,37075
22,95547,37254
22,95958,38240
22,96372,36862
22,96783,36334
22,97195,36655
22,97608,34459
22,98020,36360
22,98432,33678
22,98845,35190
22,99257,33454
22,99668,33984
23,00082,35889
23,00493,33510
23,00905,34570
23,01318,31499
23,01730,31836
23,02142,32852
23,02555,32224
23,02967,32454
23,03378,32825
23,03792,31593
23,04203,31520
23,04615,34125
23,05027,34678
23,05440,41195
23,05852,47162
23,06263,54850
23,06677,64604
23,07088,83346
23,07500,106386
23,07913,142875
23,08325,185194
23,08737,238346
23,09150,308261
23,09562,393839
23,09973,484736
23,10387,583858
23,10798,697002
23,11210,798852
23,11623,905495
23,12035,991504
23,12447,1063089
23,12860,1092571
23,13272,1120428
23,13683,1122668
23,14095,1089266
23,14508,1036714
23,14920,967068
23,15332,901959
23,15745,830998
23,16157,764596
23,16568,699655
23,16982,633259
23,17393,574412
23,17805,521900
23,18218,470392
23,18630,428360
23,19042,392848
23,19455,360064
23,19867,331859
23,20278,307265
23,20692,283997
23,21103,264440
23,21515,246146
23,21928,232333
23,22340,213674
23,22752,203191
23,23163,191780
23,23577,184853
23,23988,171333
23,24400,165526
23,24813,154377
23,25225,145104
23,25637,142799
23,26050,134206
23,26462,126144
23,26873,123255
23,27287,118618
23,27698,110950
23,28110,111918
23,28523,102042
23,28935,99196
23,29347,98614
23,29760,94924
23,30172,92331
23,30583,88663
23,30997,85133
23,31408,82076
23,31820,80294
23,32232,78765
23,32645,76319
23,33057,74176
23,33468,73386
23,33882,73114
23,34293,74017
23,34705,72739
23,35118,75041
23,35530,74792
23,35942,72820
23,36355,76897
23,36767,80074
23,37178,82866
23,37592,86487
23,38003,89796
23,38415,93245
23,38828,96000
23,39240,103001
23,39652,101321
23,40065,104925
23,40477,106193
23,40888,104412
23,41302,102705
23,41713,102065
23,42125,100979
23,42537,98809
23,42950,92533
23,43362,89357
23,43773,81992
23,44187,81307
23,44598,76294
23,45010,70756
23,45423,69436
23,45835,66044
23,46247,63928
23,46660,62652
23,47072,58704
23,47483,53412
23,47897,52557
23,48308,52588
23,48720,49554
23,49133,46375
23,49545,47394
23,49957,45990
23,50370,45383
23,50782,43191
23,51193,40198
23,51605,43037
23,52018,39621
23,52430,38089
23,52842,39216
23,53255,37349
23,53667,37976
23,54078,37418
23,54492,35689
23,54903,35923
23,55315,35782
23,55728,35205
23,56140,32735
23,56552,35208
23,56965,33734
23,57377,33214
23,57788,32486
23,58202,32989
23,58613,33109
23,59025,33037
23,59438,30769
23,59850,30348
23,60262,31685
23,60673,32327
23,61087,31022
23,61498,31018
23,61910,32867
23,62323,30403
23,62735,31113
23,63147,28933
23,63560,30032
23,63972,29549
23,64383,30836
23,64797,28374
23,65208,28713
23,65620,30548
23,66033,27374
23,66445,27128
23,66857,29050
23,67270,30123
23,67682,29848
23,68093,28323
23,68507,31401
23,68918,27178
23,69330,27437
23,69742,26814
23,70155,27838
23,70567,29038
23,70978,27832
23,71392,27264
23,71803,27249
23,72215,28777
23,72628,28849
23,73040,28515
23,73452,27829
23,73865,25540
23,74277,26918
23,74688,27612
23,75102,26322
23,75513,27834
23,75925,25555
23,76338,27347
23,76750,28955
23,77162,26044
23,77575,26986
23,77987,23545
23,78398,25389
23,78810,26133
23,79223,24352
23,79635,26988
23,80047,25877
23,80460,26816
23,80872,27044
23,81283,24461
23,81697,24362
23,82108,25578
23,82520,26642
23,82933,26289
23,83345,25561
23,83757,24204
23,84170,25071
23,84582,25670
23,84993,24621
23,85407,25643
23,85818,24615
23,86230,24197
23,86643,25654
23,87055,23457
23,87467,25025
23,87878,25420
23,88292,24659
23,88703,23695
23,89115,24183
23,89528,24165
23,89940,24325
23,90352,23602
23,90765,24185
23,91177,25226
23,91588,22998
23,92002,24291
23,92413,25349
23,92825,23149
23,93238,22615
23,93650,21846
23,94062,24109
23,94475,23084
23,94887,22879
23,95298,23243
23,95712,23689
23,96123,22554
23,96535,23760
23,96947,22702
23,97360,21690
23,97772,23147
23,98183,21908
23,98597,23787
23,99008,23542
23,99420,24030
23,99833,23674
24,00245,22281
24,00657,24993
24,01070,23976
24,01482,23777
24,01893,26370
24,02307,25514
24,02718,23917
24,03130,25566
24,03543,23867
24,03955,24584
24,04367,24424
24,04780,25100
24,05192,25214
24,05603,24413
24,06015,23512
24,06428,23748
24,06840,23439
24,07252,25028
24,07665,24368
24,08077,24765
24,08488,23781
24,08902,23728
24,09313,22283
24,09725,22891
24,10138,24040
24,10550,21767
24,10962,21812
24,11375,23065
24,11787,22359
24,12198,22678
24,12612,22780
24,13023,23931
24,13435,23426
24,13848,23658
24,14260,21931
24,14672,22868
24,15083,22647
24,15497,22301
24,15908,22786
24,16320,24286
24,16733,23662
24,17145,22155
24,17557,21379
24,17970,23505
24,18382,24853
24,18793,24120
24,19207,21605
24,19618,24379
24,20030,22156
24,20443,23023
24,20855,23020
24,21267,23361
24,21680,23182
24,22092,23537
24,22503,21858
24,22917,24472
24,23328,23164
24,23740,23168
24,24152,22857
24,24565,24718
24,24977,23992
24,25388,23849
24,25802,23511
24,26213,24957
24,26625,24046
24,27038,23669
24,27450,25646
24,27862,22733
24,28275,20911
24,28687,23923
24,29098,23876
24,29512,22293
24,29923,22448
24,30335,22744
24,30748,22195
24,31160,21155
24,31572,21490
24,31985,22438
24,32397,23093
24,32808,23093
24,33220,22430
24,33633,21900
24,34045,23175
24,34457,21735
24,34870,23361
24,35282,23502
24,35693,22893
24,36107,23948
24,36518,22433
24,36930,23328
24,37343,21774
24,37755,22901
24,38167,21533
24,38580,21811
24,38992,23403
24,39403,23158
24,39817,24660
24,40228,23648
24,40640,23009
24,41053,21795
24,41465,23134
24,41877,23856
24,42288,22585
24,42702,23363
24,43113,22634
24,43525,22108
24,43938,23072
24,44350,21303
24,44762,23262
24,45175,23074
24,45587,22971
24,45998,21781
24,46412,20695
24,46823,24086
24,47235,20797
24,47648,20013
24,48060,21849
24,48472,21476
24,48885,20753
24,49297,22236
24,49708,21643
24,50122,22473
24,50533,22221
24,50945,23211
24,51357,22471
24,51770,23002
24,52182,23944
24,52593,22302
24,53007,22542
24,53418,22256
24,53830,23240
24,54243,22065
24,54655,22790
24,55067,22766
24,55480,22220
24,55892,23985
24,56303,22372
24,56717,22713
24,57128,23703
24,57540,25036
24,57953,23083
24,58365,22361
24,58777,24722
24,59190,22395
24,59602,23875
24,60013,22625
24,60425,22766
24,60838,22204
24,61250,22192
24,61662,24237
24,62075,22680
24,62487,23135
24,62898,23320
24,63312,23530
24,63723,22112
24,64135,24952
24,64548,21696
24,64960,23762
24,65372,22532
24,65785,20796
24,66197,22389
24,66608,21876
24,67022,21354
24,67433,24110
24,67845,23045
24,68258,22875
24,68670,21703
24,69082,23332
24,69493,23377
24,69907,24720
24,70318,23997
24,70730,25115
24,71143,22516
24,71555,23278
24,71967,22791
24,72380,25021
24,72792,23351
24,73203,23230
24,73617,24186
24,74028,22313
24,74440,22814
24,74853,25882
24,75265,24623
24,75677,22124
24,76090,24267
24,76502,22118
24,76913,24378
24,77327,22745
24,77738,24001
24,78150,24803
24,78562,24286
24,78975,25199
24,79387,23117
24,79798,26332
24,80212,28091
24,80623,30455
24,81035,35230
24,81448,37881
24,81860,45881
24,82272,58173
24,82685,70091
24,83097,92770
24,83508,124554
24,83922,156491
24,84333,203242
24,84745,255979
24,85158,313942
24,85570,378832
24,85982,444677
24,86395,506892
24,86807,571154
24,87218,620560
24,87630,652923
24,88043,680543
24,88455,693009
24,88867,677081
24,89280,666182
24,89692,629325
24,90103,602893
24,90517,557398
24,90928,523096
24,91340,475750
24,91753,441789
24,92165,388354
24,92577,357754
24,92990,323891
24,93402,293365
24,93813,268535
24,94227,248859
24,94638,225009
24,95050,203858
24,95463,188027
24,95875,171896
24,96287,159472
24,96698,147339
24,97112,138946
24,97523,127257
24,97935,121473
24,98348,116773
24,98760,106330
24,99172,100339
24,99585,94918
24,99997,90392
25,00408,87369
25,00822,82802
25,01233,79734
25,01645,75908
25,02058,75452
25,02470,68333
25,02882,68334
25,03295,67619
25,03707,62915
25,04118,62717
25,04532,60058
25,04943,59673
25,05355,55741
25,05768,54918
25,06180,51542
25,06592,52135
25,07003,51478
25,07417,51618
25,07828,49740
25,08240,48147
25,08653,45377
25,09065,43743
25,09477,45509
25,09890,44720
25,10302,43464
25,10713,47296
25,11127,43768
25,11538,44274
25,11950,42550
25,12363,40783
25,12775,42670
25,13187,41194
25,13600,41481
25,14012,40064
25,14423,41230
25,14837,40329
25,15248,38185
25,15660,39128
25,16072,40661
25,16485,38014
25,16897,38781
25,17308,35978
25,17722,37415
25,18133,36706
25,18545,38324
25,18958,38581
25,19370,35087
25,19782,35565
25,20195,35196
25,20607,35780
25,21018,34356
25,21432,34709
25,21843,34704
25,22255,30749
25,22668,34694
25,23080,33414
25,23492,33449
25,23905,32622
25,24317,32247
25,24728,31755
25,25140,31721
25,25553,31136
25,25965,32179
25,26377,32078
25,26790,32728
25,27202,31858
25,27613,32790
25,28027,31829
25,28438,31090
25,28850,31566
25,29263,30431
25,29675,30529
25,30087,30751
25,30500,31294
25,30912,29275
25,31323,32218
25,31737,31533
25,32148,31795
25,32560,30912
25,32973,31234
25,33385,30332
25,33797,30457
25,34208,29046
25,34622,32026
25,35033,33823
25,35445,30175
25,35858,29956
25,36270,29858
25,36682,31699
25,37095,29936
25,37507,29420
25,37918,29593
25,38332,30258
25,38743,29210
25,39155,29548
25,39568,31692
25,39980,29885
25,40392,28611
25,40805,28902
25,41217,29327
25,41628,30082
25,42042,30093
25,42453,30110
25,42865,28509
25,43277,29523
25,43690,30209
25,44102,28761
25,44513,29318
25,44927,31417
25,45338,29346
25,45750,29814
25,46163,30983
25,46575,28082
25,46987,29543
25,47400,30728
25,47812,30244
25,48223,29627
25,48637,28147
25,49048,31329
25,49460,30012
25,49873,29406
25,50285,29155
25,50697,28322
25,51110,29601
25,51522,28220
25,51933,28028
25,52345,27854
25,52758,31244
25,53170,27938
25,53582,30181
25,53995,28563
25,54407,31261
25,54818,29351
25,55232,29833
25,55643,30539
25,56055,28176
25,56468,29047
25,56880,28376
25,57292,27796
25,57705,30180
25,58117,28984
25,58528,29135
25,58942,29219
25,59353,28897
25,59765,28823
25,60178,29463
25,60590,29293
25,61002,30488
25,61413,29251
25,61827,28008
25,62238,29244
25,62650,28197
25,63063,28925
25,63475,29315
25,63887,27891
25,64300,28495
25,64712,29987
25,65123,29239
25,65537,30413
25,65948,28435
25,66360,28966
25,66773,27758
25,67185,30328
25,67597,29770
25,68010,29431
25,68422,26981
25,68833,29007
25,69247,28876
25,69658,30213
25,70070,30869
25,70482,28702
25,70895,30859
25,71307,28482
25,71718,28508
25,72132,27999
25,72543,29833
25,72955,29701
25,73368,28334
25,73780,29262
25,74192,27839
25,74605,29446
25,75017,30620
25,75428,28639
25,75842,31555
25,76253,29924
25,76665,29442
25,77078,29425
