D:\MassHunter\GCMS\1\data\Amal\Constant flow\90C\90C_1ml-min_9C-min_2.D Thu Sep 05 15:16:32 2024
Start of data points
5,59095,309601
5,59507,394973
5,59918,464476
5,60332,530618
5,60743,571911
5,61155,593396
5,61568,594357
5,61980,579517
5,62392,560185
5,62805,532625
5,63217,513305
5,63628,485941
5,64042,459328
5,64453,442412
5,64865,423152
5,65277,399731
5,65690,384804
5,66102,365628
5,66513,354432
5,66927,337282
5,67338,314827
5,67750,304212
5,68163,290455
5,68575,282798
5,68987,268884
5,69400,254805
5,69812,247257
5,70223,237297
5,70637,226099
5,71048,222101
5,71460,208183
5,71873,205007
5,72285,187127
5,72697,184692
5,73110,172598
5,73522,168266
5,73933,160042
5,74345,148676
5,74758,142913
5,75170,132745
5,75582,127685
5,75995,120457
5,76407,119016
5,76818,111657
5,77232,106787
5,77643,105354
5,78055,99253
5,78468,92861
5,78880,94159
5,79292,90203
5,79705,88583
5,80117,85871
5,80528,80215
5,80942,79980
5,81353,79457
5,81765,77674
5,82178,75802
5,82590,74715
5,83002,73275
5,83413,72466
5,83827,69684
5,84238,69370
5,84650,68275
5,85063,68088
5,85475,66685
5,85887,69429
5,86300,66649
5,86712,65421
5,87123,66570
5,87537,65125
5,87948,67769
5,88360,62956
5,88773,63778
5,89185,62698
5,89597,63771
5,90010,62790
5,90422,60931
5,90833,60533
5,91247,60045
5,91658,59248
5,92070,59569
5,92482,58054
5,92895,59713
5,93307,55969
5,93718,56044
5,94132,58435
5,94543,57206
5,94955,59161
5,95368,56598
5,95780,56667
5,96192,55663
5,96605,56214
5,97017,57419
5,97428,56636
5,97842,55717
5,98253,56664
5,98665,52802
5,99078,57292
5,99490,56733
5,99902,54197
6,00315,53607
6,00727,55532
6,01138,55093
6,01550,55366
6,01963,55960
6,02375,56085
6,02787,54442
6,03200,54669
6,03612,53903
6,04023,54795
6,04437,52451
6,04848,52308
6,05260,53888
6,05673,52046
6,06085,53847
6,06497,54279
6,06910,50042
6,07322,52120
6,07733,50814
6,08147,51938
6,08558,51042
6,08970,51210
6,09383,49473
6,09795,48090
6,10207,50921
6,10618,50974
6,11032,50338
6,11443,50695
6,11855,48205
6,12268,48542
6,12680,48357
6,13092,48953
6,13505,48382
6,13917,46857
6,14328,48326
6,14742,46433
6,15153,48234
6,15565,48305
6,15978,47173
6,16390,48036
6,16802,49937
6,17215,48951
6,17627,46905
6,18038,48120
6,18452,46374
6,18863,48041
6,19275,46769
6,19687,46883
6,20100,48001
6,20512,47616
6,20923,45588
6,21337,46566
6,21748,45724
6,22160,46111
6,22573,45288
6,22985,45686
6,23397,43952
6,23810,44553
6,24222,45777
6,24633,43809
6,25047,45967
6,25458,44360
6,25870,45063
6,26283,44321
6,26695,44775
6,27107,45183
6,27520,46377
6,27932,45157
6,28343,44608
6,28755,45435
6,29168,42551
6,29580,41854
6,29992,42265
6,30405,42032
6,30817,43861
6,31228,43651
6,31642,42962
6,32053,44444
6,32465,44026
6,32878,43720
6,33290,42780
6,33702,41083
6,34115,41255
6,34527,39895
6,34938,41063
6,35352,42069
6,35763,41706
6,36175,38917
6,36588,39956
6,37000,39216
6,37412,38759
6,37823,39274
6,38237,38645
6,38648,39069
6,39060,40523
6,39473,39258
6,39885,40263
6,40297,39893
6,40710,39998
6,41122,42970
6,41533,41821
6,41947,44128
6,42358,45039
6,42770,44463
6,43183,45818
6,43595,45922
6,44007,45065
6,44420,44320
6,44832,45743
6,45243,45595
6,45657,45849
6,46068,44995
6,46480,46080
6,46892,46686
6,47305,47445
6,47717,46557
6,48128,49986
6,48542,47706
6,48953,51389
6,49365,49320
6,49778,50235
6,50190,48004
6,50602,50201
6,51015,51254
6,51427,49313
6,51838,51031
6,52252,50403
6,52663,49647
6,53075,48184
6,53488,50065
6,53900,49186
6,54312,47798
6,54725,48183
6,55137,47715
6,55548,46494
6,55962,46524
6,56373,44559
6,56785,45241
6,57197,43583
6,57610,43087
6,58022,41219
6,58433,42697
6,58847,42128
6,59258,39021
6,59670,40073
6,60083,41306
6,60495,40160
6,60907,39907
6,61320,40326
6,61732,38144
6,62143,38883
6,62557,38054
6,62968,38518
6,63380,38358
6,63793,35903
6,64205,35489
6,64617,37404
6,65030,36010
6,65442,36687
6,65853,34706
6,66265,36470
6,66678,34563
6,67090,34795
6,67502,34170
6,67915,34828
6,68327,34379
6,68738,34898
6,69152,33270
6,69563,33890
6,69975,33064
6,70388,34039
6,70800,35416
6,71212,33689
6,71625,33892
6,72037,31978
6,72448,32852
6,72862,33635
6,73273,34101
6,73685,32433
6,74098,33468
6,74510,32183
6,74922,33341
6,75333,31172
6,75747,30313
6,76158,30185
6,76570,30929
6,76983,29693
6,77395,31092
6,77807,30767
6,78220,30689
6,78632,37653
6,79043,44089
6,79457,58689
6,79868,87862
6,80280,138502
6,80693,215758
6,81105,320272
6,81517,451532
6,81930,598806
6,82342,735914
6,82753,863918
6,83167,951297
6,83578,991793
6,83990,1018641
6,84402,1004677
6,84815,981162
6,85227,920934
6,85638,868904
6,86052,806677
6,86463,748420
6,86875,697762
6,87288,644765
6,87700,589192
6,88112,549226
6,88525,499677
6,88937,453669
6,89348,415130
6,89762,380819
6,90173,344701
6,90585,311099
6,90998,284113
6,91410,248389
6,91822,225070
6,92235,198280
6,92647,176299
6,93058,155459
6,93470,142537
6,93883,129113
6,94295,112580
6,94707,98656
6,95120,92968
6,95532,82817
6,95943,76130
6,96357,70250
6,96768,65761
6,97180,59452
6,97593,58803
6,98005,53410
6,98417,50009
6,98830,48696
6,99242,47681
6,99653,46566
7,00067,42498
7,00478,43370
7,00890,39252
7,01303,38155
7,01715,38587
7,02127,38961
7,02538,36193
7,02952,36004
7,03363,32999
7,03775,34996
7,04188,33162
7,04600,32507
7,05012,32718
7,05425,31877
7,05837,31450
7,06248,31463
7,06662,31048
7,07073,30881
7,07485,30006
7,07898,28376
7,08310,29779
7,08722,30203
7,09135,28704
7,09547,26887
7,09958,28149
7,10372,29343
7,10783,28384
7,11195,27795
7,11607,27544
7,12020,27003
7,12432,28191
7,12843,28976
7,13257,27533
7,13668,26323
7,14080,27349
7,14493,25892
7,14905,25461
7,15317,25757
7,15730,25892
7,16142,25774
7,16553,25667
7,16967,25533
7,17378,26749
7,17790,26398
7,18203,25835
7,18615,24957
7,19027,25662
7,19440,24234
7,19852,25827
7,20263,26383
7,20675,26290
7,21088,24838
7,21500,27110
7,21912,24380
7,22325,25164
7,22737,25583
7,23148,23858
7,23562,24158
7,23973,23662
7,24385,25017
7,24798,24290
7,25210,23549
7,25622,24786
7,26035,24197
7,26447,25086
7,26858,24548
7,27272,24394
7,27683,24656
7,28095,24544
7,28508,23809
7,28920,23813
7,29332,22925
7,29743,22674
7,30157,24781
7,30568,24919
7,30980,23175
7,31393,22932
7,31805,27109
7,32217,23401
7,32630,23147
7,33042,23121
7,33453,24431
7,33867,23057
7,34278,22596
7,34690,23672
7,35103,25107
7,35515,22865
7,35927,22910
7,36340,22548
7,36752,22274
7,37163,22434
7,37577,22678
7,37988,23946
7,38400,22106
7,38812,23453
7,39225,23498
7,39637,22716
7,40048,23018
7,40462,23865
7,40873,23104
7,41285,23784
7,41698,24924
7,42110,26375
7,42522,25570
7,42935,24279
7,43347,24371
7,43758,24263
7,44172,24801
7,44583,23621
7,44995,24387
7,45408,23312
7,45820,22861
7,46232,25345
7,46645,23039
7,47057,24021
7,47468,24263
7,47880,22150
7,48293,21729
7,48705,22712
7,49117,22105
7,49530,23322
7,49942,20674
7,50353,22270
7,50767,21468
7,51178,21859
7,51590,21014
7,52003,22981
7,52415,21804
7,52827,21425
7,53240,20670
7,53652,21603
7,54063,20722
7,54477,21317
7,54888,20372
7,55300,20439
7,55713,19343
7,56125,20799
7,56537,21888
7,56948,20939
7,57362,20262
7,57773,20216
7,58185,19890
7,58598,21719
7,59010,20258
7,59422,21739
7,59835,21187
7,60247,21900
7,60658,21665
7,61072,22667
7,61483,22426
7,61895,21506
7,62308,22736
7,62720,21497
7,63132,21193
7,63545,23194
7,63957,21877
7,64368,21322
7,64782,22285
7,65193,21032
7,65605,21560
7,66017,20178
7,66430,20320
7,66842,20796
7,67253,19580
7,67667,21444
7,68078,20373
7,68490,19619
7,68903,20687
7,69315,20356
7,69727,20689
7,70140,19435
7,70552,19447
7,70963,19013
7,71377,19893
7,71788,19847
7,72200,21201
7,72613,20816
7,73025,20680
7,73437,21171
7,73850,20666
7,74262,21748
7,74673,20494
7,75085,22129
7,75498,20435
7,75910,21827
7,76322,21019
7,76735,21633
7,77147,22046
7,77558,21707
7,77972,21272
7,78383,21867
7,78795,23290
7,79208,21285
7,79620,22263
7,80032,20576
7,80445,21920
7,80857,22214
7,81268,20820
7,81682,21357
7,82093,21291
7,82505,19657
7,82918,21070
7,83330,19945
7,83742,18837
7,84153,19985
7,84567,19385
7,84978,18896
7,85390,19002
7,85803,19578
7,86215,19995
7,86627,18178
7,87040,18631
7,87452,19382
7,87863,19981
7,88277,19826
7,88688,18678
7,89100,19035
7,89513,18731
7,89925,18824
7,90337,19061
7,90750,19512
7,91162,18036
7,91573,18330
7,91987,19304
7,92398,18462
7,92810,18311
7,93222,19448
7,93635,18318
7,94047,18567
7,94458,18369
7,94872,16678
7,95283,18139
7,95695,16993
7,96108,17564
7,96520,18235
7,96932,17925
7,97345,18424
7,97757,17339
7,98168,18492
7,98582,19236
7,98993,18820
7,99405,17068
7,99818,17729
8,00230,17359
8,00642,17274
8,01055,17778
8,01467,17273
8,01878,17978
8,02290,18361
8,02703,17520
8,03115,18274
8,03527,17391
8,03940,17147
8,04352,17041
8,04763,17407
8,05177,16836
8,05588,17581
8,06000,15821
8,06413,17260
8,06825,15918
8,07237,15896
8,07650,17379
8,08062,15703
8,08473,17641
8,08887,17880
8,09298,18383
8,09710,16858
8,10123,17036
8,10535,15692
8,10947,16236
8,11360,17467
8,11772,18411
8,12183,17192
8,12595,16903
8,13008,17432
8,13420,16780
8,13832,16792
8,14245,16386
8,14657,17446
8,15068,17018
8,15482,16362
8,15893,16165
8,16305,15866
8,16718,15667
8,17130,15530
8,17542,16505
8,17955,16880
8,18367,16680
8,18778,15845
8,19192,17046
8,19603,16690
8,20015,15111
8,20428,16668
8,20840,15617
8,21252,16593
8,21663,16383
8,22077,18094
8,22488,16188
8,22900,16665
8,23313,17256
8,23725,17315
8,24137,16843
8,24550,17430
8,24962,17109
8,25373,17490
8,25787,16702
8,26198,17338
8,26610,16800
8,27023,19018
8,27435,16939
8,27847,16774
8,28260,17550
8,28672,18572
8,29083,17155
8,29497,16740
8,29908,17479
8,30320,16851
8,30732,16566
8,31145,16757
8,31557,17134
8,31968,15524
8,32382,16107
8,32793,16601
8,33205,15765
8,33618,16402
8,34030,15529
8,34442,14951
8,34855,15713
8,35267,14635
8,35678,15850
8,36092,15675
8,36503,16120
8,36915,16809
8,37328,15019
8,37740,15987
8,38152,15577
8,38565,17769
8,38977,15469
8,39388,15476
8,39800,16828
8,40213,16292
8,40625,15680
8,41037,16594
8,41450,19026
8,41862,22666
8,42273,35353
8,42687,60377
8,43098,103731
8,43510,182406
8,43923,296514
8,44335,462517
8,44747,671670
8,45160,924111
8,45572,1178647
8,45983,1379041
8,46397,1554226
8,46808,1650645
8,47220,1676958
8,47633,1638442
8,48045,1532953
8,48457,1411077
8,48868,1254131
8,49282,1093109
8,49693,945232
8,50105,798453
8,50518,676736
8,50930,561783
8,51342,462079
8,51755,380623
8,52167,310660
8,52578,260940
8,52992,215014
8,53403,182601
8,53815,152100
8,54228,132621
8,54640,113694
8,55052,100195
8,55465,88701
8,55877,80106
8,56288,70720
8,56702,64470
8,57113,59847
8,57525,53987
8,57937,52204
8,58350,47647
8,58762,45441
8,59173,43054
8,59587,39114
8,59998,38329
8,60410,37114
8,60823,35640
8,61235,32237
8,61647,31915
8,62060,30957
8,62472,31059
8,62883,31181
8,63297,28507
8,63708,27052
8,64120,26571
8,64533,25115
8,64945,25547
8,65357,23549
8,65770,24873
8,66182,22804
8,66593,23565
8,67005,24158
8,67418,21845
8,67830,22273
8,68242,21677
8,68655,20066
8,69067,21449
8,69478,21818
8,69892,20237
8,70303,20376
8,70715,18004
8,71128,20089
8,71540,17846
8,71952,17623
8,72365,19108
8,72777,17979
8,73188,18153
8,73602,19144
8,74013,18070
8,74425,17714
8,74838,17030
8,75250,18182
8,75662,17229
8,76073,19182
8,76487,17854
8,76898,19220
8,77310,17896
8,77723,17343
8,78135,18042
8,78547,19094
8,78960,18287
8,79372,19054
8,79783,18614
8,80197,19153
8,80608,19157
8,81020,18690
8,81433,18992
8,81845,19122
8,82257,16699
8,82670,17478
8,83082,17974
8,83493,16335
8,83907,15642
8,84318,16252
8,84730,16679
8,85142,17263
8,85555,17956
8,85967,15728
8,86378,16720
8,86792,16510
8,87203,17212
8,87615,16396
8,88028,17726
8,88440,16238
8,88852,16432
8,89265,17131
8,89677,16536
8,90088,14703
8,90502,15602
8,90913,15644
8,91325,16309
8,91738,15186
8,92150,16020
8,92562,15578
8,92975,14095
8,93387,14479
8,93798,15199
8,94210,15203
8,94623,14606
8,95035,13858
8,95447,14972
8,95860,14954
8,96272,14228
8,96683,14726
8,97097,15122
8,97508,15896
8,97920,14006
8,98333,15071
8,98745,14272
8,99157,14267
8,99570,15401
8,99982,15646
9,00393,14218
9,00807,13701
9,01218,15183
9,01630,16151
9,02043,15227
9,02455,16874
9,02867,15385
9,03278,15776
9,03692,15029
9,04103,14269
9,04515,14377
9,04928,13829
9,05340,14624
9,05752,14184
9,06165,14324
9,06577,14679
9,06988,14060
9,07402,14853
9,07813,14649
9,08225,14666
9,08638,13878
9,09050,13482
9,09462,14742
9,09875,14536
9,10287,13480
9,10698,12794
9,11112,13532
9,11523,14069
9,11935,13954
9,12347,13557
9,12760,13649
9,13172,13923
9,13583,13183
9,13997,15521
9,14408,14688
9,14820,15022
9,15233,15539
9,15645,15638
9,16057,16365
9,16470,15651
9,16882,16259
9,17293,16185
9,17707,15082
9,18118,16145
9,18530,16244
9,18943,15470
9,19355,15391
9,19767,15622
9,20180,15301
9,20592,14373
9,21003,14428
9,21415,13459
9,21828,14087
9,22240,12723
9,22652,13832
9,23065,12682
9,23477,13705
9,23888,13919
9,24302,13466
9,24713,12570
9,25125,12548
9,25538,12785
9,25950,13416
9,26362,12411
9,26775,12431
9,27187,12338
9,27598,12981
9,28012,13122
9,28423,13045
9,28835,12174
9,29248,11488
9,29660,13348
9,30072,14194
9,30483,17168
9,30897,20809
9,31308,36333
9,31720,57922
9,32133,105919
9,32545,169931
9,32957,274016
9,33370,401444
9,33782,554597
9,34193,702800
9,34607,836403
9,35018,948410
9,35430,1000796
9,35843,1003795
9,36255,949699
9,36667,864274
9,37080,757966
9,37492,640901
9,37903,533082
9,38317,435981
9,38728,350516
9,39140,279337
9,39552,221171
9,39965,179896
9,40377,146542
9,40788,118816
9,41202,101915
9,41613,87365
9,42025,74536
9,42438,66992
9,42850,58534
9,43262,52401
9,43675,46413
9,44087,41296
9,44498,39468
9,44912,39526
9,45323,35640
9,45735,31498
9,46148,32481
9,46560,31231
9,46972,28947
9,47385,28555
9,47797,29653
9,48208,26052
9,48620,27531
9,49033,25977
9,49445,24253
9,49857,24280
9,50270,22736
9,50682,21212
9,51093,21375
9,51507,22205
9,51918,20923
9,52330,19379
9,52743,18883
9,53155,19077
9,53567,18594
9,53980,18257
9,54392,18027
9,54803,17495
9,55217,17637
9,55628,17019
9,56040,17013
9,56453,14978
9,56865,16934
9,57277,16432
9,57690,16028
9,58102,14083
9,58513,15628
9,58925,16764
9,59338,14935
9,59750,15138
9,60162,15639
9,60575,14590
9,60987,13645
9,61398,15523
9,61812,13408
9,62223,14032
9,62635,14179
9,63048,12688
9,63460,14362
9,63872,12733
9,64285,13304
9,64697,14143
9,65108,14129
9,65522,13626
9,65933,13320
9,66345,13324
9,66758,15137
9,67170,15377
9,67582,16322
9,67993,16581
9,68407,17565
9,68818,16847
9,69230,17723
9,69643,16991
9,70055,18308
9,70467,16770
9,70880,15804
9,71292,16785
9,71703,13822
9,72117,14233
9,72528,13557
9,72940,13702
9,73353,13457
9,73765,11906
9,74177,12025
9,74590,11638
9,75002,12543
9,75413,12213
9,75827,12427
9,76238,12907
9,76650,11927
9,77062,12177
9,77475,11936
9,77887,11145
9,78298,11831
9,78712,12420
9,79123,11960
9,79535,12486
9,79948,11485
9,80360,11873
9,80772,11610
9,81185,11518
9,81597,10814
9,82008,11395
9,82422,11641
9,82833,11719
9,83245,11542
9,83658,11044
9,84070,12243
9,84482,11565
9,84895,11822
9,85307,11453
9,85718,12325
9,86130,12189
9,86543,12459
9,86955,10925
9,87367,12185
9,87780,9985
9,88192,11359
9,88603,11297
9,89017,10643
9,89428,11331
9,89840,11265
9,90253,12118
9,90665,10931
9,91077,12353
9,91490,11108
9,91902,10813
9,92313,10881
9,92727,11318
9,93138,11792
9,93550,11217
9,93963,12518
9,94375,10747
9,94787,10261
9,95198,11838
9,95612,11533
9,96023,10691
9,96435,11329
9,96848,11110
9,97260,10904
9,97672,10190
9,98085,10992
9,98497,11321
9,98908,11315
9,99322,11011
9,99733,11045
10,00145,11137
10,00558,10693
10,00970,11154
10,01382,11335
10,01795,10900
10,02207,11294
10,02618,11443
10,03032,12018
10,03443,11029
10,03855,11346
10,04267,11246
10,04680,12224
10,05092,10965
10,05503,10876
10,05917,12121
10,06328,11943
10,06740,11670
10,07153,12099
10,07565,11827
10,07977,11179
10,08390,12122
10,08802,10958
10,09213,11173
10,09627,10801
10,10038,10689
10,10450,11420
10,10863,11261
10,11275,10714
10,11687,11215
10,12100,11569
10,12512,10797
10,12923,9519
10,13335,10750
10,13748,10305
10,14160,11850
10,14572,11358
10,14985,11094
10,15397,12226
10,15808,11374
10,16222,10293
10,16633,11554
10,17045,10949
10,17458,11689
10,17870,11504
10,18282,11262
10,18695,12082
10,19107,12618
10,19518,16888
10,19932,26547
10,20343,46670
10,20755,88780
10,21168,165388
10,21580,309354
10,21992,518312
10,22403,819833
10,22817,1182571
10,23228,1554704
10,23640,1922790
10,24053,2176446
10,24465,2313702
10,24877,2291560
10,25290,2144891
10,25702,1916642
10,26113,1643840
10,26527,1334835
10,26938,1066087
10,27350,837598
10,27763,652079
10,28175,505234
10,28587,391810
10,29000,317957
10,29412,250560
10,29823,208102
10,30237,170097
10,30648,145794
10,31060,124695
10,31472,108443
10,31885,95474
10,32297,86204
10,32708,75501
10,33122,68440
10,33533,63722
10,33945,57758
10,34358,51789
10,34770,49302
10,35182,46030
10,35595,42150
10,36007,40113
10,36418,37156
10,36832,35887
10,37243,33022
10,37655,31826
10,38068,28573
10,38480,28032
10,38892,27896
10,39305,26895
10,39717,26668
10,40128,25116
10,40540,24804
10,40953,22406
10,41365,22670
10,41777,21287
10,42190,20333
10,42602,20705
10,43013,20125
10,43427,20755
10,43838,19894
10,44250,18365
10,44663,17336
10,45075,16367
10,45487,17553
10,45900,16695
10,46312,16438
10,46723,15937
10,47137,16428
10,47548,15465
10,47960,15593
10,48373,16194
10,48785,16937
10,49197,15226
10,49608,15924
10,50022,14442
10,50433,14729
10,50845,15069
10,51258,14011
10,51670,14144
10,52082,14107
10,52495,13728
10,52907,13151
10,53318,14055
10,53732,13681
10,54143,13110
10,54555,13390
10,54968,12036
10,55380,12711
10,55792,13056
10,56205,11880
10,56617,12240
10,57028,12120
10,57442,12744
10,57853,11946
10,58265,12003
10,58677,12192
10,59090,11887
10,59502,11679
10,59913,11697
10,60327,11286
10,60738,11837
10,61150,11538
10,61563,12063
10,61975,12175
10,62387,12189
10,62800,12316
10,63212,13527
10,63623,12486
10,64037,11600
10,64448,11344
10,64860,12007
10,65273,12697
10,65685,11706
10,66097,12182
10,66510,12804
10,66922,11594
10,67333,11487
10,67745,11572
10,68158,10620
10,68570,11249
10,68982,12267
10,69395,10520
10,69807,11750
10,70218,11461
10,70632,12180
10,71043,12250
10,71455,11583
10,71868,12347
10,72280,10805
10,72692,11942
10,73105,11509
10,73517,11538
10,73928,11893
10,74342,10025
10,74753,11948
10,75165,10334
10,75578,10570
10,75990,10964
10,76402,10518
10,76813,11261
10,77227,11597
10,77638,11169
10,78050,12189
10,78463,14349
10,78875,16573
10,79287,16058
10,79700,16976
10,80112,16247
10,80523,17488
10,80937,18796
10,81348,16713
10,81760,17293
10,82173,15470
10,82585,14592
10,82997,15681
10,83410,14542
10,83822,13710
10,84233,11602
10,84647,11787
10,85058,11204
10,85470,10994
10,85882,11861
10,86295,11883
10,86707,10530
10,87118,10337
10,87532,10702
10,87943,10368
10,88355,10097
10,88768,10625
10,89180,10064
10,89592,9714
10,90005,8839
10,90417,10351
10,90828,9657
10,91242,9514
10,91653,9605
10,92065,9448
10,92478,10406
10,92890,9282
10,93302,9776
10,93715,8549
10,94127,9023
10,94538,9179
10,94950,9642
10,95363,8507
10,95775,8763
10,96187,9689
10,96600,9979
10,97012,9928
10,97423,9727
10,97837,10139
10,98248,9412
10,98660,9852
10,99073,10828
10,99485,8031
10,99897,9074
11,00310,10103
11,00722,8773
11,01133,10937
11,01547,9520
11,01958,9679
11,02370,9936
11,02783,8903
11,03195,8693
11,03607,9297
11,04018,8985
11,04432,9616
11,04843,9197
11,05255,9744
11,05668,10035
11,06080,8757
11,06492,9675
11,06905,9323
11,07317,12536
11,07728,16711
11,08142,24939
11,08553,46989
11,08965,89975
11,09378,164862
11,09790,279954
11,10202,443304
11,10615,648838
11,11027,881907
11,11438,1079229
11,11852,1224928
11,12263,1278192
11,12675,1239627
11,13088,1145100
11,13500,1009057
11,13912,837642
11,14323,668628
11,14737,516602
11,15148,403932
11,15560,309175
11,15973,240941
11,16385,187503
11,16797,151316
11,17210,122073
11,17622,103017
11,18033,88136
11,18447,73558
11,18858,64384
11,19270,56617
11,19683,51643
11,20095,44191
11,20507,41847
11,20920,37489
11,21332,34513
11,21743,30839
11,22157,29426
11,22568,26312
11,22980,26306
11,23392,24305
11,23805,23829
11,24217,22205
11,24628,20578
11,25042,21898
11,25453,19404
11,25865,19052
11,26278,18982
11,26690,18955
11,27102,17289
11,27515,16914
11,27927,16014
11,28338,15660
11,28752,15049
11,29163,15642
11,29575,14558
11,29988,14683
11,30400,14028
11,30812,14538
11,31225,14711
11,31637,12962
11,32048,14580
11,32460,13664
11,32873,13756
11,33285,12136
11,33697,12132
11,34110,12475
11,34522,11106
11,34933,12178
11,35347,11948
11,35758,12340
11,36170,12513
11,36583,10867
11,36995,10744
11,37407,11129
11,37820,11854
11,38232,10431
11,38643,11192
11,39057,11951
11,39468,10288
11,39880,10162
11,40293,10385
11,40705,9254
11,41117,10377
11,41528,9457
11,41942,9034
11,42353,10219
11,42765,10337
11,43178,9853
11,43590,10149
11,44002,9692
11,44415,9645
11,44827,10757
11,45238,9359
11,45652,9369
11,46063,9458
11,46475,10348
11,46888,9500
11,47300,8094
11,47712,9859
11,48125,9841
11,48537,9327
11,48948,10170
11,49362,8717
11,49773,9617
11,50185,9658
11,50597,9090
11,51010,9367
11,51422,8854
11,51833,9712
11,52247,10254
11,52658,11189
11,53070,10733
11,53483,11559
11,53895,13047
11,54307,13379
11,54720,14756
11,55132,14306
11,55543,13940
11,55957,14882
11,56368,13284
11,56780,12853
11,57193,13504
11,57605,12099
11,58017,11122
11,58430,10795
11,58842,10918
11,59253,9022
11,59665,8296
11,60078,9968
11,60490,9815
11,60902,9410
11,61315,9602
11,61727,9239
11,62138,9952
11,62552,8441
11,62963,9179
11,63375,9181
11,63788,8762
11,64200,9393
11,64612,9213
11,65025,9217
11,65437,9710
11,65848,9691
11,66262,10402
11,66673,11608
11,67085,11479
11,67498,12687
11,67910,15478
11,68322,15951
11,68733,16607
11,69147,16896
11,69558,15871
11,69970,15316
11,70383,14847
11,70795,14797
11,71207,13720
11,71620,12890
11,72032,11511
11,72443,11290
11,72857,10535
11,73268,10801
11,73680,10938
11,74093,10636
11,74505,9930
11,74917,9368
11,75330,9995
11,75742,9212
11,76153,9107
11,76567,8649
11,76978,9164
11,77390,8889
11,77802,9782
11,78215,10389
11,78627,9368
11,79038,9898
11,79452,10067
11,79863,9299
11,80275,9516
11,80688,10236
11,81100,8916
11,81512,8855
11,81925,8305
11,82337,9127
11,82748,8206
11,83162,9267
11,83573,7334
11,83985,7960
11,84398,8697
11,84810,9053
11,85222,8121
11,85635,8224
11,86047,7619
11,86458,9475
11,86870,8172
11,87283,7323
11,87695,7516
11,88107,7830
11,88520,8512
11,88932,7851
11,89343,8958
11,89757,7493
11,90168,8743
11,90580,7116
11,90993,7531
11,91405,7640
11,91817,8250
11,92230,9633
11,92642,9906
11,93053,17194
11,93467,31409
11,93878,69137
11,94290,141883
11,94703,275552
11,95115,496374
11,95527,834634
11,95938,1259798
11,96352,1778696
11,96763,2243877
11,97175,2608382
11,97588,2804706
11,98000,2802586
11,98412,2592811
11,98825,2264584
11,99237,1877444
11,99648,1502708
12,00062,1149186
12,00473,869704
12,00885,669323
12,01298,511416
12,01710,401300
12,02122,316401
12,02535,253414
12,02947,210053
12,03358,173589
12,03772,148111
12,04183,125508
12,04595,111730
12,05007,96709
12,05420,88679
12,05832,78938
12,06243,70246
12,06657,62850
12,07068,59779
12,07480,53581
12,07893,49645
12,08305,46718
12,08717,42589
12,09130,40638
12,09542,35275
12,09953,35052
12,10367,33318
12,10778,30396
12,11190,29802
12,11603,27567
12,12015,26205
12,12427,25495
12,12840,23725
12,13252,23529
12,13663,22752
12,14075,23865
12,14488,22566
12,14900,23618
12,15312,23574
12,15725,25024
12,16137,23464
12,16548,23119
12,16962,25988
12,17373,23707
12,17785,20730
12,18198,21435
12,18610,20186
12,19022,20374
12,19435,18828
12,19847,17633
12,20258,16764
12,20672,15153
12,21083,15464
12,21495,13343
12,21908,14805
12,22320,13704
12,22732,12954
12,23143,14096
12,23557,12653
12,23968,13023
12,24380,12111
12,24793,12534
12,25205,11281
12,25617,11443
12,26030,10911
12,26442,10905
12,26853,11556
12,27267,12439
12,27678,11408
12,28090,11606
12,28503,11936
12,28915,11273
12,29327,10904
12,29740,9936
12,30152,11533
12,30563,11208
12,30977,10139
12,31388,11571
12,31800,11174
12,32212,12307
12,32625,10808
12,33037,10450
12,33448,11346
12,33862,11372
12,34273,11387
12,34685,11179
12,35098,10588
12,35510,9847
12,35922,12268
12,36335,10489
12,36747,11073
12,37158,12349
12,37572,14429
12,37983,12424
12,38395,13826
12,38808,13014
12,39220,13279
12,39632,13902
12,40045,12664
12,40457,11070
12,40868,10559
12,41280,11164
12,41693,12016
12,42105,9788
12,42517,9015
12,42930,8890
12,43342,9862
12,43753,9252
12,44167,9206
12,44578,10014
12,44990,8638
12,45403,7233
12,45815,8840
12,46227,8823
12,46640,7396
12,47052,8997
12,47463,8352
12,47877,9438
12,48288,9690
12,48700,7994
12,49113,8716
12,49525,6718
12,49937,8812
12,50348,8419
12,50762,8779
12,51173,8785
12,51585,9643
12,51998,10076
12,52410,14251
12,52822,23218
12,53235,38691
12,53647,74802
12,54058,138131
12,54472,249695
12,54883,401122
12,55295,608499
12,55708,826979
12,56120,1055644
12,56532,1220178
12,56945,1305628
12,57357,1299598
12,57768,1197282
12,58182,1056670
12,58593,881068
12,59005,704764
12,59417,544302
12,59830,420085
12,60242,324296
12,60653,248988
12,61067,199465
12,61478,155611
12,61890,128268
12,62303,108386
12,62715,93702
12,63127,84102
12,63540,76948
12,63952,68932
12,64363,64894
12,64777,59656
12,65188,59606
12,65600,53824
12,66013,50022
12,66425,44367
12,66837,41158
12,67250,37242
12,67662,33744
12,68073,31173
12,68485,27465
12,68898,27434
12,69310,23773
12,69722,23416
12,70135,22774
12,70547,19535
12,70958,19177
12,71372,17553
12,71783,18736
12,72195,18869
12,72608,15355
12,73020,15729
12,73432,16103
12,73845,14262
12,74257,15647
12,74668,14875
12,75082,14365
12,75493,18461
12,75905,27980
12,76318,48832
12,76730,93764
12,77142,176686
12,77555,307539
12,77967,496247
12,78378,743739
12,78790,992173
12,79203,1255820
12,79615,1440806
12,80027,1514426
12,80440,1459522
12,80852,1332141
12,81263,1149313
12,81677,926746
12,82088,721257
12,82500,553616
12,82913,422947
12,83325,319484
12,83737,246540
12,84150,191895
12,84562,153751
12,84973,126352
12,85387,104691
12,85798,87870
12,86210,76515
12,86623,68388
12,87035,60897
12,87447,54431
12,87858,48248
12,88272,43225
12,88683,41692
12,89095,39738
12,89508,34865
12,89920,31900
12,90332,29280
12,90745,26787
12,91157,26276
12,91568,25329
12,91982,21888
12,92393,23164
12,92805,22115
12,93218,20313
12,93630,19349
12,94042,19027
12,94455,20035
12,94867,17835
12,95278,16178
12,95692,16947
12,96103,14493
12,96515,14952
12,96927,13764
12,97340,16005
12,97752,14777
12,98163,14703
12,98577,13639
12,98988,13840
12,99400,13929
12,99813,13883
13,00225,13529
13,00637,12783
13,01050,11641
13,01462,10627
13,01873,11722
13,02287,11822
13,02698,10848
13,03110,11647
13,03523,11349
13,03935,11820
13,04347,11180
13,04760,11958
13,05172,11000
13,05583,11120
13,05995,11498
13,06408,10838
13,06820,11051
13,07232,10854
13,07645,11023
13,08057,9812
13,08468,9139
13,08882,9283
13,09293,10618
13,09705,10161
13,10118,9448
13,10530,10733
13,10942,9481
13,11355,9550
13,11767,10551
13,12178,9263
13,12592,9577
13,13003,9217
13,13415,9551
13,13828,9728
13,14240,9418
13,14652,9403
13,15063,10197
13,15477,9292
13,15888,8945
13,16300,10292
13,16713,9595
13,17125,9520
13,17537,9694
13,17950,10400
13,18362,10528
13,18773,9428
13,19187,11478
13,19598,9558
13,20010,10054
13,20423,10213
13,20835,9415
13,21247,10423
13,21660,9174
13,22072,9999
13,22483,8988
13,22897,8014
13,23308,8397
13,23720,10049
13,24132,8316
13,24545,8305
13,24957,8376
13,25368,8527
13,25782,8828
13,26193,9727
13,26605,8911
13,27018,8874
13,27430,8990
13,27842,8844
13,28255,9167
13,28667,9120
13,29078,8825
13,29492,8733
13,29903,8996
13,30315,8708
13,30728,8181
13,31140,10006
13,31552,9444
13,31965,9392
13,32377,9131
13,32788,9557
13,33200,10114
13,33613,14355
13,34025,22628
13,34437,41074
13,34850,78616
13,35262,146097
13,35673,267741
13,36087,438421
13,36498,668581
13,36910,922513
13,37323,1163514
13,37735,1332081
13,38147,1417709
13,38560,1397470
13,38972,1281040
13,39383,1109962
13,39797,914800
13,40208,730755
13,40620,561557
13,41033,429809
13,41445,327693
13,41857,251931
13,42268,196656
13,42682,159025
13,43093,131575
13,43505,105618
13,43918,94792
13,44330,77518
13,44742,67115
13,45155,61499
13,45567,54878
13,45978,51590
13,46392,43283
13,46803,39786
13,47215,36746
13,47628,34655
13,48040,33357
13,48452,31831
13,48865,29621
13,49277,26718
13,49688,26442
13,50102,24390
13,50513,26102
13,50925,24018
13,51337,20084
13,51750,19847
13,52162,20745
13,52573,18652
13,52987,18601
13,53398,17740
13,53810,17519
13,54223,18691
13,54635,24951
13,55047,40911
13,55460,81498
13,55872,166440
13,56283,330695
13,56697,630436
13,57108,1056475
13,57520,1682766
13,57933,2465112
13,58345,3305044
13,58757,4120554
13,59170,4687019
13,59582,4946250
13,59993,4762589
13,60405,4262765
13,60818,3609964
13,61230,2877495
13,61642,2205776
13,62055,1645936
13,62467,1225382
13,62878,912969
13,63292,704360
13,63703,552702
13,64115,436341
13,64528,360586
13,64940,298303
13,65352,250337
13,65765,217982
13,66177,185237
13,66588,164338
13,67002,144496
13,67413,129990
13,67825,117973
13,68238,109746
13,68650,98611
13,69062,91862
13,69473,81425
13,69887,74462
13,70298,70229
13,70710,63930
13,71123,60479
13,71535,57010
13,71947,54896
13,72360,51546
13,72772,46772
13,73183,43429
13,73597,42961
13,74008,37947
13,74420,37669
13,74833,35475
13,75245,32492
13,75657,34182
13,76070,31177
13,76482,30272
13,76893,31094
13,77307,28720
13,77718,26664
13,78130,24929
13,78542,23952
13,78955,23630
13,79367,23911
13,79778,21858
13,80192,22235
13,80603,20147
13,81015,20582
13,81428,21504
13,81840,19378
13,82252,19288
13,82665,18285
13,83077,18650
13,83488,17950
13,83902,17313
13,84313,18012
13,84725,16287
13,85138,16693
13,85550,15866
13,85962,15740
13,86375,16926
13,86787,15885
13,87198,14504
13,87610,16427
13,88023,16477
13,88435,15049
13,88847,17771
13,89260,16598
13,89672,17159
13,90083,17681
13,90497,17758
13,90908,15908
13,91320,16399
13,91733,15467
13,92145,13968
13,92557,14794
13,92970,15263
13,93382,13953
13,93793,12598
13,94207,12467
13,94618,12288
13,95030,11970
13,95443,12891
13,95855,12777
13,96267,13096
13,96678,13363
13,97092,13341
13,97503,13473
13,97915,16026
13,98328,14303
13,98740,14127
13,99152,13036
13,99565,14363
13,99977,13742
14,00388,14960
14,00802,13653
14,01213,17241
14,01625,23101
14,02038,38699
14,02450,72703
14,02862,139185
14,03275,248176
14,03687,415702
14,04098,652978
14,04512,921207
14,04923,1180220
14,05335,1387343
14,05747,1488084
14,06160,1490391
14,06572,1373361
14,06983,1195663
14,07397,988274
14,07808,786363
14,08220,607549
14,08633,469974
14,09045,360221
14,09457,274982
14,09870,221148
14,10282,176753
14,10693,143942
14,11107,120957
14,11518,103512
14,11930,86963
14,12343,79114
14,12755,69736
14,13167,65530
14,13580,60344
14,13992,57331
14,14403,55472
14,14815,57202
14,15228,55170
14,15640,55167
14,16052,53833
14,16465,53493
14,16877,51351
14,17288,48057
14,17702,42036
14,18113,39397
14,18525,35988
14,18938,34568
14,19350,31895
14,19762,27221
14,20175,27328
14,20587,24355
14,20998,23628
14,21412,21646
14,21823,21950
14,22235,20403
14,22648,19368
14,23060,19426
14,23472,18380
14,23883,17784
14,24297,17660
14,24708,17193
14,25120,17531
14,25533,17419
14,25945,17249
14,26357,17371
14,26770,17637
14,27182,16885
14,27593,16835
14,28007,17806
14,28418,14821
14,28830,16287
14,29243,15385
14,29655,13541
14,30067,14002
14,30480,15273
14,30892,22156
14,31303,31818
14,31717,63811
14,32128,122379
14,32540,232413
14,32953,409991
14,33365,646820
14,33777,941178
14,34188,1243339
14,34602,1507601
14,35013,1675172
14,35425,1727747
14,35838,1621709
14,36250,1428915
14,36662,1177239
14,37075,939234
14,37487,719608
14,37898,551664
14,38312,412827
14,38723,319295
14,39135,250059
14,39548,200210
14,39960,159645
14,40372,136475
14,40785,114413
14,41197,100960
14,41608,84851
14,42022,76864
14,42433,68679
14,42845,63278
14,43257,56046
14,43670,50937
14,44082,46339
14,44493,43670
14,44907,40586
14,45318,37678
14,45730,36369
14,46143,34231
14,46555,33498
14,46967,30982
14,47380,29461
14,47792,27077
14,48203,27040
14,48617,25901
14,49028,23286
14,49440,23763
14,49853,24712
14,50265,23253
14,50677,20227
14,51090,22292
14,51502,22239
14,51913,21477
14,52325,20441
14,52738,20892
14,53150,20929
14,53562,21297
14,53975,20478
14,54387,19157
14,54798,16783
14,55212,18482
14,55623,17639
14,56035,17501
14,56448,17389
14,56860,17361
14,57272,17157
14,57685,16104
14,58097,15758
14,58508,16066
14,58922,15532
14,59333,14274
14,59745,14836
14,60158,15546
14,60570,14673
14,60982,14972
14,61393,16225
14,61807,15346
14,62218,16005
14,62630,14571
14,63043,13609
14,63455,14031
14,63867,15481
14,64280,13324
14,64692,15141
14,65103,14510
14,65517,13487
14,65928,14379
14,66340,13658
14,66753,14252
14,67165,13100
14,67577,12862
14,67990,13041
14,68402,13945
14,68813,12252
14,69227,11517
14,69638,11891
14,70050,12431
14,70462,12361
14,70875,10730
14,71287,12992
14,71698,11742
14,72112,12192
14,72523,11299
14,72935,11780
14,73348,12625
14,73760,10491
14,74172,11675
14,74585,10881
14,74997,11111
14,75408,14388
14,75822,16429
14,76233,21377
14,76645,32809
14,77058,59018
14,77470,112879
14,77882,203446
14,78295,353432
14,78707,573923
14,79118,846707
14,79530,1140222
14,79943,1414681
14,80355,1609555
14,80767,1639596
14,81180,1564954
14,81592,1416406
14,82003,1177923
14,82417,950925
14,82828,752066
14,83240,571606
14,83653,435279
14,84065,339608
14,84477,263584
14,84890,212638
14,85302,171189
14,85713,145079
14,86127,124023
14,86538,103331
14,86950,90970
14,87363,81137
14,87775,72088
14,88187,65494
14,88598,57664
14,89012,53021
14,89423,49263
14,89835,44859
14,90248,41730
14,90660,39690
14,91072,38460
14,91485,35482
14,91897,33395
14,92308,32123
14,92722,31129
14,93133,28836
14,93545,28531
14,93958,25413
14,94370,24271
14,94782,24157
14,95195,23832
14,95607,22065
14,96018,22333
14,96432,20719
14,96843,21741
14,97255,19999
14,97667,19310
14,98080,18225
14,98492,17507
14,98903,19066
14,99317,17585
14,99728,19518
15,00140,17983
15,00553,15534
15,00965,15802
15,01377,16382
15,01790,16339
15,02202,19396
15,02613,19152
15,03027,20022
15,03438,23671
15,03850,32946
15,04263,49624
15,04675,90632
15,05087,162774
15,05500,314034
15,05912,551541
15,06323,943129
15,06735,1452473
15,07148,2063072
15,07560,2711400
15,07972,3287537
15,08385,3673307
15,08797,3784974
15,09208,3584257
15,09622,3142180
15,10033,2645854
15,10445,2063275
15,10858,1584214
15,11270,1196446
15,11682,904719
15,12095,695769
15,12507,540992
15,12918,436100
15,13332,348807
15,13743,296494
15,14155,251048
15,14568,218289
15,14980,187670
15,15392,163618
15,15803,147071
15,16217,130756
15,16628,117400
15,17040,106553
15,17453,98978
15,17865,87906
15,18277,82280
15,18690,79947
15,19102,74402
15,19513,66628
15,19927,65261
15,20338,61070
15,20750,60600
15,21163,54772
15,21575,51923
15,21987,49454
15,22400,45838
15,22812,43425
15,23223,40970
15,23637,40873
15,24048,37073
15,24460,35742
15,24872,33851
15,25285,33310
15,25697,32769
15,26108,31098
15,26522,30651
15,26933,29816
15,27345,29201
15,27758,27210
15,28170,28412
15,28582,27878
15,28995,30860
15,29407,42328
15,29818,64877
15,30232,108878
15,30643,200157
15,31055,344667
15,31468,562289
15,31880,845599
15,32292,1150833
15,32705,1446879
15,33117,1650649
15,33528,1747814
15,33940,1712853
15,34353,1569071
15,34765,1362550
15,35177,1113973
15,35590,883846
15,36002,696603
15,36413,543683
15,36827,413229
15,37238,332478
15,37650,264326
15,38063,213972
15,38475,178470
15,38887,152165
15,39300,130520
15,39712,114367
15,40123,100675
15,40537,93006
15,40948,86379
15,41360,76728
15,41773,76682
15,42185,78772
15,42597,98381
15,43008,146788
15,43422,244017
15,43833,431366
15,44245,730636
15,44658,1167415
15,45070,1720756
15,45482,2341898
15,45895,2925479
15,46307,3366202
15,46718,3544294
15,47132,3482045
15,47543,3165561
15,47955,2722423
15,48368,2216441
15,48780,1739180
15,49192,1333761
15,49605,1019201
15,50017,791712
15,50428,609998
15,50842,489913
15,51253,396639
15,51665,332929
15,52077,278316
15,52490,246571
15,52902,213397
15,53313,185183
15,53727,167035
15,54138,142518
15,54550,130339
15,54963,124507
15,55375,109338
15,55787,100742
15,56200,95139
15,56612,90315
15,57023,82675
15,57437,76222
15,57848,73168
15,58260,68548
15,58673,64649
15,59085,62599
15,59497,58866
15,59910,56522
15,60322,53472
15,60733,51122
15,61145,48932
15,61558,46751
15,61970,45591
15,62382,43094
15,62795,39751
15,63207,39585
15,63618,38281
15,64032,34613
15,64443,33933
15,64855,32956
15,65268,32388
15,65680,35394
15,66092,29879
15,66505,29239
15,66917,30394
15,67328,28729
15,67742,27974
15,68153,29554
15,68565,28427
15,68978,28115
15,69390,27650
15,69802,29807
15,70213,32609
15,70627,44601
15,71038,66432
15,71450,118059
15,71863,209679
15,72275,366178
15,72687,597572
15,73100,867956
15,73512,1167003
15,73923,1438692
15,74337,1645138
15,74748,1734166
15,75160,1806840
15,75573,1863450
15,75985,1985182
15,76397,2256991
15,76810,2628839
15,77222,3135961
15,77633,3624197
15,78047,3978498
15,78458,4078978
15,78870,3868342
15,79283,3438038
15,79695,2879318
15,80107,2278202
15,80518,1755318
15,80932,1345888
15,81343,1042124
15,81755,809546
15,82168,642624
15,82580,526081
15,82992,436644
15,83405,366470
15,83817,319841
15,84228,278843
15,84642,246005
15,85053,218120
15,85465,191753
15,85878,176156
15,86290,164291
15,86702,147896
15,87115,138468
15,87527,126743
15,87938,120556
15,88352,114084
15,88763,104757
15,89175,100859
15,89587,94063
15,90000,88864
15,90412,85088
15,90823,81309
15,91237,77198
15,91648,74324
15,92060,68434
15,92473,64177
15,92885,63919
15,93297,61993
15,93710,58901
15,94122,58491
15,94533,55150
15,94947,53167
15,95358,51956
15,95770,51060
15,96183,47949
15,96595,47172
15,97007,45214
15,97420,44354
15,97832,43472
15,98243,40314
15,98655,38549
15,99068,40328
15,99480,38387
15,99892,41603
16,00305,47815
16,00717,66476
16,01128,100883
16,01542,176376
16,01953,296986
16,02365,478196
16,02778,722090
16,03190,997567
16,03602,1268062
16,04015,1459852
16,04427,1560547
16,04838,1516317
16,05252,1403024
16,05663,1213730
16,06075,1008343
16,06488,807414
16,06900,635416
16,07312,498128
16,07723,387894
16,08137,310174
16,08548,248033
16,08960,204519
16,09373,173465
16,09785,149689
16,10197,128869
16,10610,113040
16,11022,101148
16,11433,91081
16,11847,85938
16,12258,78165
16,12670,75253
16,13083,71071
16,13495,64487
16,13907,61949
16,14320,58476
16,14732,57820
16,15143,55309
16,15557,52987
16,15968,49682
16,16380,48689
16,16792,46239
16,17205,43663
16,17617,39935
16,18028,41238
16,18442,37789
16,18853,35683
16,19265,36995
16,19678,33675
16,20090,34099
16,20502,32892
16,20915,32424
16,21327,31680
16,21738,33396
16,22152,30895
16,22563,32728
16,22975,33002
16,23388,29620
16,23800,31069
16,24212,30801
16,24625,30370
16,25037,27645
16,25448,29436
16,25860,27065
16,26273,27419
16,26685,28230
16,27097,26833
16,27510,26275
16,27922,25723
16,28333,25362
16,28747,23327
16,29158,24112
16,29570,24100
16,29983,23353
16,30395,21063
16,30807,23298
16,31220,23359
16,31632,22113
16,32043,23486
16,32457,22117
16,32868,23202
16,33280,23752
16,33693,22034
16,34105,24150
16,34517,22950
16,34928,20472
16,35342,21500
16,35753,21906
16,36165,21052
16,36578,22265
16,36990,21567
16,37402,21398
16,37815,21092
16,38227,19936
16,38638,20169
16,39052,21415
16,39463,20494
16,39875,21267
16,40288,24484
16,40700,26696
16,41112,44157
16,41525,75393
16,41937,147419
16,42348,306421
16,42762,587147
16,43173,1040965
16,43585,1695979
16,43997,2534403
16,44410,3491365
16,44822,4401178
16,45233,5144827
16,45647,5469043
16,46058,5440239
16,46470,5035321
16,46883,4349806
16,47295,3554141
16,47707,2795171
16,48120,2150271
16,48532,1650099
16,48943,1276056
16,49357,998435
16,49768,794031
16,50180,651100
16,50593,546551
16,51005,469136
16,51417,402571
16,51830,348263
16,52242,305482
16,52653,272834
16,53065,245415
16,53478,226842
16,53890,203944
16,54302,184927
16,54715,169533
16,55127,159293
16,55538,148073
16,55952,141523
16,56363,127522
16,56775,118244
16,57188,110862
16,57600,107490
16,58012,103680
16,58425,93303
16,58837,89971
16,59248,87445
16,59662,80427
16,60073,77669
16,60485,75638
16,60898,74553
16,61310,70962
16,61722,66226
16,62133,63410
16,62547,63613
16,62958,62939
16,63370,66055
16,63783,65905
16,64195,66269
16,64607,69282
16,65020,70919
16,65432,75320
16,65843,75296
16,66257,80306
16,66668,86491
16,67080,104739
16,67493,144269
16,67905,221146
16,68317,346390
16,68730,526633
16,69142,758816
16,69553,994065
16,69967,1203983
16,70378,1346171
16,70790,1396006
16,71202,1333850
16,71615,1187810
16,72027,1019467
16,72438,830072
16,72852,663602
16,73263,520291
16,73675,410147
16,74088,329101
16,74500,265213
16,74912,220589
16,75325,186408
16,75737,158220
16,76148,138144
16,76562,128049
16,76973,117826
16,77385,123441
16,77798,151096
16,78210,209035
16,78622,319262
16,79035,498694
16,79447,758093
16,79858,1083762
16,80270,1415182
16,80683,1719802
16,81095,1899517
16,81507,1941289
16,81920,1845306
16,82332,1645390
16,82743,1392716
16,83157,1150441
16,83568,904022
16,83980,725661
16,84393,575693
16,84805,463012
16,85217,379663
16,85630,312379
16,86042,269423
16,86453,235745
16,86867,205353
16,87278,183560
16,87690,160981
16,88103,146799
16,88515,136475
16,88927,126314
16,89338,116667
16,89752,108062
16,90163,101995
16,90575,96242
16,90988,87501
16,91400,82683
16,91812,81048
16,92225,74106
16,92637,72828
16,93048,69516
16,93462,66071
16,93873,65908
16,94285,61729
16,94698,59939
16,95110,60268
16,95522,56615
16,95935,55899
16,96347,54034
16,96758,54201
16,97172,49892
16,97583,49829
16,97995,47376
16,98407,45177
16,98820,45331
16,99232,44893
16,99643,43240
17,00057,39929
17,00468,43703
17,00880,40198
17,01293,43006
17,01705,40978
17,02117,40167
17,02530,39836
17,02942,38565
17,03353,37771
17,03767,37320
17,04178,37912
17,04590,39697
17,05003,38799
17,05415,42976
17,05827,55469
17,06240,80129
17,06652,134598
17,07063,228396
17,07475,409117
17,07888,678373
17,08300,1019246
17,08712,1400422
17,09125,1762759
17,09537,2046926
17,09948,2184288
17,10362,2104675
17,10773,1888215
17,11185,1615142
17,11598,1302183
17,12010,1039412
17,12422,826192
17,12835,660373
17,13247,535187
17,13658,438048
17,14072,360975
17,14483,305070
17,14895,265820
17,15308,234324
17,15720,210769
17,16132,187158
17,16543,173141
17,16957,155267
17,17368,148698
17,17780,132824
17,18193,121446
17,18605,115189
17,19017,107868
17,19430,101942
17,19842,100432
17,20253,93867
17,20667,90067
17,21078,85515
17,21490,81370
17,21903,80973
17,22315,78980
17,22727,75840
17,23140,73791
17,23552,71204
17,23963,63992
17,24377,63844
17,24788,60672
17,25200,61996
17,25612,57455
17,26025,57231
17,26437,57946
17,26848,56023
17,27262,54070
17,27673,53143
17,28085,52437
17,28498,49624
17,28910,48521
17,29322,50158
17,29735,48989
17,30147,46100
17,30558,46402
17,30972,45625
17,31383,48482
17,31795,51572
17,32208,65997
17,32620,97461
17,33032,160361
17,33445,272713
17,33857,446193
17,34268,693596
17,34680,996092
17,35093,1295741
17,35505,1545510
17,35917,1664846
17,36330,1685665
17,36742,1570417
17,37153,1377510
17,37567,1159874
17,37978,964383
17,38390,758893
17,38803,606595
17,39215,482842
17,39627,394156
17,40040,323390
17,40452,267628
17,40863,237506
17,41277,204702
17,41688,179037
17,42100,158489
17,42513,141976
17,42925,131416
17,43337,119225
17,43750,114551
17,44162,103844
17,44573,99386
17,44985,90777
17,45398,84455
17,45810,85287
17,46222,77070
17,46635,76233
17,47047,73404
17,47458,68873
17,47872,66938
17,48283,65807
17,48695,64395
17,49108,60816
17,49520,61182
17,49932,61071
17,50345,56764
17,50757,54603
17,51168,53706
17,51582,51783
17,51993,52096
17,52405,50410
17,52818,51276
17,53230,48423
17,53642,48242
17,54053,48663
17,54467,49555
17,54878,45487
17,55290,45255
17,55703,44691
17,56115,45409
17,56527,46660
17,56940,42159
17,57352,44013
17,57763,46499
17,58177,45006
17,58588,43202
17,59000,43206
17,59413,41435
17,59825,40981
17,60237,41033
17,60650,40795
17,61062,40160
17,61473,43495
17,61887,41314
17,62298,40143
17,62710,40505
17,63122,40408
17,63535,40242
17,63947,40090
17,64358,40374
17,64772,38774
17,65183,38032
17,65595,37515
17,66008,39495
17,66420,38251
17,66832,42733
17,67245,41229
17,67657,43380
17,68068,54316
17,68482,70399
17,68893,112258
17,69305,197897
17,69718,350457
17,70130,625820
17,70542,1035613
17,70955,1616933
17,71367,2352090
17,71778,3192974
17,72190,4044996
17,72603,4726272
17,73015,5155819
17,73427,5257703
17,73840,5062398
17,74252,4658480
17,74663,4105215
17,75077,3535181
17,75488,2997567
17,75900,2475469
17,76313,2017606
17,76725,1642661
17,77137,1343023
17,77550,1099007
17,77962,903973
17,78373,755742
17,78787,642587
17,79198,554074
17,79610,485396
17,80023,433729
17,80435,389263
17,80847,353931
17,81258,316027
17,81672,290297
17,82083,266083
17,82495,254122
17,82908,233275
17,83320,222063
17,83732,206401
17,84145,196903
17,84557,185361
17,84968,172784
17,85382,164977
17,85793,159134
17,86205,149846
17,86618,141932
17,87030,138109
17,87442,132051
17,87855,127299
17,88267,122538
17,88678,119055
17,89092,115516
17,89503,111905
17,89915,108829
17,90327,107700
17,90740,106253
17,91152,102338
17,91563,99564
17,91977,96670
17,92388,95478
17,92800,96069
17,93213,93340
17,93625,96191
17,94037,100164
17,94450,117115
17,94862,148767
17,95273,215494
17,95687,323895
17,96098,500193
17,96510,731972
17,96923,986388
17,97335,1240233
17,97747,1430215
17,98160,1540427
17,98572,1534980
17,98983,1437475
17,99395,1280860
17,99808,1098846
18,00220,933827
18,00632,820935
18,01045,770293
18,01457,788876
18,01868,874684
18,02282,1038486
18,02693,1239107
18,03105,1452232
18,03518,1627034
18,03930,1786490
18,04342,1925740
18,04755,2032656
18,05167,2172754
18,05578,2338463
18,05992,2474015
18,06403,2535123
18,06815,2503043
18,07228,2359227
18,07640,2137039
18,08052,1851804
18,08463,1562043
18,08877,1309521
18,09288,1084464
18,09700,889610
18,10113,745416
18,10525,631450
18,10937,547590
18,11350,477005
18,11762,421388
18,12173,377903
18,12587,339287
18,12998,307114
18,13410,284531
18,13823,263650
18,14235,238888
18,14647,224324
18,15060,213407
18,15472,198378
18,15883,185180
18,16297,179258
18,16708,167725
18,17120,160706
18,17532,152393
18,17945,146667
18,18357,138572
18,18768,132328
18,19182,129895
18,19593,122115
18,20005,122949
18,20418,114606
18,20830,109908
18,21242,108918
18,21655,104763
18,22067,104251
18,22478,99819
18,22892,96440
18,23303,93198
18,23715,90994
18,24128,88332
18,24540,85256
18,24952,83420
18,25365,84705
18,25777,81304
18,26188,81001
18,26600,78517
18,27013,76449
18,27425,76556
18,27837,76194
18,28250,77345
18,28662,82372
18,29073,91678
18,29487,109678
18,29898,152065
18,30310,225967
18,30723,350531
18,31135,538080
18,31547,793030
18,31960,1122030
18,32372,1472951
18,32783,1788160
18,33197,2019223
18,33608,2099541
18,34020,2040012
18,34433,1835491
18,34845,1608184
18,35257,1341750
18,35668,1117725
18,36082,916915
18,36493,762002
18,36905,645049
18,37318,549851
18,37730,483611
18,38142,418876
18,38555,376911
18,38967,339723
18,39378,299525
18,39792,273654
18,40203,254894
18,40615,240290
18,41028,220902
18,41440,211673
18,41852,193762
18,42265,184192
18,42677,176937
18,43088,170864
18,43502,162296
18,43913,161144
18,44325,151605
18,44737,146127
18,45150,142666
18,45562,136017
18,45973,130924
18,46387,127265
18,46798,119228
18,47210,116682
18,47623,112992
18,48035,109506
18,48447,105909
18,48860,101018
18,49272,97925
18,49683,97564
18,50097,93940
18,50508,93252
18,50920,90790
18,51333,92075
18,51745,88451
18,52157,85832
18,52570,86388
18,52982,82549
18,53393,82231
18,53805,80216
18,54218,83581
18,54630,79293
18,55042,77816
18,55455,79668
18,55867,78015
18,56278,81941
18,56692,90551
18,57103,119489
18,57515,164067
18,57928,245060
18,58340,373759
18,58752,555745
18,59165,796836
18,59577,1068197
18,59988,1326224
18,60402,1539785
18,60813,1637015
18,61225,1654118
18,61638,1584709
18,62050,1418074
18,62462,1229830
18,62873,1035673
18,63287,872154
18,63698,726480
18,64110,614521
18,64523,517365
18,64935,444076
18,65347,391972
18,65760,347051
18,66172,320668
18,66583,298353
18,66997,303172
18,67408,334469
18,67820,391769
18,68233,490783
18,68645,623436
18,69057,776260
18,69470,952599
18,69882,1111238
18,70293,1210561
18,70707,1245630
18,71118,1241826
18,71530,1158198
18,71942,1049971
18,72355,918251
18,72767,778122
18,73178,654234
18,73592,556311
18,74003,467014
18,74415,401780
18,74828,341905
18,75240,301369
18,75652,263227
18,76065,238688
18,76477,212367
18,76888,197431
18,77302,182781
18,77713,168284
18,78125,159506
18,78538,148694
18,78950,140311
18,79362,132799
18,79775,126861
18,80187,124547
18,80598,116611
18,81010,113507
18,81423,108084
18,81835,106571
18,82247,105083
18,82660,97767
18,83072,95587
18,83483,96469
18,83897,88763
18,84308,90130
18,84720,86448
18,85133,87564
18,85545,85999
18,85957,82039
18,86370,83192
18,86782,81402
18,87193,78850
18,87607,78042
18,88018,76858
18,88430,76221
18,88843,73583
18,89255,74344
18,89667,73759
18,90078,70152
18,90492,74112
18,90903,73471
18,91315,75938
18,91728,90344
18,92140,106584
18,92552,149412
18,92965,217562
18,93377,332244
18,93788,508734
18,94202,772949
18,94613,1126082
18,95025,1584929
18,95438,2114159
18,95850,2702530
18,96262,3229289
18,96675,3663077
18,97087,3864884
18,97498,3827549
18,97912,3581393
18,98323,3131116
18,98735,2670437
18,99147,2214216
18,99560,1822301
18,99972,1513162
19,00383,1277287
19,00797,1082185
19,01208,928067
19,01620,809611
19,02033,719927
19,02445,640662
19,02857,581695
19,03270,523665
19,03682,475172
19,04093,439414
19,04507,404225
19,04918,379399
19,05330,353258
19,05743,331815
19,06155,311725
19,06567,292042
19,06980,275690
19,07392,260512
19,07803,245738
19,08217,234949
19,08628,225169
19,09040,215068
19,09452,206163
19,09865,199246
19,10277,193586
19,10688,184244
19,11102,182899
19,11513,169883
19,11925,167152
19,12338,162108
19,12750,156132
19,13162,151104
19,13575,145115
19,13987,143834
19,14398,138849
19,14812,138053
19,15223,131519
19,15635,132964
19,16048,125621
19,16460,123693
19,16872,120304
19,17285,119271
19,17697,114304
19,18108,112304
19,18520,113324
19,18933,109320
19,19345,107426
19,19757,104680
19,20170,104303
19,20582,101064
19,20993,99331
19,21407,98952
19,21818,97438
19,22230,97832
19,22643,96674
19,23055,94990
19,23467,94554
19,23880,92368
19,24292,90917
19,24703,89992
19,25117,85472
19,25528,88260
19,25940,86824
19,26353,88798
19,26765,85070
19,27177,86714
19,27588,85896
19,28002,92509
19,28413,96761
19,28825,113923
19,29238,149233
19,29650,204750
19,30062,290602
19,30475,420464
19,30887,596860
19,31298,810354
19,31712,1061994
19,32123,1320582
19,32535,1541898
19,32948,1686046
19,33360,1736376
19,33772,1673347
19,34185,1568976
19,34597,1426501
19,35008,1248660
19,35422,1078581
19,35833,922487
19,36245,796616
19,36657,689377
19,37070,607827
19,37482,542421
19,37893,486222
19,38307,428619
19,38718,394924
19,39130,353360
19,39543,328715
19,39955,298774
19,40367,281310
19,40780,265751
19,41192,243201
19,41603,235790
19,42017,222970
19,42428,210753
19,42840,201305
19,43253,187933
19,43665,182128
19,44077,179015
19,44490,171114
19,44902,161230
19,45313,158070
19,45725,151868
19,46138,147093
19,46550,139878
19,46962,134196
19,47375,134804
19,47787,130104
19,48198,126544
19,48612,121089
19,49023,118112
19,49435,116346
19,49848,114448
19,50260,106966
19,50672,110357
19,51085,110290
19,51497,104512
19,51908,104388
19,52322,102953
19,52733,97596
19,53145,99977
19,53558,95036
19,53970,96859
19,54382,94366
19,54793,93947
19,55207,88121
19,55618,91567
19,56030,88766
19,56443,86980
19,56855,87371
19,57267,83570
19,57680,82326
19,58092,80897
19,58503,80376
19,58917,81210
19,59328,78452
19,59740,83139
19,60153,77738
19,60565,78107
19,60977,80118
19,61390,75724
19,61802,80272
19,62213,77617
19,62627,76057
19,63038,77626
19,63450,75486
19,63862,74781
19,64275,72465
19,64687,73299
19,65098,71971
19,65512,73942
19,65923,72411
19,66335,68825
19,66748,70052
19,67160,67862
19,67572,71520
19,67985,66973
19,68397,68112
19,68808,67334
19,69222,69342
19,69633,67177
19,70045,62473
19,70458,63271
19,70870,63079
19,71282,64898
19,71695,63200
19,72107,62718
19,72518,62817
19,72930,60954
19,73343,64476
19,73755,62053
19,74167,62998
19,74580,60999
19,74992,61642
19,75403,66300
19,75817,67729
19,76228,69452
19,76640,75787
19,77053,80928
19,77465,89184
19,77877,98691
19,78290,109729
19,78702,113791
19,79113,119342
19,79527,124820
19,79938,127994
19,80350,121907
19,80763,121519
19,81175,118165
19,81587,110012
19,81998,104363
19,82412,95651
19,82823,89401
19,83235,84750
19,83648,79374
19,84060,77869
19,84472,74432
19,84885,67763
19,85297,68369
19,85708,64266
19,86122,66450
19,86533,63884
19,86945,61762
19,87358,63468
19,87770,63978
19,88182,59629
19,88595,57922
19,89007,59045
19,89418,59533
19,89832,59203
19,90243,55267
19,90655,60750
19,91067,55611
19,91480,55044
19,91892,53404
19,92303,56925
19,92717,55758
19,93128,55018
19,93540,54616
19,93953,54958
19,94365,55215
19,94777,56321
19,95190,55445
19,95602,54965
19,96013,55592
19,96427,53427
19,96838,55583
19,97250,54014
19,97663,56001
19,98075,52813
19,98487,51054
19,98900,54209
19,99312,53682
19,99723,54176
20,00135,52904
20,00548,54049
20,00960,56594
20,01372,53738
20,01785,55243
20,02197,54926
20,02608,54093
20,03022,54406
20,03433,53201
20,03845,52191
20,04258,53838
20,04670,52463
20,05082,53658
20,05495,53151
20,05907,52860
20,06318,52602
20,06732,49670
20,07143,50180
20,07555,51899
20,07968,50227
20,08380,51330
20,08792,50563
20,09203,53929
20,09617,48392
20,10028,50732
20,10440,49445
20,10853,51897
20,11265,51564
20,11677,49487
20,12090,50199
20,12502,52057
20,12913,51156
20,13327,50729
20,13738,51724
20,14150,51390
20,14563,50124
20,14975,52682
20,15387,51062
20,15800,49482
20,16212,49917
20,16623,51076
20,17037,49580
20,17448,51493
20,17860,49674
20,18272,51540
20,18685,53459
20,19097,49005
20,19508,48316
20,19922,48775
20,20333,51004
20,20745,52465
20,21158,53840
20,21570,52941
20,21982,52019
20,22395,50537
20,22807,50980
20,23218,51144
20,23632,51732
20,24043,48813
20,24455,50810
20,24868,51741
20,25280,50207
20,25692,49938
20,26105,49713
20,26517,47413
20,26928,51626
20,27340,51946
20,27753,46705
20,28165,48085
20,28577,49913
20,28990,48809
20,29402,47931
20,29813,50645
20,30227,48567
20,30638,46280
20,31050,47484
20,31463,47253
20,31875,49324
20,32287,49223
20,32700,49059
20,33112,45956
20,33523,48791
20,33937,46743
20,34348,50015
20,34760,48369
20,35173,49923
20,35585,49800
20,35997,48742
20,36408,49755
20,36822,49063
20,37233,49438
20,37645,51229
20,38058,49034
20,38470,52197
20,38882,59528
20,39295,68969
20,39707,84298
20,40118,107112
20,40532,141144
20,40943,192589
20,41355,262994
20,41768,347621
20,42180,442744
20,42592,553008
20,43005,646448
20,43417,723783
20,43828,777329
20,44242,800751
20,44653,802906
20,45065,763622
20,45477,720784
20,45890,658430
20,46302,598061
20,46713,525970
20,47127,467121
20,47538,414701
20,47950,367430
20,48363,326928
20,48775,290652
20,49187,261127
20,49600,237902
20,50012,218266
20,50423,202867
20,50837,186337
20,51248,167854
20,51660,160618
20,52073,149525
20,52485,142969
20,52897,135554
20,53310,128304
20,53722,125501
20,54133,117182
20,54545,113793
20,54958,105575
20,55370,103290
20,55782,99834
20,56195,101075
20,56607,94226
20,57018,94026
20,57432,90759
20,57843,87138
20,58255,89234
20,58668,82106
20,59080,84740
20,59492,82291
20,59905,80498
20,60317,79085
20,60728,76493
20,61142,73637
20,61553,72806
20,61965,71701
20,62378,73007
20,62790,68294
20,63202,69348
20,63613,69284
20,64027,68890
20,64438,66583
20,64850,68527
20,65263,66453
20,65675,68758
20,66087,62483
20,66500,64525
20,66912,65477
20,67323,63927
20,67737,64159
20,68148,65062
20,68560,66030
20,68973,62747
20,69385,61753
20,69797,59390
20,70210,59312
20,70622,59492
20,71033,61567
20,71447,56483
20,71858,59145
20,72270,59586
20,72682,58151
20,73095,60304
20,73507,59243
20,73918,59811
20,74332,53012
20,74743,53448
20,75155,57760
20,75568,55719
20,75980,52090
20,76392,54124
20,76805,51634
