D:\MassHunter\GCMS\1\data\Amal\Constant flow\130C\130C_1ml-min_8C-min_2.D Mon Sep 02 16:28:59 2024
Start of data points
5,19100	579839
5,19512	552633
5,19923	537870
5,20337	515035
5,20748	495411
5,21160	480659
5,21573	456847
5,21985	436799
5,22397	416546
5,22810	396024
5,23222	379109
5,23633	359661
5,24045	337773
5,24458	323335
5,24870	301624
5,25282	284858
5,25695	275070
5,26107	256567
5,26518	247180
5,26932	234094
5,27343	224358
5,27755	213631
5,28168	203933
5,28580	191251
5,28992	187617
5,29405	183733
5,29817	175254
5,30228	167917
5,30642	165771
5,31053	156444
5,31465	152283
5,31878	148598
5,32290	144491
5,32702	145290
5,33113	141787
5,33527	134164
5,33938	133873
5,34350	129406
5,34763	125742
5,35175	125963
5,35587	121505
5,36000	121516
5,36412	118837
5,36823	120469
5,37237	117377
5,37648	118206
5,38060	112836
5,38473	116052
5,38885	114447
5,39297	111355
5,39710	112065
5,40122	112953
5,40533	110958
5,40947	112926
5,41358	112509
5,41770	108591
5,42182	107574
5,42595	107514
5,43007	105854
5,43418	104607
5,43832	103833
5,44243	101128
5,44655	102638
5,45068	102591
5,45480	101403
5,45892	99186
5,46305	101032
5,46717	97630
5,47128	99939
5,47542	95501
5,47953	97783
5,48365	98097
5,48778	93471
5,49190	92294
5,49602	93460
5,50015	93089
5,50427	94581
5,50838	92446
5,51250	92631
5,51663	92643
5,52075	91026
5,52487	91558
5,52900	91376
5,53312	90321
5,53723	91885
5,54137	89963
5,54548	88650
5,54960	90320
5,55373	89194
5,55785	90404
5,56197	87493
5,56610	87177
5,57022	87751
5,57433	88739
5,57847	85977
5,58258	85999
5,58670	84525
5,59083	85492
5,59495	86300
5,59907	84224
5,60320	87139
5,60732	85321
5,61143	86030
5,61555	82152
5,61968	83291
5,62380	84000
5,62792	85365
5,63205	82261
5,63617	84447
5,64028	80953
5,64442	85889
5,64853	84562
5,65265	80705
5,65678	83983
5,66090	81220
5,66502	82307
5,66915	81367
5,67327	80118
5,67738	78876
5,68152	81662
5,68563	78291
5,68975	79426
5,69388	76862
5,69800	78879
5,70212	78770
5,70623	78124
5,71037	77455
5,71448	79225
5,71860	76837
5,72273	76221
5,72685	78025
5,73097	78363
5,73510	75104
5,73922	76433
5,74333	76686
5,74747	75042
5,75158	75243
5,75570	75057
5,75983	73785
5,76395	74104
5,76807	72157
5,77220	76515
5,77632	78203
5,78043	72713
5,78457	75710
5,78868	73657
5,79280	72587
5,79692	71343
5,80105	71708
5,80517	75633
5,80928	87589
5,81342	111519
5,81753	166552
5,82165	254640
5,82578	391516
5,82990	550237
5,83402	730698
5,83815	904867
5,84227	1044785
5,84638	1139069
5,85052	1196776
5,85463	1221312
5,85875	1237332
5,86288	1222405
5,86700	1198387
5,87112	1166363
5,87525	1135134
5,87937	1125764
5,88348	1070706
5,88760	1036521
5,89173	997326
5,89585	968322
5,89997	940037
5,90410	911849
5,90822	873554
5,91233	832948
5,91647	804794
5,92058	760206
5,92470	721455
5,92883	685423
5,93295	655071
5,93707	614519
5,94120	577754
5,94532	543334
5,94943	508437
5,95357	468417
5,95768	430919
5,96180	392605
5,96593	364489
5,97005	325292
5,97417	299601
5,97828	273486
5,98242	252416
5,98653	226020
5,99065	209374
5,99478	189839
5,99890	176222
6,00302	159791
6,00715	152241
6,01127	142288
6,01538	131435
6,01952	121968
6,02363	115293
6,02775	110890
6,03188	105266
6,03600	100033
6,04012	92050
6,04425	88919
6,04837	88730
6,05248	84215
6,05662	78951
6,06073	78997
6,06485	78175
6,06897	77065
6,07310	73658
6,07722	72798
6,08133	72850
6,08547	72515
6,08958	70126
6,09370	68060
6,09783	68911
6,10195	67973
6,10607	67815
6,11020	65777
6,11432	67051
6,11843	65663
6,12257	63972
6,12668	63961
6,13080	62794
6,13493	62010
6,13905	64139
6,14317	62106
6,14730	62683
6,15142	60754
6,15553	59424
6,15965	60204
6,16378	59345
6,16790	58768
6,17202	57695
6,17615	57753
6,18027	57295
6,18438	58390
6,18852	56612
6,19263	57528
6,19675	57849
6,20088	56281
6,20500	57500
6,20912	58989
6,21325	56980
6,21737	59008
6,22148	56627
6,22562	56465
6,22973	58414
6,23385	58896
6,23798	57956
6,24210	56217
6,24622	56323
6,25033	56324
6,25447	56316
6,25858	57920
6,26270	55901
6,26683	53987
6,27095	54896
6,27507	55927
6,27920	53108
6,28332	53519
6,28743	54798
6,29157	54935
6,29568	52106
6,29980	53720
6,30393	51952
6,30805	52384
6,31217	52670
6,31630	53914
6,32042	65013
6,32453	79575
6,32867	109709
6,33278	161640
6,33690	230436
6,34102	324804
6,34515	418278
6,34927	510193
6,35338	591324
6,35752	653812
6,36163	683143
6,36575	713860
6,36988	717982
6,37400	713396
6,37812	705694
6,38225	693526
6,38637	663324
6,39048	649026
6,39462	620830
6,39873	612401
6,40285	588302
6,40698	577934
6,41110	559612
6,41522	532632
6,41935	504185
6,42347	480602
6,42758	455897
6,43170	422528
6,43583	396978
6,43995	369821
6,44407	341022
6,44820	309206
6,45232	281162
6,45643	252021
6,46057	229723
6,46468	211142
6,46880	186562
6,47293	167919
6,47705	152617
6,48117	136308
6,48530	127146
6,48942	112811
6,49353	105671
6,49767	96344
6,50178	89934
6,50590	84183
6,51003	80028
6,51415	73708
6,51827	71140
6,52238	67783
6,52652	64771
6,53063	63497
6,53475	60777
6,53888	61082
6,54300	59075
6,54712	57406
6,55125	59009
6,55537	55515
6,55948	53314
6,56362	55683
6,56773	53837
6,57185	54960
6,57598	55184
6,58010	52431
6,58422	53107
6,58835	51035
6,59247	50824
6,59658	50646
6,60072	50746
6,60483	48964
6,60895	48562
6,61307	47197
6,61720	49068
6,62132	47135
6,62543	47471
6,62957	46193
6,63368	47100
6,63780	46333
6,64193	43642
6,64605	46929
6,65017	48990
6,65430	44770
6,65842	44242
6,66253	44972
6,66667	44839
6,67078	44223
6,67490	44304
6,67903	43932
6,68315	44691
6,68727	44760
6,69140	43344
6,69552	42832
6,69963	41331
6,70375	42571
6,70788	43371
6,71200	41526
6,71612	40730
6,72025	40996
6,72437	42192
6,72848	40605
6,73262	40871
6,73673	40159
6,74085	40740
6,74498	39736
6,74910	39404
6,75322	40773
6,75735	39872
6,76147	38783
6,76558	38942
6,76972	39711
6,77383	38490
6,77795	39238
6,78208	39869
6,78620	37772
6,79032	37943
6,79443	38348
6,79857	39020
6,80268	37145
6,80680	36806
6,81093	38081
6,81505	38737
6,81917	37713
6,82330	38095
6,82742	38647
6,83153	38451
6,83567	37939
6,83978	38660
6,84390	38557
6,84803	38233
6,85215	36405
6,85627	38318
6,86040	36670
6,86452	38352
6,86863	39121
6,87277	39572
6,87688	36939
6,88100	37165
6,88512	38474
6,88925	37787
6,89337	36672
6,89748	36625
6,90162	39227
6,90573	39828
6,90985	47702
6,91398	65158
6,91810	96995
6,92222	160735
6,92635	261540
6,93047	410285
6,93458	603849
6,93872	817700
6,94283	1049453
6,94695	1248948
6,95108	1409663
6,95520	1524015
6,95932	1580286
6,96345	1601593
6,96757	1595283
6,97168	1581464
6,97580	1564590
6,97993	1522898
6,98405	1497345
6,98817	1452347
6,99230	1391408
6,99642	1325582
7,00053	1266453
7,00467	1207390
7,00878	1122985
7,01290	1046047
7,01703	952615
7,02115	867967
7,02527	781454
7,02940	696214
7,03352	613537
7,03763	526791
7,04177	463546
7,04588	406191
7,05000	349425
7,05413	302372
7,05825	264678
7,06237	230873
7,06648	203705
7,07062	176038
7,07473	156876
7,07885	137186
7,08298	119932
7,08710	109403
7,09122	101318
7,09535	93417
7,09947	81406
7,10358	77486
7,10772	72451
7,11183	67418
7,11595	64901
7,12008	62816
7,12420	62201
7,12832	55302
7,13245	53557
7,13657	50967
7,14068	51023
7,14482	48888
7,14893	46052
7,15305	48383
7,15717	46469
7,16130	45937
7,16542	44233
7,16953	42737
7,17367	42003
7,17778	42034
7,18190	40709
7,18603	41227
7,19015	41214
7,19427	41072
7,19840	38811
7,20252	39058
7,20663	38485
7,21077	37394
7,21488	37513
7,21900	36276
7,22313	36316
7,22725	37715
7,23137	36706
7,23550	38129
7,23962	36108
7,24373	34990
7,24787	34616
7,25198	36504
7,25610	36329
7,26022	37891
7,26435	36299
7,26847	36472
7,27258	34003
7,27672	34311
7,28083	34651
7,28495	33890
7,28908	35034
7,29320	34004
7,29732	33418
7,30145	32138
7,30557	33218
7,30968	32547
7,31382	33499
7,31793	33043
7,32205	34701
7,32618	32669
7,33030	30826
7,33442	32743
7,33855	31997
7,34267	31399
7,34678	32431
7,35090	31624
7,35503	32853
7,35915	30409
7,36327	30916
7,36740	31983
7,37152	32079
7,37563	31803
7,37977	31040
7,38388	32918
7,38800	29018
7,39213	30596
7,39625	29844
7,40037	29896
7,40450	30702
7,40862	30246
7,41273	30410
7,41687	29487
7,42098	30682
7,42510	30279
7,42923	29192
7,43335	30063
7,43747	30692
7,44158	30738
7,44572	29447
7,44983	29255
7,45395	28717
7,45808	29048
7,46220	28691
7,46632	29781
7,47045	30419
7,47457	27874
7,47868	27795
7,48282	29590
7,48693	28630
7,49105	29535
7,49518	29809
7,49930	30111
7,50342	28781
7,50755	29292
7,51167	28828
7,51578	29963
7,51992	28440
7,52403	28549
7,52815	29063
7,53227	27630
7,53640	28180
7,54052	27972
7,54463	28129
7,54877	29164
7,55288	27382
7,55700	28296
7,56113	28301
7,56525	29015
7,56937	31421
7,57350	34909
7,57762	42474
7,58173	59233
7,58587	86339
7,58998	138020
7,59410	205719
7,59823	304330
7,60235	421912
7,60647	556974
7,61060	675524
7,61472	776511
7,61883	870556
7,62295	913724
7,62708	962897
7,63120	971792
7,63532	959567
7,63945	966273
7,64357	941175
7,64768	914591
7,65182	877937
7,65593	829195
7,66005	786497
7,66418	727001
7,66830	650102
7,67242	586376
7,67655	523658
7,68067	455851
7,68478	393839
7,68892	341974
7,69303	292748
7,69715	248114
7,70128	211352
7,70540	181434
7,70952	153395
7,71363	134502
7,71777	115220
7,72188	99296
7,72600	91716
7,73013	79820
7,73425	72656
7,73837	68330
7,74250	61746
7,74662	57485
7,75073	51674
7,75487	50258
7,75898	49762
7,76310	45073
7,76723	43247
7,77135	40825
7,77547	39683
7,77960	41150
7,78372	39166
7,78783	37718
7,79197	36441
7,79608	35954
7,80020	34571
7,80432	34855
7,80845	32672
7,81257	34157
7,81668	32922
7,82082	30981
7,82493	30791
7,82905	30489
7,83318	30768
7,83730	30373
7,84142	30164
7,84555	28383
7,84967	29456
7,85378	29982
7,85792	30423
7,86203	28180
7,86615	29635
7,87028	28021
7,87440	28311
7,87852	28795
7,88265	28854
7,88677	28465
7,89088	26825
7,89500	26706
7,89913	28287
7,90325	28863
7,90737	27867
7,91150	27775
7,91562	26315
7,91973	27605
7,92387	26300
7,92798	27133
7,93210	27858
7,93623	26145
7,94035	27759
7,94447	28272
7,94860	27008
7,95272	30588
7,95683	30309
7,96097	29623
7,96508	29976
7,96920	30534
7,97333	31827
7,97745	30127
7,98157	31663
7,98568	28033
7,98982	30662
7,99393	30210
7,99805	29664
8,00218	29575
8,00630	30634
8,01042	28216
8,01455	30055
8,01867	28408
8,02278	27593
8,02692	26718
8,03103	27057
8,03515	26307
8,03928	24804
8,04340	25485
8,04752	25626
8,05165	24989
8,05577	24973
8,05988	25373
8,06402	24765
8,06813	24255
8,07225	22365
8,07637	21957
8,08050	23028
8,08462	23542
8,08873	22856
8,09287	24582
8,09698	26349
8,10110	24077
8,10523	23882
8,10935	23027
8,11347	22567
8,11760	22891
8,12172	24319
8,12583	22549
8,12997	23834
8,13408	22630
8,13820	22699
8,14233	23551
8,14645	24896
8,15057	24251
8,15470	23208
8,15882	23815
8,16293	24234
8,16705	21085
8,17118	24282
8,17530	24629
8,17942	22796
8,18355	23295
8,18767	23018
8,19178	23424
8,19592	24725
8,20003	25111
8,20415	22918
8,20828	25810
8,21240	25760
8,21652	27152
8,22065	26256
8,22477	27355
8,22888	27241
8,23302	29144
8,23713	29670
8,24125	29079
8,24538	30353
8,24950	30951
8,25362	29126
8,25773	28128
8,26187	28543
8,26598	27352
8,27010	28028
8,27423	27575
8,27835	26736
8,28247	27089
8,28660	29193
8,29072	32814
8,29483	43180
8,29897	67123
8,30308	116170
8,30720	201081
8,31133	342925
8,31545	555719
8,31957	814836
8,32370	1121584
8,32782	1435509
8,33193	1727068
8,33607	1949682
8,34018	2135535
8,34430	2277681
8,34842	2312914
8,35255	2323223
8,35667	2295096
8,36078	2204243
8,36492	2088345
8,36903	1948883
8,37315	1784567
8,37728	1608814
8,38140	1413031
8,38552	1213538
8,38965	1032520
8,39377	853941
8,39788	706461
8,40202	588688
8,40613	480518
8,41025	403626
8,41438	334742
8,41850	273901
8,42262	228943
8,42675	195229
8,43087	170973
8,43498	145331
8,43910	128590
8,44323	113427
8,44735	100058
8,45147	92108
8,45560	81390
8,45972	76930
8,46383	69859
8,46797	65880
8,47208	60100
8,47620	58568
8,48033	53741
8,48445	51593
8,48857	48520
8,49270	48408
8,49682	50695
8,50093	46653
8,50507	45901
8,50918	46538
8,51330	45631
8,51743	45603
8,52155	45431
8,52567	43987
8,52978	42416
8,53392	40881
8,53803	42593
8,54215	39421
8,54628	38628
8,55040	38126
8,55452	39284
8,55865	36843
8,56277	33258
8,56688	34623
8,57102	31488
8,57513	32639
8,57925	29969
8,58338	30180
8,58750	27875
8,59162	29606
8,59575	26611
8,59987	28522
8,60398	28889
8,60812	26687
8,61223	25248
8,61635	27783
8,62047	24919
8,62460	27330
8,62872	24885
8,63283	24766
8,63697	24145
8,64108	23438
8,64520	24765
8,64933	25226
8,65345	23145
8,65757	22908
8,66170	25495
8,66582	22872
8,66993	24932
8,67407	26102
8,67818	26191
8,68230	25223
8,68643	25731
8,69055	27945
8,69467	28361
8,69880	30704
8,70292	31593
8,70703	31721
8,71115	28726
8,71528	31643
8,71940	31339
8,72352	30401
8,72765	28584
8,73177	30563
8,73588	28071
8,74002	28043
8,74413	26736
8,74825	27841
8,75238	25230
8,75650	25001
8,76062	24339
8,76475	23657
8,76887	23018
8,77298	23609
8,77712	23622
8,78123	21866
8,78535	23621
8,78948	23306
8,79360	22239
8,79772	24061
8,80183	22801
8,80597	23079
8,81008	22399
8,81420	22431
8,81833	23565
8,82245	21585
8,82657	21832
8,83070	22953
8,83482	21586
8,83893	21487
8,84307	21841
8,84718	23060
8,85130	26770
8,85543	34477
8,85955	48690
8,86367	79343
8,86780	127766
8,87192	204608
8,87603	308393
8,88017	446673
8,88428	598767
8,88840	759995
8,89253	909445
8,89665	1032142
8,90077	1129352
8,90488	1193453
8,90902	1238128
8,91313	1213202
8,91725	1171451
8,92138	1099287
8,92550	1003999
8,92962	902306
8,93375	791944
8,93787	689043
8,94198	580423
8,94612	480645
8,95023	404605
8,95435	338295
8,95848	271822
8,96260	224915
8,96672	187426
8,97085	158899
8,97497	136012
8,97908	117018
8,98322	101083
8,98733	90073
8,99145	79973
8,99557	69566
8,99970	65156
9,00382	59910
9,00793	52671
9,01207	52564
9,01618	46825
9,02030	44982
9,02443	43220
9,02855	41125
9,03267	36414
9,03680	38451
9,04092	38909
9,04503	39575
9,04917	49010
9,05328	66588
9,05740	105787
9,06153	166215
9,06565	260313
9,06977	397446
9,07390	555864
9,07802	734863
9,08213	916712
9,08625	1089929
9,09038	1209766
9,09450	1282010
9,09862	1338537
9,10275	1347049
9,10687	1297761
9,11098	1221803
9,11512	1123151
9,11923	1005144
9,12335	883015
9,12748	757527
9,13160	634340
9,13572	521189
9,13985	430634
9,14397	352496
9,14808	289472
9,15222	231919
9,15633	191530
9,16045	161032
9,16458	137655
9,16870	119332
9,17282	105056
9,17693	90308
9,18107	81136
9,18518	70700
9,18930	64350
9,19343	60005
9,19755	54431
9,20167	51815
9,20580	47898
9,20992	43563
9,21403	42744
9,21817	40515
9,22228	40091
9,22640	38935
9,23053	35922
9,23465	34114
9,23877	32661
9,24290	34094
9,24702	31704
9,25113	30097
9,25527	28532
9,25938	29860
9,26350	28543
9,26762	26654
9,27175	27093
9,27587	26692
9,27998	27223
9,28412	26878
9,28823	25204
9,29235	24980
9,29648	24611
9,30060	24604
9,30472	23507
9,30885	25508
9,31297	22907
9,31708	24607
9,32122	22833
9,32533	22791
9,32945	22592
9,33358	21672
9,33770	21872
9,34182	22091
9,34595	21448
9,35007	21277
9,35418	21378
9,35830	19876
9,36243	21317
9,36655	20325
9,37067	22181
9,37480	22648
9,37892	19783
9,38303	21180
9,38717	20672
9,39128	21435
9,39540	20857
9,39953	21338
9,40365	20607
9,40777	21020
9,41190	20570
9,41602	18672
9,42013	19052
9,42427	20489
9,42838	19990
9,43250	19598
9,43663	18646
9,44075	19335
9,44487	19247
9,44898	18970
9,45312	18536
9,45723	19843
9,46135	19018
9,46548	21151
9,46960	20494
9,47372	20422
9,47785	19615
9,48197	17902
9,48608	18521
9,49022	18926
9,49433	20185
9,49845	18204
9,50258	18659
9,50670	17918
9,51082	18478
9,51495	19073
9,51907	18258
9,52318	18694
9,52732	18374
9,53143	19152
9,53555	19131
9,53967	18617
9,54380	19774
9,54792	17475
9,55203	18931
9,55617	18424
9,56028	17456
9,56440	18383
9,56853	18284
9,57265	17572
9,57677	17400
9,58090	18080
9,58502	18649
9,58913	16365
9,59327	18471
9,59738	17735
9,60150	18764
9,60563	17362
9,60975	17932
9,61387	16923
9,61800	19434
9,62212	22668
9,62623	29254
9,63035	44912
9,63448	70937
9,63860	120972
9,64272	195605
9,64685	313861
9,65097	466533
9,65508	642404
9,65922	835385
9,66333	1010483
9,66745	1173791
9,67158	1284663
9,67570	1369494
9,67982	1381432
9,68395	1338846
9,68807	1252470
9,69218	1141649
9,69632	1005008
9,70043	858364
9,70455	719128
9,70868	598179
9,71280	484436
9,71692	389699
9,72103	312695
9,72517	260164
9,72928	215673
9,73340	174483
9,73753	147488
9,74165	125195
9,74577	107611
9,74990	94043
9,75402	83384
9,75813	72005
9,76227	64468
9,76638	59368
9,77050	54620
9,77463	51720
9,77875	48840
9,78287	43939
9,78700	43788
9,79112	41996
9,79523	39416
9,79937	37196
9,80348	35555
9,80760	36987
9,81172	44160
9,81585	60657
9,81997	93898
9,82408	165957
9,82822	308865
9,83233	522576
9,83645	861467
9,84058	1311412
9,84470	1860075
9,84882	2471603
9,85295	3082555
9,85707	3683790
9,86118	4184118
9,86532	4450718
9,86943	4559261
9,87355	4412676
9,87768	4085925
9,88180	3677204
9,88592	3166028
9,89005	2640906
9,89417	2162313
9,89828	1705546
9,90240	1349498
9,90653	1073129
9,91065	862444
9,91477	686537
9,91890	555243
9,92302	462639
9,92713	381067
9,93127	320684
9,93538	271096
9,93950	238354
9,94363	206601
9,94775	180995
9,95187	160465
9,95600	140249
9,96012	130680
9,96423	118149
9,96837	109685
9,97248	99877
9,97660	92470
9,98073	86096
9,98485	80236
9,98897	73177
9,99308	71807
9,99722	66015
10,00133	63388
10,00545	59971
10,00958	55944
10,01370	53798
10,01782	53119
10,02195	47906
10,02607	49484
10,03018	47318
10,03432	44757
10,03843	43990
10,04255	41949
10,04668	40455
10,05080	38928
10,05492	38724
10,05905	37200
10,06317	38448
10,06728	34663
10,07142	35789
10,07553	34092
10,07965	32095
10,08377	33206
10,08790	30943
10,09202	28983
10,09613	31726
10,10027	28475
10,10438	30223
10,10850	28591
10,11263	28434
10,11675	28708
10,12087	27041
10,12500	26650
10,12912	27308
10,13323	27891
10,13737	25971
10,14148	25388
10,14560	26062
10,14973	26252
10,15385	26214
10,15797	26145
10,16210	26579
10,16622	26578
10,17033	26104
10,17445	26111
10,17858	27056
10,18270	25372
10,18682	26654
10,19095	26933
10,19507	24259
10,19918	25010
10,20332	25307
10,20743	24371
10,21155	22283
10,21568	23808
10,21980	23142
10,22392	22170
10,22805	21984
10,23217	21196
10,23628	19522
10,24042	20426
10,24453	20116
10,24865	21801
10,25278	21132
10,25690	21504
10,26102	23230
10,26513	23013
10,26927	23727
10,27338	22362
10,27750	24367
10,28163	23667
10,28575	22498
10,28987	23207
10,29400	24897
10,29812	28670
10,30223	37078
10,30637	51493
10,31048	89384
10,31460	149591
10,31873	241341
10,32285	375724
10,32697	545480
10,33110	754303
10,33522	964137
10,33933	1160537
10,34347	1336529
10,34758	1432184
10,35170	1480540
10,35582	1437494
10,35995	1320030
10,36407	1184167
10,36818	1024425
10,37232	863619
10,37643	704321
10,38055	572976
10,38468	455366
10,38880	364118
10,39292	294962
10,39705	243385
10,40117	198106
10,40528	164994
10,40942	140914
10,41353	122034
10,41765	106915
10,42178	94610
10,42590	83778
10,43002	80114
10,43415	73635
10,43827	67938
10,44238	66359
10,44652	61827
10,45063	60854
10,45475	53373
10,45887	53530
10,46300	52430
10,46712	46356
10,47123	46326
10,47537	42510
10,47948	38910
10,48360	38118
10,48773	36725
10,49185	33621
10,49597	32380
10,50010	32617
10,50422	30173
10,50833	29530
10,51247	30058
10,51658	28803
10,52070	30880
10,52483	31850
10,52895	32080
10,53307	33700
10,53720	31552
10,54132	32501
10,54543	33437
10,54955	32116
10,55368	31882
10,55780	30993
10,56192	30627
10,56605	28886
10,57017	27721
10,57428	27023
10,57842	27408
10,58253	28048
10,58665	33412
10,59078	43144
10,59490	64512
10,59902	107160
10,60315	186916
10,60727	304656
10,61138	475789
10,61552	703126
10,61963	959376
10,62375	1201049
10,62788	1410354
10,63200	1533599
10,63612	1590648
10,64023	1551632
10,64437	1443363
10,64848	1273123
10,65260	1088067
10,65673	894488
10,66085	726216
10,66497	577531
10,66910	457905
10,67322	372515
10,67733	296144
10,68147	241911
10,68558	197603
10,68970	170350
10,69383	140979
10,69795	121395
10,70207	105215
10,70620	93864
10,71032	81853
10,71443	75482
10,71857	67610
10,72268	62447
10,72680	58726
10,73092	53446
10,73505	51109
10,73917	46492
10,74328	45788
10,74742	43678
10,75153	40043
10,75565	39482
10,75978	36104
10,76390	35490
10,76802	33983
10,77215	32055
10,77627	30599
10,78038	31303
10,78452	30056
10,78863	29794
10,79275	28403
10,79688	26457
10,80100	26557
10,80512	26791
10,80925	26620
10,81337	26334
10,81748	24366
10,82160	24115
10,82573	25410
10,82985	23274
10,83397	24331
10,83810	23212
10,84222	21938
10,84633	21233
10,85047	21731
10,85458	23606
10,85870	22672
10,86283	21534
10,86695	21914
10,87107	21819
10,87520	22368
10,87932	21838
10,88343	19635
10,88757	20987
10,89168	20493
10,89580	20520
10,89993	21331
10,90405	20171
10,90817	20062
10,91228	20420
10,91642	18585
10,92053	20537
10,92465	20391
10,92878	18776
10,93290	21464
10,93702	19840
10,94115	19936
10,94527	18380
10,94938	18688
10,95352	18847
10,95763	17849
10,96175	18296
10,96588	17738
10,97000	17399
10,97412	18192
10,97825	18284
10,98237	17824
10,98648	18270
10,99062	18100
10,99473	19674
10,99885	19763
11,00297	18397
11,00710	18029
11,01122	18658
11,01533	18190
11,01947	17365
11,02358	18211
11,02770	18603
11,03183	18573
11,03595	18882
11,04007	19416
11,04420	19034
11,04832	16776
11,05243	17695
11,05657	20917
11,06068	19152
11,06480	20697
11,06893	23617
11,07305	32157
11,07717	46786
11,08130	78801
11,08542	136203
11,08953	230198
11,09365	375620
11,09778	563995
11,10190	793129
11,10602	1044492
11,11015	1259375
11,11427	1434656
11,11838	1517464
11,12252	1544816
11,12663	1471117
11,13075	1342596
11,13488	1160238
11,13900	979303
11,14312	794325
11,14725	645944
11,15137	516039
11,15548	408954
11,15962	324191
11,16373	265071
11,16785	218201
11,17198	181742
11,17610	152822
11,18022	132317
11,18433	112363
11,18847	103155
11,19258	89655
11,19670	81281
11,20083	75706
11,20495	66656
11,20907	61014
11,21320	57352
11,21732	52794
11,22143	49722
11,22557	47930
11,22968	43865
11,23380	41505
11,23793	38858
11,24205	36435
11,24617	35941
11,25030	35904
11,25442	35062
11,25853	34113
11,26267	29761
11,26678	31714
11,27090	30568
11,27502	28763
11,27915	31146
11,28327	27667
11,28738	28372
11,29152	27894
11,29563	27888
11,29975	26338
11,30388	24555
11,30800	26377
11,31212	24389
11,31625	23814
11,32037	24156
11,32448	25764
11,32862	24310
11,33273	23607
11,33685	21918
11,34098	24739
11,34510	24370
11,34922	31308
11,35335	44332
11,35747	70902
11,36158	132112
11,36570	236365
11,36983	407256
11,37395	676632
11,37807	1036795
11,38220	1478854
11,38632	2016297
11,39043	2507477
11,39457	2999802
11,39868	3302692
11,40280	3367402
11,40693	3267472
11,41105	2956245
11,41517	2539201
11,41930	2113778
11,42342	1709997
11,42753	1349614
11,43167	1056755
11,43578	843097
11,43990	672121
11,44403	548182
11,44815	441073
11,45227	370556
11,45638	317635
11,46052	269297
11,46463	232923
11,46875	196161
11,47288	174097
11,47700	155060
11,48112	139980
11,48525	122155
11,48937	115732
11,49348	104727
11,49762	95397
11,50173	90515
11,50585	78461
11,50998	76645
11,51410	71187
11,51822	68543
11,52235	64469
11,52647	61433
11,53058	60086
11,53472	56008
11,53883	52717
11,54295	49922
11,54707	47441
11,55120	48907
11,55532	48619
11,55943	47381
11,56357	43645
11,56768	42113
11,57180	42626
11,57593	38687
11,58005	40513
11,58417	36953
11,58830	36135
11,59242	34844
11,59653	36340
11,60067	32921
11,60478	31906
11,60890	34235
11,61303	32998
11,61715	33633
11,62127	34265
11,62540	37008
11,62952	43956
11,63363	68119
11,63775	106403
11,64188	179178
11,64600	299001
11,65012	470073
11,65425	692521
11,65837	954596
11,66248	1216663
11,66662	1417683
11,67073	1565041
11,67485	1604380
11,67898	1561086
11,68310	1438394
11,68722	1256230
11,69135	1053333
11,69547	866116
11,69958	706851
11,70372	563750
11,70783	443031
11,71195	361219
11,71608	293299
11,72020	242410
11,72432	200354
11,72843	171734
11,73257	148461
11,73668	131486
11,74080	114327
11,74493	103095
11,74905	92945
11,75317	85519
11,75730	78977
11,76142	77087
11,76553	75128
11,76967	80954
11,77378	106595
11,77790	159455
11,78203	260467
11,78615	422825
11,79027	688738
11,79440	1048313
11,79852	1504178
11,80263	1982871
11,80677	2499185
11,81088	2913932
11,81500	3186637
11,81912	3268118
11,82325	3142712
11,82737	2866915
11,83148	2469745
11,83562	2041432
11,83973	1634565
11,84385	1314548
11,84798	1031070
11,85210	818206
11,85622	656703
11,86035	529588
11,86447	435090
11,86858	363181
11,87272	311588
11,87683	270580
11,88095	231641
11,88508	204655
11,88920	181710
11,89332	167215
11,89745	147397
11,90157	134828
11,90568	126275
11,90980	113094
11,91393	103503
11,91805	97012
11,92217	91638
11,92630	89778
11,93042	81238
11,93453	74866
11,93867	73276
11,94278	68911
11,94690	66787
11,95103	62085
11,95515	60183
11,95927	55536
11,96340	55357
11,96752	54978
11,97163	53968
11,97577	52871
11,97988	50417
11,98400	47552
11,98813	45519
11,99225	45633
11,99637	45858
12,00048	41820
12,00462	41566
12,00873	41037
12,01285	38984
12,01698	36826
12,02110	37340
12,02522	37006
12,02935	36177
12,03347	36043
12,03758	35856
12,04172	32477
12,04583	33827
12,04995	31549
12,05408	32378
12,05820	32019
12,06232	32246
12,06645	33688
12,07057	35640
12,07468	42072
12,07882	62181
12,08293	98886
12,08705	168214
12,09118	274315
12,09530	440334
12,09942	645772
12,10353	900794
12,10767	1169911
12,11178	1429434
12,11590	1660498
12,12003	1869907
12,12415	2048888
12,12827	2275653
12,13240	2548396
12,13652	2866163
12,14063	3189516
12,14477	3485563
12,14888	3687995
12,15300	3657551
12,15713	3451400
12,16125	3076233
12,16537	2631408
12,16950	2163759
12,17362	1723616
12,17773	1373094
12,18187	1085964
12,18598	859881
12,19010	696063
12,19422	567408
12,19835	472205
12,20247	401831
12,20658	343316
12,21072	298891
12,21483	266580
12,21895	233663
12,22308	208916
12,22720	185274
12,23132	170081
12,23545	155319
12,23957	142402
12,24368	131935
12,24782	121473
12,25193	112089
12,25605	108240
12,26018	98572
12,26430	95358
12,26842	89962
12,27255	86738
12,27667	82732
12,28078	79185
12,28490	76841
12,28903	71554
12,29315	73079
12,29727	69526
12,30140	65098
12,30552	64061
12,30963	62888
12,31377	59081
12,31788	56226
12,32200	54681
12,32613	53207
12,33025	52777
12,33437	52747
12,33850	50867
12,34262	49197
12,34673	45960
12,35087	46503
12,35498	47947
12,35910	44849
12,36323	44484
12,36735	43522
12,37147	41405
12,37558	42005
12,37972	40906
12,38383	40453
12,38795	38647
12,39208	38978
12,39620	42701
12,40032	53922
12,40445	70408
12,40857	108125
12,41268	177124
12,41682	284437
12,42093	443291
12,42505	643134
12,42918	875576
12,43330	1102107
12,43742	1273204
12,44155	1410961
12,44567	1438946
12,44978	1376628
12,45392	1263486
12,45803	1110115
12,46215	920325
12,46627	760039
12,47040	619401
12,47452	499649
12,47863	397399
12,48277	324870
12,48688	265989
12,49100	221926
12,49513	183900
12,49925	163532
12,50337	142364
12,50750	119394
12,51162	109185
12,51573	97683
12,51987	91976
12,52398	86180
12,52810	76723
12,53223	74289
12,53635	68924
12,54047	66133
12,54460	64489
12,54872	62322
12,55283	58418
12,55695	55117
12,56108	52827
12,56520	50592
12,56932	51373
12,57345	47082
12,57757	45924
12,58168	43564
12,58582	40773
12,58993	41456
12,59405	41320
12,59818	39535
12,60230	40074
12,60642	36896
12,61055	37224
12,61467	36812
12,61878	35957
12,62292	34619
12,62703	34470
12,63115	34728
12,63528	33961
12,63940	31681
12,64352	30643
12,64763	31141
12,65177	29429
12,65588	32050
12,66000	31248
12,66413	31038
12,66825	31369
12,67237	31756
12,67650	30694
12,68062	31456
12,68473	30898
12,68887	30410
12,69298	27435
12,69710	29861
12,70123	28010
12,70535	28620
12,70947	27102
12,71360	27598
12,71772	28413
12,72183	29461
12,72597	28852
12,73008	28239
12,73420	27048
12,73832	25833
12,74245	26956
12,74657	28066
12,75068	28778
12,75482	25995
12,75893	27119
12,76305	26594
12,76718	26505
12,77130	26876
12,77542	26888
12,77955	24863
12,78367	25740
12,78778	26284
12,79192	24480
12,79603	25510
12,80015	24239
12,80428	25607
12,80840	24683
12,81252	24731
12,81665	24500
12,82077	24269
12,82488	23688
12,82900	27215
12,83313	30540
12,83725	44511
12,84137	70553
12,84550	126541
12,84962	238801
12,85373	430680
12,85787	763175
12,86198	1237613
12,86610	1840741
12,87023	2597961
12,87435	3365836
12,87847	4087665
12,88260	4576155
12,88672	4821759
12,89083	4713333
12,89497	4319749
12,89908	3786594
12,90320	3173338
12,90733	2552350
12,91145	2024665
12,91557	1610269
12,91968	1277268
12,92382	1026871
12,92793	845398
12,93205	693971
12,93618	578224
12,94030	489436
12,94442	421844
12,94855	365410
12,95267	318336
12,95678	281246
12,96092	253341
12,96503	229309
12,96915	202938
12,97328	185750
12,97740	174900
12,98152	158907
12,98565	145721
12,98977	138361
12,99388	130691
12,99802	118404
13,00213	116491
13,00625	109607
13,01037	102684
13,01450	97702
13,01862	92894
13,02273	87541
13,02687	86174
13,03098	80107
13,03510	77579
13,03923	74173
13,04335	71000
13,04747	70764
13,05160	66803
13,05572	64786
13,05983	64064
13,06397	61548
13,06808	62960
13,07220	59707
13,07633	55496
13,08045	59648
13,08457	56928
13,08870	54283
13,09282	59028
13,09693	57938
13,10105	60616
13,10518	61976
13,10930	64527
13,11342	64823
13,11755	70753
13,12167	75219
13,12578	89820
13,12992	119003
13,13403	173512
13,13815	262203
13,14228	386346
13,14640	555600
13,15052	749950
13,15465	963552
13,15877	1133693
13,16288	1227233
13,16702	1268713
13,17113	1228502
13,17525	1129138
13,17938	1000319
13,18350	847822
13,18762	704082
13,19173	565984
13,19587	455319
13,19998	374389
13,20410	298949
13,20823	253496
13,21235	212547
13,21647	180533
13,22060	155631
13,22472	135956
13,22883	119823
13,23297	117092
13,23708	117757
13,24120	134149
13,24533	169946
13,24945	241587
13,25357	359274
13,25770	536589
13,26182	773274
13,26593	1041103
13,27007	1313997
13,27418	1537894
13,27830	1652912
13,28242	1661960
13,28655	1573409
13,29067	1429058
13,29478	1228867
13,29892	1025417
13,30303	853261
13,30715	688535
13,31128	557144
13,31540	458291
13,31952	381476
13,32365	327725
13,32777	278070
13,33188	242471
13,33602	208860
13,34013	183919
13,34425	167015
13,34838	148691
13,35250	138238
13,35662	130181
13,36075	117253
13,36487	109624
13,36898	102229
13,37310	91885
13,37723	88914
13,38135	85311
13,38547	81614
13,38960	80629
13,39372	70738
13,39783	72057
13,40197	66193
13,40608	66042
13,41020	64332
13,41433	61496
13,41845	59742
13,42257	55929
13,42670	55906
13,43082	53984
13,43493	53122
13,43907	54910
13,44318	52128
13,44730	49733
13,45143	48530
13,45555	49043
13,45967	47766
13,46378	47132
13,46792	47336
13,47203	44342
13,47615	42810
13,48028	45388
13,48440	42373
13,48852	42216
13,49265	42772
13,49677	41392
13,50088	41156
13,50502	39541
13,50913	39031
13,51325	40260
13,51738	41472
13,52150	36443
13,52562	39662
13,52975	37749
13,53387	38320
13,53798	37746
13,54212	40227
13,54623	42380
13,55035	49796
13,55447	64566
13,55860	99513
13,56272	166624
13,56683	275162
13,57097	450862
13,57508	678144
13,57920	960441
13,58333	1270751
13,58745	1529869
13,59157	1721660
13,59570	1766971
13,59982	1698791
13,60393	1548705
13,60807	1340476
13,61218	1114051
13,61630	918820
13,62043	739753
13,62455	610213
13,62867	494629
13,63280	416309
13,63692	347964
13,64103	299597
13,64515	261024
13,64928	223940
13,65340	202753
13,65752	180449
13,66165	165311
13,66577	149893
13,66988	138443
13,67402	127408
13,67813	116406
13,68225	109447
13,68638	102343
13,69050	94544
13,69462	95476
13,69875	88894
13,70287	84227
13,70698	81114
13,71112	78285
13,71523	76521
13,71935	74846
13,72348	73420
13,72760	72392
13,73172	70788
13,73585	68563
13,73997	66799
13,74408	65034
13,74820	62042
13,75233	60545
13,75645	57562
13,76057	53956
13,76470	54902
13,76882	56414
13,77293	54374
13,77707	52893
13,78118	50514
13,78530	52532
13,78943	50052
13,79355	51737
13,79767	48692
13,80180	48569
13,80592	47101
13,81003	45604
13,81417	43531
13,81828	47035
13,82240	44875
13,82653	45669
13,83065	42953
13,83477	45194
13,83888	49607
13,84302	63450
13,84713	89589
13,85125	140123
13,85538	217218
13,85950	351650
13,86362	534055
13,86775	750120
13,87187	995127
13,87598	1209240
13,88012	1365996
13,88423	1446192
13,88835	1408328
13,89248	1315674
13,89660	1169086
13,90072	992297
13,90485	833553
13,90897	685171
13,91308	556779
13,91722	455791
13,92133	375857
13,92545	319797
13,92957	263428
13,93370	233952
13,93782	201025
13,94193	177792
13,94607	162241
13,95018	141326
13,95430	127760
13,95843	120038
13,96255	108765
13,96667	102546
13,97080	95386
13,97492	88833
13,97903	85309
13,98317	83264
13,98728	76286
13,99140	74191
13,99553	69224
13,99965	68129
14,00377	69032
14,00790	64863
14,01202	62410
14,01613	61962
14,02025	58547
14,02438	58147
14,02850	57053
14,03262	55958
14,03675	54713
14,04087	52512
14,04498	53601
14,04912	53185
14,05323	47359
14,05735	50483
14,06148	50338
14,06560	49408
14,06972	48585
14,07385	47580
14,07797	48989
14,08208	47650
14,08622	46754
14,09033	46516
14,09445	45725
14,09858	44830
14,10270	46087
14,10682	44801
14,11093	43712
14,11507	42894
14,11918	43017
14,12330	45891
14,12743	40936
14,13155	41244
14,13567	44702
14,13980	42451
14,14392	42995
14,14803	39586
14,15217	40914
14,15628	39519
14,16040	40333
14,16453	40603
14,16865	41437
14,17277	40814
14,17690	39214
14,18102	39726
14,18513	39703
14,18927	40141
14,19338	39632
14,19750	40475
14,20162	38266
14,20575	38083
14,20987	39624
14,21398	38714
14,21812	38805
14,22223	38264
14,22635	39247
14,23048	40821
14,23460	40707
14,23872	44641
14,24285	56721
14,24697	77259
14,25108	120279
14,25522	198857
14,25933	327516
14,26345	543007
14,26758	861530
14,27170	1288650
14,27582	1823078
14,27995	2448835
14,28407	3093478
14,28818	3667501
14,29230	4054930
14,29643	4257455
14,30055	4172325
14,30467	3957298
14,30880	3650535
14,31292	3251034
14,31703	2846506
14,32117	2439232
14,32528	2062024
14,32940	1719768
14,33353	1424655
14,33765	1193453
14,34177	979386
14,34590	826647
14,35002	698288
14,35413	595490
14,35827	516010
14,36238	451065
14,36650	402446
14,37063	359193
14,37475	326139
14,37887	298440
14,38298	271979
14,38712	253377
14,39123	233814
14,39535	215165
14,39948	207844
14,40360	189414
14,40772	181483
14,41185	171593
14,41597	163754
14,42008	155949
14,42422	146377
14,42833	142402
14,43245	137505
14,43658	130428
14,44070	122779
14,44482	120159
14,44895	114092
14,45307	114247
14,45718	110059
14,46132	108732
14,46543	105621
14,46955	102299
14,47367	102731
14,47780	99190
14,48192	96647
14,48603	91804
14,49017	92891
14,49428	87539
14,49840	86835
14,50253	86596
14,50665	86110
14,51077	85280
14,51490	84042
14,51902	83950
14,52313	87417
14,52727	91593
14,53138	105116
14,53550	134527
14,53963	192195
14,54375	279930
14,54787	415423
14,55200	585183
14,55612	786151
14,56023	1009081
14,56435	1175631
14,56848	1303921
14,57260	1337104
14,57672	1296722
14,58085	1196061
14,58497	1058503
14,58908	914292
14,59322	794729
14,59733	700314
14,60145	672960
14,60558	683605
14,60970	765543
14,61382	874184
14,61795	1027727
14,62207	1181645
14,62618	1325105
14,63032	1432938
14,63443	1484200
14,63855	1497099
14,64268	1532115
14,64680	1607742
14,65092	1698939
14,65503	1811469
14,65917	1911536
14,66328	1986214
14,66740	1982234
14,67153	1908810
14,67565	1742014
14,67977	1536888
14,68390	1334820
14,68802	1117928
14,69213	939313
14,69627	785896
14,70038	668893
14,70450	573409
14,70863	495472
14,71275	430908
14,71687	378193
14,72100	344517
14,72512	312625
14,72923	281451
14,73337	259185
14,73748	243765
14,74160	223488
14,74572	205663
14,74985	195012
14,75397	184647
14,75808	174584
14,76222	163428
14,76633	153132
14,77045	147577
14,77458	141909
14,77870	132702
14,78282	131403
14,78695	125019
14,79107	121054
14,79518	116314
14,79932	112927
14,80343	106458
14,80755	105413
14,81168	105919
14,81580	102970
14,81992	94633
14,82405	93547
14,82817	92768
14,83228	89268
14,83640	90515
14,84053	88520
14,84465	87806
14,84877	86202
14,85290	84736
14,85702	81498
14,86113	83322
14,86527	78006
14,86938	77155
14,87350	76053
14,87763	75057
14,88175	72124
14,88587	75873
14,89000	72693
14,89412	72408
14,89823	73364
14,90237	71153
14,90648	76763
14,91060	81637
14,91473	99360
14,91885	126821
14,92297	181960
14,92708	271933
14,93122	409731
14,93533	606653
14,93945	847926
14,94358	1127476
14,94770	1378883
14,95182	1570650
14,95595	1677460
14,96007	1653738
14,96418	1540659
14,96832	1366946
14,97243	1191579
14,97655	993896
14,98068	843575
14,98480	705613
14,98892	592884
14,99305	505344
14,99717	445692
15,00128	391949
15,00542	346833
15,00953	313686
15,01365	283814
15,01777	262903
15,02190	240192
15,02602	225202
15,03013	208891
15,03427	199471
15,03838	187883
15,04250	176882
15,04663	166225
15,05075	158764
15,05487	153141
15,05900	144953
15,06312	140670
15,06723	135839
15,07137	131232
15,07548	127253
15,07960	125243
15,08373	119154
15,08785	119205
15,09197	112670
15,09610	109305
15,10022	111604
15,10433	102506
15,10845	103016
15,11258	98030
15,11670	96133
15,12082	94733
15,12495	90081
15,12907	93715
15,13318	90408
15,13732	90001
15,14143	88148
15,14555	86714
15,14968	88240
15,15380	86190
15,15792	85822
15,16205	82361
15,16617	78666
15,17028	83114
15,17442	78947
15,17853	76084
15,18265	77179
15,18678	75317
15,19090	77150
15,19502	81497
15,19913	87393
15,20327	100068
15,20738	134984
15,21150	187901
15,21563	277557
15,21975	417354
15,22387	597375
15,22800	824656
15,23212	1051235
15,23623	1249315
15,24037	1379648
15,24448	1425196
15,24860	1388497
15,25273	1286325
15,25685	1130137
15,26097	976249
15,26510	821899
15,26922	700004
15,27333	587377
15,27747	495594
15,28158	430673
15,28570	381475
15,28982	340759
15,29395	303163
15,29807	288733
15,30218	285017
15,30632	312212
15,31043	364837
15,31455	449700
15,31868	567281
15,32280	711702
15,32692	860646
15,33105	1011953
15,33517	1117731
15,33928	1155044
15,34342	1152167
15,34753	1083631
15,35165	986775
15,35578	871112
15,35990	747646
15,36402	634405
15,36815	535743
15,37227	457986
15,37638	387531
15,38052	336996
15,38463	291520
15,38875	260847
15,39287	231913
15,39700	208157
15,40112	193833
15,40523	176711
15,40937	165452
15,41348	153705
15,41760	148238
15,42173	138118
15,42585	130348
15,42997	125108
15,43410	122495
15,43822	119473
15,44233	111223
15,44647	108205
15,45058	104755
15,45470	103956
15,45883	96889
15,46295	99169
15,46707	95194
15,47120	93148
15,47532	91596
15,47943	88913
15,48355	87570
15,48768	85413
15,49180	87112
15,49592	84189
15,50005	80968
15,50417	83110
15,50828	80502
15,51242	83235
15,51653	80265
15,52065	79623
15,52478	77555
15,52890	78489
15,53302	78309
15,53715	75648
15,54127	76480
15,54538	74186
15,54952	72491
15,55363	72228
15,55775	72079
15,56188	69738
15,56600	73546
15,57012	73935
15,57423	76052
15,57837	83713
15,58248	101538
15,58660	132852
15,59073	184810
15,59485	268905
15,59897	396067
15,60310	606306
15,60722	883127
15,61133	1243280
15,61547	1690606
15,61958	2146383
15,62370	2589637
15,62783	2901990
15,63195	3074502
15,63607	3039626
15,64020	2847069
15,64432	2538904
15,64843	2207891
15,65257	1873183
15,65668	1540848
15,66080	1309292
15,66492	1106504
15,66905	949267
15,67317	822609
15,67728	713152
15,68142	631748
15,68553	565657
15,68965	509936
15,69378	459674
15,69790	421645
15,70202	390756
15,70615	359641
15,71027	339496
15,71438	315495
15,71852	291372
15,72263	277127
15,72675	263389
15,73088	248598
15,73500	233514
15,73912	224125
15,74325	212297
15,74737	204376
15,75148	197467
15,75560	189463
15,75973	182496
15,76385	176134
15,76797	170975
15,77210	163701
15,77622	155619
15,78033	152661
15,78447	148267
15,78858	149322
15,79270	141226
15,79683	138263
15,80095	136597
15,80507	130878
15,80920	131118
15,81332	128302
15,81743	125608
15,82157	125689
15,82568	120466
15,82980	116919
15,83393	118673
15,83805	115135
15,84217	112557
15,84628	111317
15,85042	111282
15,85453	107517
15,85865	106502
15,86278	104722
15,86690	106387
15,87102	105786
15,87515	101661
15,87927	100335
15,88338	99883
15,88752	99559
15,89163	97575
15,89575	95826
15,89988	97330
15,90400	92996
15,90812	91233
15,91225	89473
15,91637	92446
15,92048	92229
15,92462	86845
15,92873	87775
15,93285	84956
15,93697	84874
15,94110	88346
15,94522	88372
15,94933	85904
15,95347	83524
15,95758	87476
15,96170	91881
15,96583	97363
15,96995	114813
15,97407	141990
15,97820	188886
15,98232	262947
15,98643	362836
15,99057	506411
15,99468	678919
15,99880	865928
16,00293	1073606
16,00705	1227138
16,01117	1332126
16,01530	1376883
16,01942	1342050
16,02353	1267818
16,02765	1149752
16,03178	1033509
16,03590	898146
16,04002	783971
16,04415	691784
16,04827	597526
16,05238	534135
16,05652	469545
16,06063	416536
16,06475	382028
16,06888	342372
16,07300	316995
16,07712	294300
16,08125	274508
16,08537	249106
16,08948	238850
16,09362	223969
16,09773	211954
16,10185	202504
16,10598	190946
16,11010	184134
16,11422	176572
16,11833	173167
16,12247	163846
16,12658	153638
16,13070	147975
16,13483	151011
16,13895	141459
16,14307	134230
16,14720	131757
16,15132	131583
16,15543	127089
16,15957	127256
16,16368	120010
16,16780	117694
16,17193	116578
16,17605	115145
16,18017	112631
16,18430	108051
16,18842	108384
16,19253	106475
16,19667	104815
16,20078	106565
16,20490	101302
16,20902	99199
16,21315	96977
16,21727	98341
16,22138	97298
16,22552	94782
16,22963	95933
16,23375	92011
16,23788	92891
16,24200	88982
16,24612	88469
16,25025	88523
16,25437	87998
16,25848	89820
16,26262	86039
16,26673	86392
16,27085	86913
16,27498	81984
16,27910	84261
16,28322	82459
16,28735	81324
16,29147	79781
16,29558	80260
16,29970	82721
16,30383	82085
16,30795	79611
16,31207	81588
16,31620	80858
16,32032	77656
16,32443	79422
16,32857	77047
16,33268	80590
16,33680	81162
16,34093	76994
16,34505	79443
16,34917	75842
16,35330	79495
16,35742	76685
16,36153	75539
16,36567	74936
16,36978	75762
16,37390	74646
16,37803	76148
16,38215	73195
16,38627	73879
16,39038	71716
16,39452	73224
16,39863	68635
16,40275	69442
16,40688	70326
16,41100	70687
16,41512	70221
16,41925	70946
16,42337	76914
16,42748	77875
16,43162	80877
16,43573	86671
16,43985	93701
16,44398	101718
16,44810	109677
16,45222	116905
16,45635	125647
16,46047	134806
16,46458	137209
16,46872	135233
16,47283	138877
16,47695	128995
16,48107	128318
16,48520	119960
16,48932	114696
16,49343	106519
16,49757	101460
16,50168	97137
16,50580	93743
16,50993	86559
16,51405	85018
16,51817	83764
16,52230	76949
16,52642	76516
16,53053	72162
16,53467	71952
16,53878	73365
16,54290	71832
16,54703	69115
16,55115	69006
16,55527	71747
16,55940	70804
16,56352	67469
16,56763	68612
16,57175	67737
16,57588	68360
16,58000	65182
16,58412	65719
16,58825	65903
16,59237	65470
16,59648	66895
16,60062	66193
16,60473	65621
16,60885	64383
16,61298	64673
16,61710	65760
16,62122	63239
16,62535	64664
16,62947	66593
16,63358	64719
16,63772	62626
16,64183	64872
16,64595	62612
16,65008	64320
16,65420	61547
16,65832	64107
16,66243	64712
16,66657	61085
16,67068	63670
16,67480	65789
16,67893	63804
16,68305	64453
16,68717	62719
16,69130	63257
16,69542	64824
16,69953	62636
16,70367	63130
16,70778	64744
16,71190	63772
16,71603	63179
16,72015	64399
16,72427	60753
16,72840	62656
16,73252	63381
16,73663	65110
16,74077	65310
16,74488	61968
16,74900	63504
16,75312	62086
16,75725	61184
16,76137	62346
16,76548	64754
16,76962	62782
16,77373	59891
16,77785	62646
16,78198	64256
16,78610	61099
16,79022	61742
16,79435	59671
16,79847	60965
16,80258	58081
16,80672	63076
16,81083	57822
16,81495	61690
16,81908	61986
16,82320	58626
16,82732	62841
16,83145	62020
16,83557	59764
16,83968	61365
16,84380	58480
16,84793	62379
16,85205	61274
16,85617	56851
16,86030	59064
16,86442	57847
16,86853	59914
16,87267	61428
16,87678	58222
16,88090	59101
16,88503	60227
16,88915	60170
16,89327	60378
16,89740	61070
16,90152	59858
16,90563	59945
16,90977	61796
16,91388	60444
16,91800	61360
16,92213	62478
16,92625	60343
16,93037	61006
16,93448	62325
16,93862	58479
16,94273	60363
16,94685	61198
16,95098	60309
16,95510	57709
16,95922	60446
16,96335	59938
16,96747	61558
16,97158	59768
16,97572	60832
16,97983	58785
16,98395	60511
16,98808	58873
16,99220	58557
16,99632	58008
17,00045	58432
17,00457	59859
17,00868	59742
17,01282	59489
17,01693	58820
17,02105	57602
17,02518	60661
17,02930	56777
17,03342	59093
17,03753	60369
17,04167	59642
17,04578	56801
17,04990	60167
17,05403	58587
17,05815	58014
17,06227	60162
17,06640	59044
17,07052	62546
17,07463	58478
17,07877	60405
17,08288	59966
17,08700	60493
17,09113	62263
17,09525	62870
17,09937	61221
17,10350	65301
17,10762	69531
17,11173	79140
17,11587	89819
17,11998	108100
17,12410	140026
17,12822	187296
17,13235	245140
17,13647	315692
17,14058	395162
17,14472	478287
17,14883	552596
17,15295	625594
17,15708	678549
17,16120	701012
17,16532	702772
17,16945	692989
17,17357	650441
17,17768	608169
17,18182	546107
17,18593	495740
17,19005	447970
17,19418	397516
17,19830	354126
17,20242	314442
17,20655	285160
17,21067	259782
17,21478	238032
17,21890	212863
17,22303	194452
17,22715	182554
17,23127	172211
17,23540	154561
17,23952	150363
17,24363	143417
17,24777	136285
17,25188	129327
17,25600	120005
17,26013	118495
17,26425	114907
17,26837	109278
17,27250	106494
17,27662	103546
17,28073	103210
17,28487	100333
17,28898	97094
17,29310	94994
17,29723	94584
17,30135	90276
17,30547	92262
17,30958	86051
17,31372	86839
17,31783	86196
17,32195	87902
17,32608	80089
17,33020	83411
17,33432	78067
17,33845	85192
17,34257	81847
17,34668	78570
17,35082	77289
17,35493	81221
17,35905	77243
17,36318	73296
17,36730	75749
17,37142	74068
17,37555	72192
17,37967	74699
17,38378	71014
17,38792	73658
17,39203	72084
17,39615	71546
17,40027	71232
17,40440	70242
17,40852	69878
17,41263	71916
17,41677	68654
17,42088	68799
17,42500	69513
17,42913	69651
17,43325	68909
17,43737	68231
17,44150	69447
17,44562	65147
17,44973	67477
17,45387	69734
17,45798	67749
17,46210	66362
17,46623	69290
17,47035	64596
17,47447	66463
17,47860	66340
17,48272	66464
17,48683	64752
17,49095	66171
17,49508	62405
17,49920	64077
17,50332	64101
17,50745	64106
17,51157	64342
17,51568	64151
17,51982	65194
17,52393	59599
17,52805	62289
17,53218	63216
17,53630	65303
17,54042	63400
17,54455	64343
17,54867	65666
17,55278	64967
17,55692	63081
17,56103	63117
17,56515	62157
17,56928	61297
17,57340	64163
17,57752	63649
17,58163	64233
17,58577	62539
17,58988	64686
17,59400	63259
17,59813	68174
17,60225	63853
17,60637	61038
17,61050	61886
17,61462	63073
17,61873	61370
17,62287	64008
17,62698	66777
17,63110	65354
17,63523	64241
17,63935	63942
17,64347	65138
17,64760	63316
17,65172	63587
17,65583	62780
17,65997	65108
17,66408	61485
17,66820	62000
17,67232	61701
17,67645	62016
17,68057	63088
17,68468	60397
17,68882	60439
17,69293	62287
17,69705	57955
17,70118	60776
17,70530	62282
17,70942	60259
17,71355	63219
17,71767	61010
17,72178	61509
17,72592	58543
17,73003	59191
17,73415	62168
17,73828	60477
17,74240	61408
17,74652	60697
17,75065	63005
17,75477	59668
