D:\MassHunter\GCMS\1\data\Amal\Constant flow\100C\100C_1ml-min_7C-min_2.D Wed Sep 04 19:22:39 2024
Start of data points
5,59092	135095
5,59503	132577
5,59915	127870
5,60327	123063
5,60740	121418
5,61152	116651
5,61563	113140
5,61977	113914
5,62388	111145
5,62800	108517
5,63213	108401
5,63625	105943
5,64037	105737
5,64450	102662
5,64862	100366
5,65273	100075
5,65687	96541
5,66098	98552
5,66510	97455
5,66923	93773
5,67335	94994
5,67747	94175
5,68160	90436
5,68572	90411
5,68983	91500
5,69395	89946
5,69808	88391
5,70220	87899
5,70632	86229
5,71045	86732
5,71457	86836
5,71868	87056
5,72282	85908
5,72693	86421
5,73105	87294
5,73518	84631
5,73930	82025
5,74342	81770
5,74755	82449
5,75167	82774
5,75578	80208
5,75992	80466
5,76403	80434
5,76815	79567
5,77228	79242
5,77640	79085
5,78052	79103
5,78463	79252
5,78877	77420
5,79288	77121
5,79700	77626
5,80113	77391
5,80525	78046
5,80937	75348
5,81350	79394
5,81762	74814
5,82173	72318
5,82587	74347
5,82998	73841
5,83410	74173
5,83823	75989
5,84235	72916
5,84647	72575
5,85060	71745
5,85472	71337
5,85883	69553
5,86297	71631
5,86708	70063
5,87120	71583
5,87532	71443
5,87945	68852
5,88357	69840
5,88768	70207
5,89182	71679
5,89593	69747
5,90005	68251
5,90418	67240
5,90830	70137
5,91242	68488
5,91655	67223
5,92067	68192
5,92478	67700
5,92892	67375
5,93303	66933
5,93715	67012
5,94128	67861
5,94540	66668
5,94952	67330
5,95365	68652
5,95777	65075
5,96188	67207
5,96600	65150
5,97013	65126
5,97425	64748
5,97837	65405
5,98250	63156
5,98662	65774
5,99073	65738
5,99487	63825
5,99898	65296
6,00310	63550
6,00723	64229
6,01135	64787
6,01547	61818
6,01960	61690
6,02372	61943
6,02783	63024
6,03197	62025
6,03608	59813
6,04020	60996
6,04433	62048
6,04845	62582
6,05257	59624
6,05668	59359
6,06082	59454
6,06493	60803
6,06905	60435
6,07318	60473
6,07730	59113
6,08142	60490
6,08555	58747
6,08967	60494
6,09378	58313
6,09792	61431
6,10203	59086
6,10615	58068
6,11028	58047
6,11440	58195
6,11852	59110
6,12265	57950
6,12677	58221
6,13088	58448
6,13502	57542
6,13913	56337
6,14325	57931
6,14737	56838
6,15150	57452
6,15562	57678
6,15973	57056
6,16387	60659
6,16798	59508
6,17210	62515
6,17623	63183
6,18035	61202
6,18447	63045
6,18860	62331
6,19272	60772
6,19683	64150
6,20097	63271
6,20508	61994
6,20920	62483
6,21333	61959
6,21745	64382
6,22157	65553
6,22570	66538
6,22982	65593
6,23393	68320
6,23805	66639
6,24218	67105
6,24630	68367
6,25042	67742
6,25455	68445
6,25867	69363
6,26278	68813
6,26692	70586
6,27103	68570
6,27515	67424
6,27928	66363
6,28340	67422
6,28752	66551
6,29165	65062
6,29577	67635
6,29988	65308
6,30402	64861
6,30813	64713
6,31225	62788
6,31638	64581
6,32050	62048
6,32462	60221
6,32873	58411
6,33287	61173
6,33698	59906
6,34110	57281
6,34523	58092
6,34935	57697
6,35347	56825
6,35760	58383
6,36172	57758
6,36583	57892
6,36997	56013
6,37408	54842
6,37820	55044
6,38233	53384
6,38645	55885
6,39057	53073
6,39470	53350
6,39882	51883
6,40293	51609
6,40707	50140
6,41118	50803
6,41530	50866
6,41942	49278
6,42355	49727
6,42767	49344
6,43178	49769
6,43592	50068
6,44003	49297
6,44415	50038
6,44828	47735
6,45240	49389
6,45652	48096
6,46065	47560
6,46477	48637
6,46888	49042
6,47302	46303
6,47713	47113
6,48125	45323
6,48538	45260
6,48950	45567
6,49362	44770
6,49775	46218
6,50187	47281
6,50598	52260
6,51012	61727
6,51423	82568
6,51835	122010
6,52247	174757
6,52660	262910
6,53072	370260
6,53483	498188
6,53897	636586
6,54308	764745
6,54720	868983
6,55133	945778
6,55545	989419
6,55957	1006097
6,56370	1003162
6,56782	962828
6,57193	929871
6,57607	880025
6,58018	829518
6,58430	778325
6,58843	735381
6,59255	692256
6,59667	646600
6,60080	609166
6,60492	565343
6,60903	528594
6,61315	490137
6,61728	459230
6,62140	431149
6,62552	404854
6,62965	377381
6,63377	349844
6,63788	324518
6,64202	304786
6,64613	278316
6,65025	254509
6,65438	236929
6,65850	218087
6,66262	202939
6,66675	185210
6,67087	169544
6,67498	153003
6,67912	142204
6,68323	130923
6,68735	120655
6,69148	110523
6,69560	103755
6,69972	97227
6,70383	89832
6,70797	85275
6,71208	79482
6,71620	74416
6,72033	69172
6,72445	65058
6,72857	68290
6,73270	62724
6,73682	58224
6,74093	57859
6,74507	53772
6,74918	53386
6,75330	52368
6,75743	49629
6,76155	51166
6,76567	47437
6,76980	46887
6,77392	47222
6,77803	45913
6,78217	44238
6,78628	44869
6,79040	45625
6,79452	41640
6,79865	42604
6,80277	42750
6,80688	40334
6,81102	39529
6,81513	41321
6,81925	40051
6,82338	39161
6,82750	39367
6,83162	40841
6,83575	39991
6,83987	37160
6,84398	38187
6,84812	36560
6,85223	37404
6,85635	37861
6,86048	37123
6,86460	37512
6,86872	35881
6,87285	36890
6,87697	36820
6,88108	36610
6,88520	35318
6,88933	36241
6,89345	36703
6,89757	33742
6,90170	34499
6,90582	35748
6,90993	34946
6,91407	34035
6,91818	34177
6,92230	34062
6,92643	34779
6,93055	33858
6,93467	32491
6,93880	34292
6,94292	32940
6,94703	34002
6,95117	33249
6,95528	33567
6,95940	34423
6,96353	32826
6,96765	34705
6,97177	32041
6,97588	32855
6,98002	32066
6,98413	31633
6,98825	32243
6,99238	31798
6,99650	33245
7,00062	34056
7,00475	32320
7,00887	32296
7,01298	30827
7,01712	32051
7,02123	29264
7,02535	32299
7,02948	30798
7,03360	31051
7,03772	32163
7,04185	31711
7,04597	30675
7,05008	32691
7,05422	31303
7,05833	31748
7,06245	30973
7,06657	32637
7,07070	32214
7,07482	31507
7,07893	31622
7,08307	31260
7,08718	29609
7,09130	31312
7,09543	32382
7,09955	31534
7,10367	33485
7,10780	33314
7,11192	32737
7,11603	31816
7,12017	34550
7,12428	31340
7,12840	31967
7,13253	31895
7,13665	33123
7,14077	32063
7,14490	31953
7,14902	30777
7,15313	32428
7,15725	31702
7,16138	30673
7,16550	32299
7,16962	29974
7,17375	30490
7,17787	31909
7,18198	30012
7,18612	31311
7,19023	29515
7,19435	29695
7,19848	29773
7,20260	29792
7,20672	29893
7,21085	28328
7,21497	30118
7,21908	29394
7,22322	29235
7,22733	29977
7,23145	28036
7,23558	28342
7,23970	29616
7,24382	29056
7,24793	27730
7,25207	28096
7,25618	29650
7,26030	28837
7,26443	28191
7,26855	28185
7,27267	28021
7,27680	28380
7,28092	28908
7,28503	28831
7,28917	27899
7,29328	27511
7,29740	27874
7,30153	27101
7,30565	27070
7,30977	27309
7,31390	27737
7,31802	27872
7,32213	27498
7,32627	27712
7,33038	28879
7,33450	28122
7,33862	29136
7,34275	29538
7,34687	28430
7,35098	28623
7,35512	28135
7,35923	29435
7,36335	27459
7,36748	28483
7,37160	27580
7,37572	27400
7,37985	28246
7,38397	27130
7,38808	27804
7,39222	27545
7,39633	26882
7,40045	26815
7,40458	27635
7,40870	27911
7,41282	28138
7,41695	27542
7,42107	28195
7,42518	27967
7,42930	27634
7,43343	27263
7,43755	27377
7,44167	27522
7,44580	28161
7,44992	27664
7,45403	27400
7,45817	29245
7,46228	28703
7,46640	27660
7,47053	28185
7,47465	27566
7,47877	26882
7,48290	27382
7,48702	27355
7,49113	25207
7,49527	27176
7,49938	26304
7,50350	27613
7,50763	26566
7,51175	25265
7,51587	26910
7,51998	25369
7,52412	26684
7,52823	26377
7,53235	27371
7,53648	27114
7,54060	27469
7,54472	27368
7,54885	27655
7,55297	28163
7,55708	28377
7,56122	29046
7,56533	28809
7,56945	27281
7,57358	27911
7,57770	28301
7,58182	27981
7,58595	26722
7,59007	26517
7,59418	27137
7,59832	28473
7,60243	28405
7,60655	25851
7,61067	27678
7,61480	26964
7,61892	26815
7,62303	27810
7,62717	25798
7,63128	26040
7,63540	25290
7,63953	25387
7,64365	24989
7,64777	25489
7,65190	23453
7,65602	25197
7,66013	25559
7,66427	25050
7,66838	23396
7,67250	24853
7,67663	23866
7,68075	24403
7,68487	24442
7,68900	22622
7,69312	24017
7,69723	23486
7,70135	25011
7,70548	23097
7,70960	24255
7,71372	22244
7,71785	24097
7,72197	23785
7,72608	23974
7,73022	22581
7,73433	23715
7,73845	23755
7,74258	23836
7,74670	24411
7,75082	23531
7,75495	23398
7,75907	22570
7,76318	22777
7,76732	21324
7,77143	23246
7,77555	23306
7,77968	23010
7,78380	22011
7,78792	23899
7,79203	23066
7,79617	23560
7,80028	23569
7,80440	24060
7,80853	22435
7,81265	23874
7,81677	23206
7,82090	23828
7,82502	22001
7,82913	23540
7,83327	22893
7,83738	21781
7,84150	22889
7,84563	21508
7,84975	22564
7,85387	22436
7,85800	22786
7,86212	23385
7,86623	23379
7,87037	21207
7,87448	20309
7,87860	21356
7,88272	23231
7,88685	20605
7,89097	21897
7,89508	21188
7,89922	21681
7,90333	21670
7,90745	22907
7,91158	20026
7,91570	21847
7,91982	20939
7,92395	21201
7,92807	22679
7,93218	21148
7,93632	20894
7,94043	20808
7,94455	22057
7,94868	21498
7,95280	21565
7,95692	21970
7,96105	21323
7,96517	23557
7,96928	20581
7,97340	21139
7,97753	21276
7,98165	20376
7,98577	21666
7,98990	21072
7,99402	22772
7,99813	22133
8,00227	23498
8,00638	22519
8,01050	22673
8,01463	21894
8,01875	22757
8,02287	21960
8,02700	22149
8,03112	21280
8,03523	22156
8,03937	21437
8,04348	20543
8,04760	22428
8,05173	23216
8,05585	21387
8,05997	22844
8,06408	21709
8,06822	20471
8,07233	21611
8,07645	20356
8,08058	21273
8,08470	20056
8,08882	21567
8,09295	20513
8,09707	21161
8,10118	21091
8,10532	22475
8,10943	21405
8,11355	21088
8,11768	21428
8,12180	20672
8,12592	19633
8,13005	21313
8,13417	20310
8,13828	20405
8,14242	20922
8,14653	19161
8,15065	19876
8,15477	18339
8,15890	20045
8,16302	19489
8,16713	18407
8,17127	19767
8,17538	18475
8,17950	19424
8,18363	19030
8,18775	20013
8,19187	20326
8,19600	19544
8,20012	19885
8,20423	20705
8,20837	21898
8,21248	26076
8,21660	34999
8,22073	48291
8,22485	74873
8,22897	124872
8,23310	197212
8,23722	303853
8,24133	450970
8,24547	630202
8,24958	820408
8,25370	1026644
8,25782	1188501
8,26195	1328004
8,26607	1439103
8,27018	1481745
8,27432	1497412
8,27843	1459185
8,28255	1400962
8,28668	1300998
8,29080	1223107
8,29492	1103154
8,29905	1005651
8,30317	924161
8,30728	829426
8,31142	731625
8,31553	651886
8,31965	567984
8,32378	495478
8,32790	435914
8,33202	379801
8,33615	328462
8,34027	284436
8,34438	250513
8,34850	213658
8,35263	189245
8,35675	163384
8,36087	147985
8,36500	126290
8,36912	113732
8,37323	101050
8,37737	93634
8,38148	84461
8,38560	77464
8,38973	71384
8,39385	66733
8,39797	61045
8,40210	58900
8,40622	55330
8,41033	51964
8,41447	49624
8,41858	46984
8,42270	42814
8,42683	41982
8,43095	40226
8,43507	40359
8,43918	38306
8,44332	36334
8,44743	36418
8,45155	37180
8,45568	33276
8,45980	34277
8,46392	31693
8,46805	31000
8,47217	30120
8,47628	30902
8,48042	29008
8,48453	29629
8,48865	27787
8,49278	29719
8,49690	26721
8,50102	27108
8,50515	26330
8,50927	26588
8,51338	26536
8,51752	27550
8,52163	24483
8,52575	25810
8,52987	24635
8,53400	23787
8,53812	25043
8,54223	25502
8,54637	24173
8,55048	23451
8,55460	23954
8,55873	23941
8,56285	23690
8,56697	22039
8,57110	23026
8,57522	22091
8,57933	20725
8,58347	21643
8,58758	22326
8,59170	20565
8,59583	21794
8,59995	21685
8,60407	20771
8,60820	20516
8,61232	20828
8,61643	20881
8,62055	21482
8,62468	22733
8,62880	22084
8,63292	22360
8,63705	22879
8,64117	22579
8,64528	23378
8,64942	22691
8,65353	22791
8,65765	21713
8,66178	22505
8,66590	23018
8,67002	23028
8,67415	21118
8,67827	22480
8,68238	19900
8,68652	21395
8,69063	20394
8,69475	21229
8,69888	21664
8,70300	21705
8,70712	19830
8,71123	21342
8,71537	20053
8,71948	19122
8,72360	19036
8,72773	20282
8,73185	21081
8,73597	19005
8,74010	18918
8,74422	18929
8,74833	19670
8,75247	19661
8,75658	19847
8,76070	17903
8,76483	19570
8,76895	19180
8,77307	19131
8,77720	18581
8,78132	17923
8,78543	18727
8,78957	18232
8,79368	20347
8,79780	18007
8,80192	19046
8,80605	17599
8,81017	18347
8,81428	17327
8,81842	19409
8,82253	17401
8,82665	17659
8,83078	17416
8,83490	16562
8,83902	16845
8,84315	16946
8,84727	18032
8,85138	18192
8,85552	17549
8,85963	18696
8,86375	17867
8,86788	18566
8,87200	17258
8,87612	18260
8,88025	19525
8,88437	19323
8,88848	19346
8,89260	18467
8,89673	18272
8,90085	19302
8,90497	18488
8,90910	18106
8,91322	17717
8,91733	15891
8,92147	16498
8,92558	16977
8,92970	17962
8,93383	16878
8,93795	17036
8,94207	17617
8,94620	17652
8,95032	16401
8,95443	16741
8,95857	17066
8,96268	16445
8,96680	16160
8,97093	17399
8,97505	17191
8,97917	17170
8,98328	18212
8,98742	17290
8,99153	17809
8,99565	17183
8,99978	17160
9,00390	16326
9,00802	17834
9,01215	16469
9,01627	17131
9,02038	17857
9,02452	17730
9,02863	16745
9,03275	17823
9,03688	17891
9,04100	16840
9,04512	17651
9,04925	16535
9,05337	17183
9,05748	18349
9,06162	18141
9,06573	17659
9,06985	18541
9,07397	16788
9,07810	18305
9,08222	19271
9,08633	16964
9,09047	17196
9,09458	16827
9,09870	16537
9,10283	17274
9,10695	17298
9,11107	16545
9,11520	16694
9,11932	16985
9,12343	15725
9,12757	16858
9,13168	15223
9,13580	16093
9,13993	16010
9,14405	16612
9,14817	16546
9,15230	14954
9,15642	16375
9,16053	16410
9,16465	15600
9,16878	15111
9,17290	14743
9,17702	14364
9,18115	14478
9,18527	14701
9,18938	16303
9,19352	15613
9,19763	15812
9,20175	14905
9,20588	14905
9,21000	16238
9,21412	16533
9,21825	19328
9,22237	25523
9,22648	34571
9,23062	53674
9,23473	83214
9,23885	130647
9,24298	195494
9,24710	284964
9,25122	401363
9,25533	520824
9,25947	641750
9,26358	743642
9,26770	832684
9,27183	883850
9,27595	904814
9,28007	883149
9,28420	845966
9,28832	793402
9,29243	726427
9,29657	645693
9,30068	574724
9,30480	501302
9,30893	431748
9,31305	374180
9,31717	319769
9,32130	268795
9,32542	229430
9,32953	196696
9,33367	164630
9,33778	141142
9,34190	124389
9,34602	105113
9,35015	91744
9,35427	82507
9,35838	75145
9,36252	63273
9,36663	60632
9,37075	55807
9,37488	49428
9,37900	48034
9,38312	43726
9,38725	41081
9,39137	41673
9,39548	39059
9,39962	37415
9,40373	36457
9,40785	34709
9,41198	34233
9,41610	30998
9,42022	30685
9,42435	30009
9,42847	29231
9,43258	28986
9,43670	28258
9,44083	27549
9,44495	24931
9,44907	25193
9,45320	24265
9,45732	23854
9,46143	23277
9,46557	21159
9,46968	22230
9,47380	21286
9,47793	21688
9,48205	19133
9,48617	20813
9,49030	21614
9,49442	19538
9,49853	19587
9,50267	19150
9,50678	19197
9,51090	18106
9,51503	19279
9,51915	18210
9,52327	18067
9,52738	16808
9,53152	17514
9,53563	16723
9,53975	17365
9,54388	17285
9,54800	16655
9,55212	16630
9,55625	18648
9,56037	15857
9,56448	16142
9,56862	18205
9,57273	17387
9,57685	17536
9,58098	15503
9,58510	14740
9,58922	15137
9,59335	15358
9,59747	15210
9,60158	16235
9,60572	14662
9,60983	16024
9,61395	14695
9,61807	15187
9,62220	14519
9,62632	15883
9,63043	16701
9,63457	15516
9,63868	16337
9,64280	15516
9,64693	16240
9,65105	17900
9,65517	19089
9,65930	18902
9,66342	18315
9,66753	18135
9,67167	17678
9,67578	17728
9,67990	18133
9,68403	17552
9,68815	17179
9,69227	18071
9,69640	16523
9,70052	17027
9,70463	15383
9,70875	16137
9,71288	14127
9,71700	14391
9,72112	14183
9,72525	16595
9,72937	15200
9,73348	14334
9,73762	14163
9,74173	13735
9,74585	14253
9,74998	14278
9,75410	14095
9,75822	13882
9,76235	14166
9,76647	13907
9,77058	14584
9,77472	15222
9,77883	12603
9,78295	13464
9,78708	13902
9,79120	14394
9,79532	12553
9,79943	13306
9,80357	12429
9,80768	13733
9,81180	12755
9,81593	14482
9,82005	12964
9,82417	13734
9,82830	14102
9,83242	13586
9,83653	14239
9,84067	12839
9,84478	13540
9,84890	13655
9,85303	13168
9,85715	12874
9,86127	12930
9,86540	12913
9,86952	12956
9,87363	14385
9,87777	13236
9,88188	12738
9,88600	12783
9,89013	12491
9,89425	13492
9,89837	12488
9,90248	13323
9,90662	13160
9,91073	13498
9,91485	13205
9,91898	12550
9,92310	13308
9,92722	13852
9,93135	13018
9,93547	12354
9,93958	13785
9,94372	12697
9,94783	14208
9,95195	12564
9,95608	13150
9,96020	13264
9,96432	12483
9,96845	12879
9,97257	13228
9,97668	13239
9,98082	12632
9,98493	13055
9,98905	11897
9,99317	12839
9,99730	12030
10,00142	13207
10,00553	12359
10,00967	11603
10,01378	14048
10,01790	12183
10,02203	11807
10,02615	11912
10,03027	13166
10,03440	13206
10,03852	13978
10,04263	13471
10,04677	13292
10,05088	12936
10,05500	12018
10,05913	12897
10,06325	12567
10,06737	12170
10,07150	13005
10,07562	12924
10,07973	12879
10,08385	12119
10,08798	12468
10,09210	12322
10,09622	12434
10,10035	13212
10,10447	12644
10,10858	12907
10,11272	13148
10,11683	12998
10,12095	12922
10,12508	12665
10,12920	13770
10,13332	12329
10,13745	13708
10,14157	13711
10,14568	12785
10,14982	13281
10,15393	12012
10,15805	12618
10,16218	11335
10,16630	12966
10,17042	12253
10,17453	12341
10,17867	12412
10,18278	12970
10,18690	12866
10,19103	12958
10,19515	12651
10,19927	12037
10,20340	11835
10,20752	12476
10,21163	11703
10,21577	12010
10,21988	13301
10,22400	11658
10,22813	12005
10,23225	12703
10,23637	13051
10,24050	12993
10,24462	12450
10,24873	11759
10,25287	12273
10,25698	13541
10,26110	13263
10,26522	15721
10,26935	18655
10,27347	29927
10,27758	51063
10,28172	89009
10,28583	148956
10,28995	248518
10,29408	401381
10,29820	604488
10,30232	849363
10,30645	1129033
10,31057	1429820
10,31468	1699774
10,31882	1902984
10,32293	2054505
10,32705	2094012
10,33118	2079408
10,33530	1954687
10,33942	1804223
10,34355	1591491
10,34767	1371085
10,35178	1172479
10,35590	973251
10,36003	804005
10,36415	661093
10,36827	545331
10,37240	443454
10,37652	370063
10,38063	305467
10,38477	256144
10,38888	216298
10,39300	186438
10,39713	158796
10,40125	142663
10,40537	127195
10,40950	110592
10,41362	100060
10,41773	90472
10,42187	80741
10,42598	76203
10,43010	69245
10,43423	63065
10,43835	58951
10,44247	54695
10,44658	52857
10,45072	47982
10,45483	47158
10,45895	42877
10,46308	42382
10,46720	40353
10,47132	36757
10,47545	36943
10,47957	35716
10,48368	35358
10,48782	31256
10,49193	30717
10,49605	30749
10,50018	29830
10,50430	28839
10,50842	27184
10,51255	26543
10,51667	25655
10,52078	24758
10,52492	23392
10,52903	24606
10,53315	22770
10,53727	22704
10,54140	21968
10,54552	22830
10,54963	21960
10,55377	21067
10,55788	19628
10,56200	20366
10,56613	18972
10,57025	18561
10,57437	17890
10,57850	17816
10,58262	16789
10,58673	17773
10,59087	18333
10,59498	19095
10,59910	17456
10,60323	16983
10,60735	16765
10,61147	16594
10,61560	15326
10,61972	16653
10,62383	17674
10,62795	15156
10,63208	15279
10,63620	15809
10,64032	15127
10,64445	14158
10,64857	13829
10,65268	15809
10,65682	14332
10,66093	14363
10,66505	13647
10,66918	15800
10,67330	14321
10,67742	13141
10,68155	13443
10,68567	13606
10,68978	14279
10,69392	13031
10,69803	13865
10,70215	14100
10,70628	13134
10,71040	12482
10,71452	12757
10,71863	13154
10,72277	13616
10,72688	12136
10,73100	12845
10,73513	13281
10,73925	13087
10,74337	12579
10,74750	13212
10,75162	12750
10,75573	12671
10,75987	13750
10,76398	13041
10,76810	12579
10,77223	12894
10,77635	11883
10,78047	11734
10,78460	12181
10,78872	13894
10,79283	13019
10,79697	12904
10,80108	11708
10,80520	11802
10,80932	12112
10,81345	11366
10,81757	11262
10,82168	13042
10,82582	12074
10,82993	12969
10,83405	12829
10,83818	11971
10,84230	12210
10,84642	12148
10,85055	12625
10,85467	12500
10,85878	12775
10,86292	11803
10,86703	14013
10,87115	12212
10,87528	12358
10,87940	11921
10,88352	13347
10,88765	11650
10,89177	11655
10,89588	12440
10,90000	13166
10,90413	12828
10,90825	13515
10,91237	11160
10,91650	11788
10,92062	13155
10,92473	14315
10,92887	13256
10,93298	14619
10,93710	15538
10,94123	16643
10,94535	17881
10,94947	18083
10,95360	17434
10,95772	17674
10,96183	16904
10,96597	17337
10,97008	17501
10,97420	15816
10,97833	15685
10,98245	15213
10,98657	14143
10,99068	15049
10,99482	14295
10,99893	13016
11,00305	12606
11,00718	12921
11,01130	12950
11,01542	12090
11,01955	11894
11,02367	11011
11,02778	11607
11,03192	11016
11,03603	11725
11,04015	10724
11,04428	10796
11,04840	10676
11,05252	11647
11,05665	11147
11,06077	10942
11,06488	10554
11,06902	10949
11,07313	10430
11,07725	11313
11,08137	11097
11,08550	11219
11,08962	9826
11,09373	12045
11,09787	11576
11,10198	10367
11,10610	11261
11,11023	10979
11,11435	10585
11,11847	10678
11,12260	11069
11,12672	10272
11,13083	9976
11,13497	10503
11,13908	10241
11,14320	10137
11,14733	10581
11,15145	10507
11,15557	10040
11,15970	8508
11,16382	10016
11,16793	10052
11,17205	9074
11,17618	10004
11,18030	10047
11,18442	9639
11,18855	11114
11,19267	8398
11,19678	9752
11,20092	10051
11,20503	10600
11,20915	10201
11,21328	11467
11,21740	10354
11,22152	10199
11,22565	10147
11,22977	10285
11,23388	10316
11,23802	9954
11,24213	10586
11,24625	9533
11,25038	10771
11,25450	9899
11,25862	8786
11,26273	9410
11,26687	9509
11,27098	11051
11,27510	8724
11,27923	10217
11,28335	10038
11,28747	11188
11,29160	9887
11,29572	10222
11,29983	10113
11,30397	8909
11,30808	9589
11,31220	9894
11,31633	9980
11,32045	9475
11,32457	9775
11,32870	10604
11,33282	10760
11,33693	14281
11,34107	19421
11,34518	32106
11,34930	53190
11,35342	94115
11,35755	155736
11,36167	241018
11,36578	357442
11,36992	504006
11,37403	671676
11,37815	852150
11,38228	987968
11,38640	1108939
11,39052	1160895
11,39465	1154212
11,39877	1101076
11,40288	1015670
11,40702	907306
11,41113	780132
11,41525	651646
11,41938	534369
11,42350	432204
11,42762	348244
11,43175	285887
11,43587	238413
11,43998	193105
11,44412	156865
11,44823	133194
11,45235	116487
11,45647	97234
11,46060	86538
11,46472	74285
11,46883	68426
11,47297	59645
11,47708	56224
11,48120	46951
11,48533	45145
11,48945	42172
11,49357	38273
11,49770	36449
11,50182	33260
11,50593	32845
11,51007	29501
11,51418	29196
11,51830	28066
11,52243	26174
11,52655	24228
11,53067	24159
11,53480	23312
11,53892	22187
11,54303	21569
11,54715	19912
11,55128	20390
11,55540	20184
11,55952	17904
11,56365	18477
11,56777	17721
11,57188	15739
11,57602	16106
11,58013	16917
11,58425	16724
11,58838	15728
11,59250	15283
11,59662	16440
11,60075	14213
11,60487	14529
11,60898	15197
11,61312	14616
11,61723	13993
11,62135	14778
11,62548	13884
11,62960	13988
11,63372	12754
11,63783	14589
11,64197	12864
11,64608	13199
11,65020	11257
11,65433	13146
11,65845	13227
11,66257	13048
11,66670	13325
11,67082	12428
11,67493	11707
11,67907	11926
11,68318	11489
11,68730	12829
11,69143	11933
11,69555	11225
11,69967	11493
11,70380	12489
11,70792	11075
11,71203	12336
11,71617	11567
11,72028	12415
11,72440	10187
11,72852	12477
11,73265	11029
11,73677	11203
11,74088	11139
11,74502	11284
11,74913	10667
11,75325	10696
11,75738	10060
11,76150	10686
11,76562	11062
11,76975	11007
11,77387	10198
11,77798	11242
11,78212	10306
11,78623	10901
11,79035	9730
11,79448	9588
11,79860	8666
11,80272	9747
11,80685	10212
11,81097	9582
11,81508	9780
11,81920	9781
11,82333	9790
11,82745	9963
11,83157	8935
11,83570	10301
11,83982	9994
11,84393	8664
11,84807	9335
11,85218	9486
11,85630	9879
11,86043	8961
11,86455	9422
11,86867	10382
11,87280	9983
11,87692	10223
11,88103	8574
11,88517	9631
11,88928	9543
11,89340	10997
11,89753	10917
11,90165	11864
11,90577	11522
11,90988	13460
11,91402	13617
11,91813	14231
11,92225	14839
11,92638	13359
11,93050	13353
11,93462	12338
11,93875	12949
11,94287	12733
11,94698	11292
11,95112	11028
11,95523	11754
11,95935	9177
11,96348	10100
11,96760	9387
11,97172	8701
11,97585	9150
11,97997	9090
11,98408	10806
11,98822	9743
11,99233	9722
11,99645	9871
12,00057	9708
12,00470	10739
12,00882	10849
12,01293	11123
12,01707	11571
12,02118	11881
12,02530	14851
12,02943	15470
12,03355	14254
12,03767	14558
12,04180	14736
12,04592	15013
12,05003	13890
12,05417	14464
12,05828	13985
12,06240	13529
12,06653	13186
12,07065	11285
12,07477	11041
12,07890	12259
12,08302	10161
12,08713	10284
12,09125	10240
12,09538	9630
12,09950	9981
12,10362	9697
12,10775	9718
12,11187	10149
12,11598	8984
12,12012	8851
12,12423	10745
12,12835	9355
12,13248	9360
12,13660	8945
12,14072	8843
12,14485	9228
12,14897	10295
12,15308	9268
12,15722	8507
12,16133	9517
12,16545	9345
12,16958	8483
12,17370	8801
12,17782	8290
12,18193	9339
12,18607	9602
12,19018	9591
12,19430	9350
12,19843	8943
12,20255	8936
12,20667	10163
12,21080	10094
12,21492	9382
12,21903	8283
12,22317	9506
12,22728	8794
12,23140	8605
12,23553	9150
12,23965	8446
12,24377	8829
12,24790	7871
12,25202	8027
12,25613	8654
12,26027	8306
12,26438	8587
12,26850	7997
12,27262	8166
12,27675	8592
12,28087	8734
12,28498	7777
12,28912	8386
12,29323	8561
12,29735	7547
12,30148	7714
12,30560	7693
12,30972	7275
12,31385	7436
12,31797	8569
12,32208	7897
12,32622	8128
12,33033	8690
12,33445	8067
12,33858	8966
12,34270	7512
12,34682	8064
12,35095	7950
12,35507	7456
12,35918	7090
12,36330	7547
12,36743	8589
12,37155	6687
12,37567	8217
12,37980	7804
12,38392	9164
12,38803	11442
12,39217	11970
12,39628	18724
12,40040	29372
12,40453	52968
12,40865	95776
12,41277	168736
12,41690	294612
12,42102	479345
12,42513	733158
12,42927	1060782
12,43338	1443343
12,43750	1821721
12,44163	2177326
12,44575	2432479
12,44987	2562973
12,45398	2573219
12,45812	2430140
12,46223	2211466
12,46635	1945984
12,47048	1602562
12,47460	1315140
12,47872	1064971
12,48285	854590
12,48697	678464
12,49108	546406
12,49522	440009
12,49933	359094
12,50345	294480
12,50758	249688
12,51170	209885
12,51582	185316
12,51995	159636
12,52407	139453
12,52818	123114
12,53232	109488
12,53643	101362
12,54055	92465
12,54467	81357
12,54880	76877
12,55292	67127
12,55703	62119
12,56117	58986
12,56528	54842
12,56940	52417
12,57353	50132
12,57765	47663
12,58177	44108
12,58590	42391
12,59002	41639
12,59413	42361
12,59827	38890
12,60238	35796
12,60650	38272
12,61063	35256
12,61475	33731
12,61887	33825
12,62300	31735
12,62712	30888
12,63123	30890
12,63535	26471
12,63948	26395
12,64360	24475
12,64772	23213
12,65185	22408
12,65597	21279
12,66008	20553
12,66422	20454
12,66833	20423
12,67245	19645
12,67658	19287
12,68070	18320
12,68482	17362
12,68895	16914
12,69307	15772
12,69718	16347
12,70132	15747
12,70543	14498
12,70955	14887
12,71368	14773
12,71780	14529
12,72192	13941
12,72603	12851
12,73017	13077
12,73428	12701
12,73840	13942
12,74253	13050
12,74665	12390
12,75077	10779
12,75490	13248
12,75902	10842
12,76313	11562
12,76727	10925
12,77138	12460
12,77550	11315
12,77963	12725
12,78375	11532
12,78787	12091
12,79200	11898
12,79612	12029
12,80023	11652
12,80437	10627
12,80848	11878
12,81260	12818
12,81672	11038
12,82085	11877
12,82497	10987
12,82908	11591
12,83322	11065
12,83733	11387
12,84145	10293
12,84558	12139
12,84970	10155
12,85382	10654
12,85795	10627
12,86207	9273
12,86618	9311
12,87032	9329
12,87443	8893
12,87855	8310
12,88268	8578
12,88680	9562
12,89092	9754
12,89505	9801
12,89917	10544
12,90328	8372
12,90740	8699
12,91153	8934
12,91565	8178
12,91977	7977
12,92390	9711
12,92802	8675
12,93213	9367
12,93627	9828
12,94038	10012
12,94450	10655
12,94863	10490
12,95275	11712
12,95687	11406
12,96100	11457
12,96512	10682
12,96923	13267
12,97337	12555
12,97748	12046
12,98160	11228
12,98573	10033
12,98985	10202
12,99397	11314
12,99810	9982
13,00222	8739
13,00633	9122
13,01045	9431
13,01458	9231
13,01870	9168
13,02282	8947
13,02695	8972
13,03107	9927
13,03518	9046
13,03932	9380
13,04343	8572
13,04755	9180
13,05168	7389
13,05580	8784
13,05992	8489
13,06405	7368
13,06817	7966
13,07228	7851
13,07642	7372
13,08053	8560
13,08465	7683
13,08878	8292
13,09290	8961
13,09702	7569
13,10113	8905
13,10527	8000
13,10938	8068
13,11350	7364
13,11763	9454
13,12175	8364
13,12587	7490
13,13000	9779
13,13412	13118
13,13823	21544
13,14237	34349
13,14648	60524
13,15060	106549
13,15473	175803
13,15885	280249
13,16297	417127
13,16710	581990
13,17122	768457
13,17533	925033
13,17947	1072681
13,18358	1153772
13,18770	1181086
13,19182	1140161
13,19595	1069557
13,20007	938249
13,20418	820648
13,20832	690754
13,21243	564092
13,21655	463801
13,22068	374115
13,22480	302792
13,22892	246287
13,23305	201704
13,23717	165694
13,24128	142704
13,24542	123705
13,24953	105572
13,25365	91425
13,25778	81508
13,26190	75687
13,26602	66219
13,27015	59841
13,27427	54488
13,27838	48949
13,28250	47862
13,28663	43981
13,29075	43483
13,29487	43254
13,29900	42002
13,30312	41234
13,30723	40740
13,31137	39545
13,31548	37012
13,31960	36630
13,32373	33503
13,32785	31721
13,33197	28199
13,33610	27338
13,34022	25357
13,34433	23176
13,34847	21293
13,35258	19944
13,35670	18654
13,36083	19420
13,36495	17929
13,36907	16781
13,37318	15609
13,37732	15041
13,38143	14638
13,38555	13951
13,38968	14444
13,39380	13677
13,39792	14355
13,40205	12837
13,40617	11916
13,41028	12737
13,41442	13329
13,41853	12100
13,42265	12665
13,42678	12077
13,43090	14379
13,43502	17971
13,43915	27400
13,44327	45608
13,44738	74523
13,45152	132998
13,45563	215670
13,45975	345627
13,46387	513644
13,46800	706061
13,47212	914202
13,47623	1107602
13,48037	1260197
13,48448	1332220
13,48860	1338663
13,49273	1277208
13,49685	1158454
13,50097	1007766
13,50510	841807
13,50922	709101
13,51333	562328
13,51747	455633
13,52158	366751
13,52570	287067
13,52983	233060
13,53395	192305
13,53807	158077
13,54220	134571
13,54632	111607
13,55043	98406
13,55455	87166
13,55868	74999
13,56280	69087
13,56692	61045
13,57105	54824
13,57517	50937
13,57928	45492
13,58342	44711
13,58753	37858
13,59165	37075
13,59578	35857
13,59990	30040
13,60402	30046
13,60815	28895
13,61227	28039
13,61638	24795
13,62052	24327
13,62463	23960
13,62875	22359
13,63288	21989
13,63700	20173
13,64112	18866
13,64523	19216
13,64937	16890
13,65348	18758
13,65760	16721
13,66173	15789
13,66585	15786
13,66997	16032
13,67410	14678
13,67822	13987
13,68233	14159
13,68647	14320
13,69058	13643
13,69470	14274
13,69883	11749
13,70295	12869
13,70707	12783
13,71120	12513
13,71532	11881
13,71943	12036
13,72357	10787
13,72768	10497
13,73180	10511
13,73592	12304
13,74005	11105
13,74417	12043
13,74828	11804
13,75242	10269
13,75653	10619
13,76065	11418
13,76478	11801
13,76890	10126
13,77302	10409
13,77715	8943
13,78127	9532
13,78538	9714
13,78952	9818
13,79363	10269
13,79775	8752
13,80188	9470
13,80600	9706
13,81012	9351
13,81425	8000
13,81837	8084
13,82248	8902
13,82660	8006
13,83073	10211
13,83485	9993
13,83897	8088
13,84310	8889
13,84722	8483
13,85133	8969
13,85547	8448
13,85958	9607
13,86370	8649
13,86783	7978
13,87195	8390
13,87607	9536
13,88020	9589
13,88432	7280
13,88843	8311
13,89257	8948
13,89668	8954
13,90080	9527
13,90493	7606
13,90905	8707
13,91317	9351
13,91728	8955
13,92142	9346
13,92553	8655
13,92965	8612
13,93378	9027
13,93790	8819
13,94202	8249
13,94615	9167
13,95027	8631
13,95438	8072
13,95852	8778
13,96263	8771
13,96675	8929
13,97088	8858
13,97500	9266
13,97912	8197
13,98325	8849
13,98737	8318
13,99148	8260
13,99562	7752
13,99973	7833
14,00385	8136
14,00797	7976
14,01210	7823
14,01622	7233
14,02033	7122
14,02447	7465
14,02858	9050
14,03270	8499
14,03683	8477
14,04095	8396
14,04507	6728
14,04920	8348
14,05332	7495
14,05743	8136
14,06157	7994
14,06568	8351
14,06980	8292
14,07393	8189
14,07805	7965
14,08217	7635
14,08630	9103
14,09042	7625
14,09453	9008
14,09865	7383
14,10278	8084
14,10690	7121
14,11102	7577
14,11515	8153
14,11927	6572
14,12338	7249
14,12752	7995
14,13163	7295
14,13575	8081
14,13988	7786
14,14400	6886
14,14812	6416
14,15225	8177
14,15637	8761
14,16048	13046
14,16462	19295
14,16873	33868
14,17285	58110
14,17698	100795
14,18110	171123
14,18522	279412
14,18933	425003
14,19347	595670
14,19758	787980
14,20170	980026
14,20583	1123535
14,20995	1211176
14,21407	1242605
14,21820	1221321
14,22232	1146667
14,22643	1024274
14,23057	882974
14,23468	731246
14,23880	600630
14,24293	483193
14,24705	388738
14,25117	308202
14,25530	251836
14,25942	206447
14,26353	170703
14,26767	143461
14,27178	123394
14,27590	104415
14,28002	93749
14,28415	80783
14,28827	70309
14,29238	64694
14,29652	58039
14,30063	53190
14,30475	47242
14,30888	44710
14,31300	42517
14,31712	40007
14,32125	35809
14,32537	33724
14,32948	29895
14,33362	28380
14,33773	26610
14,34185	25705
14,34598	24207
14,35010	23265
14,35422	23589
14,35835	21564
14,36247	20105
14,36658	20260
14,37070	18511
14,37483	18048
14,37895	17330
14,38307	16656
14,38720	17277
14,39132	14908
14,39543	15014
14,39957	15370
14,40368	15415
14,40780	13304
14,41193	13374
14,41605	12299
14,42017	13145
14,42430	12375
14,42842	13001
14,43253	13879
14,43667	17383
14,44078	24564
14,44490	44731
14,44903	83675
14,45315	156755
14,45727	281906
14,46138	491976
14,46552	792990
14,46963	1210734
14,47375	1746795
14,47788	2327263
14,48200	2943749
14,48612	3498241
14,49025	3969405
14,49437	4243904
14,49848	4294248
14,50262	4087283
14,50673	3708886
14,51085	3189063
14,51498	2642999
14,51910	2148879
14,52322	1695606
14,52735	1330321
14,53147	1058388
14,53558	828062
14,53972	679460
14,54383	550521
14,54795	455200
14,55207	381824
14,55620	326368
14,56032	281084
14,56443	246223
14,56857	214801
14,57268	197708
14,57680	171634
14,58093	157179
14,58505	142207
14,58917	128006
14,59330	115893
14,59742	109534
14,60153	97482
14,60567	90502
14,60978	84986
14,61390	77912
14,61803	74958
14,62215	68359
14,62627	64841
14,63040	59171
14,63452	56689
14,63863	55237
14,64277	51900
14,64688	48652
14,65100	46421
14,65512	43270
14,65925	41197
14,66337	41245
14,66748	37070
14,67162	37615
14,67573	33250
14,67985	32951
14,68398	32933
14,68810	29441
14,69222	28146
14,69635	28113
14,70047	28449
14,70458	26820
14,70872	26116
14,71283	23982
14,71695	22298
14,72108	24257
14,72520	22675
14,72932	21112
14,73345	20726
14,73757	22089
14,74168	19485
14,74580	19464
14,74993	19221
14,75405	19409
14,75817	16958
14,76230	17051
14,76642	17380
14,77053	16235
14,77467	15511
14,77878	15522
14,78290	15259
14,78703	15085
14,79115	14752
14,79527	15166
14,79940	13472
14,80352	13932
14,80763	13382
14,81177	12220
14,81588	13332
14,82000	12726
14,82413	14659
14,82825	13271
14,83237	13967
14,83648	11832
14,84062	12735
14,84473	12611
14,84885	12582
14,85298	12082
14,85710	12341
14,86122	12460
14,86535	13431
14,86947	13314
14,87358	11282
14,87772	11148
14,88183	12109
14,88595	12483
14,89008	11880
14,89420	12642
14,89832	12409
14,90245	12039
14,90657	10141
14,91068	11558
14,91482	11342
14,91893	11214
14,92305	10322
14,92717	11128
14,93130	9979
14,93542	9621
14,93953	10321
14,94367	9717
14,94778	10131
14,95190	9780
14,95603	10810
14,96015	10553
14,96427	11874
14,96840	11875
14,97252	12079
14,97663	10669
14,98077	12918
14,98488	12301
14,98900	12322
14,99313	11405
14,99725	11823
15,00137	11190
15,00550	11562
15,00962	11416
15,01373	11575
15,01785	11977
15,02198	15157
15,02610	20908
15,03022	31757
15,03435	53810
15,03847	95671
15,04258	163860
15,04672	263591
15,05083	405507
15,05495	574634
15,05908	767217
15,06320	971231
15,06732	1135946
15,07145	1247927
15,07557	1302509
15,07968	1284200
15,08382	1208933
15,08793	1073765
15,09205	933437
15,09618	779732
15,10030	638581
15,10442	520879
15,10853	418638
15,11267	338906
15,11678	281372
15,12090	229292
15,12503	186930
15,12915	162092
15,13327	137961
15,13740	118934
15,14152	104031
15,14563	91249
15,14977	82023
15,15388	71599
15,15800	64639
15,16213	57780
15,16625	55003
15,17037	50133
15,17450	45977
15,17862	45355
15,18273	42484
15,18687	42064
15,19098	41412
15,19510	41298
15,19922	39401
15,20335	38434
15,20747	37425
15,21158	35577
15,21572	31032
15,21983	32552
15,22395	31609
15,22808	29032
15,23220	29175
15,23632	26037
15,24045	24469
15,24457	24259
15,24868	23100
15,25282	19380
15,25693	20266
15,26105	19991
15,26518	18756
15,26930	18233
15,27342	16889
15,27755	15825
15,28167	17122
15,28578	14738
15,28990	14759
15,29403	15368
15,29815	13097
15,30227	14089
15,30640	13730
15,31052	12344
15,31463	12768
15,31877	12809
15,32288	12013
15,32700	12920
15,33113	11296
15,33525	11604
15,33937	11862
15,34350	11893
15,34762	12539
15,35173	10552
15,35587	10526
15,35998	11742
15,36410	11320
15,36823	10286
15,37235	10879
15,37647	10764
15,38058	12008
15,38472	10826
15,38883	10601
15,39295	9789
15,39708	9927
15,40120	11838
15,40532	11728
15,40945	13294
15,41357	18246
15,41768	30750
15,42182	55325
15,42593	97173
15,43005	167782
15,43418	278846
15,43830	439387
15,44242	643112
15,44655	864498
15,45067	1108545
15,45478	1301914
15,45892	1429986
15,46303	1487865
15,46715	1482819
15,47127	1374315
15,47540	1226907
15,47952	1040983
15,48363	864137
15,48777	697309
15,49188	560556
15,49600	449919
15,50013	356695
15,50425	289207
15,50837	235679
15,51250	196614
15,51662	163393
15,52073	141169
15,52487	118800
15,52898	104440
15,53310	90398
15,53723	82272
15,54135	73200
15,54547	66613
15,54960	60799
15,55372	53607
15,55783	50412
15,56195	46822
15,56608	40856
15,57020	39408
15,57432	36631
15,57845	36286
15,58257	33779
15,58668	31338
15,59082	29874
15,59493	28896
15,59905	28347
15,60318	25546
15,60730	25916
15,61142	23411
15,61555	23945
15,61967	21002
15,62378	22258
15,62792	20079
15,63203	20106
15,63615	20155
15,64028	20393
15,64440	19489
15,64852	18082
15,65263	17965
15,65677	18222
15,66088	15946
15,66500	16313
15,66913	15793
15,67325	15874
15,67737	15430
15,68150	14009
15,68562	14019
15,68973	15378
15,69387	12946
15,69798	12389
15,70210	14812
15,70623	12240
15,71035	13808
15,71447	12921
15,71860	13698
15,72272	12461
15,72683	12545
15,73097	11646
15,73508	12811
15,73920	11634
15,74332	10894
15,74745	9899
15,75157	11066
15,75568	10351
15,75982	11225
15,76393	10384
15,76805	9605
15,77218	11062
15,77630	10779
15,78042	9690
15,78455	9830
15,78867	11286
15,79278	11393
15,79692	10440
15,80103	10524
15,80515	10237
15,80928	10637
15,81340	10715
15,81752	9862
15,82165	10249
15,82577	10147
15,82988	10219
15,83400	8782
15,83813	8202
15,84225	8878
15,84637	9865
15,85050	10710
15,85462	10170
15,85873	9236
15,86287	8633
15,86698	9416
15,87110	8404
15,87523	9711
15,87935	9327
15,88347	8389
15,88760	9168
15,89172	9350
15,89583	10016
15,89997	9825
15,90408	9370
15,90820	9054
15,91233	9870
15,91645	10115
15,92057	10926
15,92468	10934
15,92882	9383
15,93293	8326
15,93705	10552
15,94118	9094
15,94530	9558
15,94942	9751
15,95355	8782
15,95767	8682
15,96178	9569
15,96592	8923
15,97003	9877
15,97415	10945
15,97828	13509
15,98240	19249
15,98652	28844
15,99065	48801
15,99477	86373
15,99888	151494
16,00302	252685
16,00713	392537
16,01125	570782
16,01537	781747
16,01950	991109
16,02362	1201283
16,02773	1342159
16,03187	1411160
16,03598	1406704
16,04010	1318387
16,04423	1186720
16,04835	1033243
16,05247	863607
16,05660	709336
16,06072	582052
16,06483	468113
16,06897	376819
16,07308	301721
16,07720	247646
16,08133	201153
16,08545	172406
16,08957	145067
16,09370	125037
16,09782	109887
16,10193	96815
16,10605	85005
16,11018	78184
16,11430	69954
16,11842	62525
16,12255	58062
16,12667	51056
16,13078	49738
16,13492	44908
16,13903	41837
16,14315	39983
16,14728	37830
16,15140	34750
16,15552	33622
16,15965	30100
16,16377	29582
16,16788	29406
16,17202	29471
16,17613	26375
16,18025	24709
16,18438	22249
16,18850	24329
16,19262	21627
16,19675	20975
16,20087	20323
16,20498	20293
16,20910	20970
16,21323	19900
16,21735	20944
16,22147	21508
16,22560	23720
16,22972	25118
16,23383	26934
16,23797	30520
16,24208	29178
16,24620	30166
16,25033	32082
16,25445	31658
16,25857	29981
16,26270	28593
16,26682	27361
16,27093	25397
16,27507	25020
16,27918	22980
16,28330	18957
16,28743	19124
16,29155	18435
16,29567	17757
16,29978	16115
16,30392	15560
16,30803	14720
16,31215	16492
16,31628	13975
16,32040	12232
16,32452	13148
16,32865	13380
16,33277	12607
16,33688	13197
16,34102	13947
16,34513	15552
16,34925	23022
16,35338	36168
16,35750	58607
16,36162	112135
16,36575	200589
16,36987	343106
16,37398	563208
16,37812	870458
16,38223	1259616
16,38635	1728540
16,39047	2212710
16,39460	2695867
16,39872	3046748
16,40283	3261074
16,40697	3290448
16,41108	3146056
16,41520	2838242
16,41933	2477712
16,42345	2044367
16,42757	1659490
16,43170	1326359
16,43582	1058012
16,43993	833199
16,44407	673689
16,44818	547323
16,45230	452890
16,45643	378232
16,46055	320748
16,46467	271426
16,46880	237707
16,47292	209469
16,47703	183260
16,48115	167254
16,48528	153194
16,48940	132974
16,49352	120304
16,49765	112635
16,50177	103944
16,50588	92236
16,51002	89697
16,51413	79517
16,51825	74425
16,52238	70255
16,52650	65455
16,53062	63241
16,53475	60594
16,53887	54665
16,54298	54212
16,54712	49446
16,55123	46024
16,55535	43447
16,55948	40816
16,56360	41441
16,56772	37304
16,57183	36556
16,57597	33301
16,58008	34832
16,58420	32538
16,58833	30285
16,59245	29769
16,59657	28582
16,60070	29173
16,60482	25795
16,60893	26647
16,61307	24200
16,61718	24736
16,62130	24217
16,62543	22723
16,62955	23131
16,63367	22858
16,63780	21547
16,64192	21278
16,64603	21237
16,65017	21388
16,65428	18707
16,65840	20424
16,66252	21508
16,66665	27550
16,67077	36029
16,67488	56166
16,67902	95740
16,68313	159045
16,68725	255326
16,69138	396308
16,69550	574480
16,69962	797812
16,70375	1023397
16,70787	1236418
16,71198	1398853
16,71612	1494771
16,72023	1521681
16,72435	1450114
16,72848	1332240
16,73260	1182954
16,73672	1005654
16,74085	835602
16,74497	687726
16,74908	550626
16,75320	448497
16,75733	362920
16,76145	299560
16,76557	245354
16,76970	204587
16,77382	178673
16,77793	152859
16,78207	134389
16,78618	117944
16,79030	105031
16,79443	92455
16,79855	82890
16,80267	75159
16,80680	72666
16,81092	66666
16,81503	62988
16,81917	56415
16,82328	56669
16,82740	62704
16,83153	77846
16,83565	103578
16,83977	157081
16,84388	256240
16,84802	413344
16,85213	650548
16,85625	955323
16,86038	1354233
16,86450	1818036
16,86862	2258003
16,87275	2662765
16,87687	2955999
16,88098	3107054
16,88512	3068264
16,88923	2880088
16,89335	2590540
16,89748	2216739
16,90160	1841665
16,90572	1509702
16,90985	1196365
16,91397	966498
16,91808	780942
16,92222	630568
16,92633	530076
16,93045	435623
16,93457	366604
16,93870	314239
16,94282	268917
16,94693	241967
16,95107	211397
16,95518	191633
16,95930	169076
16,96343	153799
16,96755	139304
16,97167	128943
16,97580	117448
16,97992	107565
16,98403	100778
16,98817	93844
16,99228	84851
16,99640	81189
17,00053	77342
17,00465	70418
17,00877	68614
17,01290	63144
17,01702	61409
17,02113	56710
17,02525	55333
17,02938	53174
17,03350	48684
17,03762	46997
17,04175	44837
17,04587	42944
17,04998	42936
17,05412	40642
17,05823	38496
17,06235	36971
17,06648	35459
17,07060	34989
17,07472	32902
17,07885	31731
17,08297	31483
17,08708	27148
17,09122	29384
17,09533	27864
17,09945	28632
17,10358	25679
17,10770	27200
17,11182	22300
17,11593	24826
17,12007	23225
17,12418	22926
17,12830	22417
17,13243	20825
17,13655	23014
17,14067	21592
17,14480	21568
17,14892	20550
17,15303	19960
17,15717	19442
17,16128	20168
17,16540	20244
17,16953	18840
17,17365	19393
17,17777	18371
17,18190	18234
17,18602	17946
17,19013	19450
17,19427	25189
17,19838	32676
17,20250	50881
17,20662	83588
17,21075	141171
17,21487	236581
17,21898	378286
17,22312	550351
17,22723	755016
17,23135	958600
17,23548	1163382
17,23960	1314849
17,24372	1397289
17,24785	1414844
17,25197	1353680
17,25608	1283079
17,26022	1188203
17,26433	1130293
17,26845	1141909
17,27258	1236643
17,27670	1454618
17,28082	1766915
17,28495	2170495
17,28907	2589662
17,29318	3013471
17,29730	3324190
17,30143	3503532
17,30555	3463607
17,30967	3256817
17,31380	2927965
17,31792	2476032
17,32203	2048637
17,32617	1657081
17,33028	1338680
17,33440	1068022
17,33853	861953
17,34265	709467
17,34677	581659
17,35090	496275
17,35502	416403
17,35913	355278
17,36327	316890
17,36738	273462
17,37150	243556
17,37563	219336
17,37975	197558
17,38387	181524
17,38798	165875
17,39212	149407
17,39623	140937
17,40035	131394
17,40448	121787
17,40860	114488
17,41272	104900
17,41685	98939
17,42097	95938
17,42508	89924
17,42922	83958
17,43333	78849
17,43745	74258
17,44158	72389
17,44570	67906
17,44982	66348
17,45395	62642
17,45807	60472
17,46218	56571
17,46632	53844
17,47043	50356
17,47455	50260
17,47867	49266
17,48280	47670
17,48692	45680
17,49103	42536
17,49517	41521
17,49928	40756
17,50340	41328
17,50753	38935
17,51165	36438
17,51577	37944
17,51990	37647
17,52402	34826
17,52813	34740
17,53227	31019
17,53638	31531
17,54050	28697
17,54463	27256
17,54875	29366
17,55287	29434
17,55700	29462
17,56112	30870
17,56523	37009
17,56935	49055
17,57348	76655
17,57760	119132
17,58172	189152
17,58585	298513
17,58997	439480
17,59408	621833
17,59822	823011
17,60233	1020434
17,60645	1200221
17,61058	1319092
17,61470	1350046
17,61882	1327013
17,62295	1222349
17,62707	1101858
17,63118	946178
17,63532	799896
17,63943	654997
17,64355	537605
17,64768	438547
17,65180	358558
17,65592	298695
17,66003	249229
17,66417	205843
17,66828	173633
17,67240	149427
17,67653	135145
17,68065	119185
17,68477	106945
17,68890	96350
17,69302	87086
17,69713	79466
17,70127	73146
17,70538	67215
17,70950	60572
17,71363	56392
17,71775	54624
17,72187	52086
17,72600	49603
17,73012	46996
17,73423	45684
17,73837	43003
17,74248	43354
17,74660	42426
17,75072	40470
17,75485	37846
17,75897	37891
17,76308	35440
17,76722	37574
17,77133	32981
17,77545	32999
17,77958	32893
17,78370	30695
17,78782	29958
17,79195	30112
17,79607	27861
17,80018	29058
17,80432	25367
17,80843	26419
17,81255	24666
17,81668	23933
17,82080	24405
17,82492	23498
17,82905	22427
17,83317	20265
17,83728	21428
17,84142	20006
17,84553	20230
17,84965	21418
17,85377	19624
17,85790	19736
17,86202	21221
17,86613	19142
17,87027	17520
17,87438	18998
17,87850	17433
17,88263	17293
17,88675	19075
17,89087	17903
17,89500	16409
17,89912	17577
17,90323	17546
17,90737	17661
17,91148	15422
17,91560	17141
17,91973	15345
17,92385	16185
17,92797	16608
17,93210	16324
17,93622	15617
17,94033	16287
17,94445	15028
17,94858	16433
17,95270	16064
17,95682	15477
17,96095	16166
17,96507	16001
17,96918	15395
17,97332	15693
17,97743	14669
17,98155	16321
17,98568	15432
17,98980	14386
17,99392	16137
17,99805	14340
18,00217	14046
18,00628	16955
18,01042	13745
18,01453	13987
18,01865	14917
18,02278	15650
18,02690	14760
18,03102	14265
18,03513	14041
18,03927	14777
18,04338	14034
18,04750	14169
18,05163	14049
18,05575	13786
18,05987	13335
18,06400	14940
18,06812	13559
18,07223	14574
18,07637	16934
18,08048	19444
18,08460	27203
18,08873	41560
18,09285	70394
18,09697	118766
18,10110	190069
18,10522	303839
18,10933	448139
18,11347	636190
18,11758	825019
18,12170	1021666
18,12582	1197016
18,12995	1358697
18,13407	1501155
18,13818	1651197
18,14232	1827396
18,14643	2084961
18,15055	2408583
18,15468	2791251
18,15880	3237241
18,16292	3617596
18,16705	3896097
18,17117	3996957
18,17528	3934673
18,17942	3653855
18,18353	3257552
18,18765	2788451
18,19178	2310115
18,19590	1859317
18,20002	1501795
18,20415	1207734
18,20827	977571
18,21238	803866
18,21650	676467
18,22063	572237
18,22475	492448
18,22887	424948
18,23300	376718
18,23712	330311
18,24123	293063
18,24537	259813
18,24948	241664
18,25360	218307
18,25773	200091
18,26185	182993
18,26597	168025
18,27010	156963
18,27422	154302
18,27833	144798
18,28247	137374
18,28658	127201
18,29070	124457
18,29483	126300
18,29895	119143
18,30307	112011
18,30718	110798
18,31132	104352
18,31543	100836
18,31955	92426
18,32368	87009
18,32780	83503
18,33192	75050
18,33605	74042
18,34017	68950
18,34428	65650
18,34842	62117
18,35253	58541
18,35665	55675
18,36078	53218
18,36490	53659
18,36902	50012
18,37315	47951
18,37727	46224
18,38138	43962
18,38552	44848
18,38963	43793
18,39375	40572
18,39787	42454
18,40200	41265
18,40612	45167
18,41023	50772
18,41437	64035
18,41848	94173
18,42260	142722
18,42673	215219
18,43085	318640
18,43497	455631
18,43910	616795
18,44322	796555
18,44733	959005
18,45147	1107904
18,45558	1176753
18,45970	1189962
18,46383	1143719
18,46795	1058564
18,47207	930080
18,47620	806609
18,48032	665290
18,48443	547297
18,48855	455605
18,49268	370297
18,49680	305412
18,50092	251210
18,50505	218213
18,50917	185546
18,51328	158379
18,51742	139572
18,52153	125621
18,52565	112079
18,52978	97680
18,53390	94035
18,53802	83101
18,54215	78189
18,54627	73010
18,55038	68963
18,55452	63514
18,55863	61341
18,56275	64098
18,56688	65509
18,57100	78466
18,57512	107208
18,57923	158424
18,58337	240183
18,58748	372942
18,59160	543760
18,59573	773357
18,59985	1023857
18,60397	1282402
18,60810	1494444
18,61222	1647749
18,61633	1705751
18,62047	1688250
18,62458	1590731
18,62870	1432716
18,63283	1235994
18,63695	1035034
18,64107	853580
18,64520	703879
18,64932	577148
18,65343	473758
18,65757	401050
18,66168	332618
18,66580	281911
18,66992	246791
18,67405	215834
18,67817	192103
18,68228	172445
18,68642	152466
18,69053	137251
18,69465	131087
18,69878	118568
18,70290	108196
18,70702	100004
18,71115	92580
18,71527	86964
18,71938	82685
18,72352	77189
18,72763	72396
18,73175	70498
18,73588	64988
18,74000	59864
18,74412	57013
18,74825	58189
18,75237	53441
18,75648	54111
18,76060	50372
18,76473	48016
18,76885	46201
18,77297	43676
18,77710	45105
18,78122	45164
18,78533	39966
18,78947	39268
18,79358	37799
18,79770	35726
18,80183	33798
18,80595	35879
18,81007	34693
18,81420	33575
18,81832	33609
18,82243	31747
18,82657	31567
18,83068	33254
18,83480	29357
18,83893	30405
18,84305	30883
18,84717	30515
18,85128	28483
18,85542	29597
18,85953	27748
18,86365	26926
18,86778	27305
18,87190	27791
18,87602	25551
18,88015	26584
18,88427	25494
18,88838	25590
18,89252	24613
18,89663	25999
18,90075	24699
18,90488	24841
18,90900	22820
18,91312	22984
18,91725	24289
18,92137	23375
18,92548	22542
18,92962	23896
18,93373	22627
18,93785	21736
18,94197	23679
18,94610	27405
18,95022	38971
18,95433	56008
18,95847	88810
18,96258	148430
18,96670	248753
18,97083	395266
18,97495	606851
18,97907	870845
18,98320	1187358
18,98732	1477358
18,99143	1737414
18,99557	1899181
18,99968	1957116
19,00380	1902574
19,00793	1736743
19,01205	1535103
19,01617	1296225
19,02030	1069203
19,02442	881474
19,02853	717467
19,03265	591698
19,03678	488658
19,04090	413898
19,04502	352561
19,04915	304636
19,05327	260965
19,05738	231952
19,06152	205016
19,06563	184258
19,06975	166843
19,07388	151141
19,07800	143428
19,08212	128143
19,08625	116484
19,09037	107151
19,09448	105166
19,09862	97209
19,10273	92762
19,10685	83414
19,11098	82991
19,11510	78926
19,11922	74723
19,12333	71564
19,12747	70242
19,13158	67170
19,13570	64670
19,13983	60995
19,14395	59247
19,14807	57645
19,15220	55424
19,15632	54819
19,16043	50849
19,16457	49085
19,16868	46504
19,17280	43594
19,17693	42933
19,18105	43531
19,18517	39914
19,18930	38522
19,19342	38313
19,19753	39721
19,20167	37391
19,20578	36897
19,20990	34605
19,21402	35256
19,21815	35710
19,22227	34443
19,22638	32994
19,23052	35252
19,23463	34147
19,23875	33946
19,24288	31241
19,24700	30863
19,25112	31722
19,25525	33188
19,25937	34315
19,26348	39785
19,26762	51393
19,27173	73541
19,27585	119282
19,27998	188404
19,28410	299315
19,28822	463291
19,29235	661285
19,29647	888142
19,30058	1098863
19,30470	1311269
19,30883	1428759
19,31295	1506045
19,31707	1483616
19,32120	1389912
19,32532	1246806
19,32943	1066092
19,33357	906651
19,33768	754686
19,34180	623753
19,34593	522351
19,35005	428833
19,35417	357406
19,35830	301335
19,36242	260276
19,36653	221700
19,37067	198749
19,37478	172129
19,37890	156000
19,38303	137011
19,38715	128056
19,39127	117086
19,39540	109656
19,39952	98720
19,40363	89179
19,40775	85827
19,41188	80230
19,41600	78348
19,42012	72115
19,42425	68870
19,42837	65317
19,43248	61747
19,43662	57980
19,44073	57560
19,44485	53383
19,44898	55713
19,45310	53752
19,45722	51203
19,46135	49961
19,46547	44668
19,46958	46391
19,47372	44065
19,47783	44119
19,48195	41126
19,48608	40335
19,49020	39011
19,49432	37607
19,49843	35559
19,50257	35170
19,50668	34716
19,51080	34182
19,51493	34586
19,51905	34227
19,52317	32459
19,52730	32619
19,53142	32325
19,53553	28868
19,53967	30766
19,54378	29992
19,54790	30618
19,55203	30307
19,55615	30210
19,56027	28770
19,56440	29632
19,56852	28665
19,57263	26873
19,57677	28027
19,58088	27083
19,58500	27700
19,58912	26035
19,59325	27407
19,59737	26295
19,60148	28396
19,60562	26136
19,60973	26626
19,61385	26834
19,61798	25735
19,62210	25038
19,62622	25725
19,63035	26157
19,63447	27850
19,63858	26668
19,64272	28450
19,64683	25327
19,65095	27430
19,65508	27126
19,65920	24581
19,66332	24993
19,66745	27541
19,67157	25619
19,67568	24202
19,67980	25475
19,68393	25259
19,68805	24477
19,69217	25742
19,69630	24168
19,70042	24046
19,70453	23970
19,70867	24573
19,71278	23410
19,71690	24299
19,72103	23220
19,72515	24330
19,72927	23916
19,73340	23586
19,73752	24706
19,74163	27422
19,74577	28363
19,74988	35171
19,75400	51502
19,75813	84347
19,76225	142959
19,76637	249196
19,77048	422919
19,77462	703399
19,77873	1095646
19,78285	1595293
19,78698	2214976
19,79110	2866096
19,79522	3569073
19,79935	4172928
19,80347	4726293
19,80758	5070545
19,81172	5174081
19,81583	5058125
19,81995	4671942
19,82408	4103753
19,82820	3491932
19,83232	2910709
19,83645	2374103
19,84057	1927989
19,84468	1575598
19,84882	1298765
19,85293	1076151
19,85705	912147
19,86117	778127
19,86530	674207
19,86942	598329
19,87353	526781
19,87767	472921
19,88178	430664
19,88590	385255
19,89003	357494
19,89415	327201
19,89827	299364
19,90240	277514
19,90652	260191
19,91063	237322
19,91477	224938
19,91888	205513
19,92300	195183
19,92713	185077
19,93125	175077
19,93537	169005
19,93950	156249
19,94362	153404
19,94773	146061
19,95185	134741
19,95598	129247
19,96010	126374
19,96422	118172
19,96835	113070
19,97247	112578
19,97658	105344
19,98072	103486
19,98483	100630
19,98895	93251
19,99308	90385
19,99720	87835
20,00132	90121
20,00545	84558
20,00957	78058
20,01368	77535
20,01782	74430
20,02193	77441
20,02605	70545
20,03018	69356
20,03430	67529
20,03842	68699
20,04253	66987
20,04667	66817
20,05078	68871
20,05490	75410
20,05903	92193
20,06315	117314
20,06727	163865
20,07140	241991
20,07552	361174
20,07963	509516
20,08377	709179
20,08788	901021
20,09200	1104243
20,09613	1289024
20,10025	1385612
20,10437	1405250
20,10850	1383052
20,11262	1271009
20,11673	1154614
20,12087	1025061
20,12498	906347
20,12910	828453
20,13322	796822
20,13735	820836
20,14147	903210
20,14558	1003514
20,14972	1153735
20,15383	1260168
20,15795	1368467
20,16208	1411429
20,16620	1398341
20,17032	1331900
20,17445	1234044
20,17857	1103911
20,18268	973688
20,18682	855805
20,19093	769161
20,19505	728658
20,19918	725478
20,20330	799493
20,20742	935485
20,21155	1131975
20,21567	1346448
20,21978	1583099
20,22390	1812751
20,22803	1961976
20,23215	2013608
20,23627	1972141
20,24040	1830048
20,24452	1646041
20,24863	1430397
20,25277	1225771
20,25688	1023014
20,26100	862604
20,26513	721998
20,26925	618264
20,27337	528099
20,27750	459910
20,28162	407296
20,28573	361286
20,28987	324112
20,29398	297462
20,29810	271881
20,30223	249642
20,30635	227996
20,31047	213727
20,31458	200147
20,31872	187485
20,32283	174147
20,32695	166017
20,33108	155436
20,33520	146338
20,33932	138692
20,34345	132215
20,34757	127710
20,35168	121892
20,35582	118565
20,35993	109682
20,36405	105051
20,36818	100720
20,37230	96796
20,37642	96625
20,38055	87641
20,38467	85259
20,38878	84837
20,39292	85248
20,39703	82004
20,40115	80032
20,40527	79713
20,40940	73538
20,41352	71234
20,41763	70135
20,42177	70703
20,42588	67228
20,43000	66515
20,43413	63616
20,43825	61157
20,44237	64672
20,44650	60362
20,45062	58065
20,45473	60450
20,45887	60310
20,46298	57391
20,46710	57100
20,47123	58167
20,47535	55289
20,47947	55900
20,48360	52860
20,48772	54509
20,49183	50518
20,49595	53342
20,50008	49289
20,50420	48288
20,50832	49146
20,51245	48800
20,51657	50535
20,52068	52785
20,52482	57909
20,52893	67442
20,53305	89055
20,53718	126610
20,54130	194222
20,54542	300628
20,54955	449709
20,55367	670224
20,55778	928597
20,56192	1209827
20,56603	1518734
20,57015	1778678
20,57428	1964082
20,57840	2007013
20,58252	1966959
20,58663	1824834
20,59077	1603481
20,59488	1381565
20,59900	1168680
20,60313	974095
20,60725	817449
20,61137	687865
20,61550	583812
20,61962	503631
20,62373	437216
20,62787	383896
20,63198	343360
20,63610	308335
20,64023	283689
20,64435	255417
20,64847	232554
20,65260	216697
20,65672	204700
20,66083	187656
20,66497	180020
20,66908	163753
20,67320	158971
20,67732	150713
20,68145	143924
20,68557	137317
20,68968	129803
20,69382	126108
20,69793	121026
20,70205	116014
20,70618	112455
20,71030	108943
20,71442	105245
20,71855	101849
20,72267	101197
20,72678	96145
20,73092	92076
20,73503	91996
20,73915	89432
20,74328	80821
20,74740	81251
20,75152	81666
20,75565	77672
20,75977	76931
20,76388	75972
20,76800	76529
20,77213	72563
20,77625	70836
20,78037	70864
20,78450	70876
20,78862	69447
20,79273	68688
20,79687	66884
20,80098	66304
20,80510	65018
20,80923	65194
20,81335	64674
20,81747	61856
20,82160	58790
20,82572	64991
20,82983	60027
20,83397	63629
20,83808	67353
20,84220	79805
20,84633	104012
20,85045	146562
20,85457	217745
20,85868	324991
20,86282	482724
20,86693	685944
20,87105	920556
20,87518	1169849
20,87930	1394299
20,88342	1553760
20,88755	1639991
20,89167	1641335
20,89578	1557258
20,89992	1413628
20,90403	1234383
20,90815	1055110
20,91228	895072
20,91640	752419
20,92052	636484
20,92465	561844
20,92877	503967
20,93288	470969
20,93702	468962
20,94113	517422
20,94525	604335
20,94937	715845
20,95350	846720
20,95762	993466
20,96173	1130907
20,96587	1227736
20,96998	1272148
20,97410	1263976
20,97823	1201862
20,98235	1105673
20,98647	991640
20,99060	873675
20,99472	746460
20,99883	637174
21,00297	531740
21,00708	454160
21,01120	388608
21,01533	336633
21,01945	301025
21,02357	264478
21,02770	232898
21,03182	216073
21,03593	198415
21,04007	181469
21,04418	174615
21,04830	157694
21,05242	147992
21,05655	138261
21,06067	131675
21,06478	128273
21,06892	117411
21,07303	112467
21,07715	109193
21,08128	103241
21,08540	102004
21,08952	94905
21,09365	95077
21,09777	92419
21,10188	85963
21,10602	85349
21,11013	79694
21,11425	81669
21,11838	78759
21,12250	77704
21,12662	75139
21,13075	74147
21,13487	71320
21,13898	71114
21,14310	68931
21,14723	67340
21,15135	64461
21,15547	63750
21,15960	64700
21,16372	65627
21,16783	62502
21,17197	61826
21,17608	60611
21,18020	60538
21,18433	61411
21,18845	59645
21,19257	62360
21,19670	58448
21,20082	58380
21,20493	58746
21,20907	59395
21,21318	54192
21,21730	54231
21,22143	54259
21,22555	52844
21,22967	52570
21,23378	51979
21,23792	53385
21,24203	51268
21,24615	50262
21,25028	51210
21,25440	47140
21,25852	50872
21,26265	52461
21,26677	48573
21,27088	52261
21,27502	58954
21,27913	65629
21,28325	80387
21,28738	110871
21,29150	160403
21,29562	244191
21,29975	384594
21,30387	585759
21,30798	851874
21,31212	1192214
21,31623	1604402
21,32035	2102969
21,32447	2648223
21,32860	3151232
21,33272	3600235
21,33683	3914564
21,34097	3990956
21,34508	3842012
21,34920	3511611
21,35333	3020875
21,35745	2563867
21,36157	2123352
21,36570	1763864
21,36982	1462512
21,37393	1227183
21,37807	1037556
21,38218	891318
21,38630	778750
21,39043	687015
21,39455	615601
21,39867	554032
21,40280	499073
21,40692	452313
21,41103	417736
21,41515	391604
21,41928	364887
21,42340	335236
21,42752	315737
21,43165	294072
21,43577	281053
21,43988	266391
21,44402	251070
21,44813	239623
21,45225	229677
21,45638	217197
21,46050	206598
21,46462	197635
21,46875	191435
21,47287	181916
21,47698	176589
21,48112	168095
21,48523	164005
21,48935	155515
21,49348	152186
21,49760	149203
21,50172	143111
21,50583	143021
21,50997	136432
21,51408	131638
21,51820	128229
21,52233	121383
21,52645	121048
21,53057	114099
21,53470	118300
21,53882	114364
21,54293	109088
21,54707	109021
21,55118	106684
21,55530	105384
21,55943	102717
21,56355	100224
21,56767	97964
21,57180	96953
21,57592	97079
21,58003	91242
21,58417	92114
21,58828	89107
21,59240	88611
21,59652	90487
21,60065	86993
21,60477	84769
21,60888	84239
21,61302	81403
21,61713	82146
21,62125	83195
21,62538	82440
21,62950	81065
21,63362	79602
21,63775	79927
21,64187	79805
21,64598	77195
21,65012	76261
21,65423	77687
21,65835	71650
21,66248	74177
21,66660	72155
21,67072	73837
21,67485	71834
21,67897	73918
21,68308	75206
21,68720	82554
21,69133	95322
21,69545	118027
21,69957	156714
21,70370	215365
21,70782	313455
21,71193	448563
21,71607	627818
21,72018	844911
21,72430	1103565
21,72843	1357242
21,73255	1598842
21,73667	1760074
21,74080	1827550
21,74492	1804499
21,74903	1710051
21,75317	1548612
21,75728	1367759
21,76140	1185353
21,76553	1017173
21,76965	873015
21,77377	745804
21,77788	650663
21,78202	570840
21,78613	496547
21,79025	446698
21,79438	404657
21,79850	364562
21,80262	330857
21,80675	308334
21,81087	282906
21,81498	262121
21,81912	244790
21,82323	231296
21,82735	220630
21,83148	210329
21,83560	197232
21,83972	185404
21,84385	178661
21,84797	173735
21,85208	160673
21,85622	156332
21,86033	151991
21,86445	142329
21,86857	139840
21,87270	136131
21,87682	131937
21,88093	127279
21,88507	125100
21,88918	122662
21,89330	115175
21,89743	114947
21,90155	111410
21,90567	108633
21,90980	106662
21,91392	101262
21,91803	100630
21,92217	99112
21,92628	96247
21,93040	98727
21,93453	96063
21,93865	92691
21,94277	85641
21,94690	87319
21,95102	87960
21,95513	87042
21,95925	85186
21,96338	83751
21,96750	83559
21,97162	83303
21,97575	81301
21,97987	80978
21,98398	77425
21,98812	76914
21,99223	76303
21,99635	77587
22,00048	73380
22,00460	74418
22,00872	75035
22,01285	71413
22,01697	74930
22,02108	72084
22,02522	68494
22,02933	66289
22,03345	71669
22,03758	69544
22,04170	68644
22,04582	68743
22,04993	69475
22,05407	71724
22,05818	67400
22,06230	67855
22,06643	70368
22,07055	67908
22,07467	69327
22,07880	65040
22,08292	66364
22,08703	66424
22,09117	64456
22,09528	67309
22,09940	66888
22,10353	67605
22,10765	75260
22,11177	82481
22,11590	87938
22,12002	96584
22,12413	101224
22,12827	110357
22,13238	118853
22,13650	125045
22,14062	130722
22,14475	128523
22,14887	124424
22,15298	123160
22,15712	115850
22,16123	111143
22,16535	105119
22,16948	93776
22,17360	89789
22,17772	86017
22,18185	78612
22,18597	76213
22,19008	69126
22,19422	65425
22,19833	64366
22,20245	64532
22,20658	63664
22,21070	59080
22,21482	60248
22,21895	60111
22,22307	60607
22,22718	58233
22,23130	55235
22,23543	58884
22,23955	58040
22,24367	56156
22,24780	57045
22,25192	51963
22,25603	54258
22,26017	51680
22,26428	57589
22,26840	52212
22,27253	56226
22,27665	54776
22,28077	51604
22,28490	53291
22,28902	52081
22,29313	53074
22,29727	53829
22,30138	56233
22,30550	53801
22,30963	51601
22,31375	54035
22,31787	50554
22,32198	55880
22,32612	49284
22,33023	55966
22,33435	49853
22,33848	52862
22,34260	51472
22,34672	50253
22,35085	51151
22,35497	49635
22,35908	48233
22,36322	47938
22,36733	48928
22,37145	48251
22,37558	47406
22,37970	52646
22,38382	48742
22,38795	48867
22,39207	50250
22,39618	48890
22,40032	46794
22,40443	48508
22,40855	48786
22,41267	48865
22,41680	49538
22,42092	48924
22,42503	48362
22,42917	49323
22,43328	46958
22,43740	46791
22,44153	50432
22,44565	48329
22,44977	48057
22,45390	47763
22,45802	48741
22,46213	47381
22,46627	49091
22,47038	50730
22,47450	48555
22,47863	50077
22,48275	47663
22,48687	49879
22,49100	49073
22,49512	50271
22,49923	52151
22,50335	50886
22,50748	45242
22,51160	48596
22,51572	48002
22,51985	48449
22,52397	48665
22,52808	47566
22,53222	46808
22,53633	48126
22,54045	48249
22,54458	45832
22,54870	48138
22,55282	46625
22,55695	48009
22,56107	47742
22,56518	49728
22,56932	46501
22,57343	46440
22,57755	49543
22,58168	48831
22,58580	44427
22,58992	48404
22,59405	48811
22,59817	48915
22,60228	46243
22,60640	47735
22,61053	49061
22,61465	49573
22,61877	46898
22,62290	44061
22,62702	47706
22,63113	47008
22,63527	47160
22,63938	47565
22,64350	44108
22,64763	44526
22,65175	46979
22,65587	47712
22,66000	45904
22,66412	44591
22,66823	44893
22,67237	46894
22,67648	49450
22,68060	45961
22,68473	46295
22,68885	43270
22,69297	45455
22,69708	46992
22,70122	46385
22,70533	45316
22,70945	44856
22,71358	45318
22,71770	44024
22,72182	43514
22,72595	46706
22,73007	43541
22,73418	48701
22,73832	44959
22,74243	46857
22,74655	45059
22,75068	44696
22,75480	44311
22,75892	45826
22,76305	46672
22,76717	45867
22,77128	46033
22,77542	41932
22,77953	47436
22,78365	46562
22,78777	42447
22,79190	45363
22,79602	45064
22,80013	47711
22,80427	43451
22,80838	46092
22,81250	44760
22,81663	45632
22,82075	43875
22,82487	45558
22,82900	45564
22,83312	44454
22,83723	45795
22,84137	48172
22,84548	44546
22,84960	46282
22,85373	46109
22,85785	47168
22,86197	45584
22,86610	46268
22,87022	50012
22,87433	52753
22,87845	54901
22,88258	59018
22,88670	73773
22,89082	91784
22,89495	122161
22,89907	161948
22,90318	220332
22,90732	297870
22,91143	390598
22,91555	495028
22,91968	605442
22,92380	695705
22,92792	782583
22,93205	851358
22,93617	875424
22,94028	873728
22,94442	847427
22,94853	791345
22,95265	739063
22,95678	664984
22,96090	590124
22,96502	528772
22,96913	460131
22,97327	404089
22,97738	356562
22,98150	318492
22,98563	287128
22,98975	257888
22,99387	232657
22,99800	210203
23,00212	194837
23,00623	176234
23,01037	167063
23,01448	156085
23,01860	144973
23,02273	141019
23,02685	135487
23,03097	124064
23,03510	117801
23,03922	111381
23,04333	112944
23,04747	104321
23,05158	100960
23,05570	100142
23,05982	94330
23,06395	90498
23,06807	89886
23,07218	87639
23,07632	86817
23,08043	80185
23,08455	79173
23,08868	79081
23,09280	76147
23,09692	75605
23,10105	76889
23,10517	74293
23,10928	69905
23,11342	74191
23,11753	70996
23,12165	68345
23,12578	66278
23,12990	65512
23,13402	67373
23,13815	65156
23,14227	62618
23,14638	64932
23,15050	63144
23,15463	60079
23,15875	60761
23,16287	60053
23,16700	61700
23,17112	60111
23,17523	60224
23,17937	57885
23,18348	57498
23,18760	59777
23,19173	58308
23,19585	59917
23,19997	56585
23,20410	58194
23,20822	55823
23,21233	55363
23,21647	55599
23,22058	54832
23,22470	55499
23,22883	54937
23,23295	53499
23,23707	54399
23,24118	54496
23,24532	54171
23,24943	52970
23,25355	54025
23,25768	55634
23,26180	52454
23,26592	51234
23,27005	51182
23,27417	52052
23,27828	54591
23,28242	53240
23,28653	53406
23,29065	52089
23,29478	51315
23,29890	51563
23,30302	50612
23,30715	50429
23,31127	49755
23,31538	52019
23,31952	51792
23,32363	52550
23,32775	50719
23,33187	50169
23,33600	51511
23,34012	49600
23,34423	50980
23,34837	51986
23,35248	52395
23,35660	51238
23,36073	52970
23,36485	48121
23,36897	53516
23,37310	50021
23,37722	50817
23,38133	49669
23,38547	49514
23,38958	50649
23,39370	51371
23,39783	48561
23,40195	51763
23,40607	48919
23,41020	51999
23,41432	49950
23,41843	50597
23,42255	48816
23,42668	48772
23,43080	50805
23,43492	49209
23,43905	49533
23,44317	48211
23,44728	50074
23,45142	50078
23,45553	46515
23,45965	49229
23,46378	50147
23,46790	45864
23,47202	46942
23,47615	48458
23,48027	46775
23,48438	48309
23,48852	47880
23,49263	47436
23,49675	48759
