D:\MassHunter\GCMS\1\data\Amal\Constant flow\100C\100C_1ml-min_6C-min_2.D Wed Sep 04 19:53:31 2024
Start of data points
5,59088	309119
5,59500	300248
5,59912	290100
5,60325	276333
5,60737	266792
5,61148	256474
5,61562	246559
5,61973	234503
5,62385	227716
5,62798	214970
5,63210	209493
5,63622	199020
5,64035	190185
5,64447	189776
5,64858	176478
5,65272	173443
5,65683	166428
5,66095	161286
5,66507	154485
5,66920	150235
5,67332	143771
5,67743	139737
5,68157	137200
5,68568	135075
5,68980	134200
5,69393	128754
5,69805	125856
5,70217	122030
5,70630	121166
5,71042	118664
5,71453	116546
5,71867	115213
5,72278	110659
5,72690	111678
5,73103	109087
5,73515	106651
5,73927	104952
5,74340	108209
5,74752	105600
5,75163	102589
5,75575	102588
5,75988	101451
5,76400	102485
5,76812	97888
5,77225	97416
5,77637	96477
5,78048	95245
5,78462	96049
5,78873	95377
5,79285	95113
5,79698	94138
5,80110	96341
5,80522	90912
5,80935	93342
5,81347	90188
5,81758	91044
5,82172	90878
5,82583	89073
5,82995	87958
5,83408	89432
5,83820	91474
5,84232	90950
5,84643	93724
5,85057	90533
5,85468	88906
5,85880	88121
5,86293	90648
5,86705	87721
5,87117	87145
5,87530	85229
5,87942	89271
5,88353	88622
5,88767	87490
5,89178	84344
5,89590	84912
5,90003	83693
5,90415	84745
5,90827	81500
5,91240	81720
5,91652	84557
5,92063	86841
5,92477	82514
5,92888	82413
5,93300	81943
5,93712	81461
5,94125	84603
5,94537	84483
5,94948	80111
5,95362	82042
5,95773	78755
5,96185	81005
5,96598	78976
5,97010	79819
5,97422	78632
5,97835	78020
5,98247	76336
5,98658	76191
5,99072	76343
5,99483	76647
5,99895	75525
6,00308	74863
6,00720	75602
6,01132	74751
6,01545	77251
6,01957	75355
6,02368	74773
6,02780	76591
6,03193	74259
6,03605	76118
6,04017	73192
6,04430	74854
6,04842	76200
6,05253	75874
6,05667	73811
6,06078	72780
6,06490	72685
6,06903	72955
6,07315	74176
6,07727	74505
6,08140	74663
6,08552	72059
6,08963	72403
6,09377	73382
6,09788	76639
6,10200	72688
6,10613	75478
6,11025	75330
6,11437	75867
6,11848	74239
6,12262	71789
6,12673	73125
6,13085	71455
6,13498	71888
6,13910	72851
6,14322	71811
6,14735	70258
6,15147	71658
6,15558	73052
6,15972	72301
6,16383	72102
6,16795	70520
6,17208	71066
6,17620	68772
6,18032	69816
6,18445	69824
6,18857	71123
6,19268	68470
6,19682	70470
6,20093	68781
6,20505	67216
6,20917	69305
6,21330	70245
6,21742	71060
6,22153	68206
6,22567	67754
6,22978	65625
6,23390	67369
6,23803	70350
6,24215	67256
6,24627	66917
6,25040	66799
6,25452	67756
6,25863	67747
6,26277	64805
6,26688	64955
6,27100	65126
6,27513	65118
6,27925	65771
6,28337	64942
6,28750	62933
6,29162	65567
6,29573	65942
6,29987	67051
6,30398	68674
6,30810	67527
6,31222	66674
6,31635	69961
6,32047	72046
6,32458	71485
6,32872	71332
6,33283	70198
6,33695	70331
6,34108	69207
6,34520	67541
6,34932	69763
6,35345	68465
6,35757	70081
6,36168	70216
6,36582	71858
6,36993	72115
6,37405	70793
6,37818	72218
6,38230	73780
6,38642	76633
6,39055	73882
6,39467	77360
6,39878	74663
6,40290	77255
6,40703	76345
6,41115	75954
6,41527	77574
6,41940	76498
6,42352	76628
6,42763	74305
6,43177	76176
6,43588	76798
6,44000	78769
6,44413	78604
6,44825	75591
6,45237	75763
6,45650	77334
6,46062	73512
6,46473	71771
6,46887	73720
6,47298	72048
6,47710	72470
6,48123	68889
6,48535	69798
6,48947	69656
6,49358	68197
6,49772	66911
6,50183	65161
6,50595	66893
6,51008	66601
6,51420	65625
6,51832	64088
6,52245	67323
6,52657	65326
6,53068	63780
6,53482	61685
6,53893	62071
6,54305	63682
6,54718	62588
6,55130	64458
6,55542	58933
6,55955	58725
6,56367	61951
6,56778	57925
6,57192	60925
6,57603	58793
6,58015	57174
6,58427	56570
6,58840	57072
6,59252	55876
6,59663	55467
6,60077	53451
6,60488	56427
6,60900	55902
6,61313	54616
6,61725	53826
6,62137	54363
6,62550	54354
6,62962	52932
6,63373	54970
6,63787	54249
6,64198	54209
6,64610	52907
6,65023	53841
6,65435	51915
6,65847	51594
6,66260	52761
6,66672	51975
6,67083	52744
6,67495	50911
6,67908	52712
6,68320	49208
6,68732	51177
6,69145	53061
6,69557	50203
6,69968	53072
6,70382	60003
6,70793	70902
6,71205	91314
6,71618	125995
6,72030	175992
6,72442	258172
6,72855	357299
6,73267	487224
6,73678	627782
6,74092	762428
6,74503	888717
6,74915	1006476
6,75328	1066810
6,75740	1112658
6,76152	1118576
6,76563	1127599
6,76977	1102129
6,77388	1066541
6,77800	1022327
6,78213	974353
6,78625	925010
6,79037	883704
6,79450	829236
6,79862	776680
6,80273	730886
6,80687	682225
6,81098	643062
6,81510	605257
6,81923	565938
6,82335	526580
6,82747	489179
6,83160	457739
6,83572	423701
6,83983	391830
6,84397	367660
6,84808	333497
6,85220	310854
6,85632	280238
6,86045	252626
6,86457	237761
6,86868	216579
6,87282	197238
6,87693	181868
6,88105	166796
6,88518	151146
6,88930	138828
6,89342	131885
6,89755	121546
6,90167	114334
6,90578	106054
6,90992	99939
6,91403	94481
6,91815	88784
6,92228	83590
6,92640	82963
6,93052	76220
6,93465	74073
6,93877	71017
6,94288	68096
6,94700	64220
6,95113	62714
6,95525	61189
6,95937	61611
6,96350	58332
6,96762	58660
6,97173	57150
6,97587	56207
6,97998	55342
6,98410	55257
6,98823	54951
6,99235	52084
6,99647	53265
7,00060	53033
7,00472	50549
7,00883	50404
7,01297	48929
7,01708	49180
7,02120	48570
7,02533	46432
7,02945	49321
7,03357	44436
7,03768	45143
7,04182	49258
7,04593	46143
7,05005	44693
7,05418	45541
7,05830	44762
7,06242	45156
7,06655	43675
7,07067	44440
7,07478	43177
7,07892	43226
7,08303	44518
7,08715	43753
7,09128	45106
7,09540	43032
7,09952	41614
7,10365	42633
7,10777	42796
7,11188	43608
7,11602	43448
7,12013	42155
7,12425	42258
7,12837	44170
7,13250	41270
7,13662	42349
7,14073	39168
7,14487	39318
7,14898	39815
7,15310	40451
7,15723	39653
7,16135	40905
7,16547	38885
7,16960	41073
7,17372	39627
7,17783	39968
7,18197	40654
7,18608	38518
7,19020	40964
7,19433	39583
7,19845	40571
7,20257	39534
7,20670	39730
7,21082	38679
7,21493	40014
7,21905	38502
7,22318	38573
7,22730	38532
7,23142	39207
7,23555	37280
7,23967	37985
7,24378	37080
7,24792	38422
7,25203	39155
7,25615	37178
7,26028	37870
7,26440	37491
7,26852	36968
7,27265	38381
7,27677	36338
7,28088	37002
7,28502	35396
7,28913	34928
7,29325	36889
7,29738	37079
7,30150	36755
7,30562	37905
7,30973	36589
7,31387	36500
7,31798	37466
7,32210	35332
7,32623	35048
7,33035	34114
7,33447	35833
7,33860	36686
7,34272	36426
7,34683	35799
7,35097	36466
7,35508	35981
7,35920	35653
7,36333	34774
7,36745	35661
7,37157	35552
7,37570	35649
7,37982	37141
7,38393	34241
7,38807	36008
7,39218	36228
7,39630	37113
7,40042	36838
7,40455	38032
7,40867	35647
7,41278	36086
7,41692	36167
7,42103	38117
7,42515	35352
7,42928	38219
7,43340	36258
7,43752	37554
7,44165	37185
7,44577	35996
7,44988	36947
7,45402	34631
7,45813	36154
7,46225	35135
7,46638	35639
7,47050	34748
7,47462	34296
7,47875	36589
7,48287	33614
7,48698	34887
7,49110	34426
7,49523	35282
7,49935	32938
7,50347	34832
7,50760	33129
7,51172	32543
7,51583	33283
7,51997	33644
7,52408	33158
7,52820	34088
7,53233	32920
7,53645	32949
7,54057	31703
7,54470	32272
7,54882	32925
7,55293	32118
7,55707	32210
7,56118	33107
7,56530	32520
7,56943	32055
7,57355	30553
7,57767	33474
7,58178	31482
7,58592	31963
7,59003	31866
7,59415	32421
7,59828	30801
7,60240	31738
7,60652	31549
7,61065	31367
7,61477	31897
7,61888	31359
7,62302	31751
7,62713	31896
7,63125	32044
7,63538	31179
7,63950	33253
7,64362	32237
7,64775	33074
7,65187	32483
7,65598	32208
7,66012	32470
7,66423	33483
7,66835	31752
7,67247	30901
7,67660	30641
7,68072	31100
7,68483	32398
7,68897	30457
7,69308	30552
7,69720	29550
7,70133	31279
7,70545	32094
7,70957	29927
7,71370	29192
7,71782	31758
7,72193	29579
7,72607	31942
7,73018	29104
7,73430	30489
7,73843	29995
7,74255	29531
7,74667	30208
7,75080	32007
7,75492	29607
7,75903	28373
7,76315	30115
7,76728	30083
7,77140	30257
7,77552	30930
7,77965	31187
7,78377	30952
7,78788	29274
7,79202	31500
7,79613	30189
7,80025	31438
7,80438	30154
7,80850	31333
7,81262	30977
7,81675	31289
7,82087	32749
7,82498	33099
7,82912	32588
7,83323	32198
7,83735	32092
7,84148	34561
7,84560	33548
7,84972	32578
7,85383	32106
7,85797	31455
7,86208	32024
7,86620	31921
7,87033	32690
7,87445	32031
7,87857	32088
7,88270	32267
7,88682	31248
7,89093	30919
7,89507	30752
7,89918	28925
7,90330	31495
7,90743	30747
7,91155	30441
7,91567	28200
7,91980	28882
7,92392	29966
7,92803	29003
7,93217	29272
7,93628	28813
7,94040	27128
7,94452	28023
7,94865	29059
7,95277	27944
7,95688	29628
7,96102	27481
7,96513	26015
7,96925	28085
7,97338	25620
7,97750	27351
7,98162	26912
7,98575	28039
7,98987	27463
7,99398	28696
7,99812	26946
8,00223	26269
8,00635	27171
8,01048	27508
8,01460	26321
8,01872	26750
8,02285	26212
8,02697	26129
8,03108	25811
8,03522	26602
8,03933	26549
8,04345	26643
8,04757	26632
8,05170	27256
8,05582	28320
8,05993	25588
8,06407	24623
8,06818	25751
8,07230	26597
8,07643	25363
8,08055	26685
8,08467	26856
8,08880	27005
8,09292	24886
8,09703	24606
8,10117	26430
8,10528	25984
8,10940	25667
8,11353	25730
8,11765	24322
8,12177	24306
8,12590	24318
8,13002	26177
8,13413	26468
8,13825	26511
8,14238	24225
8,14650	25168
8,15062	25596
8,15475	25179
8,15887	24903
8,16298	26122
8,16712	23968
8,17123	24911
8,17535	24802
8,17948	25432
8,18360	24594
8,18772	24542
8,19185	25485
8,19597	24294
8,20008	25630
8,20422	25680
8,20833	24102
8,21245	24409
8,21658	25346
8,22070	23636
8,22482	24770
8,22893	24389
8,23307	24727
8,23718	25084
8,24130	24239
8,24543	23795
8,24955	24892
8,25367	24947
8,25780	25261
8,26192	23858
8,26603	23259
8,27017	24441
8,27428	24197
8,27840	24173
8,28253	23657
8,28665	24501
8,29077	23353
8,29490	23419
8,29902	24637
8,30313	23368
8,30727	23888
8,31138	23602
8,31550	22401
8,31962	24797
8,32375	24883
8,32787	24157
8,33198	23577
8,33612	22267
8,34023	23374
8,34435	23003
8,34848	22709
8,35260	23524
8,35672	24694
8,36085	23275
8,36497	25581
8,36908	23287
8,37322	24048
8,37733	22365
8,38145	23246
8,38558	22478
8,38970	24978
8,39382	23750
8,39795	23876
8,40207	23595
8,40618	24157
8,41030	25104
8,41443	25138
8,41855	25439
8,42267	23987
8,42680	25983
8,43092	25228
8,43503	25957
8,43917	23278
8,44328	23728
8,44740	22347
8,45153	25097
8,45565	23925
8,45977	23756
8,46390	24002
8,46802	23581
8,47213	24364
8,47627	23994
8,48038	24999
8,48450	24174
8,48863	21421
8,49275	22897
8,49687	23444
8,50098	22861
8,50512	22334
8,50923	22896
8,51335	22825
8,51748	22463
8,52160	22749
8,52572	21865
8,52985	21805
8,53397	21670
8,53808	21914
8,54222	22856
8,54633	21974
8,55045	22267
8,55458	22898
8,55870	20671
8,56282	21978
8,56695	22484
8,57107	21393
8,57518	23600
8,57932	19877
8,58343	22343
8,58755	22173
8,59167	19650
8,59580	20761
8,59992	22629
8,60403	21411
8,60817	22219
8,61228	22898
8,61640	22224
8,62053	21412
8,62465	23372
8,62877	24945
8,63290	29522
8,63702	38042
8,64113	55694
8,64527	82372
8,64938	126735
8,65350	195707
8,65763	292580
8,66175	424655
8,66587	588186
8,67000	774864
8,67412	964265
8,67823	1167787
8,68235	1346369
8,68648	1480614
8,69060	1587881
8,69472	1636497
8,69885	1658819
8,70297	1636676
8,70708	1582265
8,71122	1494251
8,71533	1427053
8,71945	1308461
8,72358	1193480
8,72770	1083244
8,73182	973308
8,73595	875114
8,74007	774918
8,74418	688898
8,74832	594684
8,75243	523332
8,75655	454611
8,76068	398168
8,76480	348767
8,76892	297288
8,77303	262657
8,77717	231431
8,78128	204798
8,78540	181915
8,78953	161914
8,79365	143721
8,79777	126974
8,80190	117933
8,80602	104816
8,81013	98920
8,81427	88678
8,81838	84579
8,82250	80038
8,82663	74198
8,83075	68747
8,83487	64204
8,83900	61880
8,84312	58448
8,84723	55548
8,85137	52598
8,85548	50638
8,85960	48469
8,86372	47156
8,86785	47805
8,87197	42790
8,87608	42668
8,88022	41999
8,88433	40348
8,88845	38103
8,89258	37621
8,89670	36511
8,90082	36815
8,90495	35667
8,90907	35019
8,91318	34085
8,91732	33292
8,92143	32693
8,92555	31016
8,92968	31311
8,93380	29852
8,93792	30938
8,94205	31147
8,94617	29852
8,95028	28206
8,95440	28828
8,95853	28810
8,96265	29421
8,96677	27875
8,97090	28219
8,97502	27037
8,97913	26604
8,98327	25608
8,98738	25550
8,99150	25292
8,99563	25344
8,99975	26720
9,00387	25725
9,00800	25901
9,01212	25426
9,01623	24410
9,02037	24989
9,02448	22553
9,02860	24758
9,03273	23472
9,03685	24379
9,04097	24572
9,04508	25048
9,04922	24336
9,05333	24728
9,05745	24775
9,06158	25058
9,06570	24063
9,06982	24241
9,07395	24644
9,07807	24793
9,08218	24052
9,08632	24654
9,09043	24108
9,09455	24166
9,09868	22794
9,10280	24006
9,10692	22449
9,11105	22767
9,11517	23183
9,11928	21788
9,12342	22607
9,12753	22725
9,13165	22585
9,13577	21918
9,13990	23452
9,14402	21977
9,14813	22692
9,15227	19588
9,15638	20428
9,16050	20359
9,16463	21303
9,16875	22814
9,17287	21938
9,17700	21251
9,18112	21068
9,18523	20739
9,18937	21378
9,19348	21106
9,19760	21455
9,20173	20467
9,20585	21624
9,20997	21087
9,21410	20935
9,21822	21601
9,22233	22127
9,22645	21737
9,23058	21845
9,23470	20559
9,23882	20748
9,24295	19977
9,24707	20229
9,25118	20330
9,25532	20821
9,25943	21412
9,26355	20750
9,26768	19124
9,27180	20493
9,27592	19581
9,28005	18814
9,28417	19654
9,28828	19624
9,29242	18594
9,29653	19917
9,30065	19245
9,30478	19780
9,30890	19419
9,31302	19263
9,31713	19154
9,32127	19751
9,32538	19827
9,32950	19948
9,33363	18955
9,33775	17819
9,34187	20115
9,34600	19657
9,35012	19560
9,35423	19007
9,35837	19253
9,36248	20501
9,36660	20151
9,37073	20637
9,37485	18890
9,37897	21111
9,38310	18019
9,38722	18286
9,39133	18050
9,39547	18035
9,39958	18546
9,40370	19524
9,40782	17750
9,41195	18203
9,41607	18911
9,42018	19053
9,42432	18587
9,42843	17189
9,43255	19806
9,43668	17556
9,44080	17725
9,44492	17253
9,44905	17885
9,45317	18978
9,45728	16889
9,46142	19322
9,46553	18018
9,46965	18021
9,47378	17874
9,47790	16949
9,48202	20439
9,48615	17418
9,49027	18565
9,49438	18643
9,49850	20014
9,50263	17653
9,50675	16953
9,51087	19455
9,51500	18350
9,51912	18432
9,52323	18989
9,52737	18721
9,53148	18950
9,53560	20169
9,53973	18200
9,54385	18587
9,54797	21072
9,55210	17783
9,55622	17520
9,56033	20222
9,56447	19010
9,56858	20800
9,57270	19465
9,57683	19971
9,58095	20037
9,58507	19548
9,58920	19939
9,59332	19415
9,59743	18989
9,60155	18847
9,60568	18643
9,60980	18217
9,61392	17625
9,61805	17515
9,62217	17418
9,62628	17761
9,63042	17037
9,63453	16696
9,63865	18358
9,64278	17588
9,64690	17718
9,65102	17678
9,65515	18600
9,65927	16702
9,66338	17719
9,66752	17406
9,67163	17050
9,67575	16462
9,67988	17455
9,68400	16330
9,68812	16489
9,69223	15323
9,69637	15986
9,70048	16204
9,70460	17852
9,70873	16806
9,71285	15783
9,71697	15476
9,72110	17289
9,72522	15205
9,72933	16970
9,73347	16475
9,73758	15297
9,74170	16691
9,74583	15974
9,74995	16176
9,75407	17337
9,75820	16361
9,76232	15939
9,76643	15699
9,77057	17211
9,77468	16846
9,77880	18854
9,78292	21952
9,78705	26725
9,79117	35000
9,79528	46035
9,79942	72765
9,80353	109617
9,80765	163387
9,81178	239086
9,81590	330227
9,82002	433242
9,82415	552321
9,82827	667767
9,83238	779308
9,83652	879140
9,84063	929394
9,84475	970767
9,84888	979252
9,85300	957105
9,85712	919903
9,86125	854249
9,86537	802305
9,86948	714431
9,87360	630259
9,87773	562545
9,88185	487095
9,88597	419969
9,89010	357864
9,89422	307444
9,89833	261441
9,90247	230584
9,90658	194792
9,91070	170183
9,91483	143910
9,91895	126125
9,92307	115102
9,92720	101238
9,93132	90564
9,93543	81320
9,93957	73548
9,94368	69663
9,94780	66353
9,95193	59815
9,95605	54180
9,96017	52816
9,96428	51154
9,96842	47560
9,97253	44891
9,97665	43765
9,98078	39950
9,98490	40071
9,98902	38278
9,99315	36027
9,99727	33948
10,00138	33534
10,00552	32836
10,00963	33872
10,01375	31451
10,01788	31037
10,02200	29771
10,02612	28947
10,03025	28515
10,03437	27016
10,03848	27135
10,04262	26068
10,04673	25256
10,05085	26200
10,05497	23335
10,05910	24162
10,06322	24673
10,06733	23677
10,07147	23566
10,07558	21964
10,07970	22798
10,08383	21837
10,08795	21544
10,09207	20349
10,09620	22107
10,10032	21219
10,10443	20275
10,10857	20370
10,11268	21099
10,11680	19214
10,12093	20308
10,12505	20641
10,12917	18354
10,13330	18194
10,13742	18212
10,14153	18299
10,14565	18164
10,14978	17620
10,15390	17930
10,15802	17714
10,16215	17098
10,16627	17862
10,17038	18652
10,17452	16297
10,17863	17214
10,18275	17340
10,18688	18606
10,19100	17195
10,19512	18087
10,19925	17036
10,20337	16322
10,20748	17455
10,21162	17410
10,21573	17460
10,21985	15770
10,22398	16667
10,22810	16116
10,23222	15370
10,23633	16145
10,24047	16303
10,24458	15042
10,24870	16480
10,25283	16644
10,25695	15918
10,26107	16468
10,26520	17508
10,26932	15717
10,27343	17137
10,27757	18596
10,28168	18601
10,28580	20363
10,28993	19298
10,29405	20411
10,29817	21180
10,30230	19768
10,30642	21621
10,31053	19986
10,31467	19881
10,31878	20855
10,32290	19335
10,32702	18627
10,33115	17596
10,33527	18728
10,33938	16813
10,34352	16670
10,34763	16527
10,35175	15864
10,35588	15389
10,36000	15727
10,36412	16215
10,36825	15737
10,37237	15844
10,37648	15553
10,38062	15329
10,38473	14814
10,38885	15946
10,39298	14808
10,39710	15376
10,40122	14595
10,40535	15082
10,40947	15382
10,41358	14721
10,41770	15115
10,42183	13948
10,42595	15858
10,43007	14888
10,43420	15177
10,43832	13870
10,44243	14117
10,44657	14415
10,45068	14420
10,45480	14824
10,45893	13567
10,46305	14273
10,46717	14498
10,47130	14485
10,47542	13891
10,47953	15159
10,48367	12912
10,48778	13892
10,49190	14488
10,49603	14946
10,50015	14100
10,50427	14067
10,50838	15152
10,51252	13587
10,51663	14409
10,52075	14504
10,52488	13117
10,52900	13812
10,53312	13061
10,53725	13257
10,54137	13194
10,54548	13252
10,54962	14109
10,55373	15201
10,55785	15024
10,56198	14505
10,56610	14184
10,57022	13112
10,57435	13859
10,57847	15615
10,58258	15367
10,58672	14008
10,59083	13702
10,59495	14633
10,59907	14448
10,60320	13803
10,60732	14085
10,61143	13929
10,61557	14773
10,61968	14966
10,62380	13726
10,62793	12716
10,63205	12675
10,63617	12715
10,64030	14091
10,64442	13124
10,64853	14077
10,65267	12735
10,65678	12321
10,66090	13732
10,66503	13425
10,66915	13549
10,67327	13048
10,67740	13349
10,68152	14148
10,68563	12595
10,68975	13373
10,69388	14381
10,69800	13991
10,70212	13259
10,70625	13683
10,71037	13186
10,71448	13754
10,71862	13612
10,72273	12735
10,72685	13733
10,73098	13504
10,73510	12407
10,73922	14254
10,74335	12933
10,74747	13837
10,75158	12916
10,75572	13937
10,75983	14010
10,76395	12541
10,76808	14220
10,77220	15055
10,77632	13345
10,78043	13791
10,78457	15239
10,78868	14239
10,79280	15010
10,79693	13560
10,80105	14277
10,80517	14928
10,80930	14155
10,81342	15029
10,81753	14896
10,82167	14799
10,82578	14605
10,82990	12995
10,83403	13657
10,83815	14283
10,84227	13677
10,84640	13889
10,85052	13793
10,85463	13754
10,85877	13445
10,86288	13722
10,86700	15133
10,87112	14527
10,87525	13753
10,87937	14826
10,88348	14346
10,88762	13498
10,89173	14656
10,89585	14375
10,89998	14031
10,90410	13573
10,90822	13232
10,91235	13138
10,91647	13690
10,92058	13293
10,92472	13751
10,92883	12965
10,93295	12810
10,93708	12993
10,94120	14076
10,94532	13849
10,94945	12413
10,95357	12630
10,95768	13002
10,96180	13193
10,96593	12655
10,97005	13397
10,97417	13796
10,97830	12784
10,98242	13328
10,98653	13965
10,99067	16687
10,99478	19126
10,99890	28099
11,00303	44960
11,00715	71957
11,01127	115362
11,01540	189807
11,01952	304348
11,02363	453255
11,02777	655566
11,03188	906004
11,03600	1177663
11,04013	1449464
11,04425	1733688
11,04837	1958813
11,05248	2122921
11,05662	2231293
11,06073	2264621
11,06485	2227442
11,06898	2130041
11,07310	1953518
11,07722	1755550
11,08135	1559519
11,08547	1352389
11,08958	1149675
11,09372	961875
11,09783	792661
11,10195	662440
11,10608	557191
11,11020	471241
11,11432	394088
11,11845	329397
11,12257	287907
11,12668	248552
11,13082	218570
11,13493	188323
11,13905	166879
11,14317	148122
11,14730	133927
11,15142	122706
11,15553	110993
11,15967	103973
11,16378	96684
11,16790	87541
11,17203	78373
11,17615	74643
11,18027	71131
11,18440	66947
11,18852	62426
11,19263	60401
11,19677	54390
11,20088	52756
11,20500	51686
11,20913	48596
11,21325	46613
11,21737	43635
11,22150	41564
11,22562	41782
11,22973	40171
11,23387	36241
11,23798	38279
11,24210	33759
11,24622	35812
11,25035	34015
11,25447	31385
11,25858	30315
11,26272	30634
11,26683	30272
11,27095	28611
11,27508	30195
11,27920	27428
11,28332	25827
11,28745	26378
11,29157	24528
11,29568	25653
11,29982	23213
11,30393	26106
11,30805	22594
11,31218	23027
11,31630	21779
11,32042	23659
11,32455	22013
11,32867	21071
11,33278	21180
11,33690	19650
11,34103	20854
11,34515	20706
11,34927	19066
11,35340	19049
11,35752	19775
11,36163	19176
11,36577	19218
11,36988	17910
11,37400	18272
11,37813	19053
11,38225	18728
11,38637	19167
11,39050	18379
11,39462	17897
11,39873	15886
11,40287	15860
11,40698	18176
11,41110	16754
11,41523	17053
11,41935	16899
11,42347	16282
11,42758	16209
11,43172	15629
11,43583	15373
11,43995	14489
11,44408	14383
11,44820	16832
11,45232	15194
11,45645	14320
11,46057	14880
11,46468	15954
11,46882	16492
11,47293	14367
11,47705	14255
11,48118	13339
11,48530	15670
11,48942	14841
11,49355	14348
11,49767	15251
11,50178	14415
11,50592	14953
11,51003	14156
11,51415	14915
11,51827	13625
11,52240	14537
11,52652	15025
11,53063	14164
11,53477	14281
11,53888	14147
11,54300	14527
11,54713	13613
11,55125	13833
11,55537	13422
11,55950	14542
11,56362	13940
11,56773	13933
11,57187	12874
11,57598	12089
11,58010	12432
11,58423	13332
11,58835	13148
11,59247	13960
11,59660	12333
11,60072	12413
11,60483	12421
11,60895	13021
11,61308	14033
11,61720	13442
11,62132	13237
11,62545	12568
11,62957	12940
11,63368	13501
11,63782	13605
11,64193	13322
11,64605	15024
11,65018	13205
11,65430	13447
11,65842	13487
11,66255	13467
11,66667	14585
11,67078	14747
11,67492	15228
11,67903	14976
11,68315	16502
11,68728	17592
11,69140	16228
11,69552	16676
11,69963	17758
11,70377	19070
11,70788	18963
11,71200	19302
11,71613	19657
11,72025	18449
11,72437	19411
11,72850	16943
11,73262	19026
11,73673	16933
11,74087	16014
11,74498	16200
11,74910	16268
11,75323	15259
11,75735	16560
11,76147	13911
11,76560	14123
11,76972	14950
11,77383	14858
11,77797	13223
11,78208	13134
11,78620	11910
11,79032	12777
11,79445	13409
11,79857	11830
11,80268	12646
11,80682	13147
11,81093	12840
11,81505	11862
11,81918	11408
11,82330	11441
11,82742	12197
11,83155	13357
11,83567	12167
11,83978	12865
11,84392	11310
11,84803	11322
11,85215	11003
11,85628	11081
11,86040	10733
11,86452	12366
11,86865	11950
11,87277	11196
11,87688	12672
11,88100	12354
11,88513	11767
11,88925	11526
11,89337	11578
11,89750	11876
11,90162	10483
11,90573	11576
11,90987	11709
11,91398	11374
11,91810	10883
11,92223	12739
11,92635	11896
11,93047	11710
11,93460	11538
11,93872	11722
11,94283	11300
11,94697	10719
11,95108	9880
11,95520	10748
11,95933	10754
11,96345	11724
11,96757	10485
11,97168	10773
11,97582	12467
11,97993	11445
11,98405	11073
11,98818	10633
11,99230	11170
11,99642	9895
12,00055	10540
12,00467	11705
12,00878	10928
12,01292	10278
12,01703	10614
12,02115	11024
12,02528	11507
12,02940	9487
12,03352	10319
12,03765	11408
12,04177	10492
12,04588	10456
12,05002	10428
12,05413	10024
12,05825	11976
12,06237	10824
12,06650	12213
12,07062	10690
12,07473	11441
12,07887	12236
12,08298	11706
12,08710	11179
12,09123	10649
12,09535	11084
12,09947	11421
12,10360	10383
12,10772	10366
12,11183	11299
12,11597	10882
12,12008	11256
12,12420	11001
12,12833	10551
12,13245	10367
12,13657	10695
12,14070	9596
12,14482	9916
12,14893	11288
12,15305	10601
12,15718	11683
12,16130	11831
12,16542	10256
12,16955	11257
12,17367	10820
12,17778	11489
12,18192	10912
12,18603	11170
12,19015	11870
12,19428	11096
12,19840	11842
12,20252	11712
12,20665	11701
12,21077	11147
12,21488	11533
12,21902	12540
12,22313	11232
12,22725	12539
12,23138	16361
12,23550	19906
12,23962	29307
12,24373	43829
12,24787	70951
12,25198	112197
12,25610	179262
12,26023	276085
12,26435	394614
12,26847	539710
12,27260	706326
12,27672	872145
12,28083	1034922
12,28497	1159488
12,28908	1257586
12,29320	1287199
12,29733	1277626
12,30145	1212527
12,30557	1114317
12,30970	1016240
12,31382	880954
12,31793	757395
12,32207	639852
12,32618	540346
12,33030	451023
12,33442	371924
12,33855	306540
12,34267	257872
12,34678	219108
12,35092	187378
12,35503	159399
12,35915	135162
12,36328	119726
12,36740	104739
12,37152	95397
12,37565	85271
12,37977	76652
12,38388	70201
12,38802	62108
12,39213	57457
12,39625	53889
12,40038	49129
12,40450	45759
12,40862	44832
12,41275	41410
12,41687	40100
12,42098	37301
12,42510	34933
12,42923	33614
12,43335	31543
12,43747	31446
12,44160	28301
12,44572	27109
12,44983	26665
12,45397	27542
12,45808	25105
12,46220	24117
12,46633	23282
12,47045	23488
12,47457	21298
12,47870	20382
12,48282	20456
12,48693	19979
12,49107	20205
12,49518	19363
12,49930	19928
12,50343	19482
12,50755	18084
12,51167	18051
12,51578	18001
12,51992	17161
12,52403	15944
12,52815	17152
12,53228	15421
12,53640	16953
12,54052	15730
12,54465	15904
12,54877	15591
12,55288	14232
12,55702	15065
12,56113	15496
12,56525	15662
12,56938	15833
12,57350	14053
12,57762	13497
12,58175	12861
12,58587	14552
12,58998	14509
12,59412	14109
12,59823	13476
12,60235	13197
12,60647	13336
12,61060	13144
12,61472	14117
12,61883	12974
12,62297	13380
12,62708	14438
12,63120	13555
12,63533	12505
12,63945	13645
12,64357	12810
12,64770	12539
12,65182	12936
12,65593	13218
12,66007	12205
12,66418	12766
12,66830	11407
12,67243	11469
12,67655	11886
12,68067	12698
12,68480	10941
12,68892	11056
12,69303	11429
12,69715	11648
12,70128	11747
12,70540	12717
12,70952	12864
12,71365	11943
12,71777	10493
12,72188	11735
12,72602	10309
12,73013	11007
12,73425	9992
12,73838	10996
12,74250	10102
12,74662	10352
12,75075	9742
12,75487	9990
12,75898	9610
12,76312	9151
12,76723	9319
12,77135	10603
12,77548	10635
12,77960	10079
12,78372	11168
12,78785	10935
12,79197	11024
12,79608	10010
12,80020	10570
12,80433	10652
12,80845	11203
12,81257	10044
12,81670	10514
12,82082	10411
12,82493	10105
12,82907	9879
12,83318	11335
12,83730	9716
12,84143	10018
12,84555	10446
12,84967	10396
12,85380	9794
12,85792	9615
12,86203	11072
12,86617	9292
12,87028	9832
12,87440	9716
12,87853	10895
12,88265	11324
12,88677	12977
12,89088	12370
12,89502	13867
12,89913	14500
12,90325	14724
12,90738	14999
12,91150	15004
12,91562	15154
12,91975	16351
12,92387	15043
12,92798	13752
12,93212	13906
12,93623	12766
12,94035	13083
12,94448	12274
12,94860	12938
12,95272	12784
12,95685	13434
12,96097	13471
12,96508	12682
12,96922	14203
12,97333	15245
12,97745	16693
12,98157	17689
12,98570	18167
12,98982	17059
12,99393	18180
12,99807	17198
13,00218	15870
13,00630	16266
13,01043	15657
13,01455	14903
13,01867	14092
13,02280	13374
13,02692	12953
13,03103	14648
13,03517	12127
13,03928	11516
13,04340	11544
13,04753	11062
13,05165	10997
13,05577	10600
13,05990	11220
13,06402	9881
13,06813	10207
13,07225	8585
13,07638	10523
13,08050	11079
13,08462	9840
13,08875	9627
13,09287	11009
13,09698	9921
13,10112	10151
13,10523	9613
13,10935	9488
13,11348	9686
13,11760	9948
13,12172	8803
13,12585	9184
13,12997	9497
13,13408	8564
13,13822	9462
13,14233	9169
13,14645	9707
13,15058	9800
13,15470	9520
13,15882	9312
13,16293	10223
13,16707	9199
13,17118	8622
13,17530	8696
13,17943	9138
13,18355	9601
13,18767	9248
13,19180	8560
13,19592	8797
13,20003	9719
13,20417	10182
13,20828	8623
13,21240	8404
13,21653	10187
13,22065	10106
13,22477	9973
13,22890	11270
13,23302	9496
13,23713	10899
13,24127	10717
13,24538	10165
13,24950	9060
13,25362	10538
13,25775	9129
13,26187	10253
13,26598	9517
13,27012	8706
13,27423	9679
13,27835	10049
13,28248	9523
13,28660	9221
13,29072	7872
13,29485	9555
13,29897	8926
13,30308	10750
13,30722	9002
13,31133	8563
13,31545	9445
13,31958	8832
13,32370	8704
13,32782	8387
13,33195	8377
13,33607	9435
13,34018	8751
13,34430	8447
13,34843	8409
13,35255	8992
13,35667	8067
13,36080	8248
13,36492	8713
13,36903	8401
13,37317	8983
13,37728	8787
13,38140	8503
13,38553	9878
13,38965	10125
13,39377	10151
13,39790	11038
13,40202	12425
13,40613	13800
13,41027	14044
13,41438	15790
13,41850	16335
13,42263	17463
13,42675	19002
13,43087	18587
13,43498	19991
13,43912	17310
13,44323	18969
13,44735	17604
13,45148	17855
13,45560	17790
13,45972	19568
13,46385	23589
13,46797	34271
13,47208	53281
13,47622	90694
13,48033	151522
13,48445	253012
13,48858	397982
13,49270	607927
13,49682	862953
13,50095	1195650
13,50507	1547952
13,50918	1935882
13,51332	2293046
13,51743	2597813
13,52155	2789212
13,52567	2885359
13,52980	2852278
13,53392	2688694
13,53803	2490005
13,54217	2195025
13,54628	1884117
13,55040	1571294
13,55453	1304766
13,55865	1070701
13,56277	882534
13,56690	714067
13,57102	593579
13,57513	487864
13,57927	417395
13,58338	348977
13,58750	302597
13,59163	263138
13,59575	230468
13,59987	206143
13,60400	180672
13,60812	162115
13,61223	149455
13,61635	132758
13,62048	121549
13,62460	114738
13,62872	106910
13,63285	98323
13,63697	91363
13,64108	86358
13,64522	78324
13,64933	71277
13,65345	67698
13,65758	63706
13,66170	60669
13,66582	56723
13,66995	53405
13,67407	52342
13,67818	47605
13,68232	44526
13,68643	42934
13,69055	41537
13,69468	39823
13,69880	39126
13,70292	36390
13,70703	36328
13,71117	33990
13,71528	31588
13,71940	31711
13,72353	29341
13,72765	28660
13,73177	28332
13,73590	28165
13,74002	25940
13,74413	24567
13,74827	24770
13,75238	24790
13,75650	21237
13,76063	20442
13,76475	23386
13,76887	22182
13,77300	20817
13,77712	20927
13,78123	20464
13,78537	18994
13,78948	18140
13,79360	18813
13,79772	17036
13,80185	18109
13,80597	17548
13,81008	16617
13,81422	16620
13,81833	16247
13,82245	15344
13,82658	15108
13,83070	16719
13,83482	16854
13,83895	15404
13,84307	14299
13,84718	14176
13,85132	15904
13,85543	13204
13,85955	13336
13,86368	12675
13,86780	14052
13,87192	14354
13,87605	13268
13,88017	14323
13,88428	13492
13,88840	14105
13,89253	14484
13,89665	13107
13,90077	12381
13,90490	13681
13,90902	11900
13,91313	13072
13,91727	11938
13,92138	13614
13,92550	12326
13,92963	12916
13,93375	11628
13,93787	11955
13,94200	12047
13,94612	11484
13,95023	11313
13,95437	11469
13,95848	11327
13,96260	11279
13,96673	10039
13,97085	11292
13,97497	10270
13,97908	10191
13,98322	10347
13,98733	9940
13,99145	9945
13,99558	9609
13,99970	10370
14,00382	9651
14,00795	9884
14,01207	8783
14,01618	9910
14,02032	10071
14,02443	10152
14,02855	9049
14,03268	10023
14,03680	8483
14,04092	9950
14,04505	9403
14,04917	9421
14,05328	8809
14,05742	10011
14,06153	9522
14,06565	8803
14,06977	9102
14,07390	9863
14,07802	10262
14,08213	9309
14,08627	10159
14,09038	10895
14,09450	10875
14,09863	9509
14,10275	10842
14,10687	11213
14,11100	12990
14,11512	11524
14,11923	14485
14,12337	13093
14,12748	14174
14,13160	12619
14,13573	13616
14,13985	11715
14,14397	13612
14,14810	12217
14,15222	10674
14,15633	10562
14,16045	10702
14,16458	10557
14,16870	9563
14,17282	9539
14,17695	8292
14,18107	9979
14,18518	8944
14,18932	9736
14,19343	9328
14,19755	9887
14,20168	11089
14,20580	9266
14,20992	8957
14,21405	9594
14,21817	8253
14,22228	9269
14,22642	8437
14,23053	9009
14,23465	8102
14,23878	8155
14,24290	7956
14,24702	8565
14,25113	7398
14,25527	8812
14,25938	8726
14,26350	8464
14,26763	8763
14,27175	8455
14,27587	9017
14,28000	9208
14,28412	9180
14,28823	8161
14,29237	9531
14,29648	8548
14,30060	8949
14,30473	9319
14,30885	12176
14,31297	16647
14,31710	22962
14,32122	39791
14,32533	62337
14,32947	100313
14,33358	166411
14,33770	250557
14,34182	368107
14,34595	520227
14,35007	683658
14,35418	859613
14,35832	1027440
14,36243	1169796
14,36655	1285952
14,37068	1314013
14,37480	1308158
14,37892	1235205
14,38305	1152670
14,38717	1035784
14,39128	911908
14,39542	774692
14,39953	659174
14,40365	542683
14,40778	452112
14,41190	373122
14,41602	313255
14,42015	262835
14,42427	223840
14,42838	188727
14,43252	160828
14,43663	142190
14,44075	123619
14,44487	111786
14,44900	97959
14,45312	88239
14,45723	79315
14,46137	72400
14,46548	65462
14,46960	63692
14,47373	57795
14,47785	52598
14,48197	49385
14,48610	46164
14,49022	44402
14,49433	41142
14,49847	36216
14,50258	35826
14,50670	34558
14,51083	31352
14,51495	31140
14,51907	32214
14,52320	31748
14,52732	32281
14,53143	33903
14,53555	34298
14,53968	34961
14,54380	35879
14,54792	34689
14,55205	33104
14,55617	32270
14,56028	32656
14,56442	31013
14,56853	27831
14,57265	25077
14,57678	26264
14,58090	24605
14,58502	21283
14,58915	21379
14,59327	21578
14,59738	17540
14,60152	16721
14,60563	15349
14,60975	16057
14,61388	15523
14,61800	15144
14,62212	15241
14,62623	13808
14,63037	13956
14,63448	12503
14,63860	12501
14,64273	13149
14,64685	13371
14,65097	12404
14,65510	12089
14,65922	13123
14,66333	12941
14,66747	14439
14,67158	17964
14,67570	21599
14,67983	35392
14,68395	57179
14,68807	95143
14,69220	158884
14,69632	244288
14,70043	368971
14,70457	526770
14,70868	715628
14,71280	917655
14,71692	1125038
14,72105	1295881
14,72517	1423317
14,72928	1495757
14,73342	1494080
14,73753	1439943
14,74165	1332500
14,74578	1203610
14,74990	1035862
14,75402	880285
14,75815	735986
14,76227	604799
14,76638	496340
14,77052	408572
14,77463	339618
14,77875	285050
14,78288	233471
14,78700	205143
14,79112	176951
14,79525	151692
14,79937	130076
14,80348	113537
14,80760	102132
14,81173	93761
14,81585	79155
14,81997	74369
14,82410	70970
14,82822	62157
14,83233	59186
14,83647	54009
14,84058	52434
14,84470	46989
14,84883	44761
14,85295	41322
14,85707	38366
14,86120	37633
14,86532	36877
14,86943	32708
14,87357	31287
14,87768	30834
14,88180	30113
14,88593	27241
14,89005	27175
14,89417	25055
14,89828	24055
14,90242	22788
14,90653	22903
14,91065	20664
14,91478	20645
14,91890	19826
14,92302	20318
14,92715	17474
14,93127	18751
14,93538	18188
14,93952	18789
14,94363	16997
14,94775	17691
14,95188	16684
14,95600	17212
14,96012	17259
14,96425	13348
14,96837	15792
14,97248	13451
14,97662	13384
14,98073	12877
14,98485	13544
14,98897	13662
14,99310	13522
14,99722	13262
15,00133	13494
15,00547	13951
15,00958	12975
15,01370	11832
15,01783	12745
15,02195	11004
15,02607	12472
15,03020	11595
15,03432	10998
15,03843	9762
15,04257	12236
15,04668	12628
15,05080	10927
15,05493	12232
15,05905	10932
15,06317	10636
15,06730	10704
15,07142	11278
15,07553	11930
15,07965	9809
15,08378	11348
15,08790	10181
15,09202	10821
15,09615	10338
15,10027	10947
15,10438	11074
15,10852	11352
15,11263	10078
15,11675	11585
15,12088	10989
15,12500	10273
15,12912	10520
15,13325	11680
15,13737	11084
15,14148	9818
15,14562	10338
15,14973	9614
15,15385	9999
15,15798	10119
15,16210	9963
15,16622	10232
15,17033	8569
15,17447	8421
15,17858	8543
15,18270	9618
15,18683	8719
15,19095	9524
15,19507	9076
15,19920	8010
15,20332	9028
15,20743	9199
15,21157	9255
15,21568	9267
15,21980	8625
15,22393	9507
15,22805	8912
15,23217	8992
15,23630	8839
15,24042	10006
15,24453	10795
15,24867	8030
15,25278	8075
15,25690	9110
15,26102	9125
15,26515	8348
15,26927	8676
15,27338	8907
15,27752	10185
15,28163	9155
15,28575	8873
15,28988	8300
15,29400	9181
15,29812	8764
15,30225	8206
15,30637	8134
15,31048	8313
15,31462	9256
15,31873	8827
15,32285	9919
15,32698	8116
15,33110	8767
15,33522	9251
15,33935	8443
15,34347	9066
15,34758	7491
15,35170	8615
15,35583	7739
15,35995	7749
15,36407	7965
15,36820	8124
15,37232	7728
15,37643	8489
15,38057	8045
15,38468	7377
15,38880	8019
15,39293	8571
15,39705	9326
15,40117	8155
15,40530	7238
15,40942	8768
15,41353	8555
15,41767	8289
15,42178	8276
15,42590	8740
15,43003	9236
15,43415	7967
15,43827	8179
15,44238	9745
15,44652	8089
15,45063	8696
15,45475	7320
15,45888	9577
15,46300	9858
15,46712	8360
15,47125	8870
15,47537	8803
15,47948	9275
15,48362	8490
15,48773	8443
15,49185	8840
15,49598	10329
15,50010	10435
15,50422	10897
15,50835	13675
15,51247	20226
15,51658	30698
15,52072	50360
15,52483	85555
15,52895	137486
15,53307	219153
15,53720	336178
15,54132	482733
15,54543	659075
15,54957	847051
15,55368	1041612
15,55780	1210396
15,56193	1335663
15,56605	1407200
15,57017	1419145
15,57430	1366087
15,57842	1280745
15,58253	1151986
15,58667	1007558
15,59078	867227
15,59490	727607
15,59903	607369
15,60315	505682
15,60727	420882
15,61140	340545
15,61552	291830
15,61963	242482
15,62375	207750
15,62788	173927
15,63200	155777
15,63612	137677
15,64025	116892
15,64437	105329
15,64848	92409
15,65262	86385
15,65673	74264
15,66085	66983
15,66498	63209
15,66910	59728
15,67322	53075
15,67735	50324
15,68147	47982
15,68558	42961
15,68972	39893
15,69383	39832
15,69795	36445
15,70208	35679
15,70620	34204
15,71032	31235
15,71443	29034
15,71857	27231
15,72268	26223
15,72680	24990
15,73093	25336
15,73505	24934
15,73917	24440
15,74330	20795
15,74742	19295
15,75153	20017
15,75567	19459
15,75978	18763
15,76390	18141
15,76803	16382
15,77215	18738
15,77627	17385
15,78040	16848
15,78452	14824
15,78863	15157
15,79277	15605
15,79688	14669
15,80100	13707
15,80512	13357
15,80925	14565
15,81337	12516
15,81748	12011
15,82162	13024
15,82573	12830
15,82985	14364
15,83398	14626
15,83810	14862
15,84222	18073
15,84635	25212
15,85047	41910
15,85458	72895
15,85872	128609
15,86283	216544
15,86695	367854
15,87108	580322
15,87520	881282
15,87932	1269971
15,88345	1749357
15,88757	2278202
15,89168	2870313
15,89580	3454944
15,89993	4030918
15,90405	4473061
15,90817	4781188
15,91230	4847430
15,91642	4682109
15,92053	4342986
15,92467	3861297
15,92878	3324379
15,93290	2772568
15,93703	2271359
15,94115	1842210
15,94527	1485183
15,94940	1221293
15,95352	989628
15,95763	820502
15,96177	685581
15,96588	577107
15,97000	498968
15,97413	426550
15,97825	371975
15,98237	336325
15,98648	289316
15,99062	258173
15,99473	231838
15,99885	212408
16,00298	195711
16,00710	176929
16,01122	164127
16,01535	149703
16,01947	140040
16,02358	129461
16,02772	119632
16,03183	113826
16,03595	104228
16,04008	100108
16,04420	92159
16,04832	86219
16,05245	81861
16,05657	76002
16,06068	71455
16,06482	67381
16,06893	63563
16,07305	59947
16,07718	59243
16,08130	56595
16,08542	53915
16,08953	50217
16,09367	47830
16,09778	44317
16,10190	43832
16,10603	41214
16,11015	39823
16,11427	38868
16,11840	38111
16,12252	37087
16,12663	34647
16,13077	33570
16,13488	33322
16,13900	31404
16,14313	28703
16,14725	28291
16,15137	28037
16,15550	27875
16,15962	26868
16,16373	26379
16,16787	24338
16,17198	25595
16,17610	24962
16,18022	22667
16,18435	24794
16,18847	20813
16,19258	21440
16,19672	20274
16,20083	22134
16,20495	20378
16,20908	18962
16,21320	18276
16,21732	18594
16,22145	16821
16,22557	17603
16,22968	16285
16,23382	16274
16,23793	16969
16,24205	15505
16,24618	16311
16,25030	16022
16,25442	14437
16,25855	13764
16,26267	15300
16,26678	14655
16,27090	15184
16,27503	14384
16,27915	16202
16,28327	13891
16,28740	12764
16,29152	13072
16,29563	13688
16,29977	12788
16,30388	13633
16,30800	13546
16,31213	12658
16,31625	12974
16,32037	13616
16,32450	13667
16,32862	14034
16,33273	12574
16,33687	14518
16,34098	15089
16,34510	13629
16,34923	13143
16,35335	13088
16,35747	12953
16,36158	12461
16,36572	13414
16,36983	11761
16,37395	11924
16,37808	12840
16,38220	12247
16,38632	11346
16,39045	10874
16,39457	10241
16,39868	10847
16,40282	10323
16,40693	11305
16,41105	10708
16,41518	11600
16,41930	10219
16,42342	11061
16,42755	10791
16,43167	10191
16,43578	10911
16,43992	11768
16,44403	13218
16,44815	11905
16,45227	13560
16,45640	13501
16,46052	14068
16,46463	13257
16,46877	13577
16,47288	13265
16,47700	13168
16,48113	14030
16,48525	11864
16,48937	14532
16,49350	11181
16,49762	12434
16,50173	13158
16,50587	14643
16,50998	17110
16,51410	20770
16,51823	28347
16,52235	38794
16,52647	57384
16,53060	97521
16,53472	146964
16,53883	237037
16,54295	349893
16,54708	502174
16,55120	678127
16,55532	868248
16,55945	1060576
16,56357	1241549
16,56768	1376347
16,57182	1461358
16,57593	1477962
16,58005	1415606
16,58418	1331001
16,58830	1190944
16,59242	1047680
16,59655	894158
16,60067	753738
16,60478	630127
16,60892	524302
16,61303	431556
16,61715	353489
16,62128	296593
16,62540	248341
16,62952	209219
16,63363	178892
16,63777	157302
16,64188	139749
16,64600	123709
16,65013	109733
16,65425	99501
16,65837	90277
16,66250	82176
16,66662	73338
16,67073	67831
16,67487	64052
16,67898	60201
16,68310	56683
16,68723	54859
16,69135	51470
16,69547	49988
16,69960	46646
16,70372	47154
16,70783	44158
16,71197	43523
16,71608	43178
16,72020	44909
16,72432	43635
16,72845	40823
16,73257	40143
16,73668	37685
16,74082	36326
16,74493	33640
16,74905	31279
16,75318	30340
16,75730	29586
16,76142	27024
16,76555	24370
16,76967	22351
16,77378	23180
16,77792	24152
16,78203	21464
16,78615	22647
16,79028	20151
16,79440	19961
16,79852	18972
16,80265	17676
16,80677	17940
16,81088	16198
16,81500	15011
16,81913	16031
16,82325	16158
16,82737	15077
16,83150	15347
16,83562	14731
16,83973	13589
16,84387	14303
16,84798	13090
16,85210	13284
16,85623	12978
16,86035	12334
16,86447	14257
16,86860	12871
16,87272	13552
16,87683	12295
16,88097	11504
16,88508	12328
16,88920	12517
16,89333	12074
16,89745	13246
16,90157	12758
16,90568	12761
16,90982	12155
16,91393	11546
16,91805	11037
16,92218	12516
16,92630	11010
16,93042	11546
16,93455	11025
16,93867	10685
16,94278	10562
16,94692	11071
16,95103	11572
16,95515	10604
16,95928	11072
16,96340	11869
16,96752	9635
16,97165	12823
16,97577	13399
16,97988	17318
16,98402	24994
16,98813	42085
16,99225	67954
16,99637	112800
17,00050	186537
17,00462	294336
17,00873	438740
17,01287	624668
17,01698	838652
17,02110	1070639
17,02523	1288323
17,02935	1488487
17,03347	1610838
17,03760	1674664
17,04172	1644968
17,04583	1564361
17,04997	1430577
17,05408	1254641
17,05820	1067865
17,06233	891613
17,06645	741446
17,07057	609152
17,07470	495785
17,07882	410634
17,08293	340548
17,08705	285342
17,09118	243642
17,09530	204959
17,09942	179185
17,10355	155231
17,10767	135026
17,11178	124380
17,11592	106973
17,12003	98226
17,12415	88325
17,12828	80508
17,13240	69663
17,13652	67602
17,14065	61398
17,14477	56513
17,14888	53005
17,15302	50316
17,15713	49372
17,16125	46265
17,16538	42952
17,16950	41247
17,17362	37202
17,17773	37650
17,18187	34587
17,18598	33297
17,19010	30597
17,19423	29709
17,19835	30112
17,20247	29441
17,20660	26491
17,21072	26380
17,21483	25778
17,21897	24114
17,22308	22426
17,22720	22857
17,23133	22086
17,23545	21297
17,23957	21130
17,24370	21046
17,24782	19010
17,25193	17856
17,25607	17437
17,26018	18491
17,26430	17165
17,26842	15297
17,27255	16227
17,27667	15633
17,28078	15682
17,28492	15014
17,28903	14917
17,29315	14483
17,29728	14885
17,30140	14242
17,30552	14745
17,30965	13541
17,31377	13201
17,31788	13491
17,32202	13212
17,32613	12025
17,33025	12344
17,33438	11731
17,33850	12126
17,34262	12655
17,34675	12461
17,35087	11272
17,35498	12107
17,35910	11169
17,36323	12873
17,36735	12930
17,37147	10979
17,37560	11388
17,37972	11162
17,38383	11194
17,38797	11808
17,39208	11086
17,39620	11149
17,40033	12838
17,40445	10654
17,40857	10777
17,41270	11053
17,41682	9851
17,42093	11771
17,42507	11086
17,42918	9950
17,43330	10347
17,43743	10798
17,44155	10974
17,44567	10020
17,44978	10188
17,45392	9060
17,45803	10623
17,46215	11033
17,46628	9805
17,47040	9606
17,47452	10901
17,47865	10734
17,48277	11309
17,48688	11824
17,49102	11624
17,49513	11419
17,49925	11956
17,50338	12270
17,50750	10156
17,51162	10618
17,51575	10436
17,51987	9920
17,52398	9230
17,52812	9724
17,53223	10322
17,53635	9902
17,54047	9477
17,54460	9109
17,54872	10104
17,55283	8636
17,55697	9750
17,56108	8321
17,56520	9483
17,56933	10295
17,57345	9080
17,57757	9059
17,58170	8638
17,58582	8730
17,58993	8648
17,59407	8453
17,59818	9251
17,60230	9102
17,60643	9765
17,61055	9675
17,61467	10092
17,61880	10143
17,62292	10715
17,62703	11476
17,63117	13739
17,63528	18802
17,63940	28236
17,64352	44974
17,64765	77246
17,65177	130904
17,65588	207862
17,66002	322758
17,66413	479047
17,66825	661208
17,67238	861340
17,67650	1071916
17,68062	1273589
17,68475	1444062
17,68887	1542440
17,69298	1588207
17,69712	1558163
17,70123	1452129
17,70535	1328665
17,70948	1146475
17,71360	992365
17,71772	842739
17,72185	699349
17,72597	572283
17,73008	472166
17,73420	389615
17,73833	327207
17,74245	273259
17,74657	237318
17,75070	199434
17,75482	175709
17,75893	152029
17,76307	132807
17,76718	117713
17,77130	108112
17,77543	94878
17,77955	87240
17,78367	78584
17,78780	72817
17,79192	67088
17,79603	62734
17,80017	58189
17,80428	55283
17,80840	52124
17,81253	48962
17,81665	47208
17,82077	46388
17,82488	41760
17,82902	42326
17,83313	42296
17,83725	43415
17,84138	42610
17,84550	44616
17,84962	44306
17,85375	47573
17,85787	45528
17,86198	45794
17,86612	43830
17,87023	43072
17,87435	41162
17,87848	37835
17,88260	37073
17,88672	35367
17,89085	33935
17,89497	30022
17,89908	28697
17,90322	26312
17,90733	24828
17,91145	24311
17,91557	22743
17,91970	21981
17,92382	20718
17,92793	20568
17,93207	21144
17,93618	18425
17,94030	17262
17,94443	18161
17,94855	16194
17,95267	17573
17,95680	17267
17,96092	16334
17,96503	15907
17,96917	15647
17,97328	14999
17,97740	15464
17,98153	15022
17,98565	15605
17,98977	12976
17,99390	12755
17,99802	12606
18,00213	14365
18,00625	13766
18,01038	13261
18,01450	14222
18,01862	13416
18,02275	13927
18,02687	13557
18,03098	13342
18,03512	13644
18,03923	13619
18,04335	13799
18,04748	12476
18,05160	12426
18,05572	12765
18,05985	11657
18,06397	13114
18,06808	15434
18,07222	16396
18,07633	23471
18,08045	38474
18,08458	62848
18,08870	106018
18,09282	179846
18,09693	295345
18,10107	464749
18,10518	701070
18,10930	1004344
18,11343	1365915
18,11755	1787748
18,12167	2218521
18,12580	2668368
18,12992	3046100
18,13403	3359800
18,13817	3522862
18,14228	3524066
18,14640	3380494
18,15053	3067586
18,15465	2707545
18,15877	2294852
18,16290	1919434
18,16702	1583781
18,17113	1281092
18,17527	1056308
18,17938	868829
18,18350	724783
18,18762	593685
18,19175	503200
18,19587	429120
18,19998	371357
18,20412	322692
18,20823	283986
18,21235	254685
18,21648	224249
18,22060	205874
18,22472	181250
18,22885	168116
18,23297	152754
18,23708	137182
18,24122	128878
18,24533	122842
18,24945	110660
18,25358	103989
18,25770	96132
18,26182	89389
18,26595	81851
18,27007	78268
18,27418	75760
18,27830	68756
18,28243	66910
18,28655	63273
18,29067	62339
18,29480	55900
18,29892	53957
18,30303	50381
18,30717	50049
18,31128	48027
18,31540	47525
18,31953	42745
18,32365	39544
18,32777	39267
18,33190	38305
18,33602	35991
18,34013	35701
18,34427	33774
18,34838	32820
18,35250	32783
18,35663	28540
18,36075	30073
18,36487	29138
18,36898	27321
18,37312	27328
18,37723	27043
18,38135	26722
18,38548	23140
18,38960	23275
18,39372	23966
18,39785	23701
18,40197	23811
18,40608	22059
18,41022	21144
18,41433	20440
18,41845	19007
18,42258	20676
18,42670	20659
18,43082	21539
18,43495	21272
18,43907	25099
18,44318	32120
18,44732	45751
18,45143	68793
18,45555	109491
18,45967	175267
18,46380	271147
18,46792	401436
18,47203	567638
18,47617	773727
18,48028	994237
18,48440	1225293
18,48853	1401209
18,49265	1562551
18,49677	1636121
18,50090	1659784
18,50502	1601449
18,50913	1487021
18,51327	1342728
18,51738	1172872
18,52150	1004512
18,52563	849048
18,52975	700934
18,53387	586828
18,53800	489143
18,54212	404417
18,54623	336073
18,55035	291394
18,55448	250062
18,55860	212444
18,56272	189170
18,56685	168153
18,57097	146779
18,57508	134032
18,57922	119210
18,58333	111836
18,58745	99175
18,59158	90350
18,59570	84768
18,59982	77440
18,60395	73048
18,60807	68975
18,61218	64633
18,61632	63092
18,62043	65187
18,62455	69816
18,62868	86318
18,63280	112010
18,63692	165563
18,64103	250238
18,64517	380781
18,64928	569425
18,65340	816508
18,65753	1156366
18,66165	1540599
18,66577	1979762
18,66990	2398296
18,67402	2808259
18,67813	3132904
18,68227	3337814
18,68638	3363582
18,69050	3257623
18,69463	3041314
18,69875	2751433
18,70287	2392394
18,70700	2016039
18,71112	1682302
18,71523	1407349
18,71937	1162246
18,72348	937418
18,72760	791803
18,73172	662650
18,73585	557289
18,73997	475473
18,74408	411023
18,74822	357269
18,75233	315447
18,75645	281381
18,76058	248830
18,76470	226479
18,76882	204422
18,77295	185658
18,77707	170998
18,78118	157984
18,78532	143843
18,78943	135532
18,79355	123511
18,79768	113609
18,80180	107998
18,80592	102390
18,81005	95083
18,81417	90478
18,81828	85755
18,82240	80237
18,82653	76806
18,83065	73889
18,83477	67803
18,83890	64049
18,84302	60928
18,84713	59506
18,85127	57068
18,85538	53373
18,85950	50912
18,86363	50016
18,86775	45403
18,87187	45919
18,87600	43009
18,88012	43423
18,88423	40865
18,88837	39475
18,89248	39162
18,89660	36921
18,90073	35956
18,90485	34217
18,90897	34418
18,91308	32124
18,91722	30586
18,92133	30167
18,92545	29018
18,92958	28670
18,93370	29623
18,93782	27991
18,94195	26136
18,94607	25273
18,95018	26241
18,95432	24139
18,95843	22802
18,96255	22747
18,96668	22046
18,97080	24231
18,97492	22978
18,97905	21360
18,98317	23344
18,98728	20768
18,99142	20836
18,99553	19920
18,99965	19111
19,00377	18482
19,00790	18961
19,01202	18876
19,01613	18404
19,02027	17347
19,02438	18292
19,02850	17866
19,03263	16768
19,03675	17231
19,04087	17902
19,04500	17419
19,04912	18258
19,05323	22042
19,05737	28065
19,06148	38218
19,06560	57076
19,06973	90991
19,07385	149635
19,07797	232501
19,08210	349638
19,08622	506352
19,09033	693459
19,09445	897659
19,09858	1111131
19,10270	1306685
19,10682	1436547
19,11095	1516838
19,11507	1526012
19,11918	1482350
19,12332	1376042
19,12743	1251725
19,13155	1101404
19,13568	988050
19,13980	894040
19,14392	853643
19,14805	889106
19,15217	972413
19,15628	1161651
19,16042	1420442
19,16453	1767862
19,16865	2157833
19,17278	2548917
19,17690	2918653
19,18102	3259871
19,18513	3448979
19,18927	3503953
19,19338	3428610
19,19750	3183807
19,20163	2837194
19,20575	2450744
19,20987	2087460
19,21400	1720042
19,21812	1415647
19,22223	1162606
19,22637	960285
19,23048	800884
19,23460	672392
19,23873	564844
19,24285	484087
19,24697	425550
19,25110	378216
19,25522	330914
19,25933	299059
19,26347	268886
19,26758	248111
19,27170	221367
19,27583	201984
19,27995	183740
19,28407	174058
19,28818	159847
19,29232	148082
19,29643	137226
19,30055	130903
19,30468	121917
19,30880	116734
19,31292	111059
19,31705	98475
19,32117	93108
19,32528	94468
19,32942	90235
19,33353	85412
19,33765	79106
19,34178	75775
19,34590	75899
19,35002	70161
19,35415	65960
19,35827	63305
19,36238	62916
19,36652	57405
19,37063	55264
19,37475	55667
19,37887	51242
19,38300	47420
19,38712	50768
19,39123	44808
19,39537	47541
19,39948	45085
19,40360	44845
19,40773	42159
19,41185	42095
19,41597	38446
19,42010	40962
19,42422	39483
19,42833	37052
19,43247	37317
19,43658	33208
19,44070	33977
19,44483	33131
19,44895	32497
19,45307	31328
19,45720	32632
19,46132	30863
19,46543	31745
19,46955	30960
19,47368	33562
19,47780	38955
19,48192	50720
19,48605	72500
19,49017	110776
19,49428	168772
19,49842	259001
19,50253	380832
19,50665	542896
19,51078	721651
19,51490	923156
19,51902	1127688
19,52315	1275248
19,52727	1399176
19,53138	1467479
19,53552	1466806
19,53963	1383765
19,54375	1290048
19,54788	1142219
19,55200	1009614
19,55612	869215
19,56023	738782
19,56437	610120
19,56848	515442
19,57260	424018
19,57673	362950
19,58085	306841
19,58497	259423
19,58910	221158
19,59322	193717
19,59733	168928
19,60147	149515
19,60558	137980
19,60970	122164
19,61383	114116
19,61795	103172
19,62207	92228
19,62620	86291
19,63032	79730
19,63443	74587
19,63857	70827
19,64268	63062
19,64680	61504
19,65092	57922
19,65505	52778
19,65917	51340
19,66328	50008
19,66742	44958
19,67153	43907
19,67565	44093
19,67978	41525
19,68390	41296
19,68802	38595
19,69215	38075
19,69627	37400
19,70038	37146
19,70452	34877
19,70863	34872
19,71275	31930
19,71688	32613
19,72100	30825
19,72512	31904
19,72925	31197
19,73337	29782
19,73748	27771
19,74160	28356
19,74573	28695
19,74985	25590
19,75397	25852
19,75810	24644
19,76222	24317
19,76633	24555
19,77047	23676
19,77458	22303
19,77870	22386
19,78283	20406
19,78695	20761
19,79107	19993
19,79520	18740
19,79932	20748
19,80343	20101
19,80757	20493
19,81168	19180
19,81580	17800
19,81993	16949
19,82405	17835
19,82817	18944
19,83228	17778
19,83642	17539
19,84053	18175
19,84465	18379
19,84878	17002
19,85290	17162
19,85702	16855
19,86115	16190
19,86527	16681
19,86938	14437
19,87352	15308
19,87763	16218
19,88175	16005
19,88588	16015
19,89000	15194
19,89412	15574
19,89825	16258
19,90237	14947
19,90648	14254
19,91062	14443
19,91473	16147
19,91885	15923
19,92297	14506
19,92710	15363
19,93122	13762
19,93533	13732
19,93947	15368
19,94358	14887
19,94770	15164
19,95183	15456
19,95595	15451
19,96007	14310
19,96420	14434
19,96832	13399
19,97243	14897
19,97657	13326
19,98068	13737
19,98480	13915
19,98893	14022
19,99305	14014
19,99717	13518
20,00130	12456
20,00542	13210
20,00953	13377
20,01365	12808
20,01778	13499
20,02190	13070
20,02602	13240
20,03015	12454
20,03427	12932
20,03838	12179
20,04252	13224
20,04663	12619
20,05075	12853
20,05488	13327
20,05900	14020
20,06312	13636
20,06725	16945
20,07137	19252
20,07548	24132
20,07962	36850
20,08373	57890
20,08785	92859
20,09198	145761
20,09610	227215
20,10022	341838
20,10433	480792
20,10847	645955
20,11258	819670
20,11670	979641
20,12083	1121500
20,12495	1220136
20,12907	1292570
20,13320	1271255
20,13732	1239973
20,14143	1147396
20,14557	1052664
20,14968	964399
20,15380	887421
20,15793	852446
20,16205	866751
20,16617	968725
20,17030	1120221
20,17442	1354186
20,17853	1676064
20,18267	2059432
20,18678	2480306
20,19090	2914660
20,19502	3311083
20,19915	3562181
20,20327	3690130
20,20738	3669559
20,21152	3435352
20,21563	3107212
20,21975	2703683
20,22388	2289547
20,22800	1923760
20,23212	1577911
20,23625	1313506
20,24037	1087097
20,24448	917531
20,24862	776757
20,25273	667297
20,25685	579444
20,26098	497511
20,26510	447018
20,26922	398523
20,27335	359692
20,27747	326547
20,28158	300073
20,28570	262554
20,28983	244612
20,29395	230027
20,29807	203770
20,30220	193681
20,30632	176918
20,31043	163396
20,31457	152666
20,31868	143557
20,32280	131425
20,32693	126146
20,33105	120560
20,33517	111395
20,33930	103882
20,34342	97627
20,34753	95954
20,35167	91095
20,35578	86268
20,35990	84365
20,36403	79827
20,36815	72385
20,37227	76284
20,37638	67910
20,38052	68219
20,38463	63567
20,38875	61204
20,39288	59812
20,39700	59190
20,40112	54434
20,40525	54053
20,40937	49988
20,41348	51581
20,41762	47898
20,42173	47098
20,42585	44832
20,42998	45459
20,43410	44092
20,43822	40076
20,44235	40776
20,44647	40706
20,45058	43017
20,45472	48023
20,45883	57154
20,46295	73972
20,46707	101780
20,47120	149687
20,47532	221875
20,47943	322948
20,48357	449353
20,48768	610809
20,49180	778955
20,49593	939876
20,50005	1100216
20,50417	1210055
20,50830	1284372
20,51242	1277978
20,51653	1247676
20,52067	1168046
20,52478	1060431
20,52890	928628
20,53303	810150
20,53715	682197
20,54127	578950
20,54540	485370
20,54952	409162
20,55363	348799
20,55775	293057
20,56188	256615
20,56600	217266
20,57012	192553
20,57425	167510
20,57837	146537
20,58248	139494
20,58662	119085
20,59073	109833
20,59485	102995
20,59898	93543
20,60310	87870
20,60722	78552
20,61135	77578
20,61547	73622
20,61958	68801
20,62372	63791
20,62783	61695
20,63195	57842
20,63608	54493
20,64020	54014
20,64432	52128
20,64843	52109
20,65257	54459
20,65668	59019
20,66080	70838
20,66493	95032
20,66905	135589
20,67317	198642
20,67730	289076
20,68142	416824
20,68553	591265
20,68967	801154
20,69378	1014673
20,69790	1218422
20,70203	1425838
20,70615	1561000
20,71027	1651190
20,71440	1649238
20,71852	1576439
20,72263	1456420
20,72677	1321955
20,73088	1142022
20,73500	988359
20,73912	824965
20,74325	696782
20,74737	583904
20,75148	489757
20,75562	417126
20,75973	359869
20,76385	309711
20,76798	269350
20,77210	237372
20,77622	206991
20,78035	189642
20,78447	172597
20,78858	156513
20,79272	143941
20,79683	132286
20,80095	120924
20,80508	114853
20,80920	106705
20,81332	100294
20,81745	92783
20,82157	87796
20,82568	81936
20,82980	76617
20,83393	73607
20,83805	70997
20,84217	64166
20,84630	63467
20,85042	60155
20,85453	58281
20,85867	55156
20,86278	53932
20,86690	50850
20,87103	48682
20,87515	48266
20,87927	45874
20,88340	45262
20,88752	42411
20,89163	39987
20,89577	38832
20,89988	37647
20,90400	39648
20,90813	36517
20,91225	35099
20,91637	35015
20,92050	33205
20,92462	30936
20,92873	33972
20,93285	31050
20,93698	30914
20,94110	31281
20,94522	28856
20,94935	28175
20,95347	27764
20,95758	28283
20,96172	28507
20,96583	26446
20,96995	26603
20,97408	24822
20,97820	27902
20,98232	24275
20,98645	23836
20,99057	25026
20,99468	24395
20,99882	23566
21,00293	24887
21,00705	24115
21,01118	21739
21,01530	22181
21,01942	22440
21,02353	20568
21,02767	21719
21,03178	21231
21,03590	19997
21,04003	21616
21,04415	21671
21,04827	21230
21,05240	19942
21,05652	21960
21,06063	22137
21,06477	19567
21,06888	19260
21,07300	20265
21,07713	19796
21,08125	19647
21,08537	20035
21,08950	19985
21,09362	18935
21,09773	21223
21,10187	21772
21,10598	23348
21,11010	26697
21,11422	32941
21,11835	44705
21,12247	67293
21,12658	105161
21,13072	169500
21,13483	265767
21,13895	403793
21,14308	592982
21,14720	804885
21,15132	1033337
21,15545	1252424
21,15957	1455450
21,16368	1604906
21,16782	1694167
21,17193	1697153
21,17605	1624871
21,18018	1506496
21,18430	1333844
21,18842	1151981
21,19255	980290
21,19667	827106
21,20078	694083
21,20490	585573
21,20903	486131
21,21315	417009
21,21727	357243
21,22140	317705
21,22552	276023
21,22963	236714
21,23377	215678
21,23788	195394
21,24200	170954
21,24613	159454
21,25025	147194
21,25437	133592
21,25850	123699
21,26262	114389
21,26673	110117
21,27087	104286
21,27498	95517
21,27910	90385
21,28323	84930
21,28735	79722
21,29147	77840
21,29558	74255
21,29972	72179
21,30383	68920
21,30795	65680
21,31208	62596
21,31620	59294
21,32032	59129
21,32445	57998
21,32857	56077
21,33268	51558
21,33682	50766
21,34093	47929
21,34505	45121
21,34918	44289
21,35330	41330
21,35742	40509
21,36155	41086
21,36567	41518
21,36978	38609
21,37392	36025
21,37803	36748
21,38215	35338
21,38627	34434
21,39040	34926
21,39452	33450
21,39863	32761
21,40277	34284
21,40688	31682
21,41100	29524
21,41513	30763
21,41925	28571
21,42337	28649
21,42750	28734
21,43162	27084
21,43573	27511
21,43987	28543
21,44398	28479
21,44810	26322
21,45223	26040
21,45635	28397
21,46047	33255
21,46460	37850
21,46872	52614
21,47283	73361
21,47695	108120
21,48108	168145
21,48520	255100
21,48932	376770
21,49345	529594
21,49757	708895
21,50168	924327
21,50582	1116526
21,50993	1288696
21,51405	1400752
21,51818	1437437
21,52230	1426258
21,52642	1365095
21,53055	1262584
21,53467	1119149
21,53878	973254
21,54292	843639
21,54703	704121
21,55115	597569
21,55528	506863
21,55940	428887
21,56352	363848
21,56763	310945
21,57177	269498
21,57588	238430
21,58000	208274
21,58413	187202
21,58825	165293
21,59237	153228
21,59650	137640
21,60062	123199
21,60473	114320
21,60887	105100
21,61298	98810
21,61710	92682
21,62123	83426
21,62535	80776
21,62947	75449
21,63360	72828
21,63772	68415
21,64183	64720
21,64597	58638
21,65008	57750
21,65420	55490
21,65832	54001
21,66245	51557
21,66657	49476
21,67068	48910
21,67482	48251
21,67893	44923
21,68305	43995
21,68718	43091
21,69130	41361
21,69542	40210
21,69955	40179
21,70367	36635
21,70778	36668
21,71192	36586
21,71603	35747
21,72015	34129
21,72428	32523
21,72840	34934
21,73252	32269
21,73665	31514
21,74077	32419
21,74488	28783
21,74900	29908
21,75313	30321
21,75725	29458
21,76137	28880
21,76550	27791
21,76962	28462
21,77373	28207
21,77787	28667
21,78198	26052
21,78610	26543
21,79023	24593
21,79435	25843
21,79847	24805
21,80260	23918
21,80672	25081
21,81083	22491
21,81497	24160
21,81908	22047
21,82320	23450
21,82733	22639
21,83145	21639
21,83557	22916
21,83968	23559
21,84382	22201
21,84793	21768
21,85205	23280
21,85618	22301
21,86030	23347
21,86442	21531
21,86855	24452
21,87267	23275
21,87678	23603
21,88092	24475
21,88503	20642
21,88915	22101
21,89328	20371
21,89740	21784
21,90152	23875
21,90565	21869
21,90977	23558
21,91388	22318
21,91802	22644
21,92213	22288
21,92625	21574
21,93037	21048
21,93450	21117
21,93862	21142
21,94273	21625
21,94687	20830
21,95098	19983
21,95510	20414
21,95923	21045
21,96335	18741
21,96747	20077
21,97160	19295
21,97572	21031
21,97983	18482
21,98397	20535
21,98808	19857
21,99220	20999
21,99633	18342
22,00045	20772
22,00457	18571
22,00870	21361
22,01282	20335
22,01693	22996
22,02105	23968
22,02518	27233
22,02930	36894
22,03342	50647
22,03755	72704
22,04167	114783
22,04578	173951
22,04992	262503
22,05403	389423
22,05815	562894
22,06228	756369
22,06640	988587
22,07052	1220362
22,07465	1485290
22,07877	1686495
22,08288	1937866
22,08702	2171986
22,09113	2363393
22,09525	2601108
22,09938	2853235
22,10350	3122627
22,10762	3353653
22,11173	3568143
22,11587	3732748
22,11998	3793026
22,12410	3691335
22,12823	3467985
22,13235	3105365
22,13647	2711249
22,14060	2311941
22,14472	1962836
22,14883	1644775
22,15297	1374269
22,15708	1156433
22,16120	973669
22,16533	842600
22,16945	733148
22,17357	638144
22,17770	570170
22,18182	511357
22,18593	447225
22,19007	413628
22,19418	375516
22,19830	343472
22,20242	317615
22,20655	286863
22,21067	269203
22,21478	255496
22,21892	236331
22,22303	222928
22,22715	204799
22,23128	193849
22,23540	184416
22,23952	173161
22,24365	160847
22,24777	155599
22,25188	147208
22,25602	141095
22,26013	133327
22,26425	128801
22,26838	125948
22,27250	115613
22,27662	113029
22,28075	107639
22,28487	104338
22,28898	102642
22,29310	97071
22,29723	92324
22,30135	90123
22,30547	85555
22,30960	82435
22,31372	82051
22,31783	77821
22,32197	76290
22,32608	74262
22,33020	70555
22,33433	68076
22,33845	66710
22,34257	66259
22,34670	62403
22,35082	63298
22,35493	61168
22,35907	60235
22,36318	57791
22,36730	55385
22,37143	58160
22,37555	59222
22,37967	63784
22,38378	72751
22,38792	88307
22,39203	120480
22,39615	166333
22,40028	235953
22,40440	341265
22,40852	473359
22,41265	628207
22,41677	809941
22,42088	967644
22,42502	1123350
22,42913	1242712
22,43325	1311059
22,43738	1344327
22,44150	1309476
22,44562	1232943
22,44975	1135413
22,45387	1042256
22,45798	971263
22,46212	923343
22,46623	905451
22,47035	939268
22,47447	995832
22,47860	1082093
22,48272	1185037
22,48683	1276346
22,49097	1341297
22,49508	1391358
22,49920	1396389
22,50333	1356291
22,50745	1281255
22,51157	1162124
22,51570	1043928
22,51982	913234
22,52393	790938
22,52807	677524
22,53218	590178
22,53630	506751
22,54043	442883
22,54455	391260
22,54867	365429
22,55280	343478
22,55692	357419
22,56103	386245
22,56517	451028
22,56928	549452
22,57340	683833
22,57752	858731
22,58165	1049765
22,58577	1259113
22,58988	1445755
22,59402	1577896
22,59813	1659469
22,60225	1661710
22,60638	1607054
22,61050	1481003
22,61462	1349253
22,61875	1176222
22,62287	1039757
22,62698	890938
22,63112	763078
22,63523	657642
22,63935	571155
22,64348	494322
22,64760	432777
22,65172	387580
22,65585	346429
22,65997	310060
22,66408	280701
22,66820	254037
22,67233	238658
22,67645	220030
22,68057	201910
22,68470	190618
22,68882	178273
22,69293	165726
22,69707	156473
22,70118	148592
22,70530	140502
22,70943	136661
22,71355	126348
22,71767	121959
22,72180	113841
22,72592	105636
22,73003	104068
22,73417	100740
22,73828	96688
22,74240	95653
22,74653	87665
22,75065	85901
22,75477	81903
22,75888	80528
22,76302	73146
22,76713	73905
22,77125	73021
22,77538	71888
22,77950	67379
22,78362	65394
22,78775	61575
22,79187	61415
22,79598	63327
22,80012	59437
22,80423	59827
22,80835	56924
22,81248	56154
22,81660	55803
22,82072	54985
22,82485	54547
22,82897	53766
22,83308	53685
22,83722	50225
22,84133	48928
22,84545	48427
22,84957	48231
22,85370	47580
22,85782	45651
22,86193	42083
22,86607	43958
22,87018	43510
22,87430	42810
22,87843	42463
22,88255	42983
22,88667	42726
22,89080	41517
22,89492	40494
22,89903	40650
22,90317	41440
22,90728	39966
22,91140	43703
22,91553	41774
22,91965	44682
22,92377	42875
22,92790	43438
22,93202	44761
22,93613	44194
22,94025	43179
22,94438	44121
22,94850	44630
22,95262	45834
22,95675	51101
22,96087	59241
22,96498	75498
22,96912	101588
22,97323	150603
22,97735	221893
22,98148	328818
22,98560	469743
22,98972	654319
22,99385	870920
22,99797	1090249
23,00208	1305835
23,00622	1480226
23,01033	1604714
23,01445	1617945
23,01858	1587820
23,02270	1479168
23,02682	1352980
23,03093	1208776
23,03507	1042373
23,03918	897588
23,04330	773016
23,04743	663472
23,05155	568322
23,05567	490385
23,05980	435383
23,06392	381415
23,06803	339476
23,07217	306556
23,07628	273153
23,08040	252842
23,08453	232322
23,08865	213005
23,09277	200274
23,09690	187918
23,10102	175384
23,10513	163908
23,10927	155733
23,11338	143607
23,11750	135653
23,12162	129214
23,12575	126641
23,12987	123156
23,13398	114828
23,13812	112294
23,14223	106478
23,14635	105061
23,15048	101157
23,15460	95850
23,15872	98252
23,16285	91429
23,16697	88117
23,17108	86242
23,17522	84314
23,17933	77268
23,18345	77155
23,18758	76035
23,19170	73833
23,19582	69793
23,19995	67845
23,20407	64481
23,20818	65320
23,21230	62871
23,21643	63020
23,22055	60334
23,22467	60166
23,22880	57498
23,23292	56712
23,23703	57770
23,24117	58513
23,24528	54171
23,24940	52361
23,25353	52223
23,25765	53941
23,26177	50696
23,26590	46349
23,27002	49106
23,27413	49854
23,27827	47716
23,28238	45085
23,28650	47583
23,29063	45108
23,29475	46132
23,29887	47661
23,30298	51015
23,30712	57685
23,31123	73362
23,31535	93744
23,31948	129105
23,32360	186200
23,32772	267098
23,33185	388389
23,33597	537554
23,34008	699472
23,34422	895645
23,34833	1069481
23,35245	1226021
23,35658	1323481
23,36070	1357242
23,36482	1361389
23,36895	1296824
23,37307	1186606
23,37718	1073877
23,38132	962004
23,38543	850000
23,38955	757104
23,39367	712132
23,39780	688556
23,40192	692800
23,40603	745835
23,41017	817396
23,41428	917507
23,41840	1021571
23,42253	1123880
23,42665	1206987
23,43077	1251564
23,43490	1266881
23,43902	1234434
23,44313	1167370
23,44727	1059988
23,45138	971176
23,45550	852429
23,45963	755445
23,46375	654110
23,46787	568420
23,47200	490533
23,47612	425935
23,48023	374369
23,48435	326663
23,48848	287253
23,49260	259843
23,49672	239472
23,50085	215254
23,50497	195955
23,50908	184389
23,51322	171417
23,51733	160227
23,52145	149193
23,52558	139441
23,52970	131755
23,53382	126256
23,53795	120791
23,54207	112208
23,54618	107987
23,55032	105491
23,55443	97479
23,55855	96413
23,56268	90923
23,56680	88500
23,57092	86128
23,57503	79512
23,57917	81164
23,58328	77895
23,58740	73718
23,59153	71555
23,59565	69182
23,59977	70372
23,60390	66610
23,60802	67416
23,61213	65089
23,61627	61148
23,62038	58772
23,62450	61330
23,62863	57952
23,63275	57831
23,63687	56304
23,64100	54874
23,64512	55172
23,64923	53041
23,65337	51204
23,65748	52071
23,66160	51996
23,66572	49810
23,66985	49551
23,67397	48281
23,67808	48380
23,68222	48908
23,68633	49809
23,69045	47645
23,69458	44444
23,69870	46458
23,70282	47474
23,70695	45403
23,71107	45626
23,71518	45444
23,71932	41984
23,72343	43666
23,72755	45469
23,73168	41174
23,73580	41189
23,73992	41388
23,74405	39951
23,74817	40024
23,75228	40374
23,75640	39264
23,76053	39559
23,76465	37309
23,76877	40322
23,77290	38089
23,77702	38300
23,78113	36569
23,78527	36112
23,78938	39272
23,79350	35328
23,79763	38552
23,80175	37846
23,80587	36555
23,81000	35762
23,81412	36070
23,81823	36224
23,82237	38040
23,82648	40086
23,83060	41980
23,83473	48052
23,83885	54589
23,84297	71404
23,84708	100093
23,85122	138814
23,85533	200465
23,85945	301074
23,86358	441255
23,86770	638620
23,87182	879372
23,87595	1180285
23,88007	1533636
23,88418	1898577
23,88832	2306686
23,89243	2681049
23,89655	2958399
23,90068	3107582
23,90480	3122478
23,90892	2998382
23,91305	2761441
23,91717	2460152
23,92128	2128506
23,92542	1821388
23,92953	1546026
23,93365	1309026
23,93777	1121347
23,94190	963473
23,94602	829774
23,95013	737742
23,95427	649824
23,95838	582548
23,96250	515765
23,96663	471959
23,97075	433951
23,97487	399745
23,97900	365722
23,98312	339906
23,98723	317540
23,99137	294934
23,99548	280324
23,99960	259428
24,00373	244028
24,00785	233574
24,01197	222235
24,01610	213937
24,02022	204943
24,02433	193584
24,02845	183467
24,03258	171696
24,03670	167040
24,04082	162662
24,04495	153994
24,04907	146742
24,05318	142526
24,05732	138164
24,06143	131702
24,06555	129049
24,06968	127136
24,07380	123772
24,07792	116565
24,08205	113981
24,08617	112870
24,09028	110022
24,09442	103294
24,09853	104819
24,10265	102425
24,10678	97606
24,11090	94103
24,11502	92992
24,11915	93567
24,12327	89066
24,12738	84435
24,13150	86204
24,13563	81476
24,13975	81440
24,14387	80881
24,14800	82575
24,15212	79867
24,15623	77265
24,16037	77674
24,16448	75540
24,16860	75528
24,17273	75468
24,17685	74554
24,18097	73203
24,18510	69401
24,18922	68171
24,19333	70302
24,19747	66139
24,20158	68914
24,20570	67398
24,20983	65880
24,21395	62659
24,21807	63469
24,22218	61685
24,22632	59302
24,23043	62133
24,23455	59367
24,23868	57448
24,24280	58850
24,24692	57665
24,25105	57599
24,25517	57444
24,25928	56796
24,26342	55227
24,26753	56664
24,27165	54286
24,27578	53248
24,27990	53052
24,28402	52319
24,28815	54020
24,29227	53684
24,29638	56852
24,30052	60568
24,30463	69143
24,30875	79922
24,31287	104687
24,31700	144708
24,32112	198755
24,32523	280864
24,32937	393594
24,33348	537562
24,33760	707880
24,34173	907645
24,34585	1088829
24,34997	1270676
24,35410	1388610
24,35822	1465565
24,36233	1463010
24,36647	1411715
24,37058	1299750
24,37470	1177703
24,37883	1042023
24,38295	916082
24,38707	789496
24,39120	690946
24,39532	604841
24,39943	531964
24,40355	464620
24,40768	419701
24,41180	374383
24,41592	341967
24,42005	305867
24,42417	286471
24,42828	268270
24,43242	246373
24,43653	230490
24,44065	209688
24,44478	202413
24,44890	189721
24,45302	182454
24,45715	172142
24,46127	161949
24,46538	157143
24,46952	148185
24,47363	143964
24,47775	136041
24,48188	128893
24,48600	127248
24,49012	121538
24,49423	118406
24,49837	114593
24,50248	112384
24,50660	108889
24,51073	104903
24,51485	102306
24,51897	100378
24,52310	95160
24,52722	95213
24,53133	92478
24,53547	92085
24,53958	89049
24,54370	83761
24,54783	82999
24,55195	82293
24,55607	82444
24,56020	74674
24,56432	78968
24,56843	76887
24,57257	73754
24,57668	71286
24,58080	70825
24,58492	70258
24,58905	69629
24,59317	67331
24,59728	66752
24,60142	68411
24,60553	65516
24,60965	64188
24,61378	64595
24,61790	61599
24,62202	60473
24,62615	60540
24,63027	61610
24,63438	57985
24,63852	60603
24,64263	58396
24,64675	58560
24,65088	55915
24,65500	58740
24,65912	57171
24,66325	58422
24,66737	58987
24,67148	60596
24,67560	64364
24,67973	63120
24,68385	67220
24,68797	76366
24,69210	81946
24,69622	91222
24,70033	100200
24,70447	105766
24,70858	119751
24,71270	128594
24,71683	133643
24,72095	138339
24,72507	135531
24,72920	137225
24,73332	129002
24,73743	123526
24,74157	118025
24,74568	109177
24,74980	104002
24,75393	92625
24,75805	85346
24,76217	81103
24,76628	75443
24,77042	71681
24,77453	69257
24,77865	64589
24,78278	62201
24,78690	60480
24,79102	58323
24,79515	56337
24,79927	56482
24,80338	54517
24,80752	51675
24,81163	51938
24,81575	54139
24,81988	51472
24,82400	50165
24,82812	50657
24,83225	50575
24,83637	48980
24,84048	50515
24,84462	49355
24,84873	51117
24,85285	48439
24,85697	48370
24,86110	47377
24,86522	44756
24,86933	48755
24,87347	46221
24,87758	47668
24,88170	47353
24,88583	43572
24,88995	43775
24,89407	46191
24,89820	47461
24,90232	46406
24,90643	46736
24,91057	47688
24,91468	44209
24,91880	46592
24,92293	44710
24,92705	45862
24,93117	47101
24,93530	45113
24,93942	46503
24,94353	43164
24,94765	46095
24,95178	43098
24,95590	44738
24,96002	46300
24,96415	47444
24,96827	43783
24,97238	42691
24,97652	44965
24,98063	43747
24,98475	42137
24,98888	43819
24,99300	41618
24,99712	45031
25,00125	43237
25,00537	44225
25,00948	41900
25,01362	42176
25,01773	42626
25,02185	42204
25,02598	41451
25,03010	44125
25,03422	40514
25,03833	45177
25,04247	44204
25,04658	42086
25,05070	43178
25,05483	41794
25,05895	41810
25,06307	45162
25,06720	45105
25,07132	44279
25,07543	42416
25,07957	43925
25,08368	43856
25,08780	44409
25,09193	43917
25,09605	44588
25,10017	43416
25,10430	45457
25,10842	43794
25,11253	42992
25,11667	44673
25,12078	39902
25,12490	44867
25,12902	45382
25,13315	43990
25,13727	42123
25,14138	43495
25,14552	42098
25,14963	44528
25,15375	43437
25,15788	43769
25,16200	45029
25,16612	45396
25,17025	44334
25,17437	44878
25,17848	44178
25,18262	43307
25,18673	44741
25,19085	42295
25,19498	43852
25,19910	44366
25,20322	44358
25,20735	45852
25,21147	45516
25,21558	44516
25,21970	42147
25,22383	42323
25,22795	42330
25,23207	43249
25,23620	45135
25,24032	45510
25,24443	39264
25,24857	43625
25,25268	42735
25,25680	41808
25,26093	42081
25,26505	42851
25,26917	42196
25,27330	43678
25,27742	43250
25,28153	41798
25,28567	42821
25,28978	40083
25,29390	40784
25,29803	41758
25,30215	42628
25,30627	39672
25,31038	39394
25,31452	39898
25,31863	39906
25,32275	42918
25,32688	43496
25,33100	42730
25,33512	42333
25,33925	44243
25,34337	39518
25,34748	42205
25,35162	40075
25,35573	40627
25,35985	42276
25,36398	41974
25,36810	44048
25,37222	43198
25,37635	42806
25,38047	39820
25,38458	41451
25,38872	41344
25,39283	43117
25,39695	43340
25,40107	42501
25,40520	40143
25,40932	38395
25,41343	41446
25,41757	39557
25,42168	43300
25,42580	39972
25,42993	42393
25,43405	40344
25,43817	39661
25,44230	41611
25,44642	41401
25,45053	39675
25,45467	41269
25,45878	43128
25,46290	40489
25,46703	42735
25,47115	43766
25,47527	42493
25,47940	40110
25,48352	41789
25,48763	41002
25,49175	44765
25,49588	44725
25,50000	42785
25,50412	40409
25,50825	40199
25,51237	41543
25,51648	42614
25,52062	43684
25,52473	41024
25,52885	44602
25,53298	43281
25,53710	43551
25,54122	42315
25,54535	44701
25,54947	42883
25,55358	39947
25,55772	42728
25,56183	45833
25,56595	45902
25,57008	48842
25,57420	52717
25,57832	62556
25,58243	70934
25,58657	95052
25,59068	119530
25,59480	163328
25,59893	223184
25,60305	292148
25,60717	385383
25,61130	480230
25,61542	574461
25,61953	670203
25,62367	754984
25,62778	801553
25,63190	822508
25,63603	826346
25,64015	797218
25,64427	745974
25,64840	683757
25,65252	623488
25,65663	554861
25,66077	489870
25,66488	431105
25,66900	387369
25,67312	338273
25,67725	296551
25,68137	270342
25,68548	244314
25,68962	218217
25,69373	198911
25,69785	183260
25,70198	168413
25,70610	157905
25,71022	145666
25,71435	136517
25,71847	131667
25,72258	123625
25,72672	115506
25,73083	110891
25,73495	107522
25,73908	103306
25,74320	101349
25,74732	90438
25,75145	89966
25,75557	89196
25,75968	87271
25,76380	80995
25,76793	82753
25,77205	80381
25,77617	79497
25,78030	76014
25,78442	72657
25,78853	76020
25,79267	71830
25,79678	69393
25,80090	66839
25,80503	67232
25,80915	66562
25,81327	66260
25,81740	60687
25,82152	64054
25,82563	64527
25,82977	62437
25,83388	60584
25,83800	61175
25,84213	62313
25,84625	58720
25,85037	60191
25,85450	58283
25,85862	55808
25,86273	58576
25,86685	56540
25,87098	57022
25,87510	54624
25,87922	57099
25,88335	55421
25,88747	55403
25,89158	51489
25,89572	50905
25,89983	55688
25,90395	54682
25,90808	54681
25,91220	52305
25,91632	53674
25,92045	51007
25,92457	50939
25,92868	50927
25,93282	49967
25,93693	51090
25,94105	51606
25,94518	51082
25,94930	51092
25,95342	49053
25,95753	47731
25,96167	51404
25,96578	48759
25,96990	47863
25,97403	48837
25,97815	47653
25,98227	48256
25,98640	50134
25,99052	47649
25,99463	50565
25,99877	48442
26,00288	50494
26,00700	51457
26,01113	50364
26,01525	51550
26,01937	49090
26,02350	49234
26,02762	49662
26,03173	48216
26,03587	48400
26,03998	51142
26,04410	47339
26,04822	47968
26,05235	49063
26,05647	48611
26,06058	48376
26,06472	46163
26,06883	48576
26,07295	48353
26,07708	46936
26,08120	50465
26,08532	48058
26,08945	47272
26,09357	47959
26,09768	49052
26,10182	46386
26,10593	49918
26,11005	47521
26,11418	47648
26,11830	48817
26,12242	47229
26,12655	44155
26,13067	46022
26,13478	45632
26,13890	47806
26,14303	44107
26,14715	46616
26,15127	45668
26,15540	47153
26,15952	46210
26,16363	48321
26,16777	47622
26,17188	46752
26,17600	48615
26,18013	48284
26,18425	47045
26,18837	47146
26,19250	46663
26,19662	47437
26,20073	46117
26,20487	45193
26,20898	46113
26,21310	44928
26,21723	46365
26,22135	47489
26,22547	43712
26,22958	45850
26,23372	45807
26,23783	47630
26,24195	45066
26,24608	44099
26,25020	46496
26,25432	42199
26,25845	45631
26,26257	43202
26,26668	42709
26,27082	43990
26,27493	45655
26,27905	46694
26,28318	44194
26,28730	44557
26,29142	43399
