D:\MassHunter\GCMS\1\data\Amal\Constant flow\120C\120C_1ml-min_4C-min_3.D Tue Sep 17 13:49:27 2024
Start of data points
5,29083	196163
5,29497	192832
5,29908	183887
5,30320	176954
5,30733	174612
5,31145	175575
5,31557	174551
5,31970	166075
5,32382	163993
5,32793	163187
5,33205	156012
5,33618	158597
5,34030	155460
5,34442	152095
5,34855	149693
5,35267	148607
5,35678	143610
5,36092	141588
5,36503	138718
5,36915	136677
5,37328	137357
5,37740	138308
5,38152	133976
5,38565	131281
5,38977	128594
5,39388	128128
5,39802	128428
5,40213	123967
5,40625	125428
5,41038	121246
5,41450	120183
5,41862	120440
5,42273	116248
5,42687	117885
5,43098	115255
5,43510	114580
5,43923	115097
5,44335	112315
5,44747	111099
5,45160	109669
5,45572	109725
5,45983	109347
5,46397	107945
5,46808	109110
5,47220	104956
5,47633	104328
5,48045	106195
5,48457	103388
5,48870	103229
5,49282	104769
5,49693	103116
5,50107	102960
5,50518	100806
5,50930	103831
5,51342	96843
5,51755	99793
5,52167	101562
5,52578	98644
5,52992	96686
5,53403	99409
5,53815	95687
5,54228	95723
5,54640	98930
5,55052	94270
5,55465	94752
5,55877	95706
5,56288	94917
5,56702	94138
5,57113	97175
5,57525	95373
5,57938	96142
5,58350	96323
5,58762	97999
5,59175	96673
5,59587	94853
5,59998	95353
5,60410	98615
5,60823	97357
5,61235	97767
5,61647	94059
5,62060	96811
5,62472	96451
5,62883	96339
5,63297	96353
5,63708	96182
5,64120	100536
5,64533	98343
5,64945	98379
5,65357	101707
5,65770	98265
5,66182	97440
5,66593	99292
5,67007	100940
5,67418	94913
5,67830	97338
5,68243	96148
5,68655	95096
5,69067	95086
5,69478	98017
5,69892	97644
5,70303	95495
5,70715	95094
5,71128	91388
5,71540	95563
5,71952	91857
5,72365	92705
5,72777	92518
5,73188	90595
5,73602	90266
5,74013	89532
5,74425	90264
5,74838	88901
5,75250	86675
5,75662	87587
5,76075	89562
5,76487	88147
5,76898	86238
5,77312	83897
5,77723	87033
5,78135	82806
5,78547	85050
5,78960	89920
5,79372	97458
5,79783	116637
5,80197	146488
5,80608	196718
5,81020	267824
5,81433	356388
5,81845	457139
5,82257	559081
5,82670	647942
5,83082	731449
5,83493	783644
5,83907	807790
5,84318	827067
5,84730	824596
5,85143	814417
5,85555	796848
5,85967	778438
5,86380	751199
5,86792	725226
5,87203	705317
5,87615	687170
5,88028	653056
5,88440	631420
5,88852	606549
5,89265	588159
5,89677	563547
5,90088	543353
5,90502	526540
5,90913	508552
5,91325	492600
5,91738	467748
5,92150	461224
5,92562	437341
5,92975	424115
5,93387	403776
5,93798	394885
5,94212	376266
5,94623	360982
5,95035	353900
5,95448	334280
5,95860	321489
5,96272	313109
5,96683	302113
5,97097	287655
5,97508	271888
5,97920	260489
5,98333	248098
5,98745	234757
5,99157	223595
5,99570	212833
5,99982	200457
6,00393	186306
6,00807	180988
6,01218	172129
6,01630	160493
6,02043	154959
6,02455	147594
6,02867	141399
6,03280	134318
6,03692	128136
6,04103	122629
6,04517	117359
6,04928	113433
6,05340	106894
6,05752	106259
6,06165	103710
6,06577	99104
6,06988	96385
6,07402	94823
6,07813	90108
6,08225	85111
6,08638	86119
6,09050	82828
6,09462	82541
6,09875	79133
6,10287	76854
6,10698	76141
6,11112	72811
6,11523	73953
6,11935	73774
6,12348	70451
6,12760	66806
6,13172	71052
6,13585	66702
6,13997	66407
6,14408	65261
6,14820	66102
6,15233	65513
6,15645	66050
6,16057	64791
6,16470	62671
6,16882	62289
6,17293	63703
6,17707	62069
6,18118	61985
6,18530	61851
6,18943	60313
6,19355	62139
6,19767	60925
6,20180	59115
6,20592	59538
6,21003	59431
6,21417	58828
6,21828	56763
6,22240	59002
6,22653	57979
6,23065	57270
6,23477	58535
6,23888	57201
6,24302	55974
6,24713	54876
6,25125	55448
6,25538	55510
6,25950	56043
6,26362	54708
6,26775	53493
6,27187	53542
6,27598	51768
6,28012	50515
6,28423	51797
6,28835	50272
6,29248	51920
6,29660	49570
6,30072	51549
6,30485	50048
6,30897	51080
6,31308	49232
6,31722	50082
6,32133	48648
6,32545	49118
6,32957	50733
6,33370	48848
6,33782	49747
6,34193	49707
6,34607	48584
6,35018	48780
6,35430	48335
6,35843	49853
6,36255	50245
6,36667	48757
6,37080	48865
6,37492	49659
6,37903	48087
6,38317	48781
6,38728	48802
6,39140	46730
6,39553	46472
6,39965	46024
6,40377	47307
6,40790	46272
6,41202	46780
6,41613	46117
6,42025	46244
6,42438	45159
6,42850	46208
6,43262	46640
6,43675	45872
6,44087	46273
6,44498	45825
6,44912	44564
6,45323	44845
6,45735	44916
6,46148	44533
6,46560	43405
6,46972	45042
6,47385	43578
6,47797	41427
6,48208	43092
6,48622	43292
6,49033	44307
6,49445	45072
6,49858	42697
6,50270	46336
6,50682	45618
6,51093	44687
6,51507	44848
6,51918	43658
6,52330	43322
6,52743	44137
6,53155	44538
6,53567	43276
6,53980	43237
6,54392	43526
6,54803	43253
6,55217	42943
6,55628	41716
6,56040	41691
6,56453	42341
6,56865	42619
6,57277	42305
6,57690	42215
6,58102	40345
6,58513	40676
6,58927	40929
6,59338	42116
6,59750	42302
6,60162	40490
6,60575	39552
6,60987	40498
6,61398	38751
6,61812	39723
6,62223	41881
6,62635	38575
6,63048	39275
6,63460	39640
6,63872	40164
6,64285	38411
6,64697	40201
6,65108	38883
6,65522	38453
6,65933	39441
6,66345	38597
6,66758	39029
6,67170	38175
6,67582	38743
6,67995	38410
6,68407	37443
6,68818	39722
6,69230	38482
6,69643	36990
6,70055	38219
6,70467	37303
6,70880	38120
6,71292	38848
6,71703	37872
6,72117	38848
6,72528	38485
6,72940	37365
6,73353	36598
6,73765	35782
6,74177	37394
6,74590	38106
6,75002	39184
6,75413	37812
6,75827	39143
6,76238	39479
6,76650	39837
6,77063	38461
6,77475	39151
6,77887	38944
6,78298	38695
6,78712	38132
6,79123	38061
6,79535	38254
6,79948	36692
6,80360	35459
6,80772	37009
6,81185	37916
6,81597	36437
6,82008	36933
6,82422	34700
6,82833	36182
6,83245	36728
6,83658	36824
6,84070	35335
6,84482	36306
6,84895	34981
6,85307	36040
6,85718	34073
6,86132	34925
6,86543	34772
6,86955	33404
6,87368	34279
6,87780	34818
6,88192	32833
6,88603	35363
6,89017	34942
6,89428	34030
6,89840	34786
6,90253	33834
6,90665	33419
6,91077	33573
6,91490	34574
6,91902	33457
6,92313	33199
6,92727	33483
6,93138	35664
6,93550	36224
6,93963	34413
6,94375	33004
6,94787	32596
6,95200	33864
6,95612	32892
6,96023	33697
6,96437	32294
6,96848	31725
6,97260	32797
6,97672	33269
6,98085	31875
6,98497	32837
6,98908	33712
6,99322	31887
6,99733	32062
7,00145	30429
7,00558	32824
7,00970	32655
7,01382	31803
7,01795	31760
7,02207	31560
7,02618	31317
7,03032	33569
7,03443	30451
7,03855	31730
7,04268	30407
7,04680	31630
7,05092	31651
7,05505	31523
7,05917	31130
7,06328	29339
7,06740	30691
7,07153	30749
7,07565	29953
7,07977	30743
7,08390	30509
7,08802	31381
7,09213	30818
7,09627	29417
7,10038	30179
7,10450	31407
7,10863	30548
7,11275	29784
7,11687	30829
7,12100	29912
7,12512	30898
7,12923	29422
7,13337	30736
7,13748	28955
7,14160	29436
7,14573	30301
7,14985	30752
7,15397	29584
7,15808	30466
7,16222	29107
7,16633	31712
7,17045	29636
7,17458	28915
7,17870	28895
7,18282	30010
7,18695	29907
7,19107	29417
7,19518	30387
7,19932	29743
7,20343	29833
7,20755	30985
7,21168	30524
7,21580	31081
7,21992	28925
7,22405	29382
7,22817	28906
7,23228	28048
7,23642	26810
7,24053	27511
7,24465	30740
7,24877	28625
7,25290	28603
7,25702	28377
7,26113	29604
7,26527	29421
7,26938	28491
7,27350	29314
7,27763	28707
7,28175	27186
7,28587	29836
7,29000	31780
7,29412	34870
7,29823	40606
7,30237	52475
7,30648	71921
7,31060	106444
7,31473	151223
7,31885	213187
7,32297	298055
7,32710	394900
7,33122	497954
7,33533	603255
7,33945	714362
7,34358	808109
7,34770	887543
7,35182	942023
7,35595	983697
7,36007	1003171
7,36418	1009211
7,36832	987707
7,37243	978486
7,37655	953087
7,38068	934046
7,38480	902941
7,38892	870428
7,39305	831780
7,39717	805883
7,40128	764920
7,40542	733764
7,40953	697633
7,41365	662008
7,41778	641443
7,42190	604193
7,42602	579295
7,43013	541088
7,43427	516216
7,43838	488471
7,44250	464178
7,44663	427865
7,45075	412656
7,45487	386085
7,45900	358852
7,46312	335561
7,46723	311709
7,47137	286440
7,47548	265014
7,47960	244686
7,48373	226905
7,48785	211912
7,49197	194668
7,49610	178657
7,50022	169169
7,50433	156512
7,50847	143846
7,51258	134768
7,51670	121971
7,52082	117491
7,52495	109835
7,52907	99839
7,53318	96172
7,53732	87566
7,54143	85002
7,54555	78558
7,54968	73347
7,55380	71035
7,55792	68014
7,56205	62807
7,56617	62096
7,57028	58528
7,57442	58012
7,57853	52220
7,58265	53271
7,58678	51381
7,59090	48723
7,59502	46006
7,59915	46133
7,60327	46075
7,60738	42068
7,61150	42832
7,61563	41155
7,61975	41215
7,62387	40349
7,62800	39627
7,63212	38076
7,63623	37776
7,64037	38802
7,64448	38145
7,64860	36474
7,65273	37366
7,65685	36709
7,66097	34744
7,66510	35507
7,66922	33684
7,67333	33516
7,67747	31811
7,68158	33007
7,68570	32028
7,68983	30419
7,69395	31408
7,69807	31274
7,70218	29499
7,70632	30578
7,71043	30723
7,71455	30436
7,71868	29242
7,72280	28665
7,72692	29324
7,73105	27646
7,73517	29093
7,73928	28973
7,74342	28050
7,74753	27276
7,75165	29330
7,75578	29115
7,75990	27871
7,76402	26134
7,76815	28139
7,77227	27185
7,77638	26175
7,78052	26178
7,78463	26163
7,78875	26260
7,79287	27127
7,79700	29157
7,80112	25943
7,80523	27525
7,80937	26644
7,81348	26624
7,81760	25954
7,82173	27029
7,82585	28117
7,82997	26951
7,83410	27323
7,83822	26952
7,84233	26804
7,84647	26155
7,85058	26901
7,85470	26728
7,85883	27596
7,86295	27294
7,86707	25606
7,87120	26565
7,87532	25581
7,87943	25907
7,88355	24111
7,88768	26106
7,89180	24082
7,89592	23737
7,90005	24857
7,90417	23947
7,90828	24085
7,91242	24889
7,91653	25073
7,92065	25571
7,92478	24815
7,92890	24704
7,93302	24452
7,93715	24188
7,94127	22536
7,94538	23384
7,94952	23625
7,95363	24658
7,95775	24161
7,96188	23559
7,96600	23247
7,97012	24468
7,97423	23541
7,97837	23868
7,98248	22347
7,98660	24554
7,99073	23512
7,99485	23823
7,99897	21858
8,00310	22140
8,00722	21531
8,01133	24801
8,01547	22173
8,01958	22586
8,02370	22484
8,02783	23642
8,03195	24166
8,03607	21870
8,04020	23171
8,04432	22488
8,04843	21139
8,05257	22378
8,05668	21635
8,06080	21972
8,06492	22625
8,06905	21952
8,07317	21926
8,07728	22139
8,08142	22418
8,08553	22504
8,08965	20831
8,09378	23057
8,09790	21588
8,10202	21952
8,10615	22563
8,11027	23001
8,11438	21035
8,11852	21591
8,12263	22475
8,12675	23023
8,13088	20161
8,13500	22341
8,13912	22214
8,14325	21659
8,14737	21764
8,15148	20956
8,15560	20717
8,15973	19862
8,16385	21139
8,16797	21738
8,17210	20516
8,17622	20949
8,18033	20368
8,18447	19955
8,18858	19047
8,19270	18660
8,19683	20725
8,20095	20638
8,20507	21116
8,20920	20529
8,21332	20274
8,21743	21665
8,22157	20685
8,22568	22545
8,22980	21643
8,23393	22112
8,23805	22085
8,24217	20041
8,24628	20015
8,25042	19272
8,25453	20534
8,25865	20654
8,26278	19601
8,26690	19306
8,27102	20700
8,27515	19147
8,27927	20053
8,28338	19757
8,28752	20192
8,29163	20392
8,29575	20732
8,29988	20785
8,30400	21745
8,30812	20222
8,31225	21348
8,31637	20582
8,32048	20490
8,32462	21724
8,32873	20309
8,33285	21620
8,33697	20258
8,34110	21782
8,34522	23644
8,34933	26769
8,35347	33605
8,35758	41885
8,36170	56813
8,36583	79016
8,36995	108474
8,37407	140102
8,37820	179600
8,38232	234717
8,38643	295504
8,39057	356790
8,39468	405897
8,39880	456156
8,40293	491050
8,40705	529485
8,41117	549039
8,41530	559108
8,41942	567110
8,42353	560774
8,42767	549426
8,43178	541284
8,43590	523311
8,44002	504604
8,44415	485517
8,44827	463096
8,45238	447033
8,45652	424166
8,46063	403348
8,46475	380930
8,46888	361357
8,47300	336736
8,47712	311113
8,48125	297497
8,48537	278193
8,48948	256912
8,49362	243914
8,49773	224660
8,50185	204460
8,50598	191236
8,51010	173498
8,51422	163501
8,51835	145390
8,52247	136294
8,52658	128034
8,53070	116135
8,53483	107884
8,53895	98290
8,54307	91271
8,54720	84472
8,55132	78924
8,55543	73709
8,55957	66051
8,56368	61611
8,56780	58584
8,57193	54968
8,57605	52583
8,58017	49428
8,58430	44117
8,58842	45753
8,59253	43310
8,59667	41300
8,60078	39719
8,60490	39045
8,60903	37027
8,61315	35465
8,61727	34440
8,62138	34590
8,62552	33615
8,62963	33232
8,63375	33451
8,63788	32838
8,64200	31708
8,64612	31699
8,65025	30610
8,65437	30230
8,65848	29037
8,66262	29279
8,66673	29246
8,67085	28693
8,67498	29034
8,67910	27977
8,68322	29812
8,68735	27206
8,69147	25892
8,69558	25899
8,69972	26362
8,70383	26307
8,70795	25379
8,71207	25114
8,71620	24578
8,72032	23902
8,72443	23344
8,72857	23759
8,73268	22223
8,73680	24849
8,74093	22158
8,74505	22667
8,74917	23540
8,75330	22683
8,75742	21390
8,76153	21988
8,76567	20103
8,76978	21768
8,77390	20410
8,77803	21693
8,78215	20930
8,78627	20726
8,79040	18342
8,79452	19881
8,79863	19749
8,80275	19940
8,80688	19538
8,81100	20287
8,81512	18988
8,81925	18805
8,82337	20784
8,82748	19382
8,83162	21153
8,83573	20486
8,83985	20881
8,84398	20865
8,84810	20824
8,85222	20655
8,85635	20443
8,86047	21064
8,86458	21331
8,86872	21957
8,87283	20403
8,87695	21399
8,88108	20390
8,88520	19202
8,88932	20893
8,89343	19471
8,89757	18522
8,90168	18763
8,90580	17951
8,90993	20213
8,91405	19748
8,91817	18877
8,92230	18678
8,92642	19965
8,93053	18182
8,93467	17648
8,93878	16937
8,94290	18852
8,94703	17645
8,95115	16996
8,95527	16817
8,95940	18786
8,96352	16621
8,96763	17632
8,97177	17357
8,97588	17860
8,98000	17493
8,98412	17116
8,98825	15940
8,99237	16343
8,99648	17038
9,00062	15776
9,00473	16734
9,00885	16907
9,01298	15590
9,01710	17400
9,02122	15893
9,02535	15834
9,02947	17016
9,03358	15894
9,03772	15812
9,04183	15049
9,04595	15884
9,05008	14510
9,05420	17025
9,05832	16639
9,06245	15966
9,06657	14616
9,07068	14368
9,07480	15498
9,07893	15445
9,08305	14918
9,08717	17016
9,09130	15532
9,09542	15162
9,09953	15542
9,10367	15290
9,10778	15211
9,11190	14904
9,11603	15338
9,12015	15947
9,12427	16174
9,12840	14940
9,13252	16083
9,13663	16140
9,14077	14580
9,14488	15282
9,14900	15957
9,15313	14836
9,15725	14734
9,16137	15505
9,16548	15540
9,16962	15018
9,17373	15048
9,17785	15406
9,18198	16243
9,18610	14629
9,19022	14299
9,19435	14648
9,19847	16059
9,20258	14314
9,20672	14731
9,21083	14388
9,21495	13967
9,21908	15166
9,22320	15520
9,22732	15890
9,23145	14919
9,23557	16195
9,23968	15163
9,24382	14910
9,24793	13582
9,25205	14832
9,25617	15236
9,26030	13073
9,26442	14636
9,26853	14232
9,27267	15060
9,27678	14901
9,28090	14589
9,28503	14399
9,28915	14869
9,29327	13617
9,29740	13217
9,30152	14180
9,30563	14468
9,30977	14981
9,31388	15221
9,31800	14545
9,32213	14061
9,32625	15410
9,33037	14382
9,33450	14722
9,33862	14786
9,34273	14727
9,34685	14071
9,35098	14897
9,35510	13995
9,35922	15489
9,36335	15075
9,36747	14001
9,37158	14541
9,37572	14854
9,37983	13722
9,38395	14696
9,38808	15564
9,39220	13952
9,39632	13620
9,40045	13760
9,40457	14119
9,40868	14782
9,41282	14050
9,41693	14697
9,42105	15472
9,42518	13806
9,42930	14212
9,43342	14879
9,43753	15257
9,44167	13640
9,44578	13142
9,44990	13768
9,45403	13369
9,45815	13892
9,46227	13529
9,46640	15135
9,47052	13821
9,47463	14518
9,47877	13818
9,48288	14312
9,48700	14163
9,49113	13396
9,49525	14273
9,49937	13659
9,50350	13197
9,50762	13456
9,51173	12983
9,51587	13448
9,51998	12460
9,52410	14520
9,52822	13199
9,53235	12880
9,53647	13130
9,54058	14153
9,54472	13723
9,54883	14142
9,55295	14081
9,55708	14448
9,56120	14710
9,56532	15112
9,56945	14782
9,57357	16263
9,57768	18566
9,58182	21524
9,58593	28604
9,59005	38233
9,59418	56956
9,59830	80963
9,60242	121772
9,60655	172151
9,61067	243950
9,61478	329942
9,61890	441356
9,62303	551105
9,62715	670402
9,63127	806216
9,63540	926135
9,63952	1030349
9,64363	1125216
9,64777	1205591
9,65188	1239914
9,65600	1282322
9,66013	1297928
9,66425	1297808
9,66837	1262070
9,67250	1221660
9,67662	1183184
9,68073	1124027
9,68487	1065786
9,68898	1000157
9,69310	949149
9,69723	887859
9,70135	813723
9,70547	766977
9,70958	701839
9,71372	643053
9,71783	589377
9,72195	535778
9,72608	488459
9,73020	442087
9,73432	397065
9,73845	360274
9,74257	324753
9,74668	294975
9,75082	264223
9,75493	241038
9,75905	213124
9,76318	196656
9,76730	181957
9,77142	164683
9,77555	149596
9,77967	133353
9,78378	126906
9,78792	117555
9,79203	105689
9,79615	97382
9,80027	90661
9,80440	85262
9,80852	77972
9,81263	75825
9,81677	70086
9,82088	65849
9,82500	63261
9,82913	60318
9,83325	57639
9,83737	52496
9,84150	51379
9,84562	50511
9,84973	46983
9,85387	45709
9,85798	43383
9,86210	42271
9,86623	41618
9,87035	39832
9,87447	37154
9,87860	37014
9,88272	35134
9,88683	34441
9,89095	33747
9,89508	31925
9,89920	31544
9,90332	31552
9,90745	29732
9,91157	29770
9,91568	29594
9,91982	27826
9,92393	27655
9,92805	26885
9,93218	26318
9,93630	25187
9,94042	25504
9,94455	24902
9,94867	25248
9,95278	24649
9,95692	21593
9,96103	23733
9,96515	23194
9,96928	21973
9,97340	22321
9,97752	21304
9,98165	21713
9,98577	20164
9,98988	20677
9,99400	19982
9,99813	19956
10,00225	19487
10,00637	19425
10,01050	20128
10,01462	19981
10,01873	18345
10,02287	17100
10,02698	18292
10,03110	18139
10,03523	17241
10,03935	17932
10,04347	16340
10,04760	19388
10,05172	18178
10,05583	16715
10,05997	17193
10,06408	16477
10,06820	15897
10,07233	16829
10,07645	16105
10,08057	15716
10,08468	16430
10,08882	15751
10,09293	15933
10,09705	16758
10,10118	15029
10,10530	15220
10,10942	15139
10,11355	15891
10,11767	14553
10,12178	14680
10,12592	14461
10,13003	14849
10,13415	14321
10,13828	16136
10,14240	13114
10,14652	14280
10,15065	14988
10,15477	15264
10,15888	14231
10,16302	13118
10,16713	14025
10,17125	14194
10,17537	13951
10,17950	13606
10,18362	13278
10,18773	13528
10,19187	12854
10,19598	14404
10,20010	14853
10,20423	13815
10,20835	13221
10,21247	13900
10,21660	13931
10,22072	13850
10,22483	12400
10,22897	13030
10,23308	12556
10,23720	13593
10,24133	13641
10,24545	13088
10,24957	12340
10,25370	13671
10,25782	13019
10,26193	14067
10,26605	11844
10,27018	13091
10,27430	13249
10,27842	12499
10,28255	12495
10,28667	12604
10,29078	12889
10,29492	12852
10,29903	12378
10,30315	12886
10,30728	13770
10,31140	12314
10,31552	12135
10,31965	13187
10,32377	13671
10,32788	12431
10,33202	13705
10,33613	13288
10,34025	13429
10,34438	12678
10,34850	12654
10,35262	13923
10,35673	12866
10,36087	12568
10,36498	13353
10,36910	13274
10,37323	12910
10,37735	12276
10,38147	12610
10,38560	12815
10,38972	13319
10,39383	13190
10,39797	12941
10,40208	12149
10,40620	12549
10,41033	12450
10,41445	12407
10,41857	13848
10,42270	14289
10,42682	15011
10,43093	14027
10,43507	15586
10,43918	14644
10,44330	16136
10,44742	15604
10,45155	16355
10,45567	16160
10,45978	17193
10,46392	17979
10,46803	17160
10,47215	18119
10,47628	18273
10,48040	18299
10,48452	19023
10,48865	17532
10,49277	17805
10,49688	16529
10,50102	17665
10,50513	16553
10,50925	17175
10,51338	16141
10,51750	17057
10,52162	15797
10,52575	15509
10,52987	15509
10,53398	15342
10,53810	14591
10,54223	13695
10,54635	14261
10,55047	14144
10,55460	13232
10,55872	13095
10,56283	13852
10,56697	13313
10,57108	13035
10,57520	12892
10,57933	11805
10,58345	13115
10,58757	11953
10,59170	11851
10,59582	12384
10,59993	10906
10,60407	11831
10,60818	10173
10,61230	12177
10,61643	12293
10,62055	11238
10,62467	11380
10,62878	10781
10,63292	10744
10,63703	11623
10,64115	9938
10,64528	10637
10,64940	11271
10,65352	11503
10,65765	11152
10,66177	10718
10,66588	11139
10,67002	8902
10,67413	11398
10,67825	10741
10,68238	10407
10,68650	10677
10,69062	10386
10,69475	11018
10,69887	10510
10,70298	10128
10,70712	11156
10,71123	11481
10,71535	10257
10,71947	10270
10,72360	10235
10,72772	10320
10,73183	10066
10,73597	9194
10,74008	9825
10,74420	10183
10,74833	10455
10,75245	10564
10,75657	10493
10,76070	10683
10,76482	10241
10,76893	10054
10,77307	10844
10,77718	10283
10,78130	10539
10,78543	9992
10,78955	10631
10,79367	9809
10,79780	10135
10,80192	9453
10,80603	10157
10,81015	10153
10,81428	9808
10,81840	10437
10,82252	10042
10,82665	9676
10,83077	9604
10,83488	9826
10,83902	10391
10,84313	9754
10,84725	9599
10,85138	11116
10,85550	10504
10,85962	11123
10,86375	11084
10,86787	10098
10,87198	10087
10,87612	10046
10,88023	9233
10,88435	9207
10,88848	9428
10,89260	9625
10,89672	10838
10,90083	9100
10,90497	10073
10,90908	9109
10,91320	10293
10,91733	9966
10,92145	9337
10,92557	9480
10,92970	8607
10,93382	10241
10,93793	8818
10,94207	10176
10,94618	9764
10,95030	10054
10,95443	8985
10,95855	10486
10,96267	10595
10,96680	12868
10,97092	13101
10,97503	15880
10,97917	21490
10,98328	29733
10,98740	41220
10,99152	57244
10,99565	81283
10,99977	113893
11,00388	157568
11,00802	202819
11,01213	258646
11,01625	330102
11,02038	400630
11,02450	467194
11,02862	538702
11,03275	599879
11,03687	638008
11,04098	684453
11,04512	701466
11,04923	718654
11,05335	723635
11,05748	710733
11,06160	688772
11,06572	662467
11,06985	627416
11,07397	592777
11,07808	546342
11,08220	506808
11,08633	458709
11,09045	425853
11,09457	390155
11,09870	353806
11,10282	310682
11,10693	276055
11,11107	256897
11,11518	226674
11,11930	202582
11,12343	181920
11,12755	165304
11,13167	149137
11,13580	133058
11,13992	117511
11,14403	106091
11,14817	99118
11,15228	90737
11,15640	81431
11,16053	74613
11,16465	69225
11,16877	65100
11,17288	59498
11,17702	57082
11,18113	50805
11,18525	46558
11,18938	47134
11,19350	41938
11,19762	41852
11,20175	38866
11,20587	38963
11,20998	35394
11,21412	32104
11,21823	31889
11,22235	30839
11,22648	29123
11,23060	27748
11,23472	27213
11,23885	26221
11,24297	25178
11,24708	26495
11,25122	24565
11,25533	23783
11,25945	22014
11,26357	22519
11,26770	20704
11,27182	20681
11,27593	19834
11,28007	19041
11,28418	19511
11,28830	18910
11,29243	19460
11,29655	19077
11,30067	17917
11,30480	16880
11,30892	18184
11,31303	17177
11,31717	15999
11,32128	16223
11,32540	15614
11,32953	15033
11,33365	14349
11,33777	13641
11,34190	15196
11,34602	13604
11,35013	13065
11,35425	14227
11,35838	14480
11,36250	14145
11,36662	13621
11,37075	15217
11,37487	13324
11,37898	13939
11,38312	13043
11,38723	11928
11,39135	12235
11,39548	12151
11,39960	12914
11,40372	13490
11,40785	11564
11,41197	11987
11,41608	12036
11,42022	12866
11,42433	12158
11,42845	12223
11,43258	13189
11,43670	11605
11,44082	11618
11,44493	10949
11,44907	11521
11,45318	11347
11,45730	12299
11,46143	10122
11,46555	11306
11,46967	10987
11,47380	11186
11,47792	10610
11,48203	11023
11,48617	11547
11,49028	9333
11,49440	10708
11,49853	10984
11,50265	10709
11,50677	9976
11,51090	10303
11,51502	10706
11,51913	10793
11,52327	10366
11,52738	10335
11,53150	8792
11,53563	10824
11,53975	8858
11,54387	10372
11,54798	8906
11,55212	9738
11,55623	10603
11,56035	9936
11,56448	9365
11,56860	8645
11,57272	8530
11,57685	9263
11,58097	9666
11,58508	9452
11,58922	9259
11,59333	9345
11,59745	8062
11,60158	10138
11,60570	9349
11,60982	9710
11,61395	8695
11,61807	9343
11,62218	8024
11,62632	8654
11,63043	8811
11,63455	9293
11,63867	9247
11,64280	8254
11,64692	8868
11,65103	9145
11,65517	9157
11,65928	8490
11,66340	8709
11,66753	8540
11,67165	9893
11,67577	8966
11,67990	7966
11,68402	8576
11,68813	8604
11,69227	8937
11,69638	9066
11,70050	8851
11,70463	8127
11,70875	10684
11,71287	9354
11,71700	9680
11,72112	8760
11,72523	8144
11,72935	8769
11,73348	9572
11,73760	8790
11,74172	8265
11,74585	8764
11,74997	8952
11,75408	10325
11,75822	10488
11,76233	10918
11,76645	8868
11,77058	11382
11,77470	10807
11,77882	9444
11,78295	10497
11,78707	12045
11,79118	12048
11,79532	10843
11,79943	10805
11,80355	10909
11,80768	11341
11,81180	11072
11,81592	11550
11,82003	11482
11,82417	10013
11,82828	11545
11,83240	10097
11,83653	10393
11,84065	9467
11,84477	10484
11,84890	9765
11,85302	10426
11,85713	9750
11,86127	9695
11,86538	9846
11,86950	8832
11,87363	10177
11,87775	9563
11,88187	10396
11,88600	10560
11,89012	10617
11,89423	12030
11,89837	10878
11,90248	11818
11,90660	11654
11,91072	11586
11,91485	11234
11,91897	11342
11,92308	10430
11,92722	10037
11,93133	12231
11,93545	11101
11,93958	10819
11,94370	10813
11,94782	10712
11,95195	9205
11,95607	9449
11,96018	11430
11,96432	9494
11,96843	9014
11,97255	9150
11,97668	9417
11,98080	9525
11,98492	8891
11,98905	8917
11,99317	8353
11,99728	7787
12,00140	8877
12,00553	8432
12,00965	8385
12,01377	8533
12,01790	8286
12,02202	9204
12,02613	8214
12,03027	7904
12,03438	7579
12,03850	7515
12,04263	8864
12,04675	8285
12,05087	8076
12,05500	8127
12,05912	8754
12,06323	8864
12,06737	9205
12,07148	8625
12,07560	7242
12,07973	7165
12,08385	7802
12,08797	7848
12,09208	7204
12,09622	7864
12,10033	7074
12,10445	7444
12,10858	7524
12,11270	7760
12,11682	8554
12,12095	7745
12,12507	7387
12,12918	7064
12,13332	7988
12,13743	8450
12,14155	7796
12,14568	7759
12,14980	7109
12,15392	8046
12,15805	6920
12,16217	7737
12,16628	7591
12,17042	7712
12,17453	7672
12,17865	8033
12,18277	8727
12,18690	8660
12,19102	8310
12,19513	7374
12,19927	8227
12,20338	7715
12,20750	8039
12,21163	9081
12,21575	8000
12,21987	7426
12,22400	7560
12,22812	6920
12,23223	7822
12,23637	7332
12,24048	8543
12,24460	8538
12,24873	7787
12,25285	6994
12,25697	6933
12,26110	7632
12,26522	6510
12,26933	6723
12,27345	7532
12,27758	7657
12,28170	6706
12,28582	7148
12,28995	6320
12,29407	6676
12,29818	7813
12,30232	6700
12,30643	7594
12,31055	7827
12,31468	7171
12,31880	7715
12,32292	7137
12,32705	7553
12,33117	8285
12,33528	7133
12,33942	8053
12,34353	6944
12,34765	7429
12,35178	7603
12,35590	7296
12,36002	7059
12,36413	7501
12,36827	7225
12,37238	7130
12,37650	7097
12,38063	7188
12,38475	7389
12,38887	8398
12,39300	9002
12,39712	8429
12,40123	7780
12,40537	8879
12,40948	8971
12,41360	9972
12,41773	10249
12,42185	11074
12,42597	10649
12,43010	10673
12,43422	12818
12,43833	10910
12,44247	12068
12,44658	12054
12,45070	11892
12,45482	13395
12,45895	12502
12,46307	14123
12,46718	15042
12,47132	18530
12,47543	25065
12,47955	33027
12,48368	47710
12,48780	70517
12,49192	105370
12,49605	153844
12,50017	221303
12,50428	303531
12,50842	410157
12,51253	538422
12,51665	676297
12,52078	832059
12,52490	992775
12,52902	1157996
12,53315	1290256
12,53727	1407389
12,54138	1529351
12,54550	1593421
12,54963	1636821
12,55375	1634818
12,55787	1610314
12,56200	1546075
12,56612	1479355
12,57023	1379703
12,57437	1293276
12,57848	1171884
12,58260	1068860
12,58673	965093
12,59085	866408
12,59497	763540
12,59910	684861
12,60322	607037
12,60733	535615
12,61147	468980
12,61558	417098
12,61970	375431
12,62383	329789
12,62795	296065
12,63207	265916
12,63618	240557
12,64032	215388
12,64443	197336
12,64855	182561
12,65268	162821
12,65680	147261
12,66092	139173
12,66505	130145
12,66917	118901
12,67328	112751
12,67742	105664
12,68153	96811
12,68565	92459
12,68978	86574
12,69390	83725
12,69802	76219
12,70215	74281
12,70627	68392
12,71038	65007
12,71452	63932
12,71863	58899
12,72275	57106
12,72687	53737
12,73100	49038
12,73512	48087
12,73923	46495
12,74337	43870
12,74748	45201
12,75160	39388
12,75573	38342
12,75985	38978
12,76397	37367
12,76810	35631
12,77222	34131
12,77633	32720
12,78047	31190
12,78458	30801
12,78870	29072
12,79283	29733
12,79695	28323
12,80107	25339
12,80520	25902
12,80932	24575
12,81343	23308
12,81755	23693
12,82168	23495
12,82580	21715
12,82992	20968
12,83405	21595
12,83817	19456
12,84228	19851
12,84642	19642
12,85053	19142
12,85465	20235
12,85878	17903
12,86290	18583
12,86702	17448
12,87115	17718
12,87527	17870
12,87938	17191
12,88352	16290
12,88763	17728
12,89175	16792
12,89588	15795
12,90000	16066
12,90412	15948
12,90823	16338
12,91237	14508
12,91648	14980
12,92060	13726
12,92473	14113
12,92885	13786
12,93297	14453
12,93710	14736
12,94122	12751
12,94533	12720
12,94947	12593
12,95358	12887
12,95770	12199
12,96183	12760
12,96595	12469
12,97007	11792
12,97420	11319
12,97832	11200
12,98243	12554
12,98657	10863
12,99068	13029
12,99480	11482
12,99892	11439
13,00305	10198
13,00717	10843
13,01128	11133
13,01542	11271
13,01953	11490
13,02365	12133
13,02778	12145
13,03190	10703
13,03602	10741
13,04015	9982
13,04427	9593
13,04838	10161
13,05252	9360
13,05663	11006
13,06075	9887
13,06488	10369
13,06900	10341
13,07312	8701
13,07725	9981
13,08137	9633
13,08548	9336
13,08960	8498
13,09373	8364
13,09785	10057
13,10197	8613
13,10610	8595
13,11022	8339
13,11433	8454
13,11847	7687
13,12258	9214
13,12670	8609
13,13083	8207
13,13495	8401
13,13907	7512
13,14320	7826
13,14732	8754
13,15143	8231
13,15557	7709
13,15968	7956
13,16380	8549
13,16793	7898
13,17205	7974
13,17617	8030
13,18028	8231
13,18442	7344
13,18853	7979
13,19265	9406
13,19678	7613
13,20090	7173
13,20502	7994
13,20915	8472
13,21327	6981
13,21738	7584
13,22152	6753
13,22563	7609
13,22975	8119
13,23388	8485
13,23800	7819
13,24212	7114
13,24625	7645
13,25037	8817
13,25448	7467
13,25862	8365
13,26273	7104
13,26685	8291
13,27098	8038
13,27510	8071
13,27922	8554
13,28333	7888
13,28747	7380
13,29158	8548
13,29570	8046
13,29983	8710
13,30395	8807
13,30807	8887
13,31220	8534
13,31632	8945
13,32043	9011
13,32457	8826
13,32868	8711
13,33280	9289
13,33693	8608
13,34105	10873
13,34517	9052
13,34930	8362
13,35342	8240
13,35753	8150
13,36167	7690
13,36578	9428
13,36990	7875
13,37402	7997
13,37815	7971
13,38227	8110
13,38638	6888
13,39052	7373
13,39463	7145
13,39875	7858
13,40288	7073
13,40700	6877
13,41112	6910
13,41525	6973
13,41937	6649
13,42348	7794
13,42762	7144
13,43173	7049
13,43585	6724
13,43998	7222
13,44410	7198
13,44822	7270
13,45235	6679
13,45647	6451
13,46058	7404
13,46470	6289
13,46883	6496
13,47295	6622
13,47707	6475
13,48120	6918
13,48532	7410
13,48943	7520
13,49357	5924
13,49768	6445
13,50180	6892
13,50593	7121
13,51005	6797
13,51417	6822
13,51830	6079
13,52242	6058
13,52653	6164
13,53067	7253
13,53478	7015
13,53890	7238
13,54303	7261
13,54715	7183
13,55127	7883
13,55538	8743
13,55952	10915
13,56363	14241
13,56775	17176
13,57188	25221
13,57600	39466
13,58012	54357
13,58425	79807
13,58837	111913
13,59248	151595
13,59662	204305
13,60073	261014
13,60485	331765
13,60898	395241
13,61310	466942
13,61722	539162
13,62135	608221
13,62547	660070
13,62958	710787
13,63372	736960
13,63783	753909
13,64195	750798
13,64607	733046
13,65020	714348
13,65432	668472
13,65843	623790
13,66257	586427
13,66668	527163
13,67080	480835
13,67493	434790
13,67905	387936
13,68317	352046
13,68730	310984
13,69142	272451
13,69553	246523
13,69967	214838
13,70378	194765
13,70790	179010
13,71203	157774
13,71615	136073
13,72027	125581
13,72440	116488
13,72852	102640
13,73263	94949
13,73675	91498
13,74088	79375
13,74500	73520
13,74912	71293
13,75325	63157
13,75737	59408
13,76148	55998
13,76562	52470
13,76973	49697
13,77385	47262
13,77798	43206
13,78210	40258
13,78622	38879
13,79035	35787
13,79447	35080
13,79858	32510
13,80272	33919
13,80683	30613
13,81095	30877
13,81508	28760
13,81920	29116
13,82332	28343
13,82743	27773
13,83157	26807
13,83568	28314
13,83980	26830
13,84393	27040
13,84805	25701
13,85217	26327
13,85630	25809
13,86042	25841
13,86453	24686
13,86867	22767
13,87278	22565
13,87690	23066
13,88103	23344
13,88515	20451
13,88927	19434
13,89340	20316
13,89752	18582
13,90163	18262
13,90577	17654
13,90988	16325
13,91400	15072
13,91812	15756
13,92225	15501
13,92637	14468
13,93048	14110
13,93462	13493
13,93873	12458
13,94285	11640
13,94698	13061
13,95110	12324
13,95522	13229
13,95935	13211
13,96347	11037
13,96758	11693
13,97172	12015
13,97583	10565
13,97995	9737
13,98408	10861
13,98820	8927
13,99232	10523
13,99645	9970
14,00057	9924
14,00468	9663
14,00880	9026
14,01293	10152
14,01705	9050
14,02117	9220
14,02530	9813
14,02942	10418
14,03353	11602
14,03767	13778
14,04178	18666
14,04590	24563
14,05003	36316
14,05415	50075
14,05827	71433
14,06240	103293
14,06652	140287
14,07063	191360
14,07477	253218
14,07888	329055
14,08300	411001
14,08713	493445
14,09125	579012
14,09537	662969
14,09948	738770
14,10362	789098
14,10773	828790
14,11185	855916
14,11598	862415
14,12010	852261
14,12422	825127
14,12835	784158
14,13247	739482
14,13658	670512
14,14072	611779
14,14483	553746
14,14895	502762
14,15308	450082
14,15720	396156
14,16132	352360
14,16545	313005
14,16957	273852
14,17368	239681
14,17782	213389
14,18193	192445
14,18605	169774
14,19017	154588
14,19430	136551
14,19842	122273
14,20253	114348
14,20667	102300
14,21078	92665
14,21490	85933
14,21903	77494
14,22315	74723
14,22727	68889
14,23140	62467
14,23552	58764
14,23963	53494
14,24377	52026
14,24788	49198
14,25200	45746
14,25613	42793
14,26025	39096
14,26437	40449
14,26850	35673
14,27262	34598
14,27673	34264
14,28085	32510
14,28498	30939
14,28910	30114
14,29322	28499
14,29735	28870
14,30147	26930
14,30558	26143
14,30972	25631
14,31383	22599
14,31795	22823
14,32208	19730
14,32620	21408
14,33032	20529
14,33445	19994
14,33857	19964
14,34268	19055
14,34682	17418
14,35093	19981
14,35505	16695
14,35918	16345
14,36330	16719
14,36742	15912
14,37153	15019
14,37567	14138
14,37978	13391
14,38390	14287
14,38803	14471
14,39215	15160
14,39627	12424
14,40040	12462
14,40452	13118
14,40863	11939
14,41277	12365
14,41688	12530
14,42100	11728
14,42513	11238
14,42925	11747
14,43337	9999
14,43750	11581
14,44162	10221
14,44573	11266
14,44987	11288
14,45398	10128
14,45810	11665
14,46222	9504
14,46635	10236
14,47047	9238
14,47458	9745
14,47872	9579
14,48283	9661
14,48695	9655
14,49108	8916
14,49520	9116
14,49932	9399
14,50345	9130
14,50757	8662
14,51168	9825
14,51582	9663
14,51993	9363
14,52405	9738
14,52818	9134
14,53230	9667
14,53642	9760
14,54055	9451
14,54467	8936
14,54878	8807
14,55290	8752
14,55703	8771
14,56115	9279
14,56527	9374
14,56940	8844
14,57352	8767
14,57763	8191
14,58177	7598
14,58588	8226
14,59000	8301
14,59413	8028
14,59825	8392
14,60237	7841
14,60650	8382
14,61062	6990
14,61473	7708
14,61887	8099
14,62298	7568
14,62710	6745
14,63123	7559
14,63535	7476
14,63947	7904
14,64358	6402
14,64772	7676
14,65183	8090
14,65595	7514
14,66008	6247
14,66420	7823
14,66832	6694
14,67245	6614
14,67657	6173
14,68068	7259
14,68482	6038
14,68893	7254
14,69305	7166
14,69718	7505
14,70130	7358
14,70542	6966
14,70955	7468
14,71367	6578
14,71778	5973
14,72192	6925
14,72603	7058
14,73015	6738
14,73427	6543
14,73840	7402
14,74252	5209
14,74663	7047
14,75077	6459
14,75488	6531
14,75900	5944
14,76313	6010
14,76725	5622
14,77137	6880
14,77550	6946
14,77962	6817
14,78373	6604
14,78787	6627
14,79198	6083
14,79610	6217
14,80023	6611
14,80435	5073
14,80847	5937
14,81260	5396
14,81672	6049
14,82083	5888
14,82497	6540
14,82908	6307
14,83320	5655
14,83732	5101
14,84145	6510
14,84557	5853
14,84968	5882
14,85382	6082
14,85793	5334
14,86205	6256
14,86618	6366
14,87030	5486
14,87442	6006
14,87855	5972
14,88267	6658
14,88678	7076
14,89092	4985
14,89503	5029
14,89915	6390
14,90328	4924
14,90740	5391
14,91152	5878
14,91565	6279
14,91977	6737
14,92388	6020
14,92800	6127
14,93213	4779
14,93625	5312
14,94037	5791
14,94450	5002
14,94862	5358
14,95273	5101
14,95687	5149
14,96098	5106
14,96510	5265
14,96923	5269
14,97335	6160
14,97747	6141
14,98160	5986
14,98572	6712
14,98983	5555
14,99397	5111
14,99808	6051
15,00220	5821
15,00633	5703
15,01045	6473
15,01457	6119
15,01868	5261
15,02282	6239
15,02693	6060
15,03105	4996
15,03518	5761
15,03930	5380
15,04342	6896
15,04755	5434
15,05167	4780
15,05578	6011
15,05992	5963
15,06403	5155
15,06815	5487
15,07228	5606
15,07640	5764
15,08052	5144
15,08465	5942
15,08877	6294
15,09288	6965
15,09702	5424
15,10113	5459
15,10525	6201
15,10937	5316
15,11350	6352
15,11762	5404
15,12173	5838
15,12587	6988
15,12998	5890
15,13410	7477
15,13823	7263
15,14235	6726
15,14647	7737
15,15060	6802
15,15472	9659
15,15883	12182
15,16297	16534
15,16708	23961
15,17120	33500
15,17533	50694
15,17945	73452
15,18357	104180
15,18770	142999
15,19182	196087
15,19593	257258
15,20005	326124
15,20418	405464
15,20830	480049
15,21242	554888
15,21655	634006
15,22067	700111
15,22478	744521
15,22892	787936
15,23303	808510
15,23715	800739
15,24128	786510
15,24540	755322
15,24952	714345
15,25365	671406
15,25777	615317
15,26188	558402
15,26602	512209
15,27013	456922
15,27425	403153
15,27838	358287
15,28250	319567
15,28662	278270
15,29073	251965
15,29487	225807
15,29898	199360
15,30310	176784
15,30723	158320
15,31135	142057
15,31547	131236
15,31960	118091
15,32372	105671
15,32783	94447
15,33197	86452
15,33608	82310
15,34020	78380
15,34433	70389
15,34845	63084
15,35257	59101
15,35670	55691
15,36082	52062
15,36493	48787
15,36907	47430
15,37318	42857
15,37730	42005
15,38142	39201
15,38555	36488
15,38967	37037
15,39378	31578
15,39792	33554
15,40203	31664
15,40615	27733
15,41028	27953
15,41440	26687
15,41852	24832
15,42265	23901
15,42677	21686
15,43088	24928
15,43502	21072
15,43913	20405
15,44325	18827
15,44738	19154
15,45150	16727
15,45562	18511
15,45975	17132
15,46387	17620
15,46798	17616
15,47210	17502
15,47623	15901
15,48035	13409
15,48447	15164
15,48860	14079
15,49272	13814
15,49683	12345
15,50097	11883
15,50508	10768
15,50920	12825
15,51333	10429
15,51745	12257
15,52157	13106
15,52570	11984
15,52982	9643
15,53393	12028
15,53807	10800
15,54218	11314
15,54630	11336
15,55043	9552
15,55455	9136
15,55867	9849
15,56278	8332
15,56692	8935
15,57103	9691
15,57515	9560
15,57928	8837
15,58340	8375
15,58752	9406
15,59165	8034
15,59577	8355
15,59988	7634
15,60402	8234
15,60813	8300
15,61225	9080
15,61638	9939
15,62050	12050
15,62462	15361
15,62875	21994
15,63287	29970
15,63698	48095
15,64112	72618
15,64523	110247
15,64935	164019
15,65347	237772
15,65760	335197
15,66172	464116
15,66583	624163
15,66997	805972
15,67408	1030200
15,67820	1255458
15,68233	1524912
15,68645	1798864
15,69057	2070575
15,69470	2346292
15,69882	2548712
15,70293	2727536
15,70707	2840313
15,71118	2864275
15,71530	2859242
15,71943	2780217
15,72355	2620393
15,72767	2428565
15,73180	2204103
15,73592	1988714
15,74003	1779765
15,74415	1567968
15,74828	1384376
15,75240	1218893
15,75652	1059158
15,76065	915735
15,76477	813023
15,76888	713647
15,77302	632234
15,77713	564447
15,78125	508989
15,78538	456255
15,78950	410681
15,79362	369485
15,79775	339099
15,80187	303162
15,80598	281666
15,81012	256880
15,81423	234113
15,81835	221363
15,82248	202164
15,82660	188380
15,83072	175241
15,83483	163925
15,83897	152582
15,84308	145225
15,84720	137239
15,85133	126806
15,85545	120386
15,85957	109250
15,86370	107975
15,86782	99882
15,87193	94516
15,87607	88903
15,88018	84148
15,88430	81114
15,88843	74942
15,89255	73847
15,89667	69233
15,90080	69370
15,90492	62733
15,90903	60448
15,91317	61391
15,91728	57145
15,92140	54569
15,92552	50029
15,92965	48564
15,93377	48539
15,93788	46260
15,94202	44977
15,94613	43615
15,95025	41624
15,95438	39477
15,95850	37702
15,96262	37611
15,96675	34439
15,97087	34194
15,97498	31822
15,97912	31829
15,98323	31379
15,98735	30305
15,99148	30062
15,99560	28914
15,99972	27347
16,00385	26534
16,00797	25304
16,01208	24856
16,01620	25060
16,02033	24434
16,02445	24885
16,02857	22186
16,03270	21154
16,03682	22819
16,04093	20877
16,04507	23177
16,04918	19979
16,05330	21021
16,05743	19236
16,06155	19162
16,06567	19673
16,06980	17818
16,07392	17788
16,07803	17376
16,08217	16484
16,08628	17731
16,09040	15881
16,09453	14865
16,09865	15178
16,10277	14001
16,10688	14325
16,11102	14581
16,11513	14171
16,11925	12974
16,12338	14664
16,12750	13117
16,13162	13087
16,13575	13627
16,13987	12355
16,14398	12294
16,14812	12137
16,15223	12863
16,15635	12619
16,16048	11585
16,16460	11210
16,16872	11081
16,17285	11029
16,17697	11073
16,18108	10075
16,18522	9595
16,18933	10201
16,19345	10609
16,19757	10102
16,20170	10049
16,20582	9383
16,20993	10668
16,21407	9839
16,21818	9478
16,22230	10833
16,22643	9979
16,23055	9448
16,23467	9507
16,23880	9616
16,24292	9031
16,24703	9720
16,25117	8560
16,25528	9004
16,25940	8898
16,26353	9886
16,26765	9141
16,27177	9131
16,27590	7727
16,28002	7586
16,28413	8899
16,28825	9143
16,29238	8912
16,29650	9514
16,30062	9469
16,30475	8341
16,30887	8238
16,31298	8167
16,31712	8785
16,32123	8847
16,32535	8979
16,32948	8250
16,33360	8881
16,33772	8119
16,34185	7565
16,34597	7788
16,35008	7619
16,35422	8223
16,35833	7703
16,36245	7166
16,36658	8433
16,37070	8091
16,37482	7873
16,37893	7838
16,38307	8608
16,38718	9092
16,39130	9241
16,39543	8736
16,39955	10360
16,40367	11174
16,40780	11418
16,41192	12727
16,41603	12817
16,42017	14988
16,42428	14242
16,42840	15792
16,43253	14981
16,43665	16973
16,44077	17842
16,44490	17568
16,44902	15699
16,45313	15321
16,45727	15424
16,46138	13625
16,46550	14556
16,46963	14937
16,47375	13177
16,47787	13406
16,48198	12417
16,48612	11588
16,49023	11241
16,49435	11252
16,49848	9929
16,50260	9921
16,50672	9064
16,51085	9704
16,51497	8346
16,51908	8944
16,52322	8581
16,52733	7397
16,53145	9464
16,53558	9341
16,53970	9208
16,54382	10977
16,54795	14770
16,55207	19122
16,55618	27277
16,56032	37691
16,56443	56566
16,56855	78926
16,57267	110304
16,57680	156672
16,58092	209082
16,58503	271168
16,58917	346092
16,59328	426366
16,59740	514112
16,60153	589606
16,60565	667726
16,60977	731963
16,61390	784837
16,61802	827145
16,62213	844079
16,62627	839943
16,63038	818594
16,63450	779538
16,63863	738444
16,64275	679604
16,64687	630568
16,65100	576563
16,65512	513457
16,65923	458618
16,66335	409974
16,66748	365020
16,67160	324318
16,67572	291097
16,67985	255040
16,68397	231705
16,68808	201435
16,69222	180212
16,69633	164157
16,70045	148323
16,70458	133756
16,70870	118823
16,71282	109012
16,71695	98347
16,72107	91218
16,72518	85469
16,72932	79462
16,73343	70369
16,73755	70676
16,74168	61852
16,74580	60672
16,74992	55481
16,75403	54403
16,75817	48438
16,76228	45385
16,76640	43689
16,77053	42219
16,77465	37269
16,77877	35538
16,78290	36986
16,78702	35221
16,79113	33325
16,79527	32733
16,79938	32529
16,80350	29970
16,80763	28887
16,81175	28050
16,81587	28029
16,82000	27008
16,82412	28166
16,82823	25922
16,83237	27263
16,83648	26477
16,84060	25839
16,84472	24431
16,84885	23223
16,85297	21944
16,85708	22938
16,86122	20810
16,86533	20009
16,86945	19605
16,87358	19497
16,87770	18217
16,88182	18377
16,88595	17705
16,89007	18128
16,89418	16309
16,89832	16455
16,90243	14956
16,90655	14217
16,91068	13601
16,91480	14465
16,91892	13167
16,92305	13049
16,92717	12764
16,93128	12210
16,93540	11736
16,93953	11874
16,94365	12214
16,94777	11713
16,95190	10591
16,95602	10734
16,96013	10245
16,96427	9560
16,96838	9756
16,97250	10209
16,97663	9319
16,98075	8290
16,98487	8875
16,98900	9183
16,99312	9401
16,99723	7938
17,00137	8180
17,00548	8913
17,00960	8620
17,01373	9588
17,01785	7696
17,02197	8139
17,02608	9152
17,03022	7701
17,03433	8397
17,03845	8157
17,04258	9195
17,04670	7914
17,05082	7849
17,05495	7232
17,05907	7391
17,06318	7814
17,06732	7469
17,07143	7737
17,07555	8086
17,07968	7468
17,08380	6336
17,08792	7253
17,09205	7677
17,09617	6888
17,10028	7969
17,10442	7201
17,10853	6428
17,11265	6619
17,11677	6667
17,12090	6715
17,12502	7238
17,12913	6334
17,13327	6724
17,13738	8160
17,14150	5734
17,14563	6504
17,14975	6657
17,15387	5572
17,15800	6237
17,16212	6355
17,16623	6175
17,17037	5481
17,17448	5636
17,17860	6895
17,18273	6419
17,18685	7009
17,19097	5498
17,19510	5677
17,19922	5767
17,20333	7005
17,20745	7639
17,21158	8031
17,21570	10706
17,21982	13307
17,22395	17949
17,22807	28107
17,23218	41974
17,23632	60852
17,24043	88738
17,24455	129802
17,24868	183957
17,25280	245768
17,25692	324815
17,26105	411424
17,26517	499953
17,26928	598676
17,27342	699643
17,27753	795361
17,28165	867244
17,28578	917557
17,28990	949617
17,29402	972134
17,29813	954775
17,30227	939678
17,30638	890979
17,31050	825186
17,31463	768278
17,31875	685526
17,32287	622507
17,32700	558575
17,33112	492365
17,33523	435262
17,33937	388246
17,34348	340384
17,34760	301276
17,35173	269171
17,35585	238388
17,35997	210973
17,36410	188834
17,36822	169641
17,37233	150512
17,37647	138027
17,38058	125736
17,38470	118207
17,38882	105706
17,39295	95731
17,39707	87568
17,40118	81890
17,40532	79917
17,40943	73857
17,41355	68591
17,41768	64516
17,42180	60413
17,42592	56114
17,43005	53784
17,43417	50995
17,43828	47644
17,44242	44333
17,44653	41212
17,45065	40366
17,45478	38906
17,45890	36809
17,46302	35810
17,46715	31935
17,47127	34181
17,47538	31163
17,47950	29444
17,48363	27312
17,48775	26734
17,49187	27262
17,49600	24884
17,50012	23372
17,50423	22073
17,50837	21410
17,51248	21238
17,51660	21363
17,52073	19653
17,52485	18028
17,52897	19379
17,53310	17103
17,53722	17775
17,54133	15807
17,54547	16120
17,54958	15552
17,55370	15461
17,55783	16556
17,56195	14054
17,56607	14741
17,57018	13758
17,57432	13735
17,57843	13953
17,58255	12496
17,58668	12367
17,59080	12196
17,59492	12284
17,59905	11150
17,60317	10957
17,60728	10912
17,61142	11171
17,61553	11304
17,61965	10293
17,62378	10758
17,62790	10325
17,63202	9939
17,63615	9373
17,64027	9275
17,64438	8987
17,64852	9147
17,65263	10496
17,65675	9401
17,66087	9372
17,66500	7701
17,66912	8896
17,67323	8780
17,67737	7648
17,68148	7608
17,68560	9404
17,68973	7881
17,69385	7930
17,69797	8361
17,70210	8139
17,70622	8570
17,71033	8819
17,71447	7517
17,71858	8226
17,72270	8116
17,72683	7480
17,73095	7760
17,73507	6723
17,73920	7161
17,74332	6570
17,74743	8438
17,75155	6890
17,75568	7739
17,75980	8365
17,76392	6367
17,76805	6144
17,77217	6548
17,77628	7373
17,78042	8067
17,78453	7786
17,78865	6294
17,79278	7685
17,79690	7277
17,80102	7232
17,80515	7148
17,80927	6474
17,81338	7429
17,81752	7386
17,82163	5786
17,82575	6926
17,82988	6876
17,83400	7196
17,83812	7090
17,84223	7313
17,84637	6346
17,85048	6181
17,85460	6211
17,85873	6399
17,86285	5859
17,86697	5814
17,87110	5376
17,87522	5983
17,87933	6242
17,88347	6016
17,88758	5434
17,89170	5851
17,89583	4858
17,89995	5031
17,90407	6137
17,90820	4957
17,91232	5871
17,91643	5521
17,92057	5866
17,92468	5638
17,92880	6214
17,93293	4777
17,93705	6036
17,94117	5001
17,94528	5029
17,94942	5089
17,95353	6504
17,95765	5319
17,96178	4733
17,96590	5068
17,97002	5922
17,97415	6467
17,97827	5092
17,98238	6247
17,98652	5544
17,99063	4637
17,99475	5452
17,99888	5525
18,00300	5143
18,00712	5038
18,01125	4530
18,01537	5995
18,01948	5015
18,02362	5156
18,02773	5371
18,03185	4413
18,03597	5238
18,04010	4762
18,04422	5344
18,04833	5562
18,05247	6277
18,05658	4688
18,06070	6814
18,06483	6157
18,06895	5808
18,07307	5282
18,07720	5019
18,08132	4458
18,08543	5111
18,08957	5892
18,09368	5293
18,09780	6061
18,10193	5569
18,10605	5649
18,11017	5316
18,11430	6904
18,11842	7174
18,12253	7688
18,12665	8871
18,13078	11367
18,13490	16667
18,13902	25447
18,14315	35795
18,14727	49614
18,15138	73789
18,15552	105175
18,15963	148236
18,16375	202802
18,16788	272316
18,17200	344453
18,17612	435954
18,18025	523354
18,18437	615279
18,18848	703104
18,19262	777099
18,19673	836117
18,20085	885052
18,20498	910331
18,20910	901786
18,21322	876598
18,21733	848787
18,22147	804959
18,22558	747767
18,22970	690549
18,23383	631752
18,23795	570903
18,24207	509759
18,24620	460871
18,25032	407778
18,25443	363182
18,25857	327402
18,26268	293208
18,26680	261057
18,27093	236115
18,27505	217434
18,27917	194529
18,28330	177658
18,28742	160638
18,29153	148831
18,29567	135620
18,29978	121249
18,30390	115008
18,30802	105601
18,31215	96508
18,31627	89126
18,32038	79990
18,32452	78245
18,32863	73066
18,33275	65714
18,33688	65271
18,34100	57993
18,34512	57043
18,34925	52131
18,35337	50182
18,35748	47068
18,36162	43206
18,36573	42467
18,36985	39463
18,37398	37274
18,37810	35827
18,38222	34027
18,38635	32638
18,39047	30470
18,39458	30093
18,39870	29184
18,40283	26192
18,40695	26583
18,41107	26950
18,41520	24307
18,41932	22828
18,42343	24036
18,42757	22739
18,43168	21163
18,43580	21624
18,43993	20703
18,44405	19007
18,44817	16834
18,45230	19067
18,45642	17466
18,46053	17051
18,46467	16458
18,46878	15971
18,47290	16659
18,47703	15295
18,48115	14473
18,48527	14978
18,48938	15055
18,49352	13165
18,49763	13154
18,50175	11048
18,50588	12988
18,51000	11503
18,51412	13575
18,51825	11265
18,52237	10499
18,52648	11516
18,53062	9676
18,53473	9874
18,53885	10414
18,54298	11298
18,54710	10589
18,55122	10830
18,55535	10453
18,55947	9299
18,56358	10545
18,56772	9574
18,57183	9137
18,57595	9531
18,58007	10212
18,58420	9380
18,58832	8867
18,59243	7397
18,59657	8463
18,60068	8920
18,60480	8740
18,60893	9094
18,61305	8556
18,61717	8891
18,62130	7860
18,62542	8380
18,62953	7620
18,63367	7725
18,63778	8075
18,64190	6174
18,64603	7838
18,65015	7370
18,65427	6550
18,65840	7859
18,66252	8980
18,66663	6928
18,67075	7756
18,67488	8475
18,67900	6768
18,68312	7759
18,68725	7147
18,69137	7116
18,69548	6678
18,69962	7024
18,70373	7931
18,70785	6357
18,71198	6356
18,71610	6220
18,72022	6204
18,72435	7554
18,72847	6844
18,73258	6944
18,73672	6012
18,74083	6210
18,74495	6049
18,74908	6657
18,75320	6307
18,75732	6186
18,76143	6072
18,76557	7585
18,76968	6539
18,77380	7424
18,77793	9141
18,78205	10870
18,78617	15483
18,79030	23153
18,79442	34754
18,79853	49405
18,80267	79330
18,80678	118465
18,81090	171533
18,81503	247651
18,81915	343511
18,82327	467212
18,82740	604679
18,83152	777643
18,83563	984073
18,83977	1187085
18,84388	1390284
18,84800	1593690
18,85212	1792898
18,85625	1922978
18,86037	2051758
18,86448	2126603
18,86862	2167601
18,87273	2137202
18,87685	2065636
18,88098	1948819
18,88510	1828297
18,88922	1647207
18,89335	1493042
18,89747	1350292
18,90158	1191771
18,90572	1052573
18,90983	921710
18,91395	818819
18,91808	719236
18,92220	634735
18,92632	564380
18,93045	491581
18,93457	446831
18,93868	398402
18,94280	360678
18,94693	323897
18,95105	297270
18,95517	271330
18,95930	249053
18,96342	232002
18,96753	212033
18,97167	190447
18,97578	177750
18,97990	166474
18,98403	154583
18,98815	141342
18,99227	135553
18,99640	130264
19,00052	117633
19,00463	111027
19,00877	107801
19,01288	97798
19,01700	92776
19,02113	89558
19,02525	84161
19,02937	81625
19,03348	74217
19,03762	70069
19,04173	68482
19,04585	65475
19,04998	61929
19,05410	58686
19,05822	56448
19,06235	57017
19,06647	52110
19,07058	50265
19,07472	50230
19,07883	45622
19,08295	44074
19,08708	41599
19,09120	40104
19,09532	40017
19,09945	37240
19,10357	36045
19,10768	36037
19,11182	34736
19,11593	32892
19,12005	31106
19,12417	32232
19,12830	28031
19,13242	30250
19,13653	28949
19,14067	28392
19,14478	25596
19,14890	26410
19,15303	26036
19,15715	23024
19,16127	24029
19,16540	21991
19,16952	20666
19,17363	22293
19,17777	20587
19,18188	20366
19,18600	21407
19,19013	19627
19,19425	18548
19,19837	17691
19,20250	17888
19,20662	18635
19,21073	17196
19,21485	16178
19,21898	15521
19,22310	15519
19,22722	15173
19,23135	15663
19,23547	14066
19,23958	15346
19,24372	14893
19,24783	14766
19,25195	13125
19,25608	14041
19,26020	12304
19,26432	12400
19,26845	12272
19,27257	13488
19,27668	12782
19,28082	13178
19,28493	12282
19,28905	13595
19,29318	13423
19,29730	14045
19,30142	16703
19,30553	20453
19,30967	27627
19,31378	37339
19,31790	52596
19,32203	74038
19,32615	104833
19,33027	145407
19,33440	199873
19,33852	267883
19,34263	350843
19,34677	436841
19,35088	527057
19,35500	623381
19,35913	718695
19,36325	798711
19,36737	870080
19,37150	924600
19,37562	968531
19,37973	967410
19,38387	970544
19,38798	943786
19,39210	897041
19,39622	841174
19,40035	783723
19,40447	712754
19,40858	652272
19,41272	586363
19,41683	523632
19,42095	466563
19,42508	417285
19,42920	369293
19,43332	325984
19,43745	293787
19,44157	260790
19,44568	236049
19,44982	213553
19,45393	196319
19,45805	177764
19,46218	160177
19,46630	144589
19,47042	132894
19,47455	122164
19,47867	115368
19,48278	104786
19,48690	95547
19,49103	92569
19,49515	84378
19,49927	78641
19,50340	71303
19,50752	67777
19,51163	65249
19,51577	60242
19,51988	56060
19,52400	55061
19,52813	53596
19,53225	48388
19,53637	46064
19,54050	44955
19,54462	44511
19,54873	46004
19,55287	45362
19,55698	51444
19,56110	59852
19,56523	70943
19,56935	95412
19,57347	126433
19,57760	166354
19,58172	232348
19,58583	315750
19,58995	418336
19,59408	545685
19,59820	699238
19,60232	871647
19,60645	1045692
19,61057	1249730
19,61468	1427170
19,61882	1611149
19,62293	1772332
19,62705	1896744
19,63118	1990037
19,63530	2006848
19,63942	2014849
19,64355	1966096
19,64767	1882369
19,65178	1762461
19,65592	1613488
19,66003	1474036
19,66415	1330096
19,66828	1201183
19,67240	1064826
19,67652	959538
19,68063	844004
19,68477	743790
19,68888	661746
19,69300	589986
19,69713	526762
19,70125	474939
19,70537	424850
19,70950	379601
19,71362	351258
19,71773	319127
19,72187	286772
19,72598	265326
19,73010	239481
19,73423	223249
19,73835	208484
19,74247	196929
19,74660	179510
19,75072	169265
19,75483	153924
19,75897	146692
19,76308	135920
19,76720	128830
19,77132	120947
19,77545	116540
19,77957	107710
19,78368	102294
19,78782	97300
19,79193	91778
19,79605	86017
19,80018	82043
19,80430	76997
19,80842	75021
19,81255	71211
19,81667	68466
19,82078	66205
19,82492	61672
19,82903	59494
19,83315	56324
19,83728	55879
19,84140	53406
19,84552	48848
19,84965	48092
19,85377	46621
19,85788	45666
19,86200	43287
19,86613	40505
19,87025	41636
19,87437	38344
19,87850	37115
19,88262	36675
19,88673	37389
19,89087	33773
19,89498	33155
19,89910	33123
19,90323	31915
19,90735	31223
19,91147	31240
19,91560	26104
19,91972	27746
19,92383	27031
19,92797	27474
19,93208	24998
19,93620	24205
19,94033	24217
19,94445	23020
19,94857	24276
19,95268	23180
19,95682	22630
19,96093	22245
19,96505	22074
19,96918	20303
19,97330	20350
19,97742	18863
19,98155	19883
19,98567	18853
19,98978	19624
19,99392	19245
19,99803	19004
20,00215	19403
20,00628	17987
20,01040	16047
20,01452	17875
20,01865	18825
20,02277	16254
20,02688	16546
20,03102	15957
20,03513	16504
20,03925	15852
20,04337	16299
20,04750	15834
20,05162	15712
20,05573	14947
20,05987	14146
20,06398	13705
20,06810	14154
20,07223	13090
20,07635	13127
20,08047	11571
20,08460	12869
20,08872	12847
20,09283	11472
20,09697	12210
20,10108	12867
20,10520	12339
20,10933	11592
20,11345	11861
20,11757	11903
20,12170	10263
20,12582	12147
20,12993	11198
20,13405	11820
20,13818	10062
20,14230	10145
20,14642	11037
20,15055	9986
20,15467	8966
20,15878	9912
20,16292	10773
20,16703	10575
20,17115	9684
20,17528	10678
20,17940	11856
20,18352	11078
20,18765	11513
20,19177	13337
20,19588	13318
20,20002	17512
20,20413	22578
20,20825	30582
20,21238	39978
20,21650	58719
20,22062	82939
20,22473	119004
20,22887	163437
20,23298	223050
20,23710	288267
20,24123	373583
20,24535	461593
20,24947	548890
20,25360	629572
20,25772	713836
20,26183	777306
20,26597	829783
20,27008	857737
20,27420	875715
20,27833	845046
20,28245	824566
20,28657	790208
20,29070	749848
20,29482	688613
20,29893	629652
20,30307	572147
20,30718	517102
20,31130	458504
20,31542	421604
20,31955	383152
20,32367	362052
20,32778	338121
20,33192	341684
20,33603	344711
20,34015	363744
20,34428	411830
20,34840	469041
20,35252	556795
20,35665	674030
20,36077	810594
20,36488	969403
20,36902	1150520
20,37313	1345012
20,37725	1537713
20,38138	1725706
20,38550	1905379
20,38962	2069643
20,39375	2175062
20,39787	2230311
20,40198	2236305
20,40610	2187575
20,41023	2109375
20,41435	1966388
20,41847	1800597
20,42260	1638230
20,42672	1476849
20,43083	1305388
20,43497	1164375
20,43908	1045984
20,44320	920478
20,44733	813043
20,45145	720875
20,45557	640352
20,45970	573321
20,46382	509531
20,46793	460487
20,47207	418944
20,47618	381740
20,48030	342528
20,48443	316204
20,48855	289350
20,49267	267709
20,49678	248605
20,50092	224581
20,50503	213798
20,50915	195045
20,51328	184993
20,51740	176543
20,52152	161543
20,52565	152019
20,52977	146131
20,53388	137444
20,53802	129299
20,54213	123971
20,54625	117290
20,55038	111126
20,55450	107818
20,55862	102037
20,56275	94590
20,56687	89276
20,57098	87643
20,57512	82700
20,57923	80781
20,58335	76583
20,58747	73699
20,59160	71592
20,59572	67225
20,59983	63921
20,60397	64530
20,60808	58264
20,61220	59093
20,61633	56423
20,62045	54161
20,62457	52295
20,62870	49931
20,63282	48270
20,63693	47276
20,64107	46390
20,64518	44949
20,64930	42883
20,65343	40685
20,65755	39037
20,66167	40748
20,66580	37531
20,66992	36666
20,67403	38285
20,67815	35233
20,68228	36214
20,68640	34047
20,69052	32816
20,69465	33660
20,69877	31782
20,70288	32645
20,70702	30733
20,71113	30168
20,71525	29306
20,71938	28639
20,72350	27240
20,72762	27443
20,73175	25548
20,73587	25540
20,73998	24666
20,74412	24747
20,74823	23424
20,75235	22167
20,75648	22538
20,76060	21219
20,76472	22039
20,76883	22080
20,77297	25138
20,77708	25893
20,78120	27384
20,78533	34157
20,78945	42345
20,79357	55683
20,79770	72633
20,80182	101137
20,80593	133500
20,81007	177110
20,81418	234119
20,81830	292706
20,82243	368119
20,82655	447327
20,83067	533294
20,83480	607830
20,83892	679571
20,84303	737909
20,84717	796294
20,85128	827373
20,85540	838193
20,85952	839179
20,86365	820726
20,86777	780454
20,87188	725611
20,87602	684994
20,88013	624516
20,88425	564748
20,88838	511235
20,89250	464841
20,89662	418554
20,90075	373261
20,90487	337926
20,90898	295722
20,91312	263758
20,91723	238787
20,92135	216660
20,92548	193792
20,92960	176714
20,93372	160552
20,93785	148426
20,94197	133858
20,94608	122901
20,95020	113692
20,95433	106313
20,95845	97104
20,96257	92953
20,96670	86473
20,97082	80933
20,97493	75688
20,97907	69684
20,98318	67196
20,98730	62532
20,99143	60255
20,99555	57031
20,99967	55008
21,00380	49270
21,00792	49105
21,01203	47419
21,01617	45805
21,02028	41000
21,02440	42498
21,02853	38369
21,03265	37429
21,03677	34404
21,04088	34907
21,04502	34105
21,04913	32987
21,05325	30128
21,05738	29321
21,06150	27790
21,06562	27615
21,06975	28057
21,07387	25867
21,07798	25387
21,08212	23981
21,08623	24006
21,09035	23991
21,09448	22364
21,09860	23261
21,10272	22048
21,10685	21117
21,11097	20834
21,11508	21632
21,11922	21061
21,12333	19905
21,12745	17969
21,13157	19957
21,13570	19573
21,13982	19497
21,14393	17074
21,14807	17529
21,15218	16982
21,15630	17602
21,16043	17610
21,16455	16154
21,16867	16170
21,17280	15741
21,17692	15761
21,18103	15115
21,18517	14212
21,18928	14352
21,19340	13788
21,19753	14644
21,20165	13723
21,20577	12560
21,20990	14893
21,21402	14821
21,21813	12464
21,22227	12929
21,22638	12675
21,23050	12724
21,23462	12857
21,23875	13573
21,24287	11530
21,24698	10850
21,25112	11802
21,25523	12157
21,25935	12287
21,26348	11490
21,26760	11107
21,27172	10869
21,27585	10632
21,27997	11372
21,28408	9634
21,28822	10574
21,29233	10521
21,29645	9864
21,30058	10354
21,30470	9424
21,30882	10079
21,31295	10297
21,31707	10192
21,32118	9283
21,32530	10094
21,32943	9186
21,33355	9035
21,33767	9542
21,34180	9511
21,34592	9182
21,35003	8808
21,35417	8003
21,35828	8465
21,36240	8384
21,36653	9904
21,37065	9257
21,37477	7483
21,37890	8539
21,38302	9289
21,38713	8253
21,39127	8623
21,39538	7784
21,39950	7477
21,40363	7916
21,40775	7805
21,41187	8106
21,41598	7493
21,42012	8422
21,42423	8425
21,42835	7974
21,43248	9000
21,43660	8208
21,44072	7707
21,44485	7341
21,44897	8250
21,45308	7531
21,45722	7763
21,46133	7828
21,46545	7442
21,46958	7345
21,47370	7833
21,47782	7588
21,48195	7866
21,48607	7771
21,49018	7203
21,49432	8382
21,49843	8031
21,50255	8037
21,50667	7660
21,51080	6795
21,51492	7288
21,51903	7497
21,52317	7045
21,52728	7501
21,53140	6032
21,53553	6598
21,53965	7484
21,54377	7499
21,54790	7134
21,55202	7370
21,55613	6652
21,56027	7028
21,56438	6509
21,56850	7589
21,57263	7266
21,57675	7610
21,58087	7689
21,58500	7543
21,58912	6604
21,59323	6850
21,59735	6065
21,60148	6261
21,60560	6452
21,60972	6962
21,61385	7111
21,61797	7095
21,62208	7591
21,62622	7707
21,63033	9587
21,63445	12460
21,63858	14294
21,64270	19546
21,64682	26173
21,65095	37941
21,65507	54251
21,65918	74052
21,66332	107980
21,66743	143158
21,67155	195951
21,67568	255313
21,67980	313412
21,68392	389539
21,68803	461783
21,69217	530738
21,69628	596271
21,70040	646266
21,70453	686507
21,70865	718192
21,71277	726161
21,71690	718656
21,72102	705711
21,72513	677424
21,72927	633714
21,73338	591694
21,73750	549922
21,74163	498713
21,74575	460417
21,74987	409770
21,75400	372223
21,75812	331954
21,76223	295691
21,76637	266843
21,77048	235668
21,77460	212012
21,77872	190734
21,78285	172182
21,78697	155759
21,79108	142616
21,79522	130976
21,79933	120327
21,80345	111087
21,80758	110565
21,81170	109132
21,81582	113875
21,81995	120865
21,82407	131591
21,82818	162150
21,83232	198836
21,83643	260119
21,84055	328456
21,84468	415826
21,84880	544566
21,85292	687143
21,85705	842709
21,86117	1037205
21,86528	1242796
21,86940	1447969
21,87353	1676898
21,87765	1892505
21,88177	2092694
21,88590	2259675
21,89002	2381393
21,89413	2414385
21,89827	2428332
21,90238	2372227
21,90650	2245694
21,91063	2100589
21,91475	1949077
21,91887	1767492
21,92300	1579745
21,92712	1403819
21,93123	1251214
21,93537	1097304
21,93948	985255
21,94360	878595
21,94773	776409
21,95185	689847
21,95597	615196
21,96008	549249
21,96422	499444
21,96833	454745
21,97245	409593
21,97658	376835
21,98070	346629
21,98482	318867
21,98895	293203
21,99307	271033
21,99718	261722
22,00132	236648
22,00543	222289
22,00955	205044
22,01368	193070
22,01780	178922
22,02192	173278
22,02605	159912
22,03017	150827
22,03428	139970
22,03842	137414
22,04253	127352
22,04665	123346
22,05077	117392
22,05490	108063
22,05902	106800
22,06313	104250
22,06727	98108
22,07138	92375
22,07550	86972
22,07963	83772
22,08375	80815
22,08787	76228
22,09200	74550
22,09612	72082
22,10023	69661
22,10437	68526
22,10848	65658
22,11260	62039
22,11673	61415
22,12085	56128
22,12497	57757
22,12910	54783
22,13322	55720
22,13733	49576
22,14145	48647
22,14558	48192
22,14970	47007
22,15382	43828
22,15795	42709
22,16207	43248
22,16618	42579
22,17032	39955
22,17443	37754
22,17855	38681
22,18268	35417
22,18680	35348
22,19092	36796
22,19505	37443
22,19917	41007
22,20328	45991
22,20742	50994
22,21153	59719
22,21565	76270
22,21978	98651
22,22390	127281
22,22802	158091
22,23213	207468
22,23627	264706
22,24038	323909
22,24450	391430
22,24863	464380
22,25275	535177
22,25687	597908
22,26100	656990
22,26512	695416
22,26923	711066
22,27337	722912
22,27748	721309
22,28160	706231
22,28573	676025
22,28985	644532
22,29397	597017
22,29810	549635
22,30222	496349
22,30633	453265
22,31047	417193
22,31458	370384
22,31870	336348
22,32282	306050
22,32695	270338
22,33107	244520
22,33518	215097
22,33932	200500
22,34343	183348
22,34755	164242
22,35168	149848
22,35580	140838
22,35992	128968
22,36405	119528
22,36817	110433
22,37228	102963
22,37642	96500
22,38053	87525
22,38465	83453
22,38878	78508
22,39290	75336
22,39702	70654
22,40115	66115
22,40527	64479
22,40938	59795
22,41350	57355
22,41763	57161
22,42175	50607
22,42587	47906
22,43000	46027
22,43412	44670
22,43823	43694
22,44237	40537
22,44648	40288
22,45060	37529
22,45473	37480
22,45885	33835
22,46297	33164
22,46710	34127
22,47122	33149
22,47533	30934
22,47947	30893
22,48358	29269
22,48770	29607
22,49183	28863
22,49595	28275
22,50007	27060
22,50418	26123
22,50832	25599
22,51243	23529
22,51655	23376
22,52068	23757
22,52480	25346
22,52892	25131
22,53305	25914
22,53717	27862
22,54128	30335
22,54542	34968
22,54953	42982
22,55365	53481
22,55778	72779
22,56190	97746
22,56602	132649
22,57015	179116
22,57427	238002
22,57838	309735
22,58252	396187
22,58663	485652
22,59075	585937
22,59487	700980
22,59900	799213
22,60312	888710
22,60723	963734
22,61137	1011760
22,61548	1050637
22,61960	1055188
22,62373	1048023
22,62785	1010327
22,63197	957776
22,63610	905620
22,64022	832279
22,64433	762844
22,64847	690316
22,65258	631976
22,65670	565784
22,66083	506700
22,66495	459039
22,66907	405408
22,67320	366357
22,67732	331513
22,68143	301136
22,68555	274029
22,68968	248126
22,69380	224653
22,69792	206709
22,70205	187248
22,70617	172906
22,71028	161019
22,71442	147949
22,71853	137017
22,72265	128337
22,72678	117790
22,73090	110186
22,73502	104749
22,73915	100367
22,74327	94531
22,74738	87219
22,75152	83490
22,75563	79646
22,75975	74061
22,76388	72298
22,76800	68355
22,77212	67190
22,77623	65964
22,78037	59201
22,78448	55514
22,78860	54261
22,79273	50739
22,79685	49999
22,80097	49516
22,80510	46731
22,80922	43680
22,81333	43460
22,81747	42624
22,82158	36766
22,82570	38987
22,82983	39341
22,83395	34846
22,83807	33349
22,84220	31874
22,84632	30868
22,85043	30986
22,85457	28960
22,85868	29605
22,86280	27998
22,86692	27117
22,87105	27571
22,87517	26109
22,87928	25004
22,88342	25890
22,88753	23867
22,89165	22548
22,89578	24005
22,89990	22692
22,90402	21037
22,90815	21819
22,91227	20285
22,91638	22846
22,92052	20104
22,92463	19173
22,92875	20574
22,93288	19769
22,93700	19619
22,94112	18217
22,94525	18590
22,94937	18591
22,95348	19097
22,95762	17388
22,96173	17037
22,96585	15756
22,96997	16415
22,97410	16900
22,97822	15285
22,98233	15278
22,98647	14884
22,99058	15465
22,99470	15170
22,99883	14605
23,00295	15265
23,00707	14617
23,01120	13760
23,01532	14282
23,01943	13901
23,02357	14509
23,02768	14075
23,03180	14173
23,03593	13678
23,04005	12204
23,04417	12944
23,04830	11586
23,05242	12114
23,05653	12395
23,06065	13247
23,06478	12285
23,06890	11396
23,07302	12423
23,07715	12376
23,08127	11020
23,08538	11861
23,08952	11585
23,09363	12459
23,09775	11212
23,10188	12122
23,10600	11204
23,11012	11385
23,11425	11448
23,11837	11924
23,12248	11028
23,12662	9819
23,13073	10470
23,13485	10586
23,13898	10110
23,14310	11310
23,14722	11665
23,15133	10313
23,15547	11520
23,15958	9773
23,16370	12047
23,16783	10718
23,17195	9877
23,17607	9504
23,18020	11532
23,18432	10942
23,18843	9714
23,19257	10110
23,19668	9584
23,20080	10715
23,20493	10272
23,20905	11354
23,21317	10275
23,21730	11271
23,22142	10495
23,22553	10313
23,22967	11677
23,23378	11073
23,23790	12644
23,24202	12585
23,24615	11041
23,25027	14214
23,25438	16034
23,25852	21369
23,26263	28418
23,26675	36669
23,27088	52511
23,27500	71930
23,27912	106687
23,28325	146775
23,28737	202625
23,29148	274805
23,29562	363396
23,29973	464219
23,30385	579073
23,30798	696834
23,31210	823853
23,31622	937279
23,32035	1036898
23,32447	1108757
23,32858	1172618
23,33270	1186475
23,33683	1185049
23,34095	1164956
23,34507	1108593
23,34920	1040228
23,35332	949110
23,35743	868294
23,36157	774729
23,36568	707161
23,36980	633893
23,37393	572059
23,37805	510309
23,38217	456415
23,38630	409181
23,39042	368868
23,39453	325777
23,39867	299691
23,40278	274026
23,40690	250276
23,41103	225872
23,41515	208912
23,41927	190569
23,42338	176161
23,42752	167837
23,43163	149598
23,43575	145795
23,43988	131996
23,44400	126789
23,44812	117534
23,45225	108268
23,45637	106459
23,46048	99160
23,46462	93154
23,46873	85778
23,47285	86747
23,47698	81490
23,48110	78350
23,48522	74273
23,48935	72620
23,49347	68012
23,49758	62061
23,50172	63775
23,50583	60055
23,50995	58742
23,51407	56716
23,51820	53465
23,52232	51486
23,52643	46955
23,53057	48898
23,53468	48470
23,53880	44028
23,54293	43779
23,54705	41769
23,55117	38815
23,55530	37364
23,55942	38119
23,56353	39238
23,56767	35714
23,57178	33045
23,57590	33370
23,58003	32940
23,58415	30657
23,58827	31507
23,59240	27627
23,59652	28703
23,60063	28822
23,60475	28098
23,60888	27923
23,61300	27276
23,61712	25548
23,62125	23478
23,62537	25161
23,62948	23878
23,63362	22255
23,63773	22541
23,64185	22285
23,64598	20425
23,65010	21497
23,65422	20704
23,65835	20452
23,66247	19933
23,66658	19335
23,67072	19399
23,67483	18527
23,67895	17991
23,68308	17836
23,68720	18170
23,69132	17589
23,69543	17845
23,69957	17864
23,70368	17960
23,70780	19433
23,71193	21386
23,71605	23580
23,72017	28627
23,72430	34729
23,72842	44217
23,73253	59003
23,73667	81262
23,74078	112357
23,74490	154692
23,74903	206475
23,75315	273600
23,75727	345881
23,76140	427278
23,76552	506777
23,76963	605410
23,77377	681770
23,77788	757261
23,78200	824733
23,78612	856615
23,79025	886817
23,79437	898352
23,79848	885201
23,80262	849891
23,80673	809059
23,81085	761102
23,81498	707358
23,81910	648972
23,82322	586518
23,82735	528531
23,83147	480800
23,83558	429324
23,83972	385509
23,84383	345246
23,84795	310352
23,85208	282684
23,85620	255207
23,86032	232140
23,86445	212826
23,86857	193653
23,87268	178444
23,87680	159193
23,88093	152083
23,88505	141220
23,88917	129868
23,89330	119312
23,89742	112818
23,90153	106400
23,90567	96292
23,90978	94050
23,91390	87490
23,91803	83983
23,92215	76400
23,92627	72063
23,93040	69326
23,93452	66182
23,93863	60900
23,94277	62091
23,94688	58706
23,95100	54404
23,95513	53146
23,95925	50967
23,96337	49272
23,96748	48390
23,97162	45777
23,97573	42981
23,97985	41319
23,98398	40240
23,98810	38580
23,99222	36771
23,99635	36484
24,00047	35168
24,00458	34551
24,00872	32347
24,01283	31065
24,01695	29861
24,02108	27507
24,02520	28778
24,02932	28130
24,03345	27955
24,03757	25657
24,04168	26958
24,04582	24079
24,04993	23604
24,05405	24575
24,05817	23866
24,06230	19631
24,06642	22136
24,07053	22019
24,07467	22392
24,07878	21749
24,08290	19168
24,08703	18960
24,09115	20377
24,09527	19561
24,09940	19844
24,10352	19107
24,10763	18447
24,11177	19271
24,11588	18118
24,12000	16867
24,12413	18981
24,12825	17350
24,13237	15852
24,13650	16274
24,14062	16211
24,14473	16530
24,14885	16152
24,15298	16263
24,15710	15923
24,16122	15210
24,16535	13922
24,16947	16483
24,17358	15703
24,17772	14530
24,18183	13382
24,18595	14753
24,19008	14375
24,19420	16149
24,19832	13473
24,20245	14969
24,20657	15727
24,21068	14727
24,21482	14397
24,21893	13464
24,22305	14117
24,22718	15706
24,23130	12850
24,23542	14584
24,23953	13777
24,24367	14735
24,24778	13052
24,25190	14621
24,25603	13904
24,26015	13961
24,26427	12670
24,26840	14269
24,27252	14076
24,27663	14009
24,28077	12172
24,28488	12514
24,28900	13803
24,29313	12082
24,29725	12673
24,30137	13130
24,30550	12838
24,30962	12522
24,31373	11678
24,31787	11714
24,32198	11271
24,32610	11789
24,33022	12008
24,33435	11925
24,33847	11773
24,34258	10150
24,34672	12191
24,35083	13281
24,35495	11978
24,35908	11885
24,36320	11497
24,36732	11500
24,37145	11944
24,37557	12770
24,37968	12381
24,38382	11898
24,38793	10482
24,39205	11666
24,39618	9814
24,40030	10289
24,40442	11829
24,40855	11489
24,41267	9831
24,41678	9620
24,42090	8616
24,42503	10918
24,42915	10178
24,43327	10150
24,43740	10261
24,44152	10792
24,44563	9435
24,44977	9257
24,45388	9243
24,45800	10426
24,46213	9800
24,46625	9346
24,47037	8487
24,47450	10381
24,47862	9148
24,48273	9082
24,48687	9792
24,49098	11180
24,49510	9524
24,49923	9098
24,50335	11447
24,50747	10714
24,51158	10410
24,51572	9824
24,51983	11819
24,52395	13165
24,52808	15349
24,53220	19757
24,53632	26120
24,54045	33925
24,54457	48391
24,54868	65696
24,55282	90403
24,55693	124651
24,56105	168549
24,56518	220412
24,56930	285782
24,57342	353368
24,57755	432269
24,58167	506972
24,58578	574885
24,58992	645352
24,59403	695253
24,59815	729598
24,60228	764498
24,60640	775754
24,61052	761754
24,61463	734989
24,61877	705053
24,62288	658418
24,62700	620453
24,63113	565952
24,63525	518776
24,63937	470565
24,64350	429498
24,64762	386123
24,65173	349023
24,65587	321378
24,65998	298851
24,66410	274953
24,66823	258810
24,67235	256633
24,67647	260962
24,68060	274160
24,68472	302664
24,68883	343895
24,69297	397702
24,69708	471249
24,70120	565607
24,70532	691427
24,70945	836866
24,71357	997644
24,71768	1195590
24,72182	1403745
24,72593	1621874
24,73005	1832973
24,73418	2050928
24,73830	2230534
24,74242	2388944
24,74655	2482195
24,75067	2528378
24,75478	2511393
24,75892	2479631
24,76303	2351404
24,76715	2196997
24,77128	2014456
24,77540	1839565
24,77952	1652782
24,78365	1457663
24,78777	1309331
24,79188	1167307
24,79600	1052619
24,80013	925980
24,80425	833846
24,80837	747154
24,81250	682248
24,81662	624062
24,82073	574788
24,82487	521342
24,82898	485781
24,83310	439015
24,83723	409588
24,84135	382128
24,84547	351577
24,84960	330018
24,85372	304394
24,85783	281921
24,86197	266420
24,86608	257877
24,87020	238282
24,87433	225624
24,87845	211067
24,88257	203280
24,88668	189650
24,89082	178037
24,89493	172272
24,89905	164131
24,90318	159993
24,90730	149959
24,91142	146641
24,91555	141261
24,91967	134860
24,92378	129913
24,92792	124505
24,93203	120039
24,93615	114764
24,94028	110949
24,94440	107785
24,94852	101465
24,95265	98265
24,95677	97451
24,96088	93272
24,96502	90311
24,96913	87563
24,97325	84373
24,97737	79771
24,98150	77958
24,98562	74310
24,98973	75283
24,99387	73158
24,99798	69578
25,00210	66671
25,00623	65472
25,01035	64066
25,01447	61240
25,01860	59119
25,02272	58705
25,02683	56029
25,03097	55044
25,03508	51799
25,03920	53853
25,04333	50235
25,04745	52646
25,05157	49663
25,05570	49980
25,05982	50618
25,06393	53247
25,06805	60441
25,07218	68104
25,07630	81351
25,08042	102054
25,08455	127973
25,08867	159661
25,09278	206730
25,09692	254813
25,10103	324773
25,10515	400146
25,10928	476425
25,11340	557942
25,11752	632150
25,12165	707220
25,12577	768007
25,12988	806437
25,13402	832117
25,13813	866768
25,14225	875003
25,14638	874501
25,15050	885116
25,15462	875291
25,15873	879118
25,16287	878654
25,16698	885463
25,17110	891416
25,17523	916305
25,17935	938900
25,18347	954792
25,18760	978555
25,19172	988420
25,19583	988707
25,19997	965071
25,20408	955800
25,20820	920164
25,21233	879171
25,21645	828851
25,22057	769845
25,22470	731671
25,22882	671851
25,23293	611902
25,23707	562977
25,24118	510336
25,24530	467911
25,24942	424969
25,25355	379645
25,25767	351440
25,26178	325110
25,26592	301643
25,27003	271417
25,27415	245862
25,27828	229187
25,28240	211556
25,28652	199744
25,29065	183124
25,29477	169863
25,29888	159036
25,30302	150341
25,30713	142243
25,31125	131658
25,31538	127312
25,31950	118327
25,32362	113921
25,32775	105266
25,33187	101255
25,33598	97785
25,34010	97099
25,34423	90129
25,34835	89506
25,35247	86831
25,35660	88385
25,36072	89085
25,36483	96804
25,36897	104808
25,37308	115394
25,37720	138930
25,38133	168314
25,38545	209775
25,38957	256812
25,39370	320847
25,39782	402090
25,40193	493255
25,40607	595885
25,41018	692996
25,41430	797483
25,41843	899970
25,42255	995250
25,42667	1069763
25,43078	1118453
25,43492	1143433
25,43903	1148428
25,44315	1123258
25,44728	1068626
25,45140	1001884
25,45552	947023
25,45965	873966
25,46377	799375
25,46788	726686
25,47202	656188
25,47613	596555
25,48025	542469
25,48438	490460
25,48850	450214
25,49262	407406
25,49675	377605
25,50087	336889
25,50498	307577
25,50912	287782
25,51323	264978
25,51735	249752
25,52147	227685
25,52560	217827
25,52972	202326
25,53383	191017
25,53797	176522
25,54208	168965
25,54620	161175
25,55033	152942
25,55445	141902
25,55857	134741
25,56270	127045
25,56682	124273
25,57093	117890
25,57507	112830
25,57918	107597
25,58330	102168
25,58743	100688
25,59155	92995
25,59567	92526
25,59980	86855
25,60392	88116
25,60803	82624
25,61215	80344
25,61628	76041
25,62040	75229
25,62452	74456
25,62865	71302
25,63277	69198
25,63688	66893
25,64102	65176
25,64513	62073
25,64925	61589
25,65338	59867
25,65750	60674
25,66162	58590
25,66575	54132
25,66987	53606
25,67398	52851
25,67812	52290
25,68223	50257
25,68635	47872
25,69048	47469
25,69460	45929
25,69872	43476
25,70283	43953
25,70697	42270
25,71108	40584
25,71520	41773
25,71933	41086
25,72345	37185
25,72757	39134
25,73170	34565
25,73582	37905
25,73993	34921
25,74407	35911
25,74818	34289
25,75230	31170
25,75643	32409
25,76055	30958
25,76467	31120
25,76880	32062
25,77292	30533
25,77703	29022
25,78117	29711
25,78528	28984
25,78940	27692
25,79352	28376
25,79765	26092
25,80177	26170
25,80588	28785
25,81002	27883
25,81413	27310
25,81825	25913
25,82238	24889
25,82650	25208
25,83062	24201
25,83475	23309
25,83887	24032
25,84298	24606
25,84712	22188
25,85123	23483
25,85535	22630
25,85948	23079
25,86360	23635
25,86772	24262
25,87185	23076
25,87597	22744
25,88008	22006
25,88420	22291
25,88833	21056
25,89245	22404
25,89657	21330
25,90070	21865
25,90482	21504
25,90893	20899
25,91307	21159
25,91718	22672
25,92130	22344
25,92543	21953
25,92955	20591
25,93367	20623
25,93780	20632
25,94192	20764
25,94603	18974
25,95017	20920
25,95428	19552
25,95840	19560
25,96253	19804
25,96665	19080
25,97077	17596
25,97488	17533
25,97902	19504
25,98313	17823
25,98725	17259
25,99138	18921
25,99550	17610
25,99962	19395
26,00375	20264
26,00787	22920
26,01198	24286
26,01612	26937
26,02023	33549
26,02435	44193
26,02848	54997
26,03260	77426
26,03672	108073
26,04085	146807
26,04497	194433
26,04908	258512
26,05322	339896
26,05733	432456
26,06145	532843
26,06557	642403
26,06970	763839
26,07382	888511
26,07793	994349
26,08207	1080441
26,08618	1147226
26,09030	1185711
26,09443	1187805
26,09855	1172617
26,10267	1125745
26,10680	1069453
26,11092	992374
26,11503	906386
26,11917	842828
26,12328	757999
26,12740	685971
26,13153	621361
26,13565	560069
26,13977	506976
26,14390	459385
26,14802	420308
26,15213	382990
26,15625	351567
26,16038	324104
26,16450	303920
26,16862	277432
26,17275	260134
26,17687	236976
26,18098	220525
26,18512	210813
26,18923	192512
26,19335	181368
26,19748	173603
26,20160	160870
26,20572	151662
26,20985	147436
26,21397	139110
26,21808	129251
26,22222	124329
26,22633	121973
26,23045	114928
26,23458	110360
26,23870	101319
26,24282	101417
26,24695	92947
26,25107	97979
26,25518	87941
26,25930	85293
26,26343	81714
26,26755	80173
26,27167	77977
26,27580	74343
26,27992	71597
26,28403	69018
26,28817	68826
26,29228	66957
26,29640	62849
26,30053	60915
26,30465	59024
26,30877	58015
26,31290	55474
26,31702	55362
26,32113	52852
26,32527	50404
26,32938	51157
26,33350	46630
26,33763	49400
26,34175	44700
26,34587	43883
26,34998	42302
26,35412	43385
26,35823	41425
26,36235	41826
26,36648	42446
26,37060	39511
26,37472	38536
26,37885	37115
26,38297	37004
26,38708	35890
26,39122	35235
26,39533	35941
26,39945	35786
26,40358	34354
26,40770	34578
26,41182	31954
26,41595	31571
26,42007	32037
26,42418	32726
26,42832	30650
26,43243	29867
26,43655	28863
26,44067	28890
26,44480	30227
26,44892	29104
26,45303	28442
26,45717	27900
26,46128	28865
26,46540	33227
26,46953	31530
26,47365	34384
26,47777	38915
26,48190	45805
26,48602	59689
26,49013	76228
26,49427	99333
26,49838	131745
26,50250	179090
26,50663	239710
26,51075	313160
26,51487	409692
26,51900	520068
26,52312	626241
26,52723	771799
26,53135	881092
26,53548	1025746
26,53960	1150827
26,54372	1253560
26,54785	1345796
26,55197	1392756
26,55608	1441240
26,56022	1470622
26,56433	1467417
26,56845	1450774
26,57258	1396887
26,57670	1338323
26,58082	1271336
26,58495	1201767
26,58907	1121853
26,59318	1036382
26,59732	946834
26,60143	871890
26,60555	794322
26,60968	724628
26,61380	662440
26,61792	602200
26,62203	546642
26,62617	504313
26,63028	459054
26,63440	411883
26,63853	380872
26,64265	346042
26,64677	324096
26,65090	300301
26,65502	275940
26,65913	253812
26,66327	238595
26,66738	226086
26,67150	209813
26,67563	197833
26,67975	185931
26,68387	177376
26,68800	160834
26,69212	157932
26,69623	148082
26,70037	142191
26,70448	133403
26,70860	130151
26,71272	120686
26,71685	115118
26,72097	111349
26,72508	105960
26,72922	102476
26,73333	97578
26,73745	94544
26,74158	91233
26,74570	84916
26,74982	81457
26,75395	82268
26,75807	77671
26,76218	73348
26,76632	71729
26,77043	69933
26,77455	68555
26,77868	64864
26,78280	64351
26,78692	60932
26,79105	58718
26,79517	59109
26,79928	58494
26,80340	53774
26,80753	52695
26,81165	49385
26,81577	49692
26,81990	47888
26,82402	47717
26,82813	44484
26,83227	45604
26,83638	45118
26,84050	44111
26,84463	41105
26,84875	41252
26,85287	43246
26,85700	40856
26,86112	41009
26,86523	40271
26,86937	37334
26,87348	36420
26,87760	33426
26,88173	33359
26,88585	33312
26,88997	33013
26,89408	32052
26,89822	33552
26,90233	35166
26,90645	32148
26,91058	32687
26,91470	30437
26,91882	30886
26,92295	31073
26,92707	30798
26,93118	29828
26,93532	29926
26,93943	28846
26,94355	28634
26,94768	28557
26,95180	28739
26,95592	29592
26,96005	28556
26,96417	26533
26,96828	29161
26,97242	30795
26,97653	26714
26,98065	29252
26,98477	26931
26,98890	26158
26,99302	28049
26,99713	26161
27,00127	24001
27,00538	26254
27,00950	25947
27,01363	27301
27,01775	25154
27,02187	23944
27,02600	25284
27,03012	21502
27,03423	23839
27,03837	24780
27,04248	23402
27,04660	23192
27,05073	21114
27,05485	22552
27,05897	22008
27,06310	22414
27,06722	21477
27,07133	20830
27,07545	20465
27,07958	21229
27,08370	20857
27,08782	20015
27,09195	20459
27,09607	18404
27,10018	19751
27,10432	19795
27,10843	19512
27,11255	17737
27,11668	20044
27,12080	19129
27,12492	17956
27,12905	18413
27,13317	19255
27,13728	17595
27,14142	17233
27,14553	16213
27,14965	18858
27,15378	18489
27,15790	16816
27,16202	17920
27,16613	16121
27,17027	18947
27,17438	18208
27,17850	16422
27,18263	17439
27,18675	17020
27,19087	18611
27,19500	19081
27,19912	18194
27,20323	18540
27,20737	18712
27,21148	18901
27,21560	18823
27,21973	18636
27,22385	18707
27,22797	17929
27,23210	18118
27,23622	18717
27,24033	18217
27,24447	18838
27,24858	18675
27,25270	18314
27,25682	17753
27,26095	16854
27,26507	17709
27,26918	18535
27,27332	18728
27,27743	18701
27,28155	17789
27,28568	16962
27,28980	17964
27,29392	17903
27,29805	18336
27,30217	17376
27,30628	18133
27,31042	19379
27,31453	19051
27,31865	19996
27,32278	21211
27,32690	22153
27,33102	24680
27,33515	29919
27,33927	36261
27,34338	43969
27,34750	61672
27,35163	79482
27,35575	108286
27,35987	143576
27,36400	192866
27,36812	258152
27,37223	340161
27,37637	446387
27,38048	567643
27,38460	709455
27,38873	863426
27,39285	1040837
27,39697	1230327
27,40110	1434180
27,40522	1661558
27,40933	1842304
27,41347	2041804
27,41758	2189885
27,42170	2323122
27,42583	2367884
27,42995	2349065
27,43407	2307196
27,43818	2200497
27,44232	2068126
27,44643	1899540
27,45055	1734931
27,45468	1568661
27,45880	1409774
27,46292	1266120
27,46705	1137930
27,47117	1021825
27,47528	919864
27,47942	824508
27,48353	750217
27,48765	687872
27,49178	625903
27,49590	576013
27,50002	534514
27,50415	491894
27,50827	459631
27,51238	423575
27,51652	396827
27,52063	376498
27,52475	344177
27,52887	324864
27,53300	306459
27,53712	290708
27,54123	270896
27,54537	260278
27,54948	245380
27,55360	234806
27,55773	221995
27,56185	216500
27,56597	206627
27,57010	191236
27,57422	183256
27,57833	178670
27,58247	169813
27,58658	164922
27,59070	155111
27,59483	146127
27,59895	146054
27,60307	140812
27,60720	136731
27,61132	131434
27,61543	127613
27,61955	121454
27,62368	118632
27,62780	114903
27,63192	108870
27,63605	106724
27,64017	106206
27,64428	100949
27,64842	98421
27,65253	96921
27,65665	92011
27,66078	94131
27,66490	85442
27,66902	85501
27,67315	81219
27,67727	80219
27,68138	81186
27,68552	74407
27,68963	74959
27,69375	72397
27,69788	71300
27,70200	68266
27,70612	68083
27,71023	66251
27,71437	63877
27,71848	65357
27,72260	62612
27,72673	63155
27,73085	58714
27,73497	58671
27,73910	59937
27,74322	56225
27,74733	57253
27,75147	53437
27,75558	54919
27,75970	53620
27,76383	49698
27,76795	51622
27,77207	52381
27,77620	48961
27,78032	47705
27,78443	47961
27,78857	47610
27,79268	46397
27,79680	47730
27,80092	45514
27,80505	45213
27,80917	43794
27,81328	44662
27,81742	44185
27,82153	44736
27,82565	40316
27,82978	41555
27,83390	40606
27,83802	40476
27,84215	42119
27,84627	39957
27,85038	39274
27,85452	37989
27,85863	36102
27,86275	36694
27,86688	34859
27,87100	34893
27,87512	35791
27,87925	34666
27,88337	35144
27,88748	33938
27,89162	32749
27,89573	34065
27,89985	33548
27,90397	32282
27,90810	32965
27,91222	33025
27,91633	30746
27,92047	30533
27,92458	28960
27,92870	29492
27,93283	30092
27,93695	30694
27,94107	28120
27,94520	28993
27,94932	27964
27,95343	29511
27,95757	29936
27,96168	28843
27,96580	29293
27,96993	26992
27,97405	28226
27,97817	29889
27,98230	29419
27,98642	30879
27,99053	32113
27,99465	33456
27,99878	36052
28,00290	42789
28,00702	50835
28,01115	62724
28,01527	79492
28,01938	103795
28,02352	133841
28,02763	178281
28,03175	225633
28,03588	286922
28,04000	367875
28,04412	457624
28,04825	550724
28,05237	656567
28,05648	767577
28,06062	864094
28,06473	937829
28,06885	1010653
28,07298	1050464
28,07710	1071754
28,08122	1064052
28,08533	1043613
28,08947	1002464
28,09358	949587
28,09770	884887
28,10183	821739
28,10595	755569
28,11007	688461
28,11420	630625
28,11832	568618
28,12243	525375
28,12657	482170
28,13068	434547
28,13480	400087
28,13893	366694
28,14305	340594
28,14717	315009
28,15130	287991
28,15542	275580
28,15953	255081
28,16367	241247
28,16778	221934
28,17190	208993
28,17602	201417
28,18015	193048
28,18427	179716
28,18838	170181
28,19252	160702
28,19663	151541
28,20075	145577
28,20488	139003
28,20900	134293
28,21312	126157
28,21725	122219
28,22137	118791
28,22548	113809
28,22962	109110
28,23373	108628
28,23785	102640
28,24198	100372
28,24610	99302
28,25022	96927
28,25435	98584
28,25847	95148
28,26258	94475
28,26670	95010
28,27083	96801
28,27495	98818
28,27907	102637
28,28320	104179
28,28732	106280
28,29143	106991
28,29557	105821
28,29968	110690
28,30380	108192
28,30793	110646
28,31205	108866
28,31617	106418
28,32030	105012
28,32442	98894
28,32853	98640
28,33267	94014
28,33678	90850
28,34090	83718
28,34503	80384
28,34915	78904
28,35327	75374
28,35738	73710
28,36152	70576
28,36563	63215
28,36975	68149
28,37388	65877
28,37800	61252
28,38212	59917
28,38625	58003
28,39037	56571
28,39448	53343
28,39862	52492
28,40273	51907
28,40685	49319
28,41098	47284
28,41510	46893
28,41922	46971
28,42335	44651
28,42747	43444
28,43158	42557
28,43572	42736
28,43983	41022
28,44395	38975
28,44807	39807
28,45220	39222
28,45632	37348
28,46043	34727
28,46457	37155
28,46868	35793
28,47280	34151
28,47693	35567
28,48105	33694
28,48517	35379
28,48930	31895
28,49342	33288
28,49753	31781
28,50167	31411
28,50578	29575
28,50990	29282
28,51403	30199
28,51815	30567
28,52227	30041
28,52640	28882
28,53052	28733
28,53463	28074
28,53875	28692
28,54288	29883
28,54700	28092
28,55112	26180
28,55525	27604
28,55937	27622
28,56348	27646
28,56762	26673
28,57173	25942
28,57585	28216
28,57998	26768
28,58410	26089
28,58822	26517
28,59235	27207
28,59647	25200
28,60058	25621
28,60472	26370
28,60883	25558
28,61295	25272
28,61708	25001
28,62120	26873
28,62532	26482
28,62943	25508
28,63357	27218
28,63768	24263
28,64180	26371
28,64593	26702
28,65005	27932
28,65417	24934
28,65830	26858
28,66242	25015
28,66653	23154
28,67067	23086
28,67478	24298
28,67890	23075
28,68303	23649
28,68715	24465
28,69127	24045
28,69540	24706
28,69952	25755
28,70363	22847
28,70777	23118
28,71188	24426
28,71600	25136
28,72012	22334
28,72425	22106
28,72837	22413
28,73248	22485
28,73662	21736
28,74073	21615
28,74485	22543
28,74898	23518
28,75310	22241
28,75722	25441
28,76135	23359
28,76547	21993
28,76958	21213
28,77372	23279
28,77783	23366
28,78195	23073
28,78608	20571
28,79020	21404
28,79432	23118
28,79845	22607
28,80257	21793
28,80668	21364
28,81080	21519
28,81493	21665
28,81905	19891
28,82317	21301
28,82730	21911
28,83142	20751
28,83553	21112
28,83967	20953
28,84378	19955
28,84790	21526
28,85203	20465
28,85615	20983
28,86027	19812
28,86440	17795
28,86852	20975
28,87263	19460
28,87677	19664
28,88088	20771
28,88500	19865
28,88913	19567
28,89325	20084
28,89737	21069
28,90148	18356
28,90562	18317
28,90973	19759
28,91385	18707
28,91798	20510
28,92210	20333
28,92622	19253
28,93035	19945
28,93447	22208
28,93858	20471
28,94272	19408
28,94683	20645
28,95095	21238
28,95508	20745
28,95920	19542
28,96332	20805
28,96745	20426
28,97157	18921
28,97568	16955
28,97982	19298
28,98393	19241
28,98805	20518
28,99217	19079
28,99630	20506
29,00042	17529
29,00453	19728
29,00867	18682
29,01278	18301
29,01690	18419
29,02103	18174
29,02515	17620
29,02927	19499
29,03340	18746
29,03752	17163
29,04163	16853
29,04577	18378
29,04988	18555
29,05400	18264
29,05813	18352
29,06225	18278
29,06637	16811
29,07050	16412
29,07462	18620
29,07873	17196
29,08285	18902
29,08698	18409
29,09110	18371
29,09522	17125
29,09935	19285
29,10347	18136
29,10758	19019
29,11172	17473
29,11583	18351
29,11995	18448
29,12408	17021
29,12820	18232
29,13232	16950
29,13645	19424
29,14057	18970
29,14468	18490
29,14882	19198
29,15293	18664
29,15705	16223
29,16118	19145
29,16530	17820
29,16942	17255
29,17353	18331
29,17767	16841
29,18178	17852
29,18590	20562
29,19003	16560
29,19415	19333
29,19827	17093
29,20240	18428
29,20652	17550
29,21063	17399
29,21477	17068
29,21888	18243
29,22300	18488
29,22713	18583
29,23125	17195
29,23537	17771
29,23950	16795
29,24362	17988
29,24773	17891
29,25187	18032
29,25598	19105
29,26010	17377
29,26422	16753
29,26835	16443
29,27247	18428
29,27658	18319
29,28072	16823
29,28483	16536
29,28895	17751
29,29308	15627
29,29720	15851
29,30132	15876
29,30545	16296
29,30957	17648
29,31368	19753
29,31782	17017
29,32193	16269
29,32605	18313
29,33018	17214
29,33430	18689
29,33842	17625
29,34255	17418
29,34667	19021
29,35078	16815
29,35490	17121
29,35903	17879
29,36315	19243
29,36727	15630
29,37140	16143
29,37552	17541
29,37963	16796
29,38377	17111
29,38788	14433
29,39200	18560
29,39613	16345
29,40025	16977
29,40437	18165
29,40850	16899
29,41262	17460
29,41673	17523
29,42087	16140
29,42498	18256
29,42910	16521
29,43323	17260
29,43735	18087
29,44147	15422
29,44558	17744
29,44972	17040
29,45383	16435
29,45795	18307
29,46208	17429
29,46620	16925
29,47032	17810
29,47445	16399
29,47857	17547
29,48268	15364
29,48682	17772
29,49093	17596
29,49505	16906
29,49918	18038
29,50330	17549
29,50742	18757
29,51155	18817
29,51567	20072
29,51978	17622
29,52392	17576
29,52803	18966
29,53215	17389
29,53628	17706
29,54040	17798
29,54452	19541
29,54863	18502
29,55277	18994
29,55688	17736
29,56100	19061
29,56513	17354
29,56925	17578
29,57337	16444
29,57750	17882
29,58162	17000
29,58573	18571
29,58987	17030
29,59398	15891
29,59810	17799
29,60223	16965
29,60635	17707
29,61047	16363
29,61460	17564
29,61872	17127
29,62283	17562
29,62697	16064
29,63108	17434
29,63520	19238
29,63932	17371
29,64345	16638
29,64757	16244
29,65168	18359
29,65582	19058
29,65993	17423
29,66405	17455
29,66818	18735
29,67230	18171
29,67642	17811
29,68055	16896
29,68467	17758
29,68878	17431
29,69292	16913
29,69703	18912
29,70115	18107
29,70528	16919
29,70940	17752
29,71352	15811
29,71765	16660
29,72177	17587
29,72588	16439
29,73000	17385
29,73413	17896
29,73825	18196
29,74237	17984
29,74650	19342
29,75062	19697
29,75473	22422
29,75887	26575
29,76298	28873
29,76710	34444
29,77123	42613
29,77535	56552
29,77947	68650
29,78360	92372
29,78772	120260
29,79183	151102
29,79597	186688
29,80008	232754
29,80420	279790
29,80833	326869
29,81245	371113
29,81657	423483
29,82068	466042
29,82482	498926
29,82893	520477
29,83305	533252
29,83718	534970
29,84130	526813
29,84542	507750
29,84955	485715
29,85367	461433
29,85778	433750
29,86192	408391
29,86603	377412
29,87015	348645
29,87428	317760
29,87840	292852
29,88252	271587
29,88665	248937
29,89077	221815
29,89488	207864
29,89902	191585
29,90313	174225
29,90725	161283
29,91137	152512
29,91550	144415
29,91962	131161
29,92373	122936
29,92787	117862
29,93198	110596
29,93610	104250
29,94023	97244
29,94435	91542
29,94847	88367
29,95260	85196
29,95672	80795
29,96083	76478
29,96497	73722
29,96908	67476
29,97320	67641
29,97733	64675
29,98145	61296
29,98557	61179
29,98970	58470
29,99382	54560
29,99793	53516
30,00205	54501
30,00618	51297
30,01030	52807
30,01442	47477
30,01855	47868
30,02267	46437
30,02678	45040
30,03092	43392
30,03503	42890
30,03915	40594
30,04328	41141
30,04740	40294
30,05152	42131
30,05565	40056
30,05977	38170
30,06388	38929
30,06802	39114
30,07213	36044
30,07625	36845
30,08038	35984
30,08450	35782
30,08862	34157
30,09273	36728
30,09687	32773
30,10098	33225
30,10510	31547
30,10923	31791
30,11335	31089
30,11747	31042
30,12160	30825
30,12572	29513
30,12983	30641
30,13397	30283
30,13808	29196
30,14220	29111
30,14633	27702
30,15045	27992
30,15457	28330
30,15870	26936
30,16282	29264
30,16693	26314
30,17107	27120
30,17518	26781
30,17930	27760
30,18342	27059
30,18755	26232
30,19167	25253
30,19578	25545
30,19992	26361
30,20403	23966
30,20815	25177
30,21228	25366
30,21640	25735
30,22052	26288
30,22465	22891
30,22877	23650
30,23288	25283
30,23702	24150
30,24113	23966
30,24525	24457
30,24938	21527
30,25350	22827
30,25762	23733
30,26175	20766
30,26587	21613
30,26998	22924
30,27410	23250
30,27823	22886
30,28235	23647
30,28647	24897
30,29060	21206
30,29472	22212
30,29883	23912
30,30297	22264
30,30708	21746
30,31120	22164
30,31533	23430
30,31945	23389
30,32357	22439
30,32770	23230
30,33182	21926
30,33593	23744
30,34007	22779
30,34418	23419
30,34830	24354
30,35243	22909
30,35655	22576
30,36067	21853
30,36478	22426
30,36892	24756
30,37303	21265
30,37715	23297
30,38128	22250
30,38540	22263
30,38952	22575
30,39365	22688
30,39777	21863
30,40188	22837
30,40602	21629
30,41013	21056
30,41425	21864
30,41838	22680
30,42250	21655
30,42662	21098
30,43075	20736
30,43487	22348
30,43898	21287
30,44312	23169
30,44723	20767
30,45135	21752
30,45547	22878
30,45960	19673
30,46372	21847
30,46783	23057
30,47197	22966
30,47608	19921
30,48020	22283
30,48433	21075
30,48845	21278
30,49257	23897
30,49670	21091
30,50082	22612
30,50493	24413
30,50907	22172
30,51318	21608
30,51730	22398
30,52143	23681
30,52555	21814
30,52967	22546
30,53380	24426
30,53792	21091
30,54203	22669
30,54615	21966
30,55028	22568
30,55440	21487
30,55852	20474
30,56265	22050
30,56677	21472
30,57088	22306
30,57502	22879
30,57913	20397
30,58325	21012
30,58738	22158
30,59150	22119
30,59562	21295
30,59975	22330
30,60387	22835
30,60798	22809
30,61212	20572
30,61623	22560
30,62035	22797
30,62448	20539
30,62860	20733
30,63272	22129
30,63683	20350
30,64097	22395
30,64508	22757
30,64920	21619
30,65333	21796
30,65745	20858
30,66157	21181
30,66570	22214
30,66982	21649
30,67393	21142
30,67807	21299
30,68218	21650
30,68630	23320
30,69043	21155
30,69455	21758
30,69867	23051
30,70280	21975
30,70692	23580
30,71103	21879
30,71517	22449
30,71928	23154
30,72340	23869
30,72752	23546
30,73165	24340
30,73577	23408
30,73988	23080
30,74402	22386
30,74813	21609
30,75225	22318
30,75638	20936
30,76050	23521
30,76462	23414
30,76875	20989
30,77287	23117
30,77698	23551
30,78112	22611
30,78523	22983
30,78935	21769
30,79348	21188
30,79760	22592
30,80172	21520
30,80585	23089
30,80997	21024
30,81408	22106
30,81820	22126
30,82233	21266
30,82645	21114
30,83057	21111
30,83470	22769
30,83882	19768
30,84293	21449
30,84707	22571
30,85118	21570
30,85530	21016
30,85943	21784
30,86355	22313
30,86767	21425
30,87180	24765
30,87592	21734
30,88003	23356
30,88417	24023
30,88828	23025
30,89240	22461
30,89653	23566
30,90065	22877
30,90477	25072
30,90888	22749
30,91302	23254
30,91713	22037
30,92125	21951
30,92538	23352
30,92950	22199
30,93362	25805
30,93775	22893
30,94187	23151
30,94598	24246
30,95012	24504
30,95423	23273
30,95835	23038
30,96248	23703
30,96660	23508
30,97072	22740
30,97485	24292
30,97897	25241
30,98308	22480
30,98722	23180
30,99133	23300
30,99545	22336
30,99957	22330
31,00370	23329
31,00782	22789
31,01193	22619
31,01607	22898
31,02018	22386
31,02430	23201
31,02843	23396
31,03255	23507
31,03667	23154
31,04080	22519
31,04492	22329
31,04903	21610
31,05317	21842
31,05728	22126
31,06140	22044
31,06553	23195
31,06965	22085
31,07377	22644
31,07790	24862
31,08202	22851
31,08613	22826
31,09027	21722
31,09438	21926
31,09850	22872
31,10262	23253
31,10675	21726
31,11087	22071
31,11498	23270
31,11912	22203
31,12323	22501
31,12735	20824
31,13148	21657
31,13560	20897
31,13972	20471
31,14385	21697
31,14797	19608
31,15208	22666
31,15622	20272
31,16033	20553
31,16445	21340
31,16858	21415
31,17270	21323
31,17682	22623
31,18095	22300
31,18507	23025
31,18918	21243
31,19330	23745
31,19743	22229
31,20155	21208
31,20567	22517
31,20980	23195
31,21392	23643
31,21803	21426
31,22217	23299
31,22628	23186
31,23040	21077
31,23453	22616
31,23865	23070
31,24277	22921
31,24690	24152
31,25102	22388
31,25513	22660
31,25927	23832
31,26338	22562
31,26750	20967
31,27163	21045
31,27575	23666
31,27987	23542
31,28398	21491
31,28812	24938
31,29223	23787
31,29635	24044
31,30048	24774
31,30460	24240
31,30872	24643
31,31285	23805
31,31697	23503
31,32108	24280
31,32522	22542
31,32933	23179
31,33345	24823
31,33758	22766
31,34170	25320
31,34582	21519
31,34995	23464
31,35407	24729
31,35818	22532
31,36232	24280
31,36643	26192
31,37055	25054
31,37467	24006
31,37880	23959
31,38292	23433
31,38703	24218
31,39117	24804
31,39528	24339
31,39940	22587
31,40353	21449
31,40765	24839
31,41177	25155
31,41590	23914
31,42002	24746
31,42413	24476
31,42827	23715
31,43238	23067
31,43650	24302
31,44063	24115
31,44475	24586
31,44887	23057
31,45300	24945
31,45712	25170
31,46123	24021
31,46535	26386
31,46948	25801
31,47360	22900
31,47772	24241
31,48185	23976
31,48597	26271
31,49008	26821
31,49422	24376
31,49833	24987
31,50245	23728
31,50658	27218
31,51070	25214
31,51482	24488
31,51895	24215
31,52307	25986
31,52718	25160
31,53132	24732
31,53543	24835
31,53955	25261
31,54368	23949
31,54780	23625
31,55192	24803
31,55603	24202
31,56017	25851
31,56428	26439
31,56840	25632
31,57253	25627
31,57665	24647
31,58077	25215
31,58490	24951
31,58902	25883
31,59313	23880
31,59727	24052
31,60138	25833
31,60550	24571
31,60963	25796
31,61375	24987
31,61787	24706
31,62200	25027
31,62612	25347
31,63023	22856
31,63437	25517
31,63848	25305
31,64260	22259
31,64672	24026
31,65085	24865
31,65497	25511
31,65908	23571
31,66322	25935
31,66733	23010
31,67145	23932
31,67558	23417
31,67970	24780
31,68382	23766
31,68795	24054
31,69207	26080
31,69618	22923
31,70032	23897
31,70443	24931
31,70855	25399
31,71268	25309
31,71680	23656
31,72092	26143
31,72505	25063
31,72917	26407
31,73328	24281
31,73740	24884
31,74153	25055
31,74565	25261
31,74977	24631
31,75390	24925
31,75802	23640
31,76213	24481
31,76627	23925
31,77038	23198
31,77450	24205
