D:\MassHunter\GCMS\1\data\Amal\Constant flow\150C\150C_1ml-min_4C-min_2.D Fri Aug 30 15:07:42 2024
Start of data points
4,94103	1003488
4,94517	960799
4,94928	902389
4,95340	869157
4,95753	822022
4,96165	787052
4,96577	745454
4,96990	720486
4,97402	687250
4,97813	659127
4,98227	629813
4,98638	606907
4,99050	578838
4,99463	556190
4,99875	532859
5,00287	509088
5,00698	498933
5,01112	482213
5,01523	466924
5,01935	445484
5,02348	430188
5,02760	413385
5,03172	402818
5,03585	387519
5,03997	375503
5,04408	366643
5,04822	349643
5,05233	343673
5,05645	337078
5,06058	331258
5,06470	320806
5,06882	309702
5,07295	302072
5,07707	295543
5,08118	285842
5,08532	279245
5,08943	272219
5,09355	265748
5,09767	258716
5,10180	256689
5,10592	248521
5,11003	253156
5,11417	245602
5,11828	237842
5,12240	234429
5,12653	228712
5,13065	227327
5,13477	223446
5,13890	224148
5,14302	221556
5,14713	215572
5,15127	211620
5,15538	208949
5,15950	205839
5,16363	202799
5,16775	200729
5,17187	199286
5,17600	195925
5,18012	192389
5,18423	191128
5,18835	188453
5,19248	181680
5,19660	181390
5,20072	185341
5,20485	184162
5,20897	180536
5,21308	185383
5,21722	178455
5,22133	178172
5,22545	178426
5,22958	176425
5,23370	173769
5,23782	175853
5,24195	175975
5,24607	175032
5,25018	172526
5,25432	173756
5,25843	171508
5,26255	170383
5,26668	170587
5,27080	169040
5,27492	165024
5,27903	163570
5,28317	167142
5,28728	166383
5,29140	162277
5,29553	163415
5,29965	163130
5,30377	159398
5,30790	162621
5,31202	167974
5,31613	181433
5,32027	217476
5,32438	285301
5,32850	403324
5,33263	574262
5,33675	765439
5,34087	970659
5,34500	1166035
5,34912	1330012
5,35323	1445701
5,35737	1541096
5,36148	1591715
5,36560	1612561
5,36972	1643999
5,37385	1651618
5,37797	1637326
5,38208	1630887
5,38622	1615989
5,39033	1589643
5,39445	1567026
5,39858	1525034
5,40270	1497180
5,40682	1469911
5,41095	1428742
5,41507	1379014
5,41918	1337162
5,42332	1301248
5,42743	1260052
5,43155	1219012
5,43568	1158621
5,43980	1121279
5,44392	1076092
5,44805	1028188
5,45217	993667
5,45628	945412
5,46040	901360
5,46453	863298
5,46865	817737
5,47277	771639
5,47690	739064
5,48102	690778
5,48513	655531
5,48927	616779
5,49338	578492
5,49750	546756
5,50163	510760
5,50575	480978
5,50987	451252
5,51400	427115
5,51812	406171
5,52223	381634
5,52637	354469
5,53048	333214
5,53460	321353
5,53873	298129
5,54285	285148
5,54697	270451
5,55108	256269
5,55522	245083
5,55933	232866
5,56345	223629
5,56758	213763
5,57170	202931
5,57582	194194
5,57995	188549
5,58407	183535
5,58818	175735
5,59232	169871
5,59643	165643
5,60055	161991
5,60468	158946
5,60880	155931
5,61292	151948
5,61705	148968
5,62117	144920
5,62528	140767
5,62942	141352
5,63353	135238
5,63765	134055
5,64177	134845
5,64590	132424
5,65002	127814
5,65413	130639
5,65827	126121
5,66238	124315
5,66650	126316
5,67063	124664
5,67475	128115
5,67887	124617
5,68300	119769
5,68712	120390
5,69123	120393
5,69537	118413
5,69948	119000
5,70360	117813
5,70773	117727
5,71185	115594
5,71597	118008
5,72010	116043
5,72422	117215
5,72833	117297
5,73245	117924
5,73658	113435
5,74070	115726
5,74482	119961
5,74895	127415
5,75307	148176
5,75718	175415
5,76132	223791
5,76543	304160
5,76955	392185
5,77368	491228
5,77780	600023
5,78192	698501
5,78605	772947
5,79017	824065
5,79428	875644
5,79842	904418
5,80253	925861
5,80665	929464
5,81078	934203
5,81490	942461
5,81902	924373
5,82313	911276
5,82727	901267
5,83138	878258
5,83550	858233
5,83963	839514
5,84375	807713
5,84787	787304
5,85200	764102
5,85612	740247
5,86023	715911
5,86437	686951
5,86848	660543
5,87260	642291
5,87673	607383
5,88085	585159
5,88497	551330
5,88910	525749
5,89322	494174
5,89733	470392
5,90147	448822
5,90558	421120
5,90970	397956
5,91382	383856
5,91795	364390
5,92207	334610
5,92618	315918
5,93032	300483
5,93443	281472
5,93855	267436
5,94268	252812
5,94680	243818
5,95092	228318
5,95505	214672
5,95917	203998
5,96328	197362
5,96742	187415
5,97153	174708
5,97565	169697
5,97978	164364
5,98390	159050
5,98802	149934
5,99215	144292
5,99627	141147
6,00038	134010
6,00450	133572
6,00863	130736
6,01275	124751
6,01687	123537
6,02100	121275
6,02512	114770
6,02923	114984
6,03337	110911
6,03748	110590
6,04160	110883
6,04573	106356
6,04985	101916
6,05397	105416
6,05810	106219
6,06222	105056
6,06633	104027
6,07047	102376
6,07458	98806
6,07870	99463
6,08283	99645
6,08695	96610
6,09107	95829
6,09518	96480
6,09932	95090
6,10343	96241
6,10755	92434
6,11168	96244
6,11580	91149
6,11992	90710
6,12405	90140
6,12817	92854
6,13228	90567
6,13642	92097
6,14053	91836
6,14465	89759
6,14878	90599
6,15290	89544
6,15702	87327
6,16115	90245
6,16527	90490
6,16938	89530
6,17352	87730
6,17763	86683
6,18175	87414
6,18587	87041
6,19000	87441
6,19412	84435
6,19823	87512
6,20237	86852
6,20648	87083
6,21060	85992
6,21473	85991
6,21885	86512
6,22297	85465
6,22710	85887
6,23122	82892
6,23533	80694
6,23947	81223
6,24358	85538
6,24770	81723
6,25183	80236
6,25595	79922
6,26007	83021
6,26420	81396
6,26832	81951
6,27243	79823
6,27655	79033
6,28068	82184
6,28480	84069
6,28892	85744
6,29305	93170
6,29717	113264
6,30128	145041
6,30542	208709
6,30953	306979
6,31365	438205
6,31778	613121
6,32190	815647
6,32602	1035673
6,33015	1243911
6,33427	1441924
6,33838	1603434
6,34252	1733009
6,34663	1819983
6,35075	1878507
6,35488	1923797
6,35900	1932135
6,36312	1932241
6,36723	1931726
6,37137	1898889
6,37548	1854358
6,37960	1810046
6,38373	1753402
6,38785	1709192
6,39197	1661029
6,39610	1590423
6,40022	1543826
6,40433	1485778
6,40847	1409117
6,41258	1357748
6,41670	1280543
6,42083	1226441
6,42495	1174319
6,42907	1086449
6,43320	1019656
6,43732	962050
6,44143	901914
6,44557	847876
6,44968	777881
6,45380	724510
6,45793	674223
6,46205	620910
6,46617	565183
6,47028	524585
6,47442	488448
6,47853	449391
6,48265	409969
6,48678	375971
6,49090	345311
6,49502	326540
6,49915	295782
6,50327	273467
6,50738	252669
6,51152	234401
6,51563	217783
6,51975	201771
6,52388	187223
6,52800	177252
6,53212	166315
6,53625	156872
6,54037	148770
6,54448	141858
6,54862	135661
6,55273	126967
6,55685	120198
6,56097	117602
6,56510	112195
6,56922	107146
6,57333	106028
6,57747	101578
6,58158	97886
6,58570	95859
6,58983	93053
6,59395	91124
6,59807	88772
6,60220	85940
6,60632	88142
6,61043	85168
6,61457	82620
6,61868	83045
6,62280	81683
6,62693	79877
6,63105	80552
6,63517	77232
6,63930	75761
6,64342	77263
6,64753	73981
6,65165	72765
6,65578	70519
6,65990	72107
6,66402	73181
6,66815	72823
6,67227	70616
6,67638	73664
6,68052	73690
6,68463	72756
6,68875	71661
6,69288	68635
6,69700	67871
6,70112	69654
6,70525	69458
6,70937	71048
6,71348	67910
6,71762	67228
6,72173	67686
6,72585	64234
6,72998	68015
6,73410	68717
6,73822	67137
6,74233	66329
6,74647	64697
6,75058	67891
6,75470	67232
6,75883	66017
6,76295	65531
6,76707	64920
6,77120	64111
6,77532	65231
6,77943	64919
6,78357	64373
6,78768	63967
6,79180	60451
6,79593	63676
6,80005	66117
6,80417	63563
6,80830	62322
6,81242	64059
6,81653	64360
6,82067	64568
6,82478	61966
6,82890	61764
6,83302	62261
6,83715	61908
6,84127	61675
6,84538	60163
6,84952	63647
6,85363	60038
6,85775	60898
6,86188	59546
6,86600	60376
6,87012	60121
6,87425	58545
6,87837	59389
6,88248	58951
6,88662	60696
6,89073	58917
6,89485	60307
6,89898	57852
6,90310	59510
6,90722	58725
6,91135	62152
6,91547	56827
6,91958	60451
6,92370	58542
6,92783	56764
6,93195	59283
6,93607	58190
6,94020	58859
6,94432	57364
6,94843	56542
6,95257	59087
6,95668	57633
6,96080	59782
6,96493	61563
6,96905	63215
6,97317	69699
6,97730	84454
6,98142	109139
6,98553	149348
6,98967	206420
6,99378	281366
6,99790	373869
7,00203	481099
7,00615	594921
7,01027	701319
7,01438	803144
7,01852	899296
7,02263	970750
7,02675	1026604
7,03088	1061756
7,03500	1091541
7,03912	1091680
7,04325	1099462
7,04737	1082763
7,05148	1074928
7,05562	1055918
7,05973	1024692
7,06385	987675
7,06798	964636
7,07210	930810
7,07622	889650
7,08035	848847
7,08447	807878
7,08858	765064
7,09272	730642
7,09683	688687
7,10095	645816
7,10507	597544
7,10920	565331
7,11332	512616
7,11743	473447
7,12157	450264
7,12568	407361
7,12980	379995
7,13393	347257
7,13805	320306
7,14217	292727
7,14630	267674
7,15042	247547
7,15453	227332
7,15867	211196
7,16278	194708
7,16690	173715
7,17103	165207
7,17515	152291
7,17927	143164
7,18340	134193
7,18752	120185
7,19163	117020
7,19575	112848
7,19988	103096
7,20400	98332
7,20812	91148
7,21225	90807
7,21637	86702
7,22048	83618
7,22462	83813
7,22873	78094
7,23285	74354
7,23698	73238
7,24110	72473
7,24522	71912
7,24935	69605
7,25347	68606
7,25758	68800
7,26172	66497
7,26583	64331
7,26995	60935
7,27408	63142
7,27820	62242
7,28232	63589
7,28643	61772
7,29057	60134
7,29468	60153
7,29880	59112
7,30293	57624
7,30705	59836
7,31117	57021
7,31530	54753
7,31942	55421
7,32353	55826
7,32767	54774
7,33178	54725
7,33590	54339
7,34003	54748
7,34415	53214
7,34827	53614
7,35240	52878
7,35652	52542
7,36063	53191
7,36477	53103
7,36888	51614
7,37300	52248
7,37712	50569
7,38125	54047
7,38537	56439
7,38948	53196
7,39362	54172
7,39773	54617
7,40185	55549
7,40598	55134
7,41010	55252
7,41422	55047
7,41835	54064
7,42247	53993
7,42658	54575
7,43072	55043
7,43483	55378
7,43895	53832
7,44308	54799
7,44720	54707
7,45132	51024
7,45545	52765
7,45957	53061
7,46368	52922
7,46780	49105
7,47193	52936
7,47605	51287
7,48017	49206
7,48430	49705
7,48842	49781
7,49253	48965
7,49667	47433
7,50078	49466
7,50490	47573
7,50903	49460
7,51315	48686
7,51727	48928
7,52140	45492
7,52552	48059
7,52963	47835
7,53377	46454
7,53788	46380
7,54200	46748
7,54613	48279
7,55025	47854
7,55437	46638
7,55848	47365
7,56262	46949
7,56673	45868
7,57085	46268
7,57498	46451
7,57910	44682
7,58322	46712
7,58735	44331
7,59147	45303
7,59558	43703
7,59972	47084
7,60383	42262
7,60795	45537
7,61208	45440
7,61620	44992
7,62032	45490
7,62445	45327
7,62857	43145
7,63268	45282
7,63682	44998
7,64093	45972
7,64505	43671
7,64917	43643
7,65330	43013
7,65742	44996
7,66153	43033
7,66567	42557
7,66978	44288
7,67390	44334
7,67803	44333
7,68215	43017
7,68627	45097
7,69040	45654
7,69452	45692
7,69863	45178
7,70277	44801
7,70688	44475
7,71100	43865
7,71513	43845
7,71925	44079
7,72337	45363
7,72750	45787
7,73162	44787
7,73573	45636
7,73985	46593
7,74398	44850
7,74810	46497
7,75222	46537
7,75635	45618
7,76047	47815
7,76458	47985
7,76872	50451
7,77283	53296
7,77695	55399
7,78108	63969
7,78520	76805
7,78932	103515
7,79345	142826
7,79757	209605
7,80168	313064
7,80582	447337
7,80993	611043
7,81405	803001
7,81818	1027280
7,82230	1252743
7,82642	1487296
7,83053	1702931
7,83467	1907938
7,83878	2087973
7,84290	2218115
7,84703	2315345
7,85115	2376618
7,85527	2400310
7,85940	2413770
7,86352	2385602
7,86763	2344829
7,87177	2272908
7,87588	2206748
7,88000	2119174
7,88413	2012992
7,88825	1912221
7,89237	1822298
7,89650	1713674
7,90062	1621784
7,90473	1487806
7,90887	1384161
7,91298	1274284
7,91710	1183370
7,92122	1078938
7,92535	981876
7,92947	898260
7,93358	813227
7,93772	726013
7,94183	656457
7,94595	582672
7,95008	530186
7,95420	469513
7,95832	420559
7,96245	382592
7,96657	343151
7,97068	308119
7,97482	276243
7,97893	253939
7,98305	231886
7,98718	205693
7,99130	191354
7,99542	175240
7,99955	160606
8,00367	147082
8,00778	137514
8,01190	129350
8,01603	117624
8,02015	109512
8,02427	108494
8,02840	101150
8,03252	91762
8,03663	92681
8,04077	85758
8,04488	82848
8,04900	82747
8,05313	77851
8,05725	73517
8,06137	71692
8,06550	71183
8,06962	70221
8,07373	67018
8,07787	68370
8,08198	68140
8,08610	66393
8,09023	65387
8,09435	66225
8,09847	64392
8,10260	66597
8,10672	63503
8,11083	62275
8,11495	63631
8,11908	63725
8,12320	62432
8,12732	61692
8,13145	60536
8,13557	59539
8,13968	58137
8,14382	58527
8,14793	57770
8,15205	56843
8,15618	54343
8,16030	55158
8,16442	53887
8,16855	54691
8,17267	50998
8,17678	52570
8,18092	50374
8,18503	50154
8,18915	49746
8,19328	47867
8,19740	47829
8,20152	46578
8,20563	46439
8,20977	45785
8,21388	42762
8,21800	43038
8,22213	46067
8,22625	44578
8,23037	43488
8,23450	43473
8,23862	43689
8,24273	42659
8,24687	41193
8,25098	41592
8,25510	43907
8,25923	42013
8,26335	43318
8,26747	42408
8,27160	43643
8,27572	43698
8,27983	44276
8,28397	43961
8,28808	42886
8,29220	44217
8,29632	43726
8,30045	45120
8,30457	44544
8,30868	47569
8,31282	45359
8,31693	45678
8,32105	42578
8,32518	48065
8,32930	46069
8,33342	47172
8,33755	46163
8,34167	44592
8,34578	44189
8,34992	44122
8,35403	41907
8,35815	42920
8,36228	43461
8,36640	41999
8,37052	44235
8,37465	42335
8,37877	40366
8,38288	40298
8,38700	39632
8,39113	40241
8,39525	40006
8,39937	39822
8,40350	39797
8,40762	39109
8,41173	39133
8,41587	37712
8,41998	37016
8,42410	37948
8,42823	37664
8,43235	37259
8,43647	40063
8,44060	38727
8,44472	39947
8,44883	38450
8,45297	38524
8,45708	41686
8,46120	41334
8,46533	42801
8,46945	42095
8,47357	45410
8,47768	46555
8,48182	50502
8,48593	57350
8,49005	68704
8,49418	82733
8,49830	112610
8,50242	149742
8,50655	204608
8,51067	275717
8,51478	354968
8,51892	457419
8,52303	572991
8,52715	681498
8,53128	788045
8,53540	893072
8,53952	982318
8,54365	1058761
8,54777	1116998
8,55188	1163666
8,55602	1186475
8,56013	1196672
8,56425	1180818
8,56837	1164862
8,57250	1136938
8,57662	1103364
8,58073	1055206
8,58487	1008974
8,58898	961414
8,59310	906420
8,59723	853477
8,60135	793778
8,60547	739433
8,60960	683440
8,61372	627572
8,61783	574088
8,62197	523057
8,62608	471519
8,63020	430147
8,63433	391195
8,63845	350467
8,64257	317673
8,64670	281275
8,65082	253658
8,65493	231545
8,65905	204394
8,66318	187972
8,66730	171269
8,67142	154638
8,67555	141044
8,67967	129436
8,68378	120347
8,68792	109888
8,69203	104921
8,69615	96528
8,70028	89170
8,70440	85488
8,70852	79635
8,71265	75202
8,71677	72164
8,72088	71436
8,72502	72669
8,72913	78280
8,73325	87642
8,73738	104177
8,74150	129687
8,74562	173239
8,74973	231872
8,75387	298651
8,75798	396956
8,76210	507467
8,76623	616882
8,77035	747449
8,77447	868515
8,77860	976666
8,78272	1092713
8,78683	1180931
8,79097	1241945
8,79508	1286497
8,79920	1308886
8,80333	1328560
8,80745	1313783
8,81157	1300196
8,81570	1261267
8,81982	1220085
8,82393	1165731
8,82807	1113619
8,83218	1045717
8,83630	971215
8,84042	910817
8,84455	831672
8,84867	776338
8,85278	709340
8,85692	642874
8,86103	593186
8,86515	531017
8,86928	479439
8,87340	431481
8,87752	384506
8,88165	344598
8,88577	308121
8,88988	278420
8,89402	249000
8,89813	221593
8,90225	199078
8,90638	181229
8,91050	162433
8,91462	150622
8,91875	135253
8,92287	123549
8,92698	114953
8,93110	106411
8,93523	99040
8,93935	93496
8,94347	84946
8,94760	82033
8,95172	78268
8,95583	71891
8,95997	69936
8,96408	65643
8,96820	64746
8,97233	60013
8,97645	60179
8,98057	55914
8,98470	54242
8,98882	55003
8,99293	52470
8,99707	49350
9,00118	47486
9,00530	48894
9,00943	46314
9,01355	46542
9,01767	47990
9,02178	43348
9,02592	42645
9,03003	43227
9,03415	42810
9,03828	40609
9,04240	41198
9,04652	40163
9,05065	38446
9,05477	38510
9,05888	39434
9,06302	37293
9,06713	36947
9,07125	37480
9,07538	38822
9,07950	35629
9,08362	36656
9,08775	34830
9,09187	36481
9,09598	34643
9,10012	35703
9,10423	35832
9,10835	33290
9,11247	34865
9,11660	32915
9,12072	32701
9,12483	32633
9,12897	34259
9,13308	33029
9,13720	32444
9,14133	33252
9,14545	32086
9,14957	30878
9,15370	31096
9,15782	33475
9,16193	32728
9,16607	32779
9,17018	30618
9,17430	32313
9,17843	31092
9,18255	31258
9,18667	31538
9,19080	30997
9,19492	31904
9,19903	30939
9,20315	30234
9,20728	30543
9,21140	31247
9,21552	30665
9,21965	31118
9,22377	29654
9,22788	31036
9,23202	29447
9,23613	28777
9,24025	29602
9,24438	28622
9,24850	30083
9,25262	29976
9,25675	28722
9,26087	28244
9,26498	29811
9,26912	27828
9,27323	28615
9,27735	28255
9,28148	28697
9,28560	28166
9,28972	27867
9,29383	28508
9,29797	26449
9,30208	26397
9,30620	27294
9,31033	28541
9,31445	27860
9,31857	27697
9,32270	28377
9,32682	28467
9,33093	26726
9,33507	27850
9,33918	28415
9,34330	27357
9,34743	26878
9,35155	26456
9,35567	27315
9,35980	26721
9,36392	27540
9,36803	27356
9,37217	28267
9,37628	26217
9,38040	27042
9,38452	27109
9,38865	26597
9,39277	26532
9,39688	26928
9,40102	27698
9,40513	26947
9,40925	26213
9,41338	25618
9,41750	26510
9,42162	26049
9,42575	26600
9,42987	25951
9,43398	26098
9,43812	26588
9,44223	26097
9,44635	26343
9,45048	25670
9,45460	26230
9,45872	25842
9,46285	26421
9,46697	26599
9,47108	26776
9,47520	27733
9,47933	25215
9,48345	24962
9,48757	26393
9,49170	25326
9,49582	26999
9,49993	27292
9,50407	26830
9,50818	27673
9,51230	28633
9,51643	31308
9,52055	34147
9,52467	44694
9,52880	59595
9,53292	78775
9,53703	109433
9,54117	155364
9,54528	214836
9,54940	293304
9,55353	382493
9,55765	498715
9,56177	609904
9,56588	733715
9,57002	864610
9,57413	982818
9,57825	1073469
9,58238	1162761
9,58650	1232736
9,59062	1280328
9,59475	1300794
9,59887	1324592
9,60298	1295266
9,60712	1272066
9,61123	1230843
9,61535	1165679
9,61948	1113233
9,62360	1042634
9,62772	976326
9,63185	910670
9,63597	830112
9,64008	768819
9,64422	697897
9,64833	635397
9,65245	571283
9,65658	513733
9,66070	459574
9,66482	408538
9,66893	366522
9,67307	320918
9,67718	291051
9,68130	259221
9,68543	235562
9,68955	210826
9,69367	189800
9,69780	167848
9,70192	152548
9,70603	138875
9,71017	124280
9,71428	113934
9,71840	106054
9,72253	100694
9,72665	92659
9,73077	89215
9,73490	78596
9,73902	74536
9,74313	70499
9,74727	68522
9,75138	66068
9,75550	63079
9,75962	60132
9,76375	55808
9,76787	54516
9,77198	53304
9,77612	53300
9,78023	54239
9,78435	61755
9,78848	70875
9,79260	90549
9,79672	119396
9,80085	164814
9,80497	248693
9,80908	360109
9,81322	521757
9,81733	717666
9,82145	970163
9,82558	1268884
9,82970	1598933
9,83382	1965441
9,83795	2362605
9,84207	2732670
9,84618	3104468
9,85030	3429510
9,85443	3709073
9,85855	3916363
9,86267	4112433
9,86680	4245207
9,87092	4310047
9,87503	4278729
9,87917	4212898
9,88328	4088965
9,88740	3918371
9,89153	3684770
9,89565	3457735
9,89977	3180641
9,90390	2887538
9,90802	2608362
9,91213	2341997
9,91627	2104627
9,92038	1860052
9,92450	1641442
9,92863	1437177
9,93275	1271689
9,93687	1117197
9,94098	989750
9,94512	867880
9,94923	759011
9,95335	670745
9,95748	591742
9,96160	530837
9,96572	470787
9,96985	415779
9,97397	378481
9,97808	336788
9,98222	305766
9,98633	281523
9,99045	256218
9,99458	237701
9,99870	216754
10,00282	200036
10,00695	184576
10,01107	172524
10,01518	159249
10,01932	152045
10,02343	144567
10,02755	132535
10,03167	125158
10,03580	119715
10,03992	116236
10,04403	109146
10,04817	101779
10,05228	97165
10,05640	94096
10,06053	88924
10,06465	84585
10,06877	83155
10,07290	78764
10,07702	75282
10,08113	72188
10,08527	70895
10,08938	69746
10,09350	66406
10,09763	63800
10,10175	63452
10,10587	60795
10,11000	58506
10,11412	56248
10,11823	56365
10,12235	55175
10,12648	52363
10,13060	52705
10,13472	49826
10,13885	50573
10,14297	50167
10,14708	47149
10,15122	46495
10,15533	47575
10,15945	43797
10,16358	43998
10,16770	42019
10,17182	40517
10,17595	41151
10,18007	39829
10,18418	39617
10,18832	40201
10,19243	37806
10,19655	36722
10,20068	35337
10,20480	36810
10,20892	35873
10,21303	38749
10,21717	34780
10,22128	35494
10,22540	35322
10,22953	35919
10,23365	33623
10,23777	32935
10,24190	32678
10,24602	35251
10,25013	32571
10,25427	31713
10,25838	32335
10,26250	29325
10,26663	30985
10,27075	29477
10,27487	31330
10,27900	29814
10,28312	31948
10,28723	30440
10,29137	29537
10,29548	31234
10,29960	29558
10,30372	29832
10,30785	29962
10,31197	31119
10,31608	29476
10,32022	30237
10,32433	30768
10,32845	28962
10,33258	30789
10,33670	31154
10,34082	28067
10,34495	27669
10,34907	28023
10,35318	30017
10,35732	26688
10,36143	28985
10,36555	29688
10,36968	27543
10,37380	28098
10,37792	27005
10,38205	27726
10,38617	25646
10,39028	26344
10,39440	26256
10,39853	26406
10,40265	25166
10,40677	25926
10,41090	25446
10,41502	25800
10,41913	24569
10,42327	25667
10,42738	27193
10,43150	27643
10,43563	26948
10,43975	27517
10,44387	27694
10,44800	27146
10,45212	28373
10,45623	28907
10,46037	27711
10,46448	28684
10,46860	28390
10,47273	27498
10,47685	27674
10,48097	28069
10,48508	28696
10,48922	27862
10,49333	28256
10,49745	30480
10,50158	34569
10,50570	38993
10,50982	48340
10,51395	64609
10,51807	85631
10,52218	122774
10,52632	166514
10,53043	229093
10,53455	316862
10,53868	420665
10,54280	530541
10,54692	647014
10,55105	781095
10,55517	907653
10,55928	1031625
10,56342	1141228
10,56753	1241588
10,57165	1308908
10,57577	1358201
10,57990	1374300
10,58402	1385147
10,58813	1381155
10,59227	1325462
10,59638	1285000
10,60050	1211884
10,60463	1134225
10,60875	1048650
10,61287	973790
10,61700	878260
10,62112	797070
10,62523	712696
10,62937	634641
10,63348	562149
10,63760	508045
10,64173	448241
10,64585	401222
10,64997	357173
10,65410	312117
10,65822	273648
10,66233	244307
10,66645	222113
10,67058	196824
10,67470	177573
10,67882	160250
10,68295	145663
10,68707	135815
10,69118	122850
10,69532	116689
10,69943	106203
10,70355	100923
10,70768	96628
10,71180	91487
10,71592	86054
10,72005	83458
10,72417	80185
10,72828	76045
10,73242	70758
10,73653	71590
10,74065	68292
10,74478	64742
10,74890	61861
10,75302	61663
10,75713	58989
10,76127	57113
10,76538	57809
10,76950	56755
10,77363	54438
10,77775	52823
10,78187	52407
10,78600	51772
10,79012	49089
10,79423	48629
10,79837	47087
10,80248	45503
10,80660	45764
10,81073	46234
10,81485	45362
10,81897	42037
10,82310	40338
10,82722	42359
10,83133	40179
10,83547	38628
10,83958	37179
10,84370	37629
10,84782	34218
10,85195	34671
10,85607	33402
10,86018	33203
10,86432	30117
10,86843	31372
10,87255	30152
10,87668	31744
10,88080	28643
10,88492	28914
10,88905	29934
10,89317	29068
10,89728	27192
10,90142	28272
10,90553	28718
10,90965	28615
10,91378	26185
10,91790	28777
10,92202	27412
10,92615	28251
10,93027	26782
10,93438	26987
10,93850	28035
10,94263	29491
10,94675	33955
10,95087	36823
10,95500	47800
10,95912	63907
10,96323	87749
10,96737	120389
10,97148	172808
10,97560	237884
10,97973	320635
10,98385	429063
10,98797	537873
10,99210	673879
10,99622	812372
11,00033	954789
11,00447	1106970
11,00858	1239390
11,01270	1332598
11,01683	1418194
11,02095	1480814
11,02507	1524093
11,02918	1528679
11,03332	1516096
11,03743	1471283
11,04155	1404473
11,04568	1319398
11,04980	1239211
11,05392	1146273
11,05805	1044400
11,06217	955509
11,06628	844150
11,07042	753497
11,07453	672101
11,07865	585173
11,08278	518376
11,08690	453780
11,09102	400023
11,09515	353566
11,09927	308778
11,10338	277835
11,10752	244951
11,11163	218653
11,11575	194366
11,11987	176415
11,12400	161082
11,12812	147064
11,13223	131927
11,13637	121493
11,14048	114005
11,14460	104541
11,14873	96873
11,15285	91722
11,15697	85692
11,16110	80101
11,16522	75962
11,16933	71922
11,17347	66121
11,17758	65264
11,18170	61167
11,18583	57851
11,18995	56882
11,19407	52512
11,19820	50411
11,20232	48025
11,20643	48034
11,21055	46476
11,21468	45710
11,21880	44988
11,22292	41287
11,22705	39023
11,23117	40622
11,23528	37636
11,23942	37724
11,24353	35398
11,24765	37132
11,25178	34223
11,25590	34258
11,26002	32092
11,26415	32156
11,26827	32879
11,27238	30398
11,27652	29237
11,28063	29247
11,28475	30927
11,28888	29205
11,29300	28549
11,29712	27451
11,30125	28347
11,30537	27873
11,30948	28391
11,31360	29374
11,31773	25904
11,32185	27452
11,32597	26157
11,33010	26069
11,33422	26038
11,33833	26847
11,34247	25298
11,34658	24342
11,35070	24932
11,35483	24327
11,35895	23453
11,36307	23709
11,36720	24316
11,37132	23892
11,37543	23938
11,37957	23390
11,38368	22892
11,38780	21793
11,39193	22411
11,39605	22885
11,40017	21595
11,40428	21657
11,40842	20689
11,41253	20703
11,41665	20637
11,42078	20728
11,42490	19911
11,42902	21233
11,43315	19607
11,43727	19437
11,44138	19612
11,44552	21572
11,44963	20813
11,45375	20989
11,45788	20938
11,46200	20421
11,46612	19458
11,47025	19930
11,47437	19185
11,47848	20681
11,48262	19940
11,48673	20421
11,49085	20259
11,49497	20657
11,49910	19892
11,50322	19556
11,50733	20513
11,51147	18731
11,51558	20888
11,51970	20101
11,52383	18937
11,52795	19706
11,53207	19329
11,53620	19204
11,54032	20415
11,54443	19901
11,54857	20428
11,55268	18149
11,55680	19217
11,56093	18915
11,56505	17886
11,56917	18325
11,57330	19113
11,57742	18859
11,58153	19813
11,58565	17910
11,58978	18287
11,59390	18654
11,59802	16538
11,60215	17803
11,60627	19319
11,61038	17903
11,61452	17931
11,61863	16862
11,62275	16479
11,62688	18620
11,63100	18661
11,63512	18807
11,63925	18199
11,64337	18386
11,64748	17943
11,65162	17552
11,65573	17284
11,65985	18882
11,66398	18254
11,66810	18576
11,67222	17960
11,67633	19340
11,68047	20174
11,68458	18295
11,68870	20792
11,69283	20244
11,69695	21402
11,70107	23223
11,70520	26653
11,70932	30940
11,71343	40375
11,71757	52906
11,72168	73613
11,72580	103369
11,72993	144403
11,73405	202353
11,73817	270542
11,74230	370207
11,74642	474943
11,75053	603771
11,75467	736386
11,75878	882366
11,76290	1013053
11,76702	1146733
11,77115	1272775
11,77527	1370705
11,77938	1451358
11,78352	1496265
11,78763	1493285
11,79175	1488743
11,79588	1452185
11,80000	1397538
11,80412	1326168
11,80825	1227316
11,81237	1139469
11,81648	1046499
11,82062	939846
11,82473	840465
11,82885	752356
11,83298	671767
11,83710	583910
11,84122	523236
11,84535	459338
11,84947	404374
11,85358	358460
11,85770	307318
11,86183	274234
11,86595	247058
11,87007	225664
11,87420	201674
11,87832	178817
11,88243	161851
11,88657	147624
11,89068	135778
11,89480	124614
11,89893	114187
11,90305	105642
11,90717	97527
11,91130	92701
11,91542	84954
11,91953	81913
11,92367	74505
11,92778	70602
11,93190	66478
11,93603	65555
11,94015	60865
11,94427	58502
11,94838	54414
11,95252	53457
11,95663	51829
11,96075	49263
11,96488	48654
11,96900	46030
11,97312	44411
11,97725	42674
11,98137	40936
11,98548	40164
11,98962	38606
11,99373	36797
11,99785	36096
12,00198	35182
12,00610	33960
12,01022	33339
12,01435	33768
12,01847	32656
12,02258	31560
12,02672	30373
12,03083	31492
12,03495	30328
12,03907	28557
12,04320	28719
12,04732	28224
12,05143	27097
12,05557	26612
12,05968	27542
12,06380	26557
12,06793	25580
12,07205	25403
12,07617	25652
12,08030	24560
12,08442	24268
12,08853	23905
12,09267	25183
12,09678	25343
12,10090	24427
12,10503	25870
12,10915	27332
12,11327	26506
12,11740	28438
12,12152	27403
12,12563	30206
12,12975	30051
12,13388	31778
12,13800	30868
12,14212	32963
12,14625	33101
12,15037	32554
12,15448	34074
12,15862	32595
12,16273	33720
12,16685	34076
12,17098	36403
12,17510	36193
12,17922	42182
12,18335	52544
12,18747	68869
12,19158	93902
12,19572	136415
12,19983	194645
12,20395	276983
12,20808	389120
12,21220	527761
12,21632	707406
12,22043	911965
12,22457	1150041
12,22868	1407451
12,23280	1700884
12,23693	1974617
12,24105	2259110
12,24517	2526997
12,24930	2784967
12,25342	2998904
12,25753	3178349
12,26167	3269135
12,26578	3337020
12,26990	3319654
12,27403	3204241
12,27815	3046839
12,28227	2840813
12,28640	2609080
12,29052	2366761
12,29463	2115864
12,29877	1893613
12,30288	1638882
12,30700	1443886
12,31112	1263448
12,31525	1089969
12,31937	959097
12,32348	837597
12,32762	727933
12,33173	640561
12,33585	570088
12,33998	505256
12,34410	449825
12,34822	396693
12,35235	358414
12,35647	326298
12,36058	295814
12,36472	266700
12,36883	246696
12,37295	225360
12,37708	205350
12,38120	197822
12,38532	177359
12,38945	166349
12,39357	155436
12,39768	143660
12,40180	135629
12,40593	127059
12,41005	120452
12,41417	115410
12,41830	108466
12,42242	103444
12,42653	100609
12,43067	90725
12,43478	85290
12,43890	83244
12,44303	79542
12,44715	77547
12,45127	70189
12,45540	70192
12,45952	69209
12,46363	64868
12,46777	62770
12,47188	61633
12,47600	59271
12,48013	55878
12,48425	53793
12,48837	52535
12,49248	51481
12,49662	47660
12,50073	45482
12,50485	46149
12,50898	46036
12,51310	43879
12,51722	42855
12,52135	40434
12,52547	39373
12,52958	40919
12,53372	39644
12,53783	38874
12,54195	34982
12,54608	36523
12,55020	33232
12,55432	34807
12,55845	32419
12,56257	31649
12,56668	32556
12,57082	30559
12,57493	32030
12,57905	32255
12,58317	30669
12,58730	30168
12,59142	28529
12,59553	30005
12,59967	28206
12,60378	28579
12,60790	28219
12,61203	27324
12,61615	28928
12,62027	28661
12,62440	29445
12,62852	29516
12,63263	31742
12,63677	40639
12,64088	47615
12,64500	63760
12,64913	86821
12,65325	119106
12,65737	169033
12,66150	230334
12,66562	308171
12,66973	412507
12,67385	529270
12,67798	660170
12,68210	796267
12,68622	951001
12,69035	1105292
12,69447	1245247
12,69858	1356637
12,70272	1454101
12,70683	1535377
12,71095	1551919
12,71508	1591348
12,71920	1574340
12,72332	1526646
12,72745	1451608
12,73157	1364185
12,73568	1237050
12,73982	1141173
12,74393	1030468
12,74805	921710
12,75218	822224
12,75630	715287
12,76042	640522
12,76453	563882
12,76867	496254
12,77278	439066
12,77690	387244
12,78103	338838
12,78515	300967
12,78927	273020
12,79340	241720
12,79752	221351
12,80163	199839
12,80577	182758
12,80988	166188
12,81400	148848
12,81813	139019
12,82225	130224
12,82637	116859
12,83050	110972
12,83462	103093
12,83873	95199
12,84287	91422
12,84698	84841
12,85110	85058
12,85522	82139
12,85935	79565
12,86347	87780
12,86758	95366
12,87172	113118
12,87583	144915
12,87995	191296
12,88408	247598
12,88820	338406
12,89232	461382
12,89645	609159
12,90057	791397
12,90468	1007986
12,90882	1260744
12,91293	1514133
12,91705	1815959
12,92118	2096332
12,92530	2384668
12,92942	2666108
12,93355	2900359
12,93767	3104598
12,94178	3206230
12,94592	3239873
12,95003	3234397
12,95415	3130078
12,95827	2975453
12,96240	2799627
12,96652	2571975
12,97063	2329193
12,97477	2072519
12,97888	1843694
12,98300	1628494
12,98713	1433493
12,99125	1246272
12,99537	1092115
12,99950	954153
13,00362	841778
13,00773	743958
13,01187	658668
13,01598	582337
13,02010	512826
13,02423	458118
13,02835	414694
13,03247	380568
13,03660	342076
13,04072	306897
13,04483	285727
13,04895	263541
13,05308	241243
13,05720	226556
13,06132	206362
13,06545	189688
13,06957	178893
13,07368	167756
13,07782	156158
13,08193	145562
13,08605	139055
13,09018	132998
13,09430	121257
13,09842	118288
13,10255	111888
13,10667	104666
13,11078	98787
13,11492	96115
13,11903	91167
13,12315	88262
13,12728	83135
13,13140	79305
13,13552	81140
13,13963	75923
13,14377	69279
13,14788	68140
13,15200	66688
13,15613	63531
13,16025	62894
13,16437	58724
13,16850	55912
13,17262	55024
13,17673	55471
13,18087	53958
13,18498	51159
13,18910	49477
13,19323	49049
13,19735	47769
13,20147	45587
13,20560	44114
13,20972	42891
13,21383	41133
13,21797	40985
13,22208	39793
13,22620	40585
13,23032	37196
13,23445	36553
13,23857	35547
13,24268	34333
13,24682	35074
13,25093	35653
13,25505	32956
13,25918	32537
13,26330	31823
13,26742	31820
13,27155	30131
13,27567	30430
13,27978	29719
13,28392	28183
13,28803	29908
13,29215	29313
13,29628	28055
13,30040	28553
13,30452	29252
13,30865	26414
13,31277	27514
13,31688	26668
13,32100	26103
13,32513	24914
13,32925	25911
13,33337	25518
13,33750	24967
13,34162	25311
13,34573	24167
13,34987	24536
13,35398	24304
13,35810	23391
13,36223	22819
13,36635	24089
13,37047	22132
13,37460	23139
13,37872	22693
13,38283	24993
13,38697	24272
13,39108	26593
13,39520	29098
13,39933	33845
13,40345	43667
13,40757	59976
13,41168	78310
13,41582	109524
13,41993	159146
13,42405	215919
13,42818	297015
13,43230	395560
13,43642	512419
13,44055	642491
13,44467	778373
13,44878	924092
13,45292	1084099
13,45703	1230142
13,46115	1345689
13,46528	1466887
13,46940	1543594
13,47352	1587834
13,47765	1616146
13,48177	1634263
13,48588	1660606
13,49002	1692627
13,49413	1737786
13,49825	1790419
13,50237	1895887
13,50650	2015160
13,51062	2190226
13,51473	2377139
13,51887	2584068
13,52298	2789696
13,52710	3020160
13,53123	3225526
13,53535	3382285
13,53947	3470469
13,54360	3548060
13,54772	3554320
13,55183	3461834
13,55597	3288409
13,56008	3058583
13,56420	2796086
13,56833	2519314
13,57245	2236571
13,57657	1981642
13,58070	1757365
13,58482	1510349
13,58893	1330247
13,59305	1154718
13,59718	1017682
13,60130	887512
13,60542	784229
13,60955	696700
13,61367	626599
13,61778	559023
13,62192	502107
13,62603	452569
13,63015	413313
13,63428	377159
13,63840	341236
13,64252	317673
13,64665	283249
13,65077	270492
13,65488	246697
13,65902	224550
13,66313	215887
13,66725	201450
13,67138	186052
13,67550	174241
13,67962	163647
13,68373	153443
13,68787	149122
13,69198	141085
13,69610	132835
13,70023	128755
13,70435	120929
13,70847	112582
13,71260	112513
13,71672	105129
13,72083	99385
13,72497	95511
13,72908	93883
13,73320	88144
13,73733	88725
13,74145	83719
13,74557	82976
13,74970	78338
13,75382	76161
13,75793	73782
13,76207	72175
13,76618	68866
13,77030	64358
13,77442	65313
13,77855	63841
13,78267	60408
13,78678	57569
13,79092	58282
13,79503	55749
13,79915	55930
13,80328	51992
13,80740	53512
13,81152	50122
13,81565	49160
13,81977	49889
13,82388	46379
13,82802	47248
13,83213	46124
13,83625	45728
13,84038	44351
13,84450	41803
13,84862	44740
13,85275	44629
13,85687	40882
13,86098	41150
13,86510	37565
13,86923	37877
13,87335	39007
13,87747	37320
13,88160	35223
13,88572	34791
13,88983	34203
13,89397	34805
13,89808	33148
13,90220	32285
13,90633	32683
13,91045	29842
13,91457	32303
13,91870	30656
13,92282	31408
13,92693	34734
13,93107	37686
13,93518	41996
13,93930	51559
13,94343	68053
13,94755	85902
13,95167	123320
13,95578	169076
13,95992	231748
13,96403	306286
13,96815	396985
13,97228	512758
13,97640	629633
13,98052	778418
13,98465	910944
13,98877	1050157
13,99288	1162473
13,99702	1278969
14,00113	1366145
14,00525	1414425
14,00938	1441936
14,01350	1420493
14,01762	1386147
14,02175	1317666
14,02587	1237958
14,02998	1150511
14,03412	1052597
14,03823	961006
14,04235	863712
14,04647	756382
14,05060	677888
14,05472	606762
14,05883	527922
14,06297	465612
14,06708	407174
14,07120	365321
14,07533	324632
14,07945	285566
14,08357	260619
14,08770	233139
14,09182	210491
14,09593	188597
14,10007	173493
14,10418	160616
14,10830	145067
14,11243	132771
14,11655	124305
14,12067	113960
14,12480	107949
14,12892	100011
14,13303	92625
14,13715	89401
14,14128	84726
14,14540	80901
14,14952	75353
14,15365	72205
14,15777	68770
14,16188	65223
14,16602	62843
14,17013	57384
14,17425	56846
14,17838	56497
14,18250	53418
14,18662	50297
14,19075	49115
14,19487	47322
14,19898	48020
14,20312	45680
14,20723	42845
14,21135	44289
14,21548	44075
14,21960	42505
14,22372	40163
14,22783	41031
14,23197	38695
14,23608	37063
14,24020	36948
14,24433	34113
14,24845	38400
14,25257	36048
14,25670	33022
14,26082	33257
14,26493	32459
14,26907	31936
14,27318	32374
14,27730	29657
14,28143	31275
14,28555	29961
14,28967	28314
14,29380	29641
14,29792	26808
14,30203	26075
14,30617	25980
14,31028	25319
14,31440	26349
14,31852	27088
14,32265	26743
14,32677	24885
14,33088	23973
14,33502	24522
14,33913	24270
14,34325	22545
14,34738	22462
14,35150	21796
14,35562	23009
14,35975	23017
14,36387	21161
14,36798	21232
14,37212	20232
14,37623	22449
14,38035	20572
14,38448	20154
14,38860	20984
14,39272	20474
14,39685	21652
14,40097	19477
14,40508	18752
14,40920	19982
14,41333	17970
14,41745	19125
14,42157	17183
14,42570	18584
14,42982	19124
14,43393	18739
14,43807	18398
14,44218	18036
14,44630	19196
14,45043	19278
14,45455	17738
14,45867	17572
14,46280	17579
14,46692	17188
14,47103	17448
14,47517	17405
14,47928	16572
14,48340	16677
14,48753	16991
14,49165	17412
14,49577	16207
14,49990	16301
14,50402	17226
14,50813	16844
14,51225	17497
14,51638	16187
14,52050	17368
14,52462	17338
14,52875	17228
14,53287	16834
14,53698	18537
14,54112	17096
14,54523	17910
14,54935	18846
14,55348	17923
14,55760	17500
14,56172	16130
14,56585	15864
14,56997	16724
14,57408	16527
14,57822	17131
14,58233	16596
14,58645	14958
14,59058	15965
14,59470	16593
14,59882	15289
14,60293	14842
14,60707	15747
14,61118	15323
14,61530	16356
14,61943	15133
14,62355	15027
14,62767	16076
14,63180	15194
14,63592	15448
14,64003	16550
14,64417	16087
14,64828	15216
14,65240	14018
14,65653	14995
14,66065	15088
14,66477	14035
14,66890	14216
14,67302	13538
14,67713	14028
14,68127	15082
14,68538	15249
14,68950	17278
14,69362	18495
14,69775	20288
14,70187	24294
14,70598	32239
14,71012	41749
14,71423	57197
14,71835	81753
14,72248	112931
14,72660	160622
14,73072	224568
14,73485	304610
14,73897	392564
14,74308	511904
14,74722	638118
14,75133	768329
14,75545	893668
14,75958	1010721
14,76370	1127888
14,76782	1218466
14,77195	1293014
14,77607	1359433
14,78018	1403641
14,78430	1429774
14,78843	1455899
14,79255	1479876
14,79667	1523141
14,80080	1568899
14,80492	1657990
14,80903	1780159
14,81317	1928972
14,81728	2105014
14,82140	2320927
14,82553	2529158
14,82965	2793314
14,83377	3045395
14,83790	3283023
14,84202	3511683
14,84613	3638976
14,85027	3710949
14,85438	3698684
14,85850	3631301
14,86263	3462723
14,86675	3250594
14,87087	2959139
14,87498	2668088
14,87912	2347017
14,88323	2072419
14,88735	1833685
14,89148	1601702
14,89560	1400420
14,89972	1218983
14,90385	1073558
14,90797	956637
14,91208	852784
14,91622	756330
14,92033	676735
14,92445	610803
14,92858	554097
14,93270	499126
14,93682	464859
14,94095	422257
14,94507	390014
14,94918	359355
14,95332	332619
14,95743	314159
14,96155	294630
14,96567	278161
14,96980	255374
14,97392	239205
14,97803	224891
14,98217	210632
14,98628	199337
14,99040	188201
14,99453	179165
14,99865	167556
15,00277	159801
15,00690	150813
15,01102	142055
15,01513	134716
15,01927	128231
15,02338	123866
15,02750	117005
15,03163	111064
15,03575	111698
15,03987	101632
15,04400	100735
15,04812	91140
15,05223	90852
15,05635	87747
15,06048	85409
15,06460	82392
15,06872	78171
15,07285	74528
15,07697	73162
15,08108	70118
15,08522	69958
15,08933	67324
15,09345	64366
15,09758	60340
15,10170	61669
15,10582	59280
15,10995	58339
15,11407	56265
15,11818	56540
15,12232	53673
15,12643	50550
15,13055	50808
15,13468	49651
15,13880	48015
15,14292	46557
15,14703	45915
15,15117	43326
15,15528	42945
15,15940	40796
15,16353	43598
15,16765	40570
15,17177	41226
15,17590	40170
15,18002	40400
15,18413	40728
15,18827	40469
15,19238	42049
15,19650	43774
15,20063	48374
15,20475	56494
15,20887	70482
15,21300	91596
15,21712	116495
15,22123	159330
15,22537	213147
15,22948	282040
15,23360	370358
15,23772	474396
15,24185	582352
15,24597	707197
15,25008	824743
15,25422	957631
15,25833	1057485
15,26245	1156255
15,26658	1227307
15,27070	1284815
15,27482	1295144
15,27895	1276152
15,28307	1237611
15,28718	1183568
15,29132	1110374
15,29543	1026868
15,29955	927226
15,30368	841279
15,30780	757684
15,31192	665258
15,31605	589531
15,32017	528935
15,32428	465249
15,32840	416654
15,33253	363538
15,33665	330110
15,34077	291481
15,34490	264204
15,34902	233419
15,35313	213096
15,35727	189750
15,36138	174071
15,36550	163977
15,36963	149165
15,37375	134133
15,37787	125600
15,38200	115690
15,38612	108319
15,39023	100556
15,39437	98866
15,39848	88291
15,40260	84662
15,40673	80329
15,41085	77120
15,41497	71195
15,41908	67989
15,42322	67606
15,42733	62602
15,43145	59300
15,43558	57214
15,43970	52992
15,44382	54150
15,44795	52417
15,45207	53604
15,45618	53564
15,46032	56781
15,46443	62882
15,46855	73095
15,47268	90273
15,47680	111959
15,48092	149671
15,48505	200707
15,48917	264916
15,49328	347207
15,49742	452288
15,50153	569591
15,50565	713457
15,50977	866691
15,51390	1028539
15,51802	1204682
15,52213	1340805
15,52627	1469572
15,53038	1575329
15,53450	1640846
15,53863	1660332
15,54275	1633385
15,54687	1574285
15,55100	1495010
15,55512	1391141
15,55923	1294303
15,56337	1161345
15,56748	1043740
15,57160	924686
15,57573	818803
15,57985	728386
15,58397	639960
15,58810	571877
15,59222	510985
15,59633	453538
15,60045	405056
15,60458	369056
15,60870	329750
15,61282	298231
15,61695	266809
15,62107	245696
15,62518	227140
15,62932	206874
15,63343	190725
15,63755	179265
15,64168	161798
15,64580	152951
15,64992	145971
15,65405	135423
15,65817	126786
15,66228	118237
15,66642	113919
15,67053	107259
15,67465	103473
15,67878	98008
15,68290	89312
15,68702	88041
15,69113	82847
15,69527	78105
15,69938	73729
15,70350	69147
15,70763	71380
15,71175	64827
15,71587	65543
15,72000	61772
15,72412	63218
15,72823	56695
15,73237	54849
15,73648	53121
15,74060	52627
15,74473	50658
15,74885	49408
15,75297	47014
15,75710	46450
15,76122	43235
15,76533	43956
15,76947	43455
15,77358	43471
15,77770	41046
15,78182	40200
15,78595	38432
15,79007	37427
15,79418	36594
15,79832	36758
15,80243	34838
15,80655	34771
15,81068	33453
15,81480	33155
15,81892	32088
15,82305	30880
15,82717	32747
15,83128	30724
15,83542	29768
15,83953	29947
15,84365	30711
15,84778	28406
15,85190	27872
15,85602	27632
15,86015	28849
15,86427	28312
15,86838	28558
15,87250	26610
15,87663	26547
15,88075	26482
15,88487	23723
15,88900	25789
15,89312	25612
15,89723	24959
15,90137	25143
15,90548	25518
15,90960	23229
15,91373	24251
15,91785	23399
15,92197	24377
15,92610	23775
15,93022	23950
15,93433	21389
15,93847	22985
15,94258	22739
15,94670	22082
15,95083	23588
15,95495	21739
15,95907	20869
15,96318	19953
15,96732	21527
15,97143	21279
15,97555	21032
15,97968	20671
15,98380	19611
15,98792	19543
15,99205	20046
15,99617	20790
16,00028	19769
16,00442	19707
16,00853	19020
16,01265	19631
16,01678	20332
16,02090	18465
16,02502	22007
16,02915	18810
16,03327	19731
16,03738	18953
16,04152	19350
16,04563	18905
16,04975	18670
16,05387	18231
16,05800	20243
16,06212	19831
16,06623	19042
16,07037	20437
16,07448	21907
16,07860	25379
16,08273	30704
16,08685	38037
16,09097	50796
16,09510	70405
16,09922	98013
16,10333	142983
16,10747	197463
16,11158	272814
16,11570	374189
16,11983	490091
16,12395	632259
16,12807	781928
16,13220	951722
16,13632	1118070
16,14043	1309778
16,14457	1459833
16,14868	1584314
16,15280	1659967
16,15692	1717507
16,16105	1723855
16,16517	1683850
16,16928	1617107
16,17342	1510042
16,17753	1391446
16,18165	1269662
16,18578	1124398
16,18990	1005520
16,19402	890128
16,19815	786343
16,20227	702025
16,20638	624634
16,21052	553119
16,21463	490823
16,21875	444752
16,22288	390726
16,22700	356705
16,23112	325719
16,23525	297846
16,23937	270039
16,24348	246022
16,24760	222449
16,25173	208430
16,25585	194118
16,25997	177936
16,26410	168589
16,26822	156646
16,27233	148335
16,27647	139923
16,28058	131842
16,28470	121004
16,28883	115739
16,29295	110613
16,29707	101596
16,30120	97809
16,30532	93703
16,30943	89557
16,31357	87036
16,31768	84500
16,32180	80842
16,32593	78448
16,33005	74174
16,33417	71441
16,33828	69466
16,34242	66366
16,34653	63868
16,35065	64689
16,35478	58828
16,35890	60344
16,36302	58797
16,36715	55769
16,37127	54016
16,37538	51443
16,37952	51040
16,38363	49816
16,38775	49312
16,39188	47666
16,39600	46155
16,40012	43972
16,40425	42547
16,40837	43344
16,41248	41925
16,41662	40399
16,42073	37178
16,42485	36878
16,42897	37362
16,43310	37170
16,43722	35670
16,44133	34123
16,44547	33934
16,44958	33122
16,45370	33862
16,45783	33582
16,46195	31803
16,46607	31729
16,47020	32571
16,47432	31610
16,47843	30193
16,48257	29338
16,48668	29711
16,49080	27959
16,49493	30440
16,49905	27057
16,50317	26412
16,50730	25442
16,51142	27737
16,51553	27078
16,51965	24880
16,52378	26235
16,52790	26330
16,53202	27224
16,53615	26341
16,54027	27329
16,54438	26607
16,54852	29413
16,55263	31908
16,55675	38057
16,56088	47611
16,56500	59625
16,56912	81249
16,57325	110764
16,57737	153742
16,58148	215154
16,58562	292219
16,58973	388365
16,59385	497096
16,59798	618696
16,60210	752704
16,60622	909351
16,61033	1034496
16,61447	1174066
16,61858	1269160
16,62270	1359985
16,62683	1408837
16,63095	1424145
16,63507	1418221
16,63920	1383338
16,64332	1313953
16,64743	1217184
16,65157	1126489
16,65568	1035486
16,65980	932275
16,66393	824227
16,66805	745547
16,67217	657823
16,67630	587412
16,68042	523142
16,68453	465669
16,68867	415460
16,69278	369537
16,69690	329475
16,70102	298638
16,70515	269206
16,70927	247863
16,71338	227368
16,71752	203287
16,72163	186245
16,72575	173339
16,72988	160983
16,73400	146850
16,73812	137781
16,74225	129135
16,74637	123381
16,75048	112299
16,75462	106287
16,75873	100760
16,76285	93470
16,76698	88551
16,77110	85884
16,77522	80864
16,77935	78340
16,78347	73957
16,78758	69406
16,79170	68136
16,79583	65647
16,79995	61434
16,80407	60182
16,80820	59767
16,81232	56002
16,81643	55816
16,82057	52157
16,82468	50941
16,82880	49192
16,83293	49465
16,83705	46821
16,84117	45486
16,84530	45247
16,84942	42675
16,85353	41775
16,85767	41014
16,86178	40233
16,86590	40034
16,87003	36959
16,87415	36248
16,87827	36984
16,88238	35743
16,88652	34703
16,89063	33428
16,89475	34132
16,89888	32490
16,90300	32077
16,90712	32747
16,91125	29941
16,91537	29457
16,91948	30481
16,92362	28685
16,92773	27871
16,93185	27098
16,93598	28019
16,94010	26380
16,94422	25506
16,94835	27090
16,95247	25837
16,95658	25526
16,96072	25531
16,96483	26308
16,96895	27056
16,97307	24070
16,97720	25216
16,98132	24386
16,98543	22958
16,98957	24333
16,99368	22999
16,99780	24124
17,00193	22581
17,00605	22442
17,01017	23307
17,01430	21436
17,01842	22398
17,02253	21683
17,02667	22119
17,03078	22777
17,03490	21957
17,03903	20546
17,04315	21847
17,04727	20668
17,05140	20679
17,05552	20727
17,05963	21335
17,06375	18964
17,06788	18807
17,07200	20600
17,07612	19615
17,08025	19737
17,08437	22249
17,08848	20496
17,09262	19787
17,09673	19936
17,10085	20691
17,10498	19682
17,10910	18478
17,11322	18944
17,11735	19770
17,12147	18750
17,12558	18868
17,12972	18293
17,13383	18555
17,13795	19469
17,14208	19329
17,14620	20627
17,15032	18805
17,15443	19683
17,15857	20277
17,16268	18683
17,16680	20203
17,17093	19437
17,17505	18620
17,17917	19424
17,18330	18464
17,18742	18807
17,19153	19682
17,19567	20298
17,19978	19076
17,20390	18539
17,20803	19717
17,21215	18095
17,21627	18349
17,22040	18921
17,22452	18077
17,22863	20433
17,23277	18795
17,23688	18013
17,24100	17680
17,24512	17641
17,24925	18479
17,25337	20272
17,25748	20609
17,26162	18654
17,26573	18214
17,26985	20975
17,27398	18269
17,27810	17996
17,28222	18871
17,28635	19076
17,29047	19619
17,29458	18457
17,29872	19843
17,30283	19613
17,30695	19349
17,31108	20003
17,31520	21097
17,31932	21922
17,32345	25879
17,32757	30670
17,33168	38388
17,33580	50664
17,33993	69040
17,34405	98116
17,34817	134307
17,35230	187585
17,35642	255542
17,36053	337053
17,36467	440359
17,36878	555967
17,37290	679287
17,37703	801410
17,38115	942702
17,38527	1081471
17,38940	1178021
17,39352	1287614
17,39763	1358023
17,40177	1414481
17,40588	1445062
17,41000	1458153
17,41413	1482436
17,41825	1507087
17,42237	1536297
17,42648	1559919
17,43062	1626340
17,43473	1724783
17,43885	1880368
17,44298	2029031
17,44710	2203329
17,45122	2407809
17,45535	2648920
17,45947	2885389
17,46358	3120842
17,46772	3301046
17,47183	3458828
17,47595	3575108
17,48008	3579509
17,48420	3500705
17,48832	3368910
17,49245	3150995
17,49657	2888054
17,50068	2613090
17,50482	2343307
17,50893	2088554
17,51305	1847179
17,51717	1627874
17,52130	1442544
17,52542	1282002
17,52953	1144074
17,53367	1021116
17,53778	921179
17,54190	827672
17,54603	746850
17,55015	677839
17,55427	628006
17,55840	570352
17,56252	521417
17,56663	484545
17,57077	448082
17,57488	416568
17,57900	386928
17,58313	368271
17,58725	338734
17,59137	317633
17,59550	300742
17,59962	282212
17,60373	269919
17,60785	255494
17,61198	237148
17,61610	225105
17,62022	209378
17,62435	201176
17,62847	193480
17,63258	182385
17,63672	177552
17,64083	167406
17,64495	164974
17,64908	153549
17,65320	148045
17,65732	139439
17,66145	136889
17,66557	129415
17,66968	126659
17,67382	123889
17,67793	120156
17,68205	114248
17,68618	112031
17,69030	109003
17,69442	100928
17,69855	103013
17,70267	98483
17,70678	96400
17,71090	92769
17,71503	90688
17,71915	88466
17,72327	87083
17,72740	83059
17,73152	80226
17,73563	79310
17,73977	78131
17,74388	73330
17,74800	72876
17,75213	72507
17,75625	69232
17,76037	67437
17,76450	65782
17,76862	65510
17,77273	64549
17,77687	63518
17,78098	60240
17,78510	59565
17,78923	59327
17,79335	55489
17,79747	59399
17,80158	56971
17,80572	56027
17,80983	56486
17,81395	57607
17,81808	57321
17,82220	60247
17,82632	69837
17,83045	78446
17,83457	92285
17,83868	115911
17,84282	144434
17,84693	189649
17,85105	257676
17,85518	328522
17,85930	415424
17,86342	527198
17,86755	655586
17,87167	785442
17,87578	910917
17,87992	1039510
17,88403	1145636
17,88815	1252891
17,89227	1315066
17,89640	1337876
17,90052	1357518
17,90463	1339108
17,90877	1303681
17,91288	1272226
17,91700	1223033
17,92113	1178235
17,92525	1141817
17,92937	1115933
17,93350	1109475
17,93762	1135451
17,94173	1154743
17,94587	1196642
17,94998	1255387
17,95410	1309736
17,95823	1378102
17,96235	1433326
17,96647	1451019
17,97060	1467586
17,97472	1464651
17,97883	1433461
17,98295	1382864
17,98708	1309170
17,99120	1217537
17,99532	1121702
17,99945	1036062
18,00357	943625
18,00768	857764
18,01182	771244
18,01593	701402
18,02005	620363
18,02418	560063
18,02830	495477
18,03242	450755
18,03655	402501
18,04067	368429
18,04478	338592
18,04892	308506
18,05303	282515
18,05715	262362
18,06128	242700
18,06540	224058
18,06952	216841
18,07363	205955
18,07777	210702
18,08188	206020
18,08600	221123
18,09013	239419
18,09425	268292
18,09837	317061
18,10250	379412
18,10662	452288
18,11073	544127
18,11487	658961
18,11898	779719
18,12310	925903
18,12723	1082473
18,13135	1214491
18,13547	1354694
18,13960	1470759
18,14372	1549402
18,14783	1596974
18,15197	1606687
18,15608	1603090
18,16020	1548116
18,16432	1468521
18,16845	1364160
18,17257	1257589
18,17668	1146222
18,18082	1035126
18,18493	939144
18,18905	847056
18,19318	765110
18,19730	687734
18,20142	615913
18,20555	560412
18,20967	496099
18,21378	460617
18,21792	419902
18,22203	385078
18,22615	357116
18,23028	326897
18,23440	304680
18,23852	280131
18,24265	261910
18,24677	249178
18,25088	228897
18,25500	219937
18,25913	206128
18,26325	192229
18,26737	178512
18,27150	175896
18,27562	166858
18,27973	160067
18,28387	150308
18,28798	144515
18,29210	136399
18,29623	136337
18,30035	127685
18,30447	122299
18,30860	117274
18,31272	113283
18,31683	106873
18,32097	101695
18,32508	100620
18,32920	96770
18,33333	92271
18,33745	87727
18,34157	88543
18,34568	84089
18,34982	81601
18,35393	79067
18,35805	75598
18,36218	75046
18,36630	70261
18,37042	70139
18,37455	68801
18,37867	66952
18,38278	64222
18,38692	63460
18,39103	61894
18,39515	62361
18,39928	58449
18,40340	61671
18,40752	54840
18,41165	54110
18,41577	53744
18,41988	56065
18,42402	51799
18,42813	51123
18,43225	53223
18,43637	50196
18,44050	48070
18,44462	47385
18,44873	49797
18,45287	49695
18,45698	46358
18,46110	46125
18,46523	46586
18,46935	46486
18,47347	47514
18,47760	47795
18,48172	47687
18,48583	47217
18,48997	47823
18,49408	47417
18,49820	45717
18,50233	44474
18,50645	43275
18,51057	44850
18,51470	43059
18,51882	40935
18,52293	41177
18,52705	42313
18,53118	41058
18,53530	38371
18,53942	36017
18,54355	34819
18,54767	34921
18,55178	33651
18,55592	35523
18,56003	35391
18,56415	34414
18,56828	33181
18,57240	33764
18,57652	32032
18,58065	33644
18,58477	33991
18,58888	29793
18,59302	33143
18,59713	31660
18,60125	30563
18,60538	31833
18,60950	29244
18,61362	30742
18,61773	28875
18,62187	29424
18,62598	29019
18,63010	27664
18,63423	30453
18,63835	28605
18,64247	29091
18,64660	28711
18,65072	28385
18,65483	29012
18,65897	30342
18,66308	31353
18,66720	33046
18,67133	37141
18,67545	40026
18,67957	45227
18,68370	57121
18,68782	69657
18,69193	94531
18,69607	120553
18,70018	159256
18,70430	212758
18,70842	283948
18,71255	371927
18,71667	478684
18,72078	608242
18,72492	751966
18,72903	910436
18,73315	1072583
18,73728	1224631
18,74140	1380572
18,74552	1481785
18,74965	1572621
18,75377	1610112
18,75788	1603107
18,76202	1555579
18,76613	1482880
18,77025	1391715
18,77438	1281878
18,77850	1180618
18,78262	1058370
18,78675	951571
18,79087	851321
18,79498	772701
18,79910	698102
18,80323	630931
18,80735	571833
18,81147	513087
18,81560	469324
18,81972	432915
18,82383	396534
18,82797	358938
18,83208	338782
18,83620	316952
18,84033	291003
18,84445	269731
18,84857	253926
18,85270	233796
18,85682	225903
18,86093	208953
18,86507	199529
18,86918	188247
18,87330	174451
18,87743	170099
18,88155	161412
18,88567	156828
18,88978	148799
18,89392	138544
18,89803	132185
18,90215	132332
18,90628	121914
18,91040	117926
18,91452	116109
18,91865	110174
18,92277	105366
18,92688	103750
18,93102	101670
18,93513	94751
18,93925	92547
18,94338	93230
18,94750	90950
18,95162	88380
18,95575	83375
18,95987	82060
18,96398	80801
18,96812	78127
18,97223	73769
18,97635	69812
18,98047	70231
18,98460	68752
18,98872	68957
18,99283	64458
18,99697	62682
19,00108	62126
19,00520	61878
19,00933	60361
19,01345	59059
19,01757	57683
19,02170	56969
19,02582	55385
19,02993	54608
19,03407	52553
19,03818	49465
19,04230	51066
19,04643	50557
19,05055	49640
19,05467	48169
19,05880	46947
19,06292	47797
19,06703	47743
19,07115	44761
19,07528	42955
19,07940	44550
19,08352	43762
19,08765	43471
19,09177	42834
19,09588	42328
19,10002	41611
19,10413	41618
19,10825	39564
19,11238	40741
19,11650	40349
19,12062	40137
19,12475	40243
19,12887	39217
19,13298	40125
19,13712	39682
19,14123	42618
19,14535	44793
19,14948	53475
19,15360	62467
19,15772	74872
19,16183	96597
19,16597	125498
19,17008	168958
19,17420	225180
19,17833	302543
19,18245	391935
19,18657	494138
19,19070	623052
19,19482	766210
19,19893	900106
19,20307	1043696
19,20718	1162783
19,21130	1275967
19,21543	1369537
19,21955	1440759
19,22367	1466471
19,22780	1503105
19,23192	1506046
19,23603	1506191
19,24017	1500487
19,24428	1489350
19,24840	1481783
19,25252	1507779
19,25665	1526661
19,26077	1546714
19,26488	1572731
19,26902	1592427
19,27313	1578940
19,27725	1565916
19,28138	1523776
19,28550	1491893
19,28962	1427820
19,29375	1360650
19,29787	1258884
19,30198	1171434
19,30612	1084469
19,31023	993813
19,31435	906603
19,31848	817535
19,32260	739716
19,32672	666784
19,33085	599459
19,33497	548307
19,33908	498104
19,34322	453890
19,34733	412383
19,35145	371821
19,35557	341337
19,35970	313117
19,36382	295374
19,36793	269681
19,37207	254457
19,37618	235824
19,38030	219104
19,38443	206909
19,38855	195160
19,39267	181946
19,39680	172056
19,40092	158484
19,40503	154862
19,40917	144864
19,41328	139204
19,41740	132621
19,42153	128434
19,42565	122903
19,42977	114845
19,43390	112225
19,43802	107377
19,44213	103790
19,44625	99875
19,45038	94204
19,45450	90943
19,45862	90064
19,46275	87236
19,46687	83434
19,47098	80677
19,47512	79311
19,47923	77982
19,48335	73897
19,48748	72390
19,49160	72702
19,49572	68157
19,49985	66552
19,50397	63851
19,50808	64220
19,51222	62913
19,51633	61611
19,52045	61347
19,52458	57602
19,52870	56698
19,53282	56308
19,53693	54995
19,54107	52020
19,54518	52941
19,54930	52506
19,55343	49707
19,55755	50802
19,56167	49674
19,56580	49376
19,56992	48978
19,57403	46971
19,57817	46552
19,58228	45888
19,58640	45707
19,59053	44808
19,59465	41935
19,59877	41644
19,60290	43760
19,60702	43665
19,61113	42340
19,61527	40992
19,61938	40325
19,62350	39079
19,62762	39388
19,63175	38015
19,63587	39292
19,63998	39187
19,64412	38477
19,64823	37362
19,65235	38510
19,65648	36267
19,66060	36684
19,66472	37863
19,66885	35756
19,67297	34631
19,67708	35111
19,68122	35816
19,68533	35537
19,68945	34149
19,69358	35958
19,69770	32974
19,70182	34884
19,70595	32378
19,71007	33601
19,71418	31854
19,71830	32128
19,72243	30758
19,72655	33058
19,73067	30656
19,73480	31171
19,73892	29831
19,74303	30709
19,74717	31530
19,75128	32038
19,75540	29761
19,75953	29056
19,76365	32559
19,76777	31219
19,77190	30182
19,77602	30490
19,78013	29809
19,78427	31326
19,78838	31694
19,79250	30060
19,79663	28612
19,80075	29902
19,80487	30407
19,80898	29213
19,81312	29265
19,81723	28389
19,82135	27905
19,82548	27317
19,82960	27312
19,83372	27901
19,83785	29475
19,84197	29766
19,84608	29559
19,85022	26796
19,85433	28837
19,85845	27289
19,86258	29470
19,86670	26671
19,87082	27226
19,87495	26676
19,87907	28079
19,88318	27016
19,88732	26391
19,89143	27568
19,89555	27515
19,89967	25901
19,90380	25842
19,90792	26085
19,91203	26671
19,91617	27408
19,92028	24246
19,92440	27358
19,92853	29047
19,93265	28260
19,93677	30758
19,94090	32683
19,94502	36500
19,94913	43326
19,95327	51512
19,95738	64147
19,96150	81327
19,96563	105223
19,96975	135967
19,97387	182628
19,97800	237770
19,98212	308393
19,98623	388106
19,99035	499207
19,99448	631835
19,99860	777790
20,00272	960713
20,00685	1158979
20,01097	1344521
20,01508	1576158
20,01922	1804109
20,02333	2037322
20,02745	2279887
20,03158	2514668
20,03570	2706351
20,03982	2855217
20,04395	2953413
20,04807	2988280
20,05218	2924812
20,05632	2805879
20,06043	2644004
20,06455	2440242
20,06868	2217331
20,07280	1991939
20,07692	1792970
20,08103	1595629
20,08517	1428646
20,08928	1274006
20,09340	1155235
20,09753	1036922
20,10165	937222
20,10577	866823
20,10990	786810
20,11402	710436
20,11813	658053
20,12227	603551
20,12638	568752
20,13050	516949
20,13463	483742
20,13875	455681
20,14287	425906
20,14700	398076
20,15112	377364
20,15523	353739
20,15937	335809
20,16348	319036
20,16760	305430
20,17172	288833
20,17585	269229
20,17997	261068
20,18408	251366
20,18822	239510
20,19233	226785
20,19645	217168
20,20058	210648
20,20470	201548
20,20882	197718
20,21295	186658
20,21707	180510
20,22118	173980
20,22532	167136
20,22943	163169
20,23355	157832
20,23768	153700
20,24180	148725
20,24592	142355
20,25005	137373
20,25417	133902
20,25828	133879
20,26240	129800
20,26653	124411
20,27065	121627
20,27477	117606
20,27890	113276
20,28302	112008
20,28713	109131
20,29127	107341
20,29538	104501
20,29950	99884
20,30363	96562
20,30775	95331
20,31187	96003
20,31600	91153
20,32012	93472
20,32423	88427
20,32837	85881
20,33248	83714
20,33660	85040
20,34073	82211
20,34485	78133
20,34897	77854
20,35308	74660
20,35722	76329
20,36133	74750
20,36545	73783
20,36958	72522
20,37370	71156
20,37782	70700
20,38195	66781
20,38607	65352
20,39018	66985
20,39432	64081
20,39843	63033
20,40255	63576
20,40668	62661
20,41080	62658
20,41492	59313
20,41905	59615
20,42317	59523
20,42728	58568
20,43142	57889
20,43553	55174
20,43965	53996
20,44377	56156
20,44790	54838
20,45202	54534
20,45613	54989
20,46027	55252
20,46438	54677
20,46850	52158
20,47263	51689
20,47675	52381
20,48087	50727
20,48500	48527
20,48912	48543
20,49323	48469
20,49737	48893
20,50148	47177
20,50560	47071
20,50973	47798
20,51385	46108
20,51797	44994
20,52210	44709
20,52622	43810
20,53033	43881
20,53445	43618
20,53858	44290
20,54270	43372
20,54682	43231
20,55095	39997
20,55507	41348
20,55918	41408
20,56332	41372
20,56743	43091
20,57155	40369
20,57568	42043
20,57980	42686
20,58392	43091
20,58805	41879
20,59217	41869
20,59628	43181
20,60042	43990
20,60453	48317
20,60865	54126
20,61278	58865
20,61690	68556
20,62102	80507
20,62513	101742
20,62927	125059
20,63338	162158
20,63750	208008
20,64163	264525
20,64575	343519
20,64987	432776
20,65400	537054
20,65812	648872
20,66223	782583
20,66637	909066
20,67048	1052481
20,67460	1172159
20,67873	1269631
20,68285	1350380
20,68697	1397255
20,69110	1407185
20,69522	1395372
20,69933	1359370
20,70347	1283754
20,70758	1206034
20,71170	1118000
20,71582	1023903
20,71995	939980
20,72407	855273
20,72818	780649
20,73232	713947
20,73643	653176
20,74055	589175
20,74468	548070
20,74880	498406
20,75292	460649
20,75705	421600
20,76117	394205
20,76528	364462
20,76942	339334
20,77353	314552
20,77765	296786
20,78178	281836
20,78590	261026
20,79002	251141
20,79415	238537
20,79827	223919
20,80238	214343
20,80650	204165
20,81063	191705
20,81475	184319
20,81887	176604
20,82300	168182
20,82712	163033
20,83123	156737
20,83537	148065
20,83948	146236
20,84360	140123
20,84773	134565
20,85185	127275
20,85597	126498
20,86010	120054
20,86422	117181
20,86833	118542
20,87247	111105
20,87658	110137
20,88070	104614
20,88483	101693
20,88895	97209
20,89307	98965
20,89720	90406
20,90132	89325
20,90543	88909
20,90955	86947
20,91368	87330
20,91780	85465
20,92192	81322
20,92605	80701
20,93017	76695
20,93428	78332
20,93842	79081
20,94253	81611
20,94665	81336
20,95078	85501
20,95490	87958
20,95902	92099
20,96315	95832
20,96727	101530
20,97138	107617
20,97552	115520
20,97963	121470
20,98375	127282
20,98788	132832
20,99200	138427
20,99612	137521
21,00023	139864
21,00437	139774
21,00848	140551
21,01260	133446
21,01673	133297
21,02085	127068
21,02497	121265
21,02910	116670
21,03322	110797
21,03733	104842
21,04147	94604
21,04558	91439
21,04970	87554
21,05383	85436
21,05795	80397
21,06207	76589
21,06620	72586
21,07032	71525
21,07443	68007
21,07857	64944
21,08268	61597
21,08680	61600
21,09092	56954
21,09505	56460
21,09917	53066
21,10328	54014
21,10742	51967
21,11153	52532
21,11565	51495
21,11978	49362
21,12390	48288
21,12802	45517
21,13215	48978
21,13627	45510
21,14038	43209
21,14452	45267
21,14863	42426
21,15275	44880
21,15688	42851
21,16100	41535
21,16512	42138
21,16925	40488
21,17337	42052
21,17748	41841
21,18160	41485
21,18573	40552
21,18985	38633
21,19397	39424
21,19810	40798
21,20222	38351
21,20633	40810
21,21047	37372
21,21458	36964
21,21870	36530
21,22283	38865
21,22695	36210
21,23107	37083
21,23520	38472
21,23932	37070
21,24343	35874
21,24757	38152
21,25168	36945
21,25580	35960
21,25993	37018
21,26405	35997
21,26817	37979
21,27228	35526
21,27642	33427
21,28053	36318
21,28465	34569
21,28878	34100
21,29290	34938
21,29702	33305
21,30115	32866
21,30527	34204
21,30938	32544
21,31352	34753
21,31763	33030
21,32175	32112
21,32588	31973
21,33000	32440
21,33412	31940
21,33825	33855
21,34237	30648
21,34648	31091
21,35062	32602
21,35473	31779
21,35885	31719
21,36297	33232
21,36710	33429
21,37122	31518
21,37533	30936
21,37947	33450
21,38358	30350
21,38770	30208
21,39183	31366
21,39595	31177
21,40007	30545
21,40420	30090
21,40832	29906
21,41243	31982
21,41657	32565
21,42068	32528
21,42480	32241
21,42893	31490
21,43305	31629
21,43717	28609
21,44130	29586
21,44542	32179
21,44953	29189
21,45365	28955
21,45778	29957
21,46190	29272
21,46602	30224
21,47015	29220
21,47427	30770
21,47838	27742
21,48252	29796
21,48663	28784
21,49075	29096
21,49488	28346
21,49900	29078
21,50312	26797
21,50725	28482
21,51137	30499
21,51548	27121
21,51962	27562
21,52373	27503
21,52785	29175
21,53198	27505
21,53610	27306
21,54022	27214
21,54433	28052
21,54847	26074
21,55258	29278
21,55670	29149
21,56083	29799
21,56495	29312
21,56907	25725
21,57320	27892
21,57732	27136
21,58143	26650
21,58557	29199
21,58968	28380
21,59380	28047
21,59793	28616
21,60205	27483
21,60617	28814
21,61030	26864
21,61442	27396
21,61853	29066
21,62267	27525
21,62678	29357
21,63090	27438
21,63502	28672
21,63915	29480
21,64327	28647
21,64738	28819
21,65152	28524
21,65563	27339
21,65975	27718
21,66388	27720
21,66800	26449
21,67212	27294
21,67625	28498
21,68037	25632
21,68448	28395
21,68862	27073
21,69273	27061
21,69685	29170
21,70098	27938
21,70510	26621
21,70922	27827
21,71335	25974
21,71747	27105
21,72158	29319
21,72570	25930
21,72983	26773
21,73395	27132
21,73807	27429
21,74220	27123
21,74632	26571
21,75043	27154
21,75457	26507
21,75868	29440
21,76280	28130
21,76693	29254
21,77105	26345
21,77517	25672
21,77930	24596
21,78342	27314
21,78753	27700
21,79167	27417
21,79578	27974
21,79990	27022
21,80403	27075
21,80815	26335
21,81227	27278
21,81638	28786
21,82052	26860
21,82463	27753
21,82875	27145
21,83288	27050
21,83700	28068
21,84112	26056
21,84525	24636
21,84937	27675
21,85348	25379
21,85762	25195
21,86173	27583
21,86585	25475
21,86998	26128
21,87410	25858
21,87822	27375
21,88235	28209
21,88647	26515
21,89058	27860
21,89472	27566
21,89883	25993
21,90295	26998
21,90707	28689
21,91120	27208
21,91532	28496
21,91943	26928
21,92357	28012
21,92768	27334
21,93180	25932
21,93593	26143
21,94005	26845
21,94417	25804
21,94830	27505
21,95242	27445
21,95653	24985
21,96067	26983
21,96478	26621
21,96890	27110
21,97303	26009
21,97715	25752
21,98127	27446
21,98540	25186
21,98952	26871
21,99363	27061
21,99775	25573
22,00188	25674
22,00600	25465
22,01012	24931
22,01425	25034
22,01837	24416
22,02248	25315
22,02662	25184
22,03073	25221
22,03485	27024
22,03898	27685
22,04310	24949
22,04722	25072
22,05135	26218
22,05547	26185
22,05958	25688
22,06372	26350
22,06783	25933
22,07195	25577
22,07608	24555
22,08020	25004
22,08432	24257
22,08843	26259
22,09257	27292
22,09668	27743
22,10080	23771
22,10493	27642
22,10905	27811
22,11317	26019
22,11730	27310
22,12142	25895
22,12553	26428
22,12967	25885
22,13378	27529
22,13790	27030
22,14203	26298
22,14615	25914
22,15027	27140
22,15440	26776
22,15852	27055
22,16263	26446
22,16677	27367
22,17088	25015
22,17500	26774
22,17912	25566
22,18325	24729
22,18737	25108
22,19148	26036
22,19562	25258
22,19973	26301
22,20385	27005
22,20798	27412
22,21210	27566
22,21622	25569
22,22035	25742
22,22447	24358
22,22858	26668
22,23272	27574
22,23683	26700
22,24095	25914
22,24508	27334
22,24920	25735
22,25332	26096
22,25745	25077
22,26157	24929
22,26568	26002
22,26980	24194
22,27393	26301
22,27805	26659
22,28217	26255
22,28630	25882
22,29042	26110
22,29453	24915
22,29867	25510
22,30278	26332
22,30690	26268
22,31103	25299
22,31515	24661
22,31927	25002
22,32340	26612
22,32752	26472
22,33163	25730
22,33577	25919
22,33988	27710
22,34400	29889
22,34813	28249
22,35225	33490
22,35637	35913
22,36048	44329
22,36462	53701
22,36873	71358
22,37285	87413
22,37698	116489
22,38110	151638
22,38522	203191
22,38935	259815
22,39347	323604
22,39758	411798
22,40172	495227
22,40583	577329
22,40995	663103
22,41408	748061
22,41820	816368
22,42232	859280
22,42645	902251
22,43057	914286
22,43468	909763
22,43882	886607
22,44293	848625
22,44705	813527
22,45117	759712
22,45530	703118
22,45942	639170
22,46353	594420
22,46767	537464
22,47178	485717
22,47590	439949
22,48003	402425
22,48415	364365
22,48827	334701
22,49240	300940
22,49652	276371
22,50063	253504
22,50477	233816
22,50888	218740
22,51300	197120
22,51713	184618
22,52125	175879
22,52537	163422
22,52950	151578
22,53362	145378
22,53773	133787
22,54187	124199
22,54598	125285
22,55010	114186
22,55422	110564
22,55835	100114
22,56247	98092
22,56658	95793
22,57072	92090
22,57483	89433
22,57895	83225
22,58308	80334
22,58720	77441
22,59132	76943
22,59545	75205
22,59957	72722
22,60368	66880
22,60782	65207
22,61193	67398
22,61605	66636
22,62018	62889
22,62430	58969
22,62842	61900
22,63255	59546
22,63667	59184
22,64078	55840
22,64490	55615
22,64903	54382
22,65315	55906
22,65727	52150
22,66140	51786
22,66552	51339
22,66963	49137
22,67377	48923
22,67788	48966
22,68200	47763
22,68613	48162
22,69025	45698
22,69437	46680
22,69850	46315
22,70262	48062
22,70673	47189
22,71087	45733
22,71498	45389
22,71910	45830
22,72323	44822
22,72735	44425
22,73147	43486
22,73558	42605
22,73972	42474
22,74383	43608
22,74795	43216
22,75208	42632
22,75620	41824
22,76032	42206
22,76445	40864
22,76857	40435
22,77268	39184
22,77682	39878
22,78093	38906
22,78505	38446
22,78918	39125
22,79330	37133
22,79742	37835
22,80155	36348
22,80567	37201
22,80978	34081
22,81392	37951
22,81803	35857
22,82215	36787
22,82627	37079
22,83040	35792
22,83452	34098
22,83863	35723
22,84277	33802
22,84688	35588
22,85100	35112
22,85513	35728
22,85925	34827
22,86337	34418
22,86750	33136
22,87162	33077
22,87573	35774
22,87987	34621
22,88398	34520
22,88810	33868
22,89223	34812
22,89635	37029
22,90047	35900
22,90460	33220
22,90872	35245
22,91283	33622
22,91695	32355
22,92108	35144
22,92520	31127
22,92932	34941
22,93345	33561
22,93757	34081
22,94168	32605
22,94582	32540
22,94993	32710
22,95405	33942
22,95818	35706
22,96230	31806
22,96642	34277
22,97055	33465
22,97467	31410
22,97878	32866
22,98292	32324
22,98703	31891
22,99115	32008
22,99528	31522
22,99940	31739
23,00352	31755
23,00763	33285
23,01177	33462
23,01588	31367
23,02000	31842
23,02413	34606
23,02825	32432
23,03237	35103
23,03650	33875
23,04062	30911
23,04473	32201
23,04887	31801
23,05298	31408
23,05710	33193
23,06123	33306
23,06535	33292
23,06947	31087
23,07360	32084
23,07772	31803
23,08183	32878
23,08597	32194
23,09008	32066
23,09420	32266
23,09832	32876
23,10245	33086
23,10657	33226
23,11068	32956
23,11482	34154
23,11893	32503
23,12305	31990
23,12718	32669
23,13130	31604
23,13542	32458
23,13955	32543
23,14367	32252
23,14778	31947
23,15192	31575
23,15603	31696
23,16015	33284
23,16428	31402
23,16840	29959
23,17252	32376
23,17665	29657
23,18077	30849
23,18488	29449
23,18900	31650
23,19313	32102
23,19725	30057
23,20137	30310
23,20550	30481
23,20962	31735
23,21373	30768
23,21787	29057
23,22198	29422
23,22610	31219
23,23023	30265
23,23435	29296
23,23847	30207
23,24260	30902
23,24672	32070
23,25083	31688
23,25497	32592
23,25908	30956
23,26320	31507
23,26733	31017
23,27145	31047
23,27557	32369
23,27968	31866
23,28382	32001
23,28793	32641
23,29205	34217
23,29618	32844
23,30030	33242
23,30442	32240
23,30855	31993
23,31267	34012
23,31678	33961
23,32092	34188
23,32503	33880
23,32915	33507
23,33328	34161
23,33740	34551
23,34152	34109
23,34565	34226
23,34977	34130
23,35388	34375
23,35802	33691
23,36213	31955
23,36625	33888
