D:\MassHunter\GCMS\1\data\Amal\Constant flow\110C\110C_1ml-min_6C-min_3.D Tue Sep 17 15:58:27 2024
Start of data points
5,29105	399940
5,29518	383844
5,29930	364211
5,30342	361129
5,30755	337613
5,31167	330086
5,31578	322136
5,31992	307205
5,32403	298998
5,32815	284473
5,33227	275964
5,33640	274430
5,34052	258763
5,34463	258603
5,34877	248169
5,35288	238793
5,35700	234661
5,36113	225386
5,36525	220695
5,36937	217751
5,37350	207931
5,37762	204849
5,38173	201179
5,38587	195727
5,38998	194154
5,39410	189464
5,39823	183360
5,40235	180450
5,40647	173006
5,41060	171176
5,41472	171130
5,41883	163231
5,42295	165326
5,42708	159306
5,43120	159054
5,43532	152785
5,43945	154044
5,44357	151052
5,44768	149939
5,45182	142381
5,45593	143603
5,46005	141946
5,46418	141996
5,46830	139302
5,47242	136990
5,47655	138079
5,48067	133324
5,48478	133228
5,48892	133591
5,49303	129557
5,49715	131079
5,50128	127678
5,50540	130536
5,50952	130934
5,51363	128297
5,51777	128531
5,52188	127944
5,52600	127495
5,53013	123900
5,53425	123417
5,53837	124050
5,54250	125430
5,54662	124217
5,55073	125741
5,55487	123064
5,55898	123065
5,56310	120722
5,56723	121627
5,57135	120232
5,57547	122906
5,57960	120435
5,58372	116055
5,58783	117123
5,59197	117127
5,59608	114536
5,60020	115927
5,60432	111889
5,60845	115835
5,61257	112539
5,61668	112466
5,62082	114481
5,62493	108719
5,62905	110165
5,63318	108551
5,63730	108436
5,64142	109280
5,64555	107999
5,64967	107393
5,65378	108293
5,65792	108518
5,66203	105993
5,66615	107717
5,67028	110110
5,67440	105906
5,67852	104630
5,68265	104549
5,68677	103785
5,69088	104816
5,69500	105089
5,69913	102646
5,70325	104711
5,70737	102929
5,71150	100515
5,71562	100088
5,71973	96746
5,72387	102943
5,72798	99537
5,73210	101003
5,73623	102911
5,74035	99454
5,74447	101171
5,74860	99069
5,75272	98600
5,75683	100182
5,76097	101795
5,76508	101213
5,76920	103936
5,77333	101166
5,77745	104723
5,78157	101745
5,78568	99370
5,78982	101681
5,79393	104611
5,79805	103623
5,80218	104367
5,80630	104902
5,81042	106779
5,81455	106965
5,81867	106141
5,82278	102199
5,82692	105255
5,83103	105983
5,83515	106535
5,83928	106438
5,84340	108161
5,84752	106893
5,85165	105776
5,85577	105592
5,85988	110824
5,86402	107640
5,86813	108712
5,87225	111185
5,87637	112970
5,88050	108885
5,88462	109894
5,88873	111346
5,89287	110625
5,89698	106347
5,90110	105701
5,90523	106461
5,90935	106877
5,91347	107662
5,91760	101933
5,92172	104138
5,92583	103383
5,92997	104909
5,93408	101192
5,93820	103586
5,94233	102606
5,94645	104190
5,95057	103945
5,95470	100501
5,95882	99394
5,96293	100477
5,96705	97803
5,97118	97810
5,97530	99590
5,97942	95370
5,98355	97874
5,98767	98223
5,99178	94355
5,99592	92490
6,00003	93344
6,00415	93376
6,00828	96298
6,01240	90262
6,01652	92320
6,02065	90631
6,02477	90745
6,02888	90942
6,03302	89103
6,03713	89515
6,04125	90138
6,04538	89558
6,04950	93658
6,05362	105533
6,05773	121889
6,06187	163582
6,06598	225457
6,07010	310840
6,07423	424879
6,07835	541023
6,08247	689388
6,08660	803704
6,09072	888026
6,09483	967262
6,09897	1015573
6,10308	1030047
6,10720	1025362
6,11133	1004827
6,11545	975662
6,11957	949454
6,12370	908921
6,12782	873706
6,13193	840327
6,13607	806028
6,14018	769539
6,14430	739999
6,14842	704855
6,15255	671952
6,15667	647609
6,16078	620723
6,16492	593275
6,16903	564436
6,17315	532990
6,17728	511552
6,18140	490420
6,18552	461669
6,18965	447765
6,19377	422318
6,19788	394704
6,20202	373282
6,20613	356287
6,21025	329438
6,21438	310681
6,21850	288545
6,22262	273025
6,22675	248610
6,23087	237800
6,23498	222201
6,23910	207933
6,24323	197217
6,24735	184463
6,25147	176924
6,25560	165691
6,25972	155291
6,26383	150376
6,26797	137083
6,27208	135994
6,27620	126904
6,28033	119366
6,28445	114702
6,28857	108078
6,29270	105952
6,29682	102750
6,30093	94165
6,30507	95869
6,30918	88630
6,31330	87299
6,31743	88709
6,32155	84582
6,32567	80547
6,32978	80850
6,33392	79724
6,33803	76797
6,34215	77435
6,34628	73052
6,35040	74796
6,35452	71173
6,35865	71634
6,36277	67977
6,36688	71767
6,37102	67930
6,37513	66845
6,37925	68531
6,38338	66415
6,38750	64713
6,39162	65755
6,39575	63716
6,39987	65809
6,40398	63828
6,40812	64117
6,41223	63381
6,41635	61358
6,42047	61441
6,42460	62327
6,42872	62262
6,43283	59190
6,43697	62486
6,44108	59408
6,44520	59137
6,44933	61024
6,45345	58558
6,45757	59311
6,46170	57141
6,46582	57445
6,46993	55736
6,47407	56090
6,47818	57391
6,48230	56581
6,48643	56109
6,49055	54306
6,49467	54171
6,49880	56368
6,50292	55953
6,50703	54464
6,51115	54426
6,51528	55071
6,51940	54602
6,52352	53230
6,52765	51914
6,53177	51537
6,53588	53676
6,54002	53709
6,54413	51464
6,54825	52729
6,55238	53639
6,55650	52060
6,56062	51916
6,56475	50814
6,56887	52889
6,57298	51702
6,57712	51490
6,58123	48962
6,58535	50684
6,58948	50778
6,59360	51137
6,59772	46678
6,60183	51262
6,60597	50615
6,61008	50129
6,61420	50919
6,61833	48778
6,62245	49172
6,62657	49697
6,63070	49611
6,63482	50111
6,63893	49914
6,64307	48516
6,64718	49854
6,65130	48413
6,65543	49341
6,65955	49432
6,66367	47669
6,66780	47630
6,67192	47254
6,67603	46790
6,68017	49407
6,68428	48283
6,68840	46831
6,69253	48084
6,69665	47993
6,70077	45829
6,70488	46795
6,70902	47865
6,71313	47537
6,71725	47100
6,72138	47419
6,72550	46305
6,72962	46901
6,73375	46932
6,73787	45003
6,74198	45570
6,74612	47032
6,75023	46784
6,75435	43871
6,75848	42874
6,76260	46107
6,76672	45337
6,77085	43359
6,77497	45491
6,77908	45714
6,78322	45439
6,78733	47085
6,79145	46190
6,79557	45392
6,79970	45734
6,80382	44270
6,80793	44828
6,81207	45597
6,81618	45111
6,82030	44256
6,82443	45349
6,82855	45564
6,83267	45443
6,83680	44273
6,84092	45736
6,84503	44867
6,84917	46868
6,85328	44402
6,85740	47681
6,86153	48546
6,86565	45477
6,86977	45874
6,87390	44260
6,87802	44585
6,88213	44869
6,88625	46807
6,89038	44458
6,89450	43233
6,89862	41768
6,90275	44090
6,90687	43987
6,91098	43047
6,91512	43250
6,91923	39947
6,92335	43225
6,92748	42317
6,93160	42147
6,93572	43405
6,93985	43795
6,94397	42762
6,94808	40719
6,95222	40539
6,95633	41012
6,96045	38957
6,96458	40859
6,96870	42251
6,97282	40648
6,97693	39404
6,98107	41943
6,98518	39060
6,98930	41283
6,99343	41022
6,99755	40505
7,00167	42073
7,00580	42859
7,00992	43653
7,01403	42871
7,01817	42447
7,02228	43429
7,02640	42505
7,03053	42067
7,03465	43803
7,03877	44553
7,04290	43134
7,04702	43144
7,05113	41042
7,05527	42625
7,05938	44869
7,06350	41795
7,06762	41655
7,07175	41649
7,07587	41084
7,07998	41750
7,08412	40659
7,08823	40703
7,09235	41798
7,09648	39689
7,10060	38197
7,10472	38815
7,10885	37969
7,11297	37766
7,11708	38225
7,12122	37095
7,12533	39290
7,12945	38741
7,13358	37264
7,13770	38686
7,14182	37733
7,14595	36233
7,15007	38032
7,15418	38178
7,15830	37370
7,16243	39293
7,16655	36647
7,17067	36529
7,17480	38574
7,17892	35343
7,18303	35460
7,18717	37959
7,19128	36589
7,19540	36250
7,19953	34134
7,20365	35233
7,20777	36176
7,21190	36823
7,21602	36204
7,22013	33931
7,22427	36135
7,22838	36154
7,23250	35328
7,23663	35035
7,24075	35816
7,24487	33371
7,24898	34338
7,25312	36961
7,25723	33407
7,26135	35453
7,26548	34980
7,26960	34856
7,27372	34515
7,27785	34526
7,28197	34287
7,28608	34461
7,29022	35167
7,29433	33890
7,29845	33787
7,30258	35264
7,30670	33573
7,31082	35307
7,31495	34488
7,31907	34554
7,32318	34385
7,32732	34111
7,33143	35230
7,33555	33092
7,33967	32890
7,34380	34515
7,34792	34472
7,35203	33666
7,35617	35434
7,36028	35243
7,36440	34610
7,36853	33005
7,37265	32689
7,37677	34446
7,38090	33511
7,38502	31465
7,38913	31595
7,39327	32395
7,39738	31545
7,40150	30499
7,40563	33815
7,40975	33978
7,41387	32674
7,41800	31525
7,42212	31896
7,42623	31442
7,43035	33534
7,43448	34593
7,43860	31086
7,44272	33216
7,44685	32195
7,45097	32742
7,45508	32045
7,45922	33120
7,46333	33077
7,46745	32794
7,47158	33372
7,47570	33260
7,47982	35730
7,48395	32125
7,48807	31369
7,49218	32563
7,49632	31954
7,50043	30742
7,50455	30635
7,50868	30969
7,51280	31168
7,51692	33251
7,52103	30405
7,52517	29392
7,52928	30334
7,53340	29619
7,53753	29677
7,54165	32104
7,54577	31030
7,54990	30922
7,55402	31062
7,55813	30175
7,56227	30053
7,56638	31483
7,57050	31454
7,57463	30037
7,57875	29778
7,58287	32364
7,58700	33148
7,59112	38277
7,59523	48142
7,59937	66594
7,60348	95635
7,60760	144204
7,61172	220338
7,61585	323386
7,61997	456787
7,62408	609413
7,62822	768916
7,63233	949638
7,63645	1090182
7,64058	1239803
7,64470	1324075
7,64882	1402348
7,65295	1417742
7,65707	1427341
7,66118	1390454
7,66532	1343860
7,66943	1300131
7,67355	1241221
7,67768	1166438
7,68180	1113211
7,68592	1039702
7,69005	970267
7,69417	905708
7,69828	839970
7,70240	786874
7,70653	722446
7,71065	665227
7,71477	598921
7,71890	545338
7,72302	492693
7,72713	447332
7,73127	402343
7,73538	358050
7,73950	325056
7,74363	288830
7,74775	260405
7,75187	236794
7,75600	210886
7,76012	190943
7,76423	173052
7,76837	155217
7,77248	141944
7,77660	131564
7,78073	121129
7,78485	108190
7,78897	100418
7,79308	96255
7,79722	87684
7,80133	83255
7,80545	77088
7,80958	71190
7,81370	70360
7,81782	65369
7,82195	64074
7,82607	61640
7,83018	57503
7,83432	56308
7,83843	55121
7,84255	54968
7,84668	51937
7,85080	50017
7,85492	48366
7,85905	48631
7,86317	46059
7,86728	44404
7,87142	43830
7,87553	42090
7,87965	42769
7,88377	41444
7,88790	40449
7,89202	39029
7,89613	41274
7,90027	39640
7,90438	38874
7,90850	39880
7,91263	37956
7,91675	36348
7,92087	37754
7,92500	35442
7,92912	34357
7,93323	35231
7,93737	35141
7,94148	35280
7,94560	34322
7,94973	32045
7,95385	33534
7,95797	31954
7,96210	33634
7,96622	33981
7,97033	34274
7,97445	31117
7,97858	31593
7,98270	31123
7,98682	32721
7,99095	33680
7,99507	31364
7,99918	32244
8,00332	33111
8,00743	28236
8,01155	30649
8,01568	30051
8,01980	29782
8,02392	30414
8,02805	29998
8,03217	30275
8,03628	30372
8,04042	30886
8,04453	29502
8,04865	30956
8,05278	30310
8,05690	30559
8,06102	31677
8,06513	29038
8,06927	30219
8,07338	30335
8,07750	30538
8,08163	28165
8,08575	29614
8,08987	28058
8,09400	29513
8,09812	28763
8,10223	29328
8,10637	29242
8,11048	28858
8,11460	26892
8,11873	27319
8,12285	29073
8,12697	28330
8,13110	27728
8,13522	27165
8,13933	28981
8,14347	27503
8,14758	27342
8,15170	27567
8,15582	28522
8,15995	26803
8,16407	28024
8,16818	26773
8,17232	26615
8,17643	25492
8,18055	26390
8,18468	26230
8,18880	26480
8,19292	25603
8,19705	24594
8,20117	25225
8,20528	26308
8,20942	25630
8,21353	24410
8,21765	24574
8,22178	25107
8,22590	25990
8,23002	25467
8,23415	23896
8,23827	25335
8,24238	26632
8,24650	24216
8,25063	25547
8,25475	25823
8,25887	24936
8,26300	25376
8,26712	26120
8,27123	26140
8,27537	26286
8,27948	24316
8,28360	26149
8,28773	24384
8,29185	25884
8,29597	25007
8,30010	26748
8,30422	27275
8,30833	25239
8,31247	25287
8,31658	25218
8,32070	26004
8,32483	26232
8,32895	26475
8,33307	23454
8,33720	25696
8,34132	23504
8,34543	24677
8,34955	24586
8,35368	25319
8,35780	24191
8,36192	24398
8,36605	24730
8,37017	25621
8,37428	25164
8,37842	25106
8,38253	23629
8,38665	23144
8,39078	24093
8,39490	24976
8,39902	23440
8,40315	24720
8,40727	24190
8,41138	23564
8,41552	23374
8,41963	21956
8,42375	24471
8,42788	22754
8,43200	22036
8,43612	22412
8,44023	22974
8,44437	23765
8,44848	24747
8,45260	23001
8,45673	25576
8,46085	24411
8,46497	23992
8,46910	25252
8,47322	23044
8,47733	23963
8,48147	23915
8,48558	24371
8,48970	23639
8,49383	23288
8,49795	24589
8,50207	25479
8,50620	22113
8,51032	24309
8,51443	23890
8,51857	23481
8,52268	22798
8,52680	24524
8,53092	21922
8,53505	23195
8,53917	22207
8,54328	23332
8,54742	23516
8,55153	23092
8,55565	24593
8,55978	24585
8,56390	22739
8,56802	26663
8,57215	29755
8,57627	40410
8,58038	55320
8,58452	76837
8,58863	113193
8,59275	160959
8,59688	230931
8,60100	313240
8,60512	406297
8,60925	505363
8,61337	607235
8,61748	686560
8,62160	761181
8,62573	810419
8,62985	843117
8,63397	854955
8,63810	848439
8,64222	819557
8,64633	794931
8,65047	747698
8,65458	706931
8,65870	646699
8,66283	600465
8,66695	548549
8,67107	496751
8,67520	457156
8,67932	402762
8,68343	365506
8,68757	324894
8,69168	287221
8,69580	256214
8,69993	224923
8,70405	201328
8,70817	176175
8,71228	158108
8,71642	138029
8,72053	125171
8,72465	111560
8,72878	101390
8,73290	91528
8,73702	82325
8,74115	76013
8,74527	71728
8,74938	66049
8,75352	61908
8,75763	58157
8,76175	54371
8,76588	50916
8,77000	50065
8,77412	47620
8,77825	45062
8,78237	42708
8,78648	41369
8,79062	37396
8,79473	39541
8,79885	38579
8,80297	37966
8,80710	38699
8,81122	37301
8,81533	36704
8,81947	35574
8,82358	35713
8,82770	34499
8,83183	34823
8,83595	33332
8,84007	33831
8,84420	33624
8,84832	33364
8,85243	32345
8,85657	31360
8,86068	31291
8,86480	30676
8,86893	30572
8,87305	28888
8,87717	28772
8,88130	28777
8,88542	29434
8,88953	28826
8,89365	27354
8,89778	27887
8,90190	27930
8,90602	25740
8,91015	25145
8,91427	24769
8,91838	25433
8,92252	25864
8,92663	24690
8,93075	24959
8,93488	22996
8,93900	23073
8,94312	22876
8,94725	23891
8,95137	25213
8,95548	23364
8,95962	22234
8,96373	23181
8,96785	21455
8,97198	22436
8,97610	22632
8,98022	22055
8,98433	24514
8,98847	23494
8,99258	20989
8,99670	23574
9,00083	23980
9,00495	23676
9,00907	25760
9,01320	24581
9,01732	24761
9,02143	26340
9,02557	25654
9,02968	25920
9,03380	23949
9,03793	24690
9,04205	25917
9,04617	25287
9,05030	23546
9,05442	23988
9,05853	22597
9,06267	22327
9,06678	22534
9,07090	22465
9,07502	21749
9,07915	22582
9,08327	20857
9,08738	20499
9,09152	20964
9,09563	20116
9,09975	20723
9,10388	20920
9,10800	19446
9,11212	21135
9,11625	20498
9,12037	19640
9,12448	20803
9,12862	19165
9,13273	19788
9,13685	18864
9,14098	19568
9,14510	19221
9,14922	20839
9,15335	20199
9,15747	18759
9,16158	19363
9,16570	18533
9,16983	18662
9,17395	18703
9,17807	18954
9,18220	17371
9,18632	19534
9,19043	19091
9,19457	19662
9,19868	18671
9,20280	18935
9,20693	18320
9,21105	18358
9,21517	19280
9,21930	18465
9,22342	20240
9,22753	18118
9,23167	18241
9,23578	19057
9,23990	19263
9,24403	17825
9,24815	19399
9,25227	19072
9,25638	18996
9,26052	18046
9,26463	18850
9,26875	17578
9,27288	19351
9,27700	19556
9,28112	18246
9,28525	18711
9,28937	18882
9,29348	19458
9,29762	17085
9,30173	19340
9,30585	18610
9,30998	17683
9,31410	18035
9,31822	18887
9,32235	18714
9,32647	18168
9,33058	18584
9,33472	18427
9,33883	18602
9,34295	20555
9,34707	18223
9,35120	18837
9,35532	17570
9,35943	19434
9,36357	19730
9,36768	19025
9,37180	18081
9,37593	19431
9,38005	20214
9,38417	18993
9,38830	16641
9,39242	17970
9,39653	17178
9,40067	17553
9,40478	17739
9,40890	18088
9,41303	18662
9,41715	19176
9,42127	18292
9,42540	18031
9,42952	18511
9,43363	19565
9,43775	17573
9,44188	19009
9,44600	18503
9,45012	18259
9,45425	18411
9,45837	19712
9,46248	19448
9,46662	18205
9,47073	18074
9,47485	17794
9,47898	19434
9,48310	18707
9,48722	16692
9,49135	18001
9,49547	16692
9,49958	17579
9,50372	19385
9,50783	17648
9,51195	17598
9,51608	18035
9,52020	17827
9,52432	16839
9,52843	17344
9,53257	19065
9,53668	18004
9,54080	17349
9,54493	18456
9,54905	17026
9,55317	18178
9,55730	16663
9,56142	17609
9,56553	18040
9,56967	18183
9,57378	16809
9,57790	17701
9,58203	18919
9,58615	17718
9,59027	17470
9,59440	17905
9,59852	16875
9,60263	18301
9,60677	18681
9,61088	18023
9,61500	18181
9,61912	17891
9,62325	18556
9,62737	18007
9,63148	19824
9,63562	21312
9,63973	24281
9,64385	33291
9,64798	46653
9,65210	71208
9,65622	110650
9,66035	182124
9,66447	277780
9,66858	418271
9,67272	593392
9,67683	812162
9,68095	1063190
9,68508	1293104
9,68920	1517975
9,69332	1707553
9,69745	1866369
9,70157	1973068
9,70568	2026937
9,70980	2014042
9,71393	1967912
9,71805	1859549
9,72217	1740685
9,72630	1596750
9,73042	1443460
9,73453	1276147
9,73867	1144022
9,74278	997844
9,74690	871902
9,75103	754420
9,75515	651275
9,75927	557274
9,76340	488265
9,76752	418466
9,77163	355723
9,77577	313253
9,77988	275772
9,78400	242376
9,78813	209927
9,79225	189329
9,79637	167214
9,80048	152158
9,80462	135968
9,80873	124525
9,81285	113188
9,81698	105855
9,82110	98582
9,82522	88981
9,82935	84371
9,83347	78399
9,83758	73240
9,84172	68506
9,84583	64966
9,84995	63066
9,85408	59589
9,85820	58028
9,86232	54112
9,86645	51365
9,87057	50497
9,87468	47826
9,87882	45767
9,88293	44915
9,88705	45050
9,89118	41577
9,89530	40981
9,89942	39382
9,90353	39042
9,90767	37820
9,91178	35468
9,91590	35833
9,92003	34473
9,92415	32927
9,92827	32721
9,93240	30807
9,93652	31731
9,94063	31197
9,94477	29200
9,94888	30307
9,95300	28423
9,95713	27444
9,96125	28734
9,96537	27239
9,96950	26383
9,97362	26457
9,97773	25734
9,98187	26522
9,98598	26731
9,99010	26705
9,99422	25729
9,99835	24945
10,00247	25080
10,00658	23955
10,01072	23873
10,01483	24370
10,01895	23128
10,02308	24076
10,02720	21923
10,03132	23097
10,03545	22868
10,03957	21752
10,04368	21559
10,04782	21356
10,05193	20167
10,05605	20576
10,06018	21369
10,06430	21401
10,06842	21060
10,07255	19567
10,07667	20404
10,08078	21481
10,08490	19811
10,08903	22488
10,09315	20589
10,09727	18270
10,10140	19325
10,10552	19951
10,10963	20008
10,11377	19445
10,11788	19926
10,12200	18296
10,12613	18729
10,13025	19632
10,13437	18351
10,13850	19987
10,14262	19335
10,14673	18357
10,15087	19043
10,15498	19223
10,15910	18481
10,16323	18391
10,16735	17796
10,17147	18450
10,17558	18194
10,17972	17175
10,18383	18581
10,18795	18015
10,19208	17710
10,19620	18675
10,20032	17072
10,20445	17948
10,20857	17052
10,21268	16233
10,21682	17667
10,22093	15903
10,22505	18479
10,22918	16484
10,23330	15584
10,23742	17190
10,24155	16745
10,24567	17507
10,24978	17116
10,25392	18255
10,25803	16842
10,26215	17998
10,26627	18421
10,27040	17999
10,27452	16080
10,27863	17543
10,28277	16833
10,28688	18597
10,29100	18509
10,29513	17938
10,29925	18200
10,30337	18491
10,30750	18357
10,31162	19117
10,31573	18455
10,31987	17306
10,32398	17628
10,32810	17826
10,33223	15700
10,33635	16282
10,34047	17477
10,34460	17103
10,34872	17496
10,35283	15960
10,35695	18351
10,36108	18650
10,36520	18420
10,36932	20468
10,37345	20933
10,37757	21485
10,38168	22948
10,38582	21989
10,38993	25012
10,39405	23396
10,39818	25367
10,40230	24387
10,40642	24452
10,41055	24311
10,41467	22936
10,41878	26218
10,42292	24015
10,42703	22253
10,43115	22425
10,43528	22006
10,43940	21430
10,44352	19985
10,44763	19473
10,45177	20949
10,45588	18798
10,46000	19561
10,46413	19092
10,46825	19544
10,47237	17751
10,47650	17651
10,48062	16950
10,48473	16803
10,48887	17449
10,49298	16971
10,49710	17149
10,50123	14990
10,50535	15430
10,50947	14831
10,51360	14818
10,51772	15243
10,52183	16312
10,52597	15596
10,53008	16882
10,53420	13737
10,53832	15280
10,54245	14164
10,54657	15086
10,55068	14962
10,55482	15312
10,55893	15688
10,56305	14818
10,56718	14316
10,57130	13623
10,57542	14493
10,57955	15559
10,58367	13833
10,58778	14902
10,59192	13978
10,59603	14233
10,60015	14721
10,60428	14250
10,60840	13784
10,61252	14124
10,61665	14060
10,62077	14998
10,62488	13521
10,62900	14481
10,63313	13224
10,63725	14565
10,64137	14163
10,64550	14489
10,64962	13858
10,65373	13262
10,65787	13645
10,66198	15433
10,66610	15521
10,67023	14209
10,67435	13418
10,67847	13907
10,68260	14077
10,68672	11744
10,69083	13509
10,69497	14547
10,69908	15580
10,70320	13925
10,70733	14021
10,71145	12601
10,71557	13187
10,71968	14874
10,72382	13025
10,72793	14138
10,73205	14357
10,73618	14442
10,74030	14997
10,74442	12616
10,74855	13005
10,75267	13955
10,75678	13274
10,76092	12704
10,76503	13914
10,76915	15892
10,77328	19043
10,77740	24784
10,78152	34299
10,78565	53486
10,78977	87252
10,79388	135246
10,79802	195247
10,80213	291265
10,80625	404934
10,81037	541813
10,81450	678029
10,81862	825088
10,82273	952323
10,82687	1050787
10,83098	1110810
10,83510	1136186
10,83923	1140675
10,84335	1091331
10,84747	1037220
10,85160	948555
10,85572	851419
10,85983	762270
10,86397	654270
10,86808	564315
10,87220	485741
10,87633	413979
10,88045	349293
10,88457	303684
10,88870	259432
10,89282	221284
10,89693	190829
10,90105	168249
10,90518	144831
10,90930	127562
10,91342	112527
10,91755	100717
10,92167	91818
10,92578	84081
10,92992	75295
10,93403	71224
10,93815	63590
10,94228	61215
10,94640	55875
10,95052	54084
10,95465	48153
10,95877	48353
10,96288	43233
10,96702	40390
10,97113	40710
10,97525	36944
10,97938	36710
10,98350	35495
10,98762	31751
10,99173	32306
10,99587	30430
10,99998	28828
11,00410	29428
11,00823	29538
11,01235	26182
11,01647	26436
11,02060	25178
11,02472	25623
11,02883	25219
11,03297	23797
11,03708	22978
11,04120	23104
11,04533	23680
11,04945	22262
11,05357	22127
11,05770	22254
11,06182	21556
11,06593	20044
11,07007	20734
11,07418	19589
11,07830	21220
11,08242	19877
11,08655	19575
11,09067	18972
11,09478	18872
11,09892	17415
11,10303	19201
11,10715	19100
11,11128	18559
11,11540	16465
11,11952	17835
11,12365	18084
11,12777	17657
11,13188	16769
11,13602	17547
11,14013	15651
11,14425	15772
11,14838	15959
11,15250	15014
11,15662	16230
11,16075	15982
11,16487	15866
11,16898	16363
11,17310	15688
11,17723	15777
11,18135	13868
11,18547	15206
11,18960	15739
11,19372	14242
11,19783	14599
11,20197	15588
11,20608	15029
11,21020	14957
11,21433	14745
11,21845	14538
11,22257	15857
11,22670	15871
11,23082	14808
11,23493	14650
11,23907	13897
11,24318	15897
11,24730	14596
11,25143	14214
11,25555	13505
11,25967	15053
11,26378	14018
11,26792	14069
11,27203	12378
11,27615	13999
11,28028	13112
11,28440	12487
11,28852	13234
11,29265	12198
11,29677	14803
11,30088	13759
11,30502	13394
11,30913	13660
11,31325	13410
11,31738	13209
11,32150	13242
11,32562	14035
11,32975	12837
11,33387	12192
11,33798	12050
11,34212	11987
11,34623	13747
11,35035	14033
11,35447	14770
11,35860	12809
11,36272	12956
11,36683	14063
11,37097	13286
11,37508	13648
11,37920	12672
11,38333	14752
11,38745	14063
11,39157	15081
11,39570	16184
11,39982	16575
11,40393	17564
11,40807	17315
11,41218	15728
11,41630	17459
11,42043	18377
11,42455	17457
11,42867	17419
11,43280	18236
11,43692	15986
11,44103	14781
11,44517	15983
11,44928	14688
11,45340	14508
11,45752	13374
11,46165	13289
11,46577	13424
11,46988	13355
11,47402	13427
11,47813	13324
11,48225	13601
11,48638	12201
11,49050	11857
11,49462	11908
11,49875	12505
11,50287	13084
11,50698	11530
11,51112	13830
11,51523	14295
11,51935	15098
11,52348	14403
11,52760	16579
11,53172	15700
11,53585	16581
11,53997	16380
11,54408	16329
11,54820	18482
11,55233	17624
11,55645	18510
11,56057	18126
11,56470	15913
11,56882	15085
11,57293	15189
11,57707	14009
11,58118	13780
11,58530	14556
11,58943	14971
11,59355	14307
11,59767	14868
11,60180	12424
11,60592	14183
11,61003	13233
11,61417	13554
11,61828	14196
11,62240	13950
11,62653	13711
11,63065	12314
11,63477	12979
11,63888	12308
11,64302	13421
11,64713	13437
11,65125	11958
11,65538	13008
11,65950	14044
11,66362	12463
11,66775	12804
11,67187	12846
11,67598	12306
11,68012	12838
11,68423	10914
11,68835	12519
11,69248	13599
11,69660	12927
11,70072	13038
11,70485	12758
11,70897	11846
11,71308	12577
11,71722	13302
11,72133	11926
11,72545	13685
11,72957	12686
11,73370	12298
11,73782	12990
11,74193	11980
11,74607	12536
11,75018	10538
11,75430	12249
11,75843	11571
11,76255	12483
11,76667	11366
11,77080	11646
11,77492	12114
11,77903	12560
11,78317	12260
11,78728	11663
11,79140	11918
11,79553	10965
11,79965	12229
11,80377	11731
11,80790	12142
11,81202	10367
11,81613	11124
11,82025	11652
11,82438	12024
11,82850	11492
11,83262	11861
11,83675	11319
11,84087	10004
11,84498	11606
11,84912	11275
11,85323	11409
11,85735	11415
11,86148	10185
11,86560	11157
11,86972	11529
11,87385	12104
11,87797	11330
11,88208	10931
11,88622	11598
11,89033	10652
11,89445	11407
11,89858	11532
11,90270	10964
11,90682	12184
11,91093	11072
11,91507	11775
11,91918	13262
11,92330	14818
11,92743	18933
11,93155	27301
11,93567	40847
11,93980	70365
11,94392	118328
11,94803	194920
11,95217	301679
11,95628	462738
11,96040	672609
11,96453	935960
11,96865	1239448
11,97277	1563618
11,97690	1867040
11,98102	2158670
11,98513	2415290
11,98927	2550995
11,99338	2596813
11,99750	2543869
12,00162	2400426
12,00575	2202655
12,00987	1953968
12,01398	1700153
12,01812	1463701
12,02223	1238801
12,02635	1038589
12,03048	864882
12,03460	717536
12,03872	605857
12,04285	514775
12,04697	442215
12,05108	371495
12,05522	321666
12,05933	282743
12,06345	252161
12,06758	217974
12,07170	198166
12,07582	175792
12,07995	157005
12,08407	142129
12,08818	130917
12,09230	118999
12,09643	111176
12,10055	101138
12,10467	93157
12,10880	86546
12,11292	85078
12,11703	76151
12,12117	74978
12,12528	67982
12,12940	66546
12,13353	63251
12,13765	60559
12,14177	58116
12,14590	58922
12,15002	55282
12,15413	53786
12,15827	50971
12,16238	51655
12,16650	49149
12,17063	48304
12,17475	45502
12,17887	45220
12,18298	42805
12,18712	39430
12,19123	39574
12,19535	37358
12,19948	35758
12,20360	34300
12,20772	32350
12,21185	32218
12,21597	30785
12,22008	30563
12,22422	27692
12,22833	29169
12,23245	26999
12,23658	26335
12,24070	25921
12,24482	26781
12,24895	24310
12,25307	24512
12,25718	22708
12,26132	23177
12,26543	21886
12,26955	21123
12,27367	20330
12,27780	18999
12,28192	20828
12,28603	21085
12,29017	18841
12,29428	19974
12,29840	18289
12,30253	17087
12,30665	18073
12,31077	20069
12,31490	16661
12,31902	17992
12,32313	17915
12,32727	17198
12,33138	16651
12,33550	16802
12,33963	16125
12,34375	16671
12,34787	17289
12,35200	18497
12,35612	16704
12,36023	15927
12,36435	15827
12,36848	15271
12,37260	14709
12,37672	15073
12,38085	15444
12,38497	16228
12,38908	16160
12,39322	15446
12,39733	15053
12,40145	16568
12,40558	16868
12,40970	15575
12,41382	16348
12,41795	13960
12,42207	14403
12,42618	15223
12,43032	14041
12,43443	14760
12,43855	15780
12,44268	15531
12,44680	13250
12,45092	13034
12,45503	14494
12,45917	13345
12,46328	13597
12,46740	13502
12,47153	13836
12,47565	13460
12,47977	13187
12,48390	12229
12,48802	13748
12,49213	12369
12,49627	11511
12,50038	13100
12,50450	13094
12,50863	11920
12,51275	13544
12,51687	11713
12,52100	12777
12,52512	13736
12,52923	12379
12,53337	14172
12,53748	14552
12,54160	14519
12,54572	14036
12,54985	14096
12,55397	14420
12,55808	15617
12,56222	15991
12,56633	15455
12,57045	15803
12,57458	16369
12,57870	14771
12,58282	14117
12,58695	13400
12,59107	13896
12,59518	14245
12,59932	13923
12,60343	13578
12,60755	12877
12,61168	12509
12,61580	12816
12,61992	12355
12,62405	12928
12,62817	12883
12,63228	11846
12,63640	11630
12,64053	11596
12,64465	11930
12,64877	11798
12,65290	11173
12,65702	11621
12,66113	11704
12,66527	10441
12,66938	11798
12,67350	12417
12,67763	10636
12,68175	10548
12,68587	10977
12,69000	12723
12,69412	10499
12,69823	11932
12,70237	12262
12,70648	10584
12,71060	11313
12,71473	11624
12,71885	12060
12,72297	10120
12,72708	10815
12,73122	11116
12,73533	12572
12,73945	10938
12,74358	13592
12,74770	15561
12,75182	20565
12,75595	29671
12,76007	46553
12,76418	73403
12,76832	116250
12,77243	176845
12,77655	264016
12,78068	373463
12,78480	505977
12,78892	651087
12,79305	821265
12,79717	954185
12,80128	1057931
12,80542	1147669
12,80953	1179378
12,81365	1165273
12,81777	1132526
12,82190	1051773
12,82602	955406
12,83013	840797
12,83427	735599
12,83838	639486
12,84250	533925
12,84663	453874
12,85075	388054
12,85487	324384
12,85900	274282
12,86312	235933
12,86723	201402
12,87137	177794
12,87548	153590
12,87960	138192
12,88373	122530
12,88785	105902
12,89197	98293
12,89610	92082
12,90022	82566
12,90433	78121
12,90845	71279
12,91258	66498
12,91670	63735
12,92082	61802
12,92495	58948
12,92907	57627
12,93318	55118
12,93732	55024
12,94143	52835
12,94555	52694
12,94968	47708
12,95380	47934
12,95792	44501
12,96205	41127
12,96617	39585
12,97028	37212
12,97442	35277
12,97853	33778
12,98265	31701
12,98678	30714
12,99090	27912
12,99502	27271
12,99913	26349
13,00327	24507
13,00738	23447
13,01150	22509
13,01563	21184
13,01975	21176
13,02387	20654
13,02800	20077
13,03212	19999
13,03623	19829
13,04037	20198
13,04448	18811
13,04860	19167
13,05273	18484
13,05685	18472
13,06097	18463
13,06510	18178
13,06922	18257
13,07333	18242
13,07747	17395
13,08158	17637
13,08570	20448
13,08982	26855
13,09395	38178
13,09807	58525
13,10218	91652
13,10632	137136
13,11043	216788
13,11455	325196
13,11868	462054
13,12280	618712
13,12692	796928
13,13105	972012
13,13517	1120444
13,13928	1259990
13,14342	1316502
13,14753	1351169
13,15165	1317247
13,15578	1234498
13,15990	1136851
13,16402	1014410
13,16815	873822
13,17227	747132
13,17638	639109
13,18052	536356
13,18463	444244
13,18875	371693
13,19287	312284
13,19700	263721
13,20112	228536
13,20523	198552
13,20937	170068
13,21348	146979
13,21760	132108
13,22173	119215
13,22585	105911
13,22997	94891
13,23410	89290
13,23822	80804
13,24233	75305
13,24647	66686
13,25058	61869
13,25470	58500
13,25883	53003
13,26295	51867
13,26707	47823
13,27120	45798
13,27532	44819
13,27943	41269
13,28355	38621
13,28768	37629
13,29180	35960
13,29592	36024
13,30005	31520
13,30417	32527
13,30828	30361
13,31242	28552
13,31653	27699
13,32065	27271
13,32478	27187
13,32890	26747
13,33302	24105
13,33715	23383
13,34127	25385
13,34538	22824
13,34952	22298
13,35363	21094
13,35775	20347
13,36188	21013
13,36600	18144
13,37012	19812
13,37423	18217
13,37837	19485
13,38248	18919
13,38660	18666
13,39073	16683
13,39485	17684
13,39897	16981
13,40310	18427
13,40722	15838
13,41133	17105
13,41547	16713
13,41958	15737
13,42370	15152
13,42783	15300
13,43195	15925
13,43607	15230
13,44020	15325
13,44432	17271
13,44843	15043
13,45257	14791
13,45668	15361
13,46080	14870
13,46492	13867
13,46905	15030
13,47317	13609
13,47728	14368
13,48142	13877
13,48553	14212
13,48965	13812
13,49378	13490
13,49790	13780
13,50202	13162
13,50615	11873
13,51027	12325
13,51438	12874
13,51852	13485
13,52263	12496
13,52675	11998
13,53088	12573
13,53500	11856
13,53912	11170
13,54325	13286
13,54737	12989
13,55148	12546
13,55560	11531
13,55973	12903
13,56385	13013
13,56797	12944
13,57210	12135
13,57622	12458
13,58033	13977
13,58447	12769
13,58858	13068
13,59270	14124
13,59683	12306
13,60095	12704
13,60507	13420
13,60920	13406
13,61332	14075
13,61743	12122
13,62157	12768
13,62568	13333
13,62980	12716
13,63393	11795
13,63805	12040
13,64217	11908
13,64628	12439
13,65042	11232
13,65453	12378
13,65865	12621
13,66278	11548
13,66690	12079
13,67102	12258
13,67515	12340
13,67927	11520
13,68338	11422
13,68752	11247
13,69163	12462
13,69575	13026
13,69988	11895
13,70400	12576
13,70812	11267
13,71225	11176
13,71637	11364
13,72048	11709
13,72462	10355
13,72873	11476
13,73285	10660
13,73697	11147
13,74110	11172
13,74522	10610
13,74933	10102
13,75347	11239
13,75758	11052
13,76170	11360
13,76583	10080
13,76995	11142
13,77407	12899
13,77820	10457
13,78232	11043
13,78643	10555
13,79057	11089
13,79468	10714
13,79880	11116
13,80293	11734
13,80705	10716
13,81117	10636
13,81530	10979
13,81942	10913
13,82353	10534
13,82765	12703
13,83178	10009
13,83590	10936
13,84002	11516
13,84415	11170
13,84827	9861
13,85238	10156
13,85652	11356
13,86063	9784
13,86475	10324
13,86888	10613
13,87300	9906
13,87712	9311
13,88125	11205
13,88537	11653
13,88948	11567
13,89362	10724
13,89773	12425
13,90185	12272
13,90598	17510
13,91010	25202
13,91422	34967
13,91833	58511
13,92247	93694
13,92658	145568
13,93070	221404
13,93483	332271
13,93895	458154
13,94307	613182
13,94720	780836
13,95132	948470
13,95543	1084369
13,95957	1197686
13,96368	1250341
13,96780	1265455
13,97193	1225112
13,97605	1148943
13,98017	1039207
13,98430	931198
13,98842	802745
13,99253	702668
13,99667	587494
14,00078	492365
14,00490	420366
14,00902	351049
14,01315	292667
14,01727	251435
14,02138	218672
14,02552	185939
14,02963	164380
14,03375	149929
14,03788	130069
14,04200	115246
14,04612	103753
14,05025	94043
14,05437	86159
14,05848	76621
14,06262	72112
14,06673	66307
14,07085	62591
14,07498	57401
14,07910	53098
14,08322	50516
14,08735	46683
14,09147	46598
14,09558	43050
14,09970	39832
14,10383	36351
14,10795	36443
14,11207	33960
14,11620	31485
14,12032	32195
14,12443	30482
14,12857	28219
14,13268	26821
14,13680	26523
14,14093	26406
14,14505	24722
14,14917	24573
14,15330	25407
14,15742	23285
14,16153	21806
14,16567	22701
14,16978	20490
14,17390	19784
14,17803	19584
14,18215	20376
14,18627	18311
14,19038	18318
14,19452	17706
14,19863	16654
14,20275	17339
14,20688	18023
14,21100	17946
14,21512	18205
14,21925	18029
14,22337	23805
14,22748	33464
14,23162	52571
14,23573	87877
14,23985	144915
14,24398	247124
14,24810	404624
14,25222	623822
14,25635	923446
14,26047	1312736
14,26458	1766974
14,26872	2279331
14,27283	2809227
14,27695	3315305
14,28107	3786599
14,28520	4071713
14,28932	4291847
14,29343	4290658
14,29757	4117431
14,30168	3812577
14,30580	3386890
14,30993	2892875
14,31405	2450184
14,31817	2044525
14,32230	1682559
14,32642	1394919
14,33053	1145289
14,33467	958079
14,33878	797097
14,34290	681337
14,34703	587822
14,35115	508351
14,35527	442061
14,35940	392643
14,36352	342804
14,36763	310272
14,37175	276771
14,37588	248641
14,38000	225016
14,38412	207710
14,38825	192715
14,39237	175056
14,39648	163372
14,40062	148916
14,40473	137552
14,40885	126165
14,41298	120127
14,41710	114157
14,42122	107630
14,42535	100615
14,42947	93510
14,43358	87597
14,43772	82459
14,44183	79457
14,44595	75716
14,45008	68579
14,45420	70719
14,45832	64649
14,46243	62676
14,46657	61780
14,47068	58782
14,47480	54672
14,47893	52728
14,48305	50264
14,48717	46733
14,49130	47928
14,49542	41500
14,49953	43385
14,50367	43011
14,50778	40455
14,51190	38210
14,51603	38575
14,52015	36056
14,52427	34968
14,52840	34584
14,53252	32928
14,53663	32773
14,54077	32226
14,54488	31715
14,54900	29690
14,55312	30378
14,55725	28817
14,56137	28285
14,56548	27651
14,56962	26486
14,57373	27652
14,57785	25951
14,58198	23920
14,58610	24139
14,59022	23513
14,59435	23721
14,59847	23083
14,60258	21880
14,60672	22539
14,61083	21593
14,61495	22715
14,61908	20563
14,62320	21387
14,62732	20912
14,63145	20239
14,63557	19499
14,63968	18202
14,64380	17689
14,64793	19336
14,65205	18113
14,65617	19698
14,66030	18543
14,66442	17578
14,66853	18189
14,67267	17033
14,67678	17182
14,68090	16699
14,68503	17009
14,68915	17884
14,69327	16268
14,69740	18232
14,70152	16470
14,70563	16370
14,70977	17009
14,71388	17541
14,71800	16475
14,72213	17553
14,72625	17957
14,73037	17199
14,73448	17010
14,73862	16653
14,74273	16037
14,74685	16640
14,75098	14880
14,75510	14665
14,75922	15108
14,76335	13751
14,76747	15386
14,77158	14008
14,77572	14735
14,77983	13512
14,78395	14326
14,78808	12724
14,79220	14082
14,79632	14031
14,80045	14588
14,80457	13993
14,80868	15838
14,81282	15312
14,81693	15946
14,82105	15446
14,82518	16251
14,82930	16133
14,83342	16410
14,83753	16558
14,84167	16339
14,84578	14866
14,84990	15777
14,85403	15039
14,85815	14646
14,86227	14312
14,86640	14421
14,87052	13606
14,87463	13617
14,87877	14007
14,88288	16918
14,88700	18689
14,89113	24806
14,89525	36215
14,89937	55502
14,90350	85124
14,90762	141547
14,91173	218776
14,91587	318480
14,91998	457659
14,92410	611588
14,92822	781811
14,93235	939177
14,93647	1092387
14,94058	1223202
14,94472	1298296
14,94883	1317261
14,95295	1281034
14,95708	1194508
14,96120	1096460
14,96532	969046
14,96945	853616
14,97357	726944
14,97768	609641
14,98182	515136
14,98593	439228
14,99005	373126
14,99418	308490
14,99830	265964
15,00242	223339
15,00655	199880
15,01067	171394
15,01478	152316
15,01890	134931
15,02303	120090
15,02715	110557
15,03127	100148
15,03540	91044
15,03952	84099
15,04363	78094
15,04777	71390
15,05188	68810
15,05600	61555
15,06013	61029
15,06425	57044
15,06837	58078
15,07250	55041
15,07662	52567
15,08073	53729
15,08487	50545
15,08898	48408
15,09310	51518
15,09723	46342
15,10135	45648
15,10547	41873
15,10958	42046
15,11372	40801
15,11783	35769
15,12195	35263
15,12608	33454
15,13020	33581
15,13432	32392
15,13845	29533
15,14257	26879
15,14668	27597
15,15082	24479
15,15493	25745
15,15905	23939
15,16318	23068
15,16730	22426
15,17142	23131
15,17555	21409
15,17967	19680
15,18378	19168
15,18792	18608
15,19203	18283
15,19615	19937
15,20027	18877
15,20440	19530
15,20852	18980
15,21263	18091
15,21677	18400
15,22088	16308
15,22500	17102
15,22913	16990
15,23325	17961
15,23737	17087
15,24150	16095
15,24562	15534
15,24973	15565
15,25387	16808
15,25798	15624
15,26210	15231
15,26623	15662
15,27035	14291
15,27447	15441
15,27860	14756
15,28272	14097
15,28683	14501
15,29095	13489
15,29508	14769
15,29920	15176
15,30332	15818
15,30745	13734
15,31157	14391
15,31568	13455
15,31982	14370
15,32393	14915
15,32805	15134
15,33218	15295
15,33630	19163
15,34042	24953
15,34455	37553
15,34867	58300
15,35278	93518
15,35692	154081
15,36103	237453
15,36515	361552
15,36928	509915
15,37340	683234
15,37752	877403
15,38163	1071481
15,38577	1237938
15,38988	1381771
15,39400	1446577
15,39813	1463310
15,40225	1429195
15,40637	1329040
15,41050	1208051
15,41462	1056803
15,41873	906781
15,42287	772033
15,42698	645536
15,43110	543053
15,43523	451567
15,43935	375061
15,44347	315796
15,44760	273489
15,45172	234524
15,45583	198717
15,45997	175730
15,46408	153970
15,46820	140091
15,47232	122112
15,47645	113225
15,48057	99562
15,48468	92753
15,48882	84081
15,49293	76932
15,49705	71215
15,50118	65994
15,50530	63761
15,50942	60227
15,51355	54970
15,51767	50805
15,52178	50970
15,52592	47083
15,53003	44012
15,53415	42292
15,53828	39422
15,54240	36708
15,54652	36344
15,55065	35674
15,55477	32996
15,55888	33191
15,56300	30924
15,56713	31295
15,57125	31102
15,57537	30519
15,57950	29170
15,58362	25552
15,58773	26678
15,59187	26746
15,59598	24524
15,60010	24590
15,60423	23762
15,60835	23015
15,61247	23247
15,61660	21720
15,62072	21341
15,62483	21326
15,62897	21552
15,63308	21139
15,63720	19502
15,64133	18745
15,64545	19719
15,64957	19806
15,65368	19632
15,65782	18844
15,66193	18612
15,66605	17371
15,67018	17767
15,67430	17147
15,67842	16266
15,68255	15509
15,68667	16610
15,69078	16032
15,69492	15704
15,69903	15530
15,70315	15081
15,70728	14616
15,71140	14707
15,71552	15018
15,71965	14637
15,72377	14105
15,72788	15495
15,73202	14851
15,73613	13443
15,74025	13034
15,74437	12183
15,74850	14544
15,75262	12329
15,75673	14098
15,76087	14242
15,76498	14234
15,76910	13400
15,77323	10960
15,77735	12995
15,78147	13518
15,78560	12953
15,78972	13007
15,79383	12619
15,79797	14554
15,80208	13374
15,80620	12406
15,81033	12867
15,81445	13317
15,81857	12594
15,82270	13946
15,82682	13649
15,83093	12651
15,83505	12599
15,83918	11812
15,84330	12187
15,84742	12925
15,85155	12860
15,85567	12406
15,85978	13749
15,86392	12586
15,86803	13044
15,87215	13985
15,87628	13563
15,88040	13725
15,88452	13737
15,88865	12129
15,89277	13296
15,89688	12493
15,90102	13643
15,90513	11509
15,90925	11726
15,91338	11026
15,91750	12307
15,92162	11707
15,92573	11973
15,92987	11835
15,93398	11395
15,93810	11282
15,94223	12119
15,94635	11394
15,95047	11331
15,95460	11496
15,95872	13607
15,96283	12582
15,96697	13270
15,97108	12069
15,97520	13349
15,97933	14580
15,98345	16604
15,98757	20606
15,99170	27364
15,99582	43163
15,99993	67306
16,00407	107974
16,00818	170667
16,01230	257547
16,01642	382461
16,02055	533930
16,02467	714137
16,02878	904650
16,03292	1079609
16,03703	1230860
16,04115	1335719
16,04528	1388173
16,04940	1392149
16,05352	1328859
16,05765	1229151
16,06177	1100606
16,06588	968500
16,07002	828008
16,07413	704111
16,07825	589443
16,08238	502855
16,08650	426158
16,09062	358626
16,09475	304991
16,09887	260549
16,10298	220076
16,10710	194390
16,11123	164036
16,11535	151548
16,11947	133038
16,12360	122530
16,12772	110504
16,13183	99166
16,13597	92588
16,14008	83942
16,14420	76147
16,14833	73769
16,15245	67732
16,15657	62593
16,16070	53886
16,16482	53719
16,16893	52536
16,17307	48000
16,17718	48258
16,18130	44690
16,18543	42827
16,18955	40576
16,19367	41623
16,19778	38944
16,20192	39671
16,20603	37657
16,21015	39519
16,21428	38282
16,21840	40925
16,22252	44634
16,22665	45053
16,23077	46566
16,23488	45905
16,23902	48225
16,24313	49716
16,24725	47486
16,25138	46972
16,25550	45500
16,25962	44384
16,26375	40414
16,26787	39104
16,27198	35205
16,27612	33783
16,28023	32763
16,28435	31578
16,28847	29210
16,29260	27498
16,29672	24842
16,30083	24186
16,30497	24412
16,30908	23354
16,31320	22156
16,31733	21457
16,32145	20355
16,32557	21201
16,32970	19590
16,33382	18611
16,33793	18558
16,34207	16811
16,34618	17671
16,35030	17104
16,35443	17973
16,35855	16937
16,36267	17473
16,36680	18045
16,37092	16739
16,37503	15798
16,37915	15602
16,38328	15034
16,38740	15079
16,39152	16464
16,39565	16821
16,39977	13869
16,40388	14674
16,40802	16137
16,41213	18840
16,41625	23840
16,42038	32100
16,42450	49857
16,42862	84558
16,43275	141619
16,43687	226915
16,44098	368144
16,44512	548474
16,44923	797856
16,45335	1098689
16,45748	1448730
16,46160	1846396
16,46572	2259409
16,46985	2616280
16,47397	2938393
16,47808	3136013
16,48220	3203760
16,48633	3112101
16,49045	2925060
16,49457	2637428
16,49870	2331540
16,50282	1979356
16,50693	1679692
16,51107	1397057
16,51518	1170115
16,51930	961733
16,52343	808683
16,52755	670129
16,53167	577113
16,53580	497927
16,53992	430364
16,54403	378869
16,54817	329526
16,55228	288653
16,55640	257763
16,56053	232790
16,56465	208573
16,56877	192999
16,57288	175883
16,57702	164402
16,58113	149921
16,58525	138276
16,58938	128893
16,59350	119195
16,59762	110290
16,60175	104606
16,60587	96755
16,60998	91264
16,61412	88499
16,61823	82393
16,62235	76521
16,62648	74078
16,63060	70258
16,63472	64445
16,63885	62425
16,64297	60341
16,64708	56648
16,65122	54948
16,65533	51991
16,65945	48791
16,66357	48251
16,66770	46507
16,67182	45799
16,67593	43010
16,68007	41428
16,68418	39259
16,68830	39117
16,69243	36984
16,69655	37163
16,70067	35618
16,70480	35599
16,70892	33359
16,71303	32319
16,71717	31515
16,72128	29458
16,72540	29386
16,72953	31325
16,73365	27776
16,73777	28161
16,74190	27011
16,74602	27307
16,75013	26518
16,75425	25359
16,75838	26335
16,76250	24175
16,76662	23589
16,77075	24063
16,77487	25338
16,77898	27937
16,78312	30051
16,78723	41243
16,79135	61292
16,79548	94576
16,79960	144909
16,80372	218373
16,80785	324958
16,81197	462942
16,81608	624712
16,82022	812621
16,82433	1003117
16,82845	1183230
16,83258	1337351
16,83670	1431709
16,84082	1480848
16,84493	1465737
16,84907	1381804
16,85318	1276818
16,85730	1147822
16,86143	1007206
16,86555	858228
16,86967	737522
16,87380	631632
16,87792	524707
16,88203	443439
16,88617	372251
16,89028	320128
16,89440	278585
16,89853	239674
16,90265	212925
16,90677	186464
16,91090	170198
16,91502	147405
16,91913	137235
16,92327	123771
16,92738	115347
16,93150	102686
16,93562	96785
16,93975	89190
16,94387	83044
16,94798	78920
16,95212	72235
16,95623	70209
16,96035	70290
16,96448	71110
16,96860	82792
16,97272	105977
16,97685	148867
16,98097	213651
16,98508	323452
16,98922	477391
16,99333	692264
16,99745	952934
17,00158	1284623
17,00570	1650970
17,00982	2029823
17,01395	2394916
17,01807	2712457
17,02218	2910805
17,02630	3030502
17,03043	2991862
17,03455	2842974
17,03867	2611086
17,04280	2299042
17,04692	2007072
17,05103	1727207
17,05517	1446037
17,05928	1221674
17,06340	1015496
17,06753	853243
17,07165	732098
17,07577	616633
17,07990	534336
17,08402	464347
17,08813	399323
17,09227	353694
17,09638	316902
17,10050	279657
17,10463	254821
17,10875	229406
17,11287	209071
17,11698	193330
17,12112	179714
17,12523	163090
17,12935	152549
17,13348	141777
17,13760	131785
17,14172	123388
17,14585	115215
17,14997	110183
17,15408	105391
17,15822	97088
17,16233	91141
17,16645	84322
17,17058	82028
17,17470	77601
17,17882	75858
17,18295	70321
17,18707	66825
17,19118	63494
17,19532	62036
17,19943	59944
17,20355	59451
17,20767	53151
17,21180	54610
17,21592	51048
17,22003	50660
17,22417	48238
17,22828	46945
17,23240	44259
17,23653	44051
17,24065	41723
17,24477	41687
17,24890	39810
17,25302	38442
17,25713	36150
17,26127	37158
17,26538	37340
17,26950	34683
17,27363	33865
17,27775	32350
17,28187	31093
17,28600	31044
17,29012	32030
17,29423	29738
17,29835	29649
17,30248	28996
17,30660	29602
17,31072	28474
17,31485	24755
17,31897	27494
17,32308	25896
17,32722	26939
17,33133	25370
17,33545	24577
17,33958	25268
17,34370	25361
17,34782	22991
17,35195	22551
17,35607	22777
17,36018	22822
17,36432	21948
17,36843	21658
17,37255	21752
17,37668	22191
17,38080	20183
17,38492	22794
17,38903	24825
17,39317	29561
17,39728	36977
17,40140	53070
17,40553	76168
17,40965	114674
17,41377	179547
17,41790	270652
17,42202	395393
17,42613	541501
17,43027	702848
17,43438	879455
17,43850	1052478
17,44263	1203120
17,44675	1306325
17,45087	1334450
17,45500	1338140
17,45912	1276918
17,46323	1196014
17,46737	1095610
17,47148	1014994
17,47560	961077
17,47972	972197
17,48385	1034258
17,48797	1166401
17,49208	1361915
17,49622	1644833
17,50033	1962678
17,50445	2311491
17,50858	2663558
17,51270	2999839
17,51682	3222836
17,52095	3304778
17,52507	3287568
17,52918	3119487
17,53332	2879602
17,53743	2538248
17,54155	2191183
17,54568	1867540
17,54980	1571666
17,55392	1314692
17,55805	1091566
17,56217	915633
17,56628	783740
17,57040	663866
17,57453	576792
17,57865	506514
17,58277	444317
17,58690	393982
17,59102	350054
17,59513	316071
17,59927	283225
17,60338	258033
17,60750	244992
17,61163	215437
17,61575	204703
17,61987	186084
17,62400	171426
17,62812	164009
17,63223	153074
17,63637	139387
17,64048	132279
17,64460	127487
17,64873	121117
17,65285	115510
17,65697	109623
17,66108	101525
17,66522	99152
17,66933	93550
17,67345	91504
17,67758	83781
17,68170	81210
17,68582	77018
17,68995	75308
17,69407	73895
17,69818	69442
17,70232	66701
17,70643	65919
17,71055	63142
17,71468	58874
17,71880	57139
17,72292	57181
17,72705	54744
17,73117	52905
17,73528	53127
17,73942	50452
17,74353	49178
17,74765	48171
17,75177	49466
17,75590	47560
17,76002	46296
17,76413	43129
17,76827	39937
17,77238	42406
17,77650	40571
17,78063	40511
17,78475	39156
17,78887	35853
17,79300	39025
17,79712	37833
17,80123	37182
17,80537	38889
17,80948	41079
17,81360	43804
17,81773	54964
17,82185	70396
17,82597	96541
17,83010	144249
17,83422	219742
17,83833	313368
17,84245	444292
17,84658	593961
17,85070	762166
17,85482	922717
17,85895	1074966
17,86307	1176993
17,86718	1255965
17,87132	1268733
17,87543	1251000
17,87955	1185201
17,88368	1079730
17,88780	973768
17,89192	855189
17,89605	732377
17,90017	625165
17,90428	532309
17,90842	457950
17,91253	384556
17,91665	326329
17,92078	284383
17,92490	245864
17,92902	218853
17,93313	192032
17,93727	171139
17,94138	155036
17,94550	139809
17,94963	127357
17,95375	119078
17,95787	107216
17,96200	98705
17,96612	91354
17,97023	84314
17,97437	80138
17,97848	73084
17,98260	69869
17,98673	66979
17,99085	64403
17,99497	58110
17,99910	56659
18,00322	54548
18,00733	51825
18,01147	51236
18,01558	49327
18,01970	47799
18,02382	44942
18,02795	44160
18,03207	43840
18,03618	43500
18,04032	43001
18,04443	40565
18,04855	41308
18,05268	40047
18,05680	37436
18,06092	39686
18,06505	36946
18,06917	36098
18,07328	33259
18,07742	33093
18,08153	32561
18,08565	32995
18,08978	31098
18,09390	28856
18,09802	30239
18,10215	27267
18,10627	28409
18,11038	26202
18,11452	25946
18,11863	25946
18,12275	24902
18,12687	25226
18,13100	24250
18,13512	23541
18,13923	25249
18,14337	24206
18,14748	22859
18,15160	22446
18,15573	21514
18,15985	23359
18,16397	21546
18,16810	23237
18,17222	21322
18,17633	21383
18,18047	20216
18,18458	19936
18,18870	20740
18,19283	20313
18,19695	20803
18,20107	20783
18,20520	20706
18,20932	19334
18,21343	20148
18,21755	19502
18,22168	19168
18,22580	18851
18,22992	19575
18,23405	18603
18,23817	19316
18,24228	18512
18,24642	19616
18,25053	16195
18,25465	17566
18,25878	18494
18,26290	20138
18,26702	18333
18,27115	17034
18,27527	16688
18,27938	16978
18,28352	17078
18,28763	18938
18,29175	17364
18,29588	16504
18,30000	17850
18,30412	17428
18,30823	16833
18,31237	17202
18,31648	14856
18,32060	16276
18,32473	16846
18,32885	16577
18,33297	16669
18,33710	16239
18,34122	17829
18,34533	15994
18,34947	16612
18,35358	16041
18,35770	16577
18,36183	15908
18,36595	16577
18,37007	17755
18,37420	15648
18,37832	16204
18,38243	15372
18,38657	13926
18,39068	15637
18,39480	15222
18,39892	17696
18,40305	18334
18,40717	23530
18,41128	30897
18,41542	44431
18,41953	60963
18,42365	95894
18,42778	144977
18,43190	219151
18,43602	322594
18,44015	443792
18,44427	584463
18,44838	737202
18,45252	863615
18,45663	977206
18,46075	1050204
18,46488	1104586
18,46900	1110362
18,47312	1095890
18,47725	1065085
18,48137	1043256
18,48548	1025148
18,48960	1052157
18,49373	1143192
18,49785	1306816
18,50197	1536856
18,50610	1826169
18,51022	2165472
18,51433	2550867
18,51847	2944811
18,52258	3291972
18,52670	3558592
18,53083	3665531
18,53495	3652468
18,53907	3480813
18,54320	3179451
18,54732	2804676
18,55143	2428907
18,55557	2046291
18,55968	1725175
18,56380	1454508
18,56793	1204903
18,57205	1025582
18,57617	872108
18,58028	758863
18,58442	655946
18,58853	582024
18,59265	516194
18,59678	461356
18,60090	423275
18,60502	385619
18,60915	350419
18,61327	324806
18,61738	297178
18,62152	275819
18,62563	248990
18,62975	232516
18,63388	219250
18,63800	204914
18,64212	191361
18,64625	176450
18,65037	167948
18,65448	155430
18,65862	146333
18,66273	138243
18,66685	128505
18,67097	122496
18,67510	115886
18,67922	109543
18,68333	107148
18,68747	100209
18,69158	95546
18,69570	91055
18,69983	86497
18,70395	85400
18,70807	80494
18,71220	79140
18,71632	75691
18,72043	73752
18,72457	71446
18,72868	66599
18,73280	67336
18,73693	64168
18,74105	60375
18,74517	58957
18,74930	59160
18,75342	54967
18,75753	53581
18,76165	52892
18,76578	53549
18,76990	47988
18,77402	48578
18,77815	49789
18,78227	49481
18,78638	52536
18,79052	58842
18,79463	71438
18,79875	97202
18,80288	131099
18,80700	189277
18,81112	258531
18,81525	365940
18,81937	478350
18,82348	615202
18,82762	757869
18,83173	883233
18,83585	1007458
18,83998	1077722
18,84410	1108389
18,84822	1092472
18,85233	1056711
18,85647	976488
18,86058	884598
18,86470	783645
18,86883	681957
18,87295	588839
18,87707	502028
18,88120	430725
18,88532	370309
18,88943	314452
18,89357	269005
18,89768	243740
18,90180	213069
18,90593	188015
18,91005	170734
18,91417	151257
18,91830	136844
18,92242	125774
18,92653	112816
18,93067	104218
18,93478	98890
18,93890	91313
18,94302	85865
18,94715	82853
18,95127	77590
18,95538	71300
18,95952	67586
18,96363	66048
18,96775	62147
18,97188	62369
18,97600	61326
18,98012	64275
18,98425	68537
18,98837	78595
18,99248	102586
18,99662	140521
19,00073	199425
19,00485	282759
19,00898	403223
19,01310	558482
19,01722	737184
19,02135	950510
19,02547	1149752
19,02958	1338769
19,03370	1490868
19,03783	1584741
19,04195	1598406
19,04607	1569518
19,05020	1487080
19,05432	1359322
19,05843	1200824
19,06257	1050046
19,06668	896476
19,07080	767792
19,07493	661800
19,07905	560658
19,08317	478652
19,08730	414030
19,09142	362924
19,09553	312332
19,09967	280563
19,10378	248233
19,10790	223973
19,11203	198722
19,11615	184259
19,12027	172282
19,12438	159130
19,12852	140423
19,13263	130343
19,13675	124253
19,14088	117387
19,14500	106537
19,14912	104101
19,15325	96206
19,15737	91540
19,16148	87231
19,16562	81993
19,16973	78442
19,17385	76432
19,17798	72717
19,18210	69140
19,18622	66338
19,19035	64310
19,19447	61245
19,19858	58482
19,20272	56362
19,20683	54996
19,21095	52694
19,21507	50211
19,21920	51725
19,22332	47199
19,22743	46042
19,23157	45383
19,23568	44176
19,23980	41423
19,24393	42577
19,24805	40970
19,25217	41213
19,25630	41064
19,26042	38538
19,26453	37483
19,26867	36709
19,27278	36476
19,27690	34857
19,28103	35910
19,28515	35544
19,28927	36803
19,29340	32778
19,29752	31183
19,30163	32984
19,30575	32370
19,30988	32045
19,31400	30527
19,31812	30268
19,32225	29850
19,32637	29521
19,33048	27181
19,33462	27708
19,33873	28982
19,34285	27883
19,34698	25847
19,35110	26787
19,35522	25205
19,35935	28586
19,36347	26340
19,36758	25972
19,37172	26238
19,37583	25310
19,37995	24328
19,38408	25777
19,38820	23801
19,39232	23836
19,39643	25507
19,40057	26267
19,40468	23415
19,40880	24065
19,41293	23468
19,41705	23780
19,42117	24176
19,42530	24385
19,42942	26200
19,43353	29412
19,43767	37097
19,44178	49025
19,44590	68997
19,45003	105747
19,45415	165427
19,45827	264306
19,46240	391748
19,46652	562744
19,47063	771611
19,47477	1009126
19,47888	1248993
19,48300	1474914
19,48712	1663176
19,49125	1769750
19,49537	1809066
19,49948	1757753
19,50362	1640829
19,50773	1494503
19,51185	1307253
19,51598	1122287
19,52010	966186
19,52422	818651
19,52835	693629
19,53247	600318
19,53658	501647
19,54072	438477
19,54483	378657
19,54895	331631
19,55308	294175
19,55720	263222
19,56132	235967
19,56545	211746
19,56957	196082
19,57368	182536
19,57780	163462
19,58193	154587
19,58605	145078
19,59017	130895
19,59430	123998
19,59842	114496
19,60253	111214
19,60667	101910
19,61078	98096
19,61490	94919
19,61903	86423
19,62315	85094
19,62727	82797
19,63140	78053
19,63552	74776
19,63963	72145
19,64377	72127
19,64788	65548
19,65200	67660
19,65613	63734
19,66025	59949
19,66437	59027
19,66848	56394
19,67262	54181
19,67673	53045
19,68085	50449
19,68498	48867
19,68910	48400
19,69322	47792
19,69735	45239
19,70147	45776
19,70558	44566
19,70972	43196
19,71383	41056
19,71795	43451
19,72208	39929
19,72620	40678
19,73032	37881
19,73445	36768
19,73857	37969
19,74268	35979
19,74682	35887
19,75093	35074
19,75505	35814
19,75918	32800
19,76330	33668
19,76742	31377
19,77153	31984
19,77567	33950
19,77978	34206
19,78390	36219
19,78803	38733
19,79215	45213
19,79627	63056
19,80040	86716
19,80452	133029
19,80863	199905
19,81277	294672
19,81688	420383
19,82100	568262
19,82513	743578
19,82925	931776
19,83337	1103825
19,83750	1248213
19,84162	1332274
19,84573	1367374
19,84987	1359430
19,85398	1307750
19,85810	1190275
19,86222	1078592
19,86635	940491
19,87047	810025
19,87458	702084
19,87872	599245
19,88283	516660
19,88695	445902
19,89108	385774
19,89520	337140
19,89932	287217
19,90345	261815
19,90757	227364
19,91168	203311
19,91582	185548
19,91993	163863
19,92405	155082
19,92818	140859
19,93230	129400
19,93642	121594
19,94055	111645
19,94467	106404
19,94878	99399
19,95290	92987
19,95703	84955
19,96115	82216
19,96527	78640
19,96940	71995
19,97352	70764
19,97763	67914
19,98177	66654
19,98588	62245
19,99000	60081
19,99413	58549
19,99825	57969
20,00237	54146
20,00650	51361
20,01062	50427
20,01473	50414
20,01887	46943
20,02298	46101
20,02710	45696
20,03123	45011
20,03535	41140
20,03947	44110
20,04358	41794
20,04772	40702
20,05183	39704
20,05595	38621
20,06008	38284
20,06420	36139
20,06832	36175
20,07245	38583
20,07657	35614
20,08068	34750
20,08482	34329
20,08893	33265
20,09305	33554
20,09718	34131
20,10130	33450
20,10542	32727
20,10955	30660
20,11367	30199
20,11778	28810
20,12192	30065
20,12603	29527
20,13015	30582
20,13427	29539
20,13840	29684
20,14252	27587
20,14663	28620
20,15077	27722
20,15488	29456
20,15900	27077
20,16313	28215
20,16725	26932
20,17137	27825
20,17550	28550
20,17962	27264
20,18373	27697
20,18787	26010
20,19198	27247
20,19610	27215
20,20023	28692
20,20435	27607
20,20847	28388
20,21260	27128
20,21672	28069
20,22083	28106
20,22495	27034
20,22908	27187
20,23320	26655
20,23732	27382
20,24145	27699
20,24557	26283
20,24968	25779
20,25382	25285
20,25793	25011
20,26205	24229
20,26618	26074
20,27030	24612
20,27442	25891
20,27855	23900
20,28267	22145
20,28678	24861
20,29092	21341
20,29503	23493
20,29915	22588
20,30328	22983
20,30740	21683
20,31152	24101
20,31563	21658
20,31977	22230
20,32388	23827
20,32800	22637
20,33213	23417
20,33625	23952
20,34037	22759
20,34450	24084
20,34862	28803
20,35273	34880
20,35687	44290
20,36098	62673
20,36510	92171
20,36923	142782
20,37335	216409
20,37747	327604
20,38160	473636
20,38572	649947
20,38983	866896
20,39397	1115915
20,39808	1374316
20,40220	1647861
20,40632	1923798
20,41045	2201236
20,41457	2485126
20,41868	2779463
20,42282	3104505
20,42693	3438594
20,43105	3719618
20,43518	3953965
20,43930	4102510
20,44342	4124069
20,44755	4036103
20,45167	3796746
20,45578	3439971
20,45992	3038816
20,46403	2597337
20,46815	2225773
20,47228	1872620
20,47640	1582689
20,48052	1352976
20,48465	1157777
20,48877	996500
20,49288	865928
20,49700	764035
20,50113	675592
20,50525	604994
20,50937	544249
20,51350	493737
20,51762	450721
20,52173	411011
20,52587	380006
20,52998	351134
20,53410	322114
20,53823	298030
20,54235	277532
20,54647	264440
20,55060	241771
20,55472	233103
20,55883	221154
20,56297	204736
20,56708	195470
20,57120	185214
20,57533	178430
20,57945	174508
20,58357	158738
20,58768	155473
20,59182	145680
20,59593	139449
20,60005	133339
20,60418	126864
20,60830	127165
20,61242	121258
20,61655	116782
20,62067	113660
20,62478	107592
20,62892	102392
20,63303	99934
20,63715	96649
20,64128	91031
20,64540	93002
20,64952	88613
20,65365	82548
20,65777	82266
20,66188	81667
20,66602	79557
20,67013	75622
20,67425	73989
20,67837	71803
20,68250	71829
20,68662	68057
20,69073	67334
20,69487	67356
20,69898	69950
20,70310	74212
20,70723	76371
20,71135	94043
20,71547	115364
20,71960	156048
20,72372	217959
20,72783	299573
20,73197	412159
20,73608	553088
20,74020	705409
20,74433	861338
20,74845	1025691
20,75257	1148416
20,75670	1236782
20,76082	1278051
20,76493	1259764
20,76905	1215273
20,77318	1163847
20,77730	1073670
20,78142	999181
20,78555	938018
20,78967	915069
20,79378	914294
20,79792	961549
20,80203	1013861
20,80615	1096446
20,81028	1184026
20,81440	1254523
20,81852	1295365
20,82265	1305823
20,82677	1298214
20,83088	1246336
20,83502	1162489
20,83913	1073252
20,84325	958977
20,84738	841876
20,85150	738694
20,85562	646029
20,85973	572793
20,86387	511269
20,86798	459105
20,87210	424981
20,87623	413987
20,88035	425431
20,88447	471324
20,88860	547535
20,89272	658948
20,89683	807386
20,90097	993562
20,90508	1186583
20,90920	1389096
20,91333	1565420
20,91745	1705959
20,92157	1783081
20,92570	1786607
20,92982	1724157
20,93393	1609875
20,93807	1460505
20,94218	1314576
20,94630	1149992
20,95042	1008067
20,95455	881657
20,95867	758583
20,96278	654766
20,96692	581802
20,97103	516782
20,97515	453272
20,97928	404203
20,98340	367977
20,98752	330272
20,99165	306460
20,99577	285516
20,99988	257845
21,00402	239656
21,00813	223291
21,01225	211977
21,01638	196007
21,02050	187912
21,02462	177857
21,02875	165738
21,03287	157076
21,03698	147329
21,04110	136824
21,04523	136328
21,04935	129942
21,05347	121845
21,05760	120394
21,06172	114572
21,06583	108595
21,06997	102865
21,07408	102094
21,07820	95562
21,08233	90984
21,08645	93389
21,09057	87444
21,09470	86673
21,09882	85093
21,10293	81878
21,10707	79816
21,11118	76585
21,11530	74084
21,11943	74099
21,12355	68534
21,12767	71133
21,13178	70369
21,13592	69366
21,14003	66495
21,14415	65559
21,14828	65356
21,15240	62289
21,15652	61230
21,16065	62394
21,16477	61118
21,16888	59470
21,17302	58519
21,17713	56726
21,18125	54125
21,18538	55165
21,18950	52469
21,19362	54234
21,19775	53541
21,20187	52188
21,20598	49686
21,21012	50567
21,21423	50337
21,21835	46665
21,22247	47780
21,22660	47843
21,23072	48209
21,23483	47824
21,23897	48841
21,24308	47478
21,24720	48930
21,25133	49546
21,25545	49096
21,25957	50943
21,26370	49023
21,26782	52360
21,27193	55017
21,27607	60770
21,28018	69831
21,28430	87140
21,28843	118464
21,29255	166160
21,29667	238037
21,30080	354396
21,30492	497166
21,30903	678671
21,31315	895304
21,31728	1127541
21,32140	1376861
21,32552	1583204
21,32965	1737353
21,33377	1835982
21,33788	1835654
21,34202	1762053
21,34613	1625272
21,35025	1460262
21,35438	1294126
21,35850	1118719
21,36262	958549
21,36675	830238
21,37087	717440
21,37498	622983
21,37912	547282
21,38323	477144
21,38735	427006
21,39148	380966
21,39560	340875
21,39972	312522
21,40385	288621
21,40797	266883
21,41208	241553
21,41620	225109
21,42033	212152
21,42445	191232
21,42857	189276
21,43270	172068
21,43682	166220
21,44093	158623
21,44507	147707
21,44918	141808
21,45330	138462
21,45743	135703
21,46155	127791
21,46567	127866
21,46980	124800
21,47392	119655
21,47803	112398
21,48217	112385
21,48628	106434
21,49040	103535
21,49453	103096
21,49865	96444
21,50277	94745
21,50688	90093
21,51102	88318
21,51513	86387
21,51925	83274
21,52338	84062
21,52750	78350
21,53162	79153
21,53575	78007
21,53987	74464
21,54398	73483
21,54812	70707
21,55223	69135
21,55635	70594
21,56048	64162
21,56460	67369
21,56872	64989
21,57285	62853
21,57697	63260
21,58108	63506
21,58522	59775
21,58933	59668
21,59345	57981
21,59757	57915
21,60170	55579
21,60582	55971
21,60993	54955
21,61407	54923
21,61818	56499
21,62230	56813
21,62643	63372
21,63055	75092
21,63467	89854
21,63880	121341
21,64292	167808
21,64703	245937
21,65117	346446
21,65528	486364
21,65940	655024
21,66353	843321
21,66765	1028420
21,67177	1197614
21,67590	1334230
21,68002	1419198
21,68413	1454988
21,68825	1431197
21,69238	1363701
21,69650	1255680
21,70062	1131981
21,70475	1011515
21,70887	898662
21,71298	808304
21,71712	751469
21,72123	713180
21,72535	712825
21,72948	738848
21,73360	793532
21,73772	879177
21,74185	959661
21,74597	1054605
21,75008	1123988
21,75422	1178682
21,75833	1201380
21,76245	1182090
21,76658	1138443
21,77070	1067923
21,77482	970336
21,77893	867499
21,78307	777831
21,78718	684638
21,79130	604750
21,79543	522751
21,79955	466711
21,80367	419457
21,80780	365627
21,81192	329952
21,81603	296580
21,82017	270290
21,82428	244758
21,82840	227748
21,83253	214080
21,83665	196012
21,84077	184390
21,84490	167803
21,84902	155161
21,85313	150950
21,85727	143748
21,86138	134790
21,86550	131299
21,86962	127388
21,87375	117243
21,87787	109522
21,88198	110432
21,88612	102165
21,89023	103401
21,89435	98013
21,89848	94224
21,90260	91238
21,90672	88698
21,91085	84999
21,91497	82242
21,91908	80302
21,92322	77895
21,92733	78235
21,93145	72477
21,93558	77562
21,93970	71926
21,94382	71773
21,94795	67863
21,95207	67899
21,95618	65960
21,96030	66524
21,96443	64337
21,96855	62732
21,97267	63441
21,97680	64094
21,98092	58979
21,98503	60012
21,98917	59369
21,99328	58355
21,99740	60537
22,00153	58004
22,00565	58023
22,00977	58279
22,01390	58419
22,01802	56619
22,02213	56213
22,02627	51719
22,03038	51522
22,03450	53022
22,03863	54836
22,04275	50057
22,04687	52094
22,05098	48372
22,05512	48075
22,05923	48335
22,06335	46689
22,06748	45844
22,07160	46546
22,07572	45448
22,07985	44091
22,08397	44058
22,08808	44015
22,09222	46043
22,09633	45029
22,10045	45412
22,10458	43237
22,10870	45956
22,11282	44242
22,11695	44876
22,12107	43474
22,12518	45076
22,12932	42484
22,13343	41188
22,13755	43608
22,14167	44346
22,14580	46624
22,14992	49304
22,15403	57107
22,15817	65632
22,16228	86968
22,16640	116103
22,17053	167422
22,17465	242116
22,17877	349611
22,18290	504983
22,18702	711480
22,19113	952701
22,19527	1278482
22,19938	1613811
22,20350	2003103
22,20763	2423577
22,21175	2819132
22,21587	3164925
22,22000	3448389
22,22412	3580580
22,22823	3574596
22,23235	3407215
22,23648	3069491
22,24060	2734437
22,24472	2363319
22,24885	2023239
22,25297	1705048
22,25708	1463827
22,26122	1247028
22,26533	1083841
22,26945	952138
22,27358	842085
22,27770	742258
22,28182	669397
22,28595	601895
22,29007	544532
22,29418	495491
22,29832	460791
22,30243	426426
22,30655	388877
22,31068	366808
22,31480	345973
22,31892	321282
22,32303	303001
22,32717	281555
22,33128	269045
22,33540	251691
22,33953	243684
22,34365	227067
22,34777	212831
22,35190	209671
22,35602	199107
22,36013	193089
22,36427	186889
22,36838	176072
22,37250	172530
22,37663	161884
22,38075	159623
22,38487	151844
22,38900	146213
22,39312	142017
22,39723	141138
22,40137	135884
22,40548	133126
22,40960	128787
22,41372	125142
22,41785	122609
22,42197	121898
22,42608	114231
22,43022	113958
22,43433	110381
22,43845	108801
22,44258	103986
22,44670	104285
22,45082	99517
22,45495	97633
22,45907	96912
22,46318	90153
22,46732	93529
22,47143	91381
22,47555	88726
22,47968	87915
22,48380	89211
22,48792	84864
22,49205	88262
22,49617	82610
22,50028	83915
22,50440	80068
22,50853	81166
22,51265	81063
22,51677	82755
22,52090	78348
22,52502	79931
22,52913	79794
22,53327	76843
22,53738	73189
22,54150	75573
22,54563	71866
22,54975	71782
22,55387	70995
22,55800	70651
22,56212	68254
22,56623	68023
22,57037	68565
22,57448	66343
22,57860	64732
22,58273	64004
22,58685	63588
22,59097	60045
22,59508	62657
22,59922	61171
22,60333	62607
22,60745	62818
22,61158	61818
22,61570	64359
22,61982	71410
22,62395	80904
22,62807	98761
22,63218	126128
22,63632	170265
22,64043	237287
22,64455	329455
22,64868	457827
22,65280	618530
22,65692	807617
22,66105	1006852
22,66517	1222554
22,66928	1410737
22,67342	1553580
22,67753	1646047
22,68165	1675410
22,68577	1626937
22,68990	1550621
22,69402	1419470
22,69813	1275165
22,70227	1111290
22,70638	974781
22,71050	854256
22,71463	750706
22,71875	655120
22,72287	579156
22,72700	520963
22,73112	465171
22,73523	416264
22,73937	379559
22,74348	349438
22,74760	322289
22,75173	294248
22,75585	276574
22,75997	259066
22,76410	238442
22,76822	226150
22,77233	215905
22,77645	203975
22,78058	193123
22,78470	181852
22,78882	176137
22,79295	165744
22,79707	161531
22,80118	156116
22,80532	148597
22,80943	144622
22,81355	137422
22,81768	133852
22,82180	129699
22,82592	127139
22,83005	121481
22,83417	118046
22,83828	114362
22,84242	113532
22,84653	112746
22,85065	104561
22,85478	106256
22,85890	101175
22,86302	98902
22,86713	97804
22,87127	93416
22,87538	94698
22,87950	92320
22,88363	90021
22,88775	88216
22,89187	87190
22,89600	84259
22,90012	81520
22,90423	81110
22,90837	78924
22,91248	81183
22,91660	80401
22,92073	74326
22,92485	75321
22,92897	73295
22,93310	72221
22,93722	71573
22,94133	70926
22,94547	72645
22,94958	68945
22,95370	69393
22,95782	65723
22,96195	69638
22,96607	68612
22,97018	66913
22,97432	67675
22,97843	69059
22,98255	67502
22,98668	68134
22,99080	72547
22,99492	69746
22,99905	71575
23,00317	71652
23,00728	76850
23,01142	80114
23,01553	85680
23,01965	88425
23,02378	99794
23,02790	106455
23,03202	114635
23,03615	125224
23,04027	132958
23,04438	131337
23,04852	132463
23,05263	134638
23,05675	129287
23,06087	124355
23,06500	116116
23,06912	111365
23,07323	102542
23,07737	99941
23,08148	91016
23,08560	86564
23,08973	83294
23,09385	79315
23,09797	73289
23,10210	73429
23,10622	66202
23,11033	64053
23,11447	65516
23,11858	64842
23,12270	61689
23,12683	62864
23,13095	60584
23,13507	57887
23,13920	56954
23,14332	59422
23,14743	59658
23,15155	57629
23,15568	58731
23,15980	57669
23,16392	57312
23,16805	56657
23,17217	56018
23,17628	56045
23,18042	56142
23,18453	53199
23,18865	54061
23,19278	55623
23,19690	51875
23,20102	53086
23,20515	51210
23,20927	52223
23,21338	51231
23,21752	51564
23,22163	53205
23,22575	51680
23,22988	51624
23,23400	51078
23,23812	51369
23,24223	52248
23,24637	50374
23,25048	52042
23,25460	50393
23,25873	52649
23,26285	51308
23,26697	51745
23,27110	51027
23,27522	51908
23,27933	51460
23,28347	52994
23,28758	49908
23,29170	48439
23,29583	50585
23,29995	49885
23,30407	50908
23,30820	50906
23,31232	49838
23,31643	50574
23,32057	47534
23,32468	47430
23,32880	46457
23,33292	46660
23,33705	50281
23,34117	47793
23,34528	44357
23,34942	47608
23,35353	47645
23,35765	46209
23,36178	48476
23,36590	46951
23,37002	47034
23,37415	47752
23,37827	46862
23,38238	47709
23,38652	49408
23,39063	49102
23,39475	47609
23,39888	50541
23,40300	47265
23,40712	46439
23,41125	46352
23,41537	48942
23,41948	48064
23,42360	46004
23,42773	46607
23,43185	47386
23,43597	45291
23,44010	48829
23,44422	47122
23,44833	47292
23,45247	46131
23,45658	47577
23,46070	48374
23,46483	45739
23,46895	47263
23,47307	47981
23,47720	46352
23,48132	49259
23,48543	47304
23,48957	46113
23,49368	46445
23,49780	48447
23,50193	49644
23,50605	45975
23,51017	48056
23,51428	50450
23,51842	49190
23,52253	51939
23,52665	47077
23,53078	47729
23,53490	50010
23,53902	45527
23,54315	47829
23,54727	47705
23,55138	45903
23,55552	45316
23,55963	44387
23,56375	45910
23,56788	43151
23,57200	47165
23,57612	47421
23,58025	46360
23,58437	45188
23,58848	45256
23,59262	46140
23,59673	45089
23,60085	45145
23,60497	44887
23,60910	43474
23,61322	46028
23,61733	42292
23,62147	46227
23,62558	41580
23,62970	45432
23,63383	43253
23,63795	46339
23,64207	41780
23,64620	43916
23,65032	43457
23,65443	41289
23,65857	44447
23,66268	43464
23,66680	43570
23,67093	43663
23,67505	44908
23,67917	43411
23,68330	42532
23,68742	44918
23,69153	45166
23,69565	44823
23,69978	46029
23,70390	44581
23,70802	44267
23,71215	45220
23,71627	43607
23,72038	43202
23,72452	45315
23,72863	42573
23,73275	46939
23,73688	43911
23,74100	44447
23,74512	43963
23,74925	44093
23,75337	44542
23,75748	43538
23,76162	42666
23,76573	43701
23,76985	43347
23,77398	43547
23,77810	43481
23,78222	43523
23,78633	42135
23,79047	43463
23,79458	45330
23,79870	41314
23,80283	43393
23,80695	44140
23,81107	45076
23,81520	44477
23,81932	44197
23,82343	44049
23,82757	45826
23,83168	44745
23,83580	43068
23,83993	46076
23,84405	47323
23,84817	47095
23,85230	46546
23,85642	47501
23,86053	44667
23,86467	45388
23,86878	44823
23,87290	46063
23,87702	47089
23,88115	48037
23,88527	46683
23,88938	47768
23,89352	51345
23,89763	58551
23,90175	73882
23,90588	90426
23,91000	119811
23,91412	160350
23,91825	216425
23,92237	275995
23,92648	365564
23,93062	460348
23,93473	558330
23,93885	647183
23,94298	723601
23,94710	787718
23,95122	819316
23,95535	828040
23,95947	797867
23,96358	769514
23,96770	719588
23,97183	657965
23,97595	595535
23,98007	538551
23,98420	479831
23,98832	427674
23,99243	377199
23,99657	345946
24,00068	306002
24,00480	278146
24,00893	250473
24,01305	226475
24,01717	214719
24,02130	192169
24,02542	180290
24,02953	168168
24,03367	154224
24,03778	149760
24,04190	141845
24,04603	132241
24,05015	125721
24,05427	119126
24,05838	115442
24,06252	108543
24,06663	105629
24,07075	101619
24,07488	99982
24,07900	95281
24,08312	93079
24,08725	90339
24,09137	91227
24,09548	84169
24,09962	83316
24,10373	82643
24,10785	78389
24,11198	79446
24,11610	76349
24,12022	75535
24,12435	73385
24,12847	72825
24,13258	71720
24,13672	69125
24,14083	66865
24,14495	65680
24,14907	67954
24,15320	67290
24,15732	66473
24,16143	64364
24,16557	62874
24,16968	61141
24,17380	64373
24,17793	59958
24,18205	60391
24,18617	60170
24,19030	61229
24,19442	58009
24,19853	60889
24,20267	59583
24,20678	58794
24,21090	56401
24,21503	58552
24,21915	57616
24,22327	59239
24,22740	54952
24,23152	56143
24,23563	54528
24,23975	55166
24,24388	53863
24,24800	56743
24,25212	56394
24,25625	52535
24,26037	53863
24,26448	55030
24,26862	52377
24,27273	53270
24,27685	53190
24,28098	50464
24,28510	51541
24,28922	49577
24,29335	53369
24,29747	51655
24,30158	51129
24,30572	51521
24,30983	51282
24,31395	53456
24,31808	52083
24,32220	51173
24,32632	49236
24,33043	54138
24,33457	50978
24,33868	52646
24,34280	53353
24,34693	49232
24,35105	53519
24,35517	52476
24,35930	49825
24,36342	49961
24,36753	49973
24,37167	52198
24,37578	51252
24,37990	47576
24,38403	51472
24,38815	51133
24,39227	50419
24,39640	52041
24,40052	48468
24,40463	48369
24,40877	48805
24,41288	50521
24,41700	47943
24,42112	49107
24,42525	49155
24,42937	46552
24,43348	47881
24,43762	47841
24,44173	47503
24,44585	47416
24,44998	48331
24,45410	46380
24,45822	47367
24,46235	48887
24,46647	48396
24,47058	47332
24,47472	48099
24,47883	46504
24,48295	50421
24,48708	47239
24,49120	50187
24,49532	46859
24,49945	48358
24,50357	50679
24,50768	48359
24,51180	48385
24,51593	46860
24,52005	49258
24,52417	48330
24,52830	47654
24,53242	47773
24,53653	48547
24,54067	48271
24,54478	47716
24,54890	49852
24,55303	46666
24,55715	47326
24,56127	46661
24,56540	44691
24,56952	44385
24,57363	45293
24,57777	48168
24,58188	46712
24,58600	47471
24,59013	48107
24,59425	45556
24,59837	46932
24,60250	44941
24,60662	46880
24,61073	46001
24,61485	44756
24,61898	46201
24,62310	46878
24,62722	47951
24,63135	48002
24,63547	47500
24,63958	46874
24,64372	46260
24,64783	46147
24,65195	47367
24,65608	45672
24,66020	46581
24,66432	48339
24,66845	46427
24,67257	46657
24,67668	45812
24,68082	46411
24,68493	47080
24,68905	47744
24,69318	47048
24,69730	45892
24,70142	46989
24,70553	46074
24,70967	46678
24,71378	45272
24,71790	46510
24,72203	47805
24,72615	47391
24,73027	44585
24,73440	46034
24,73852	47643
24,74263	45103
24,74677	46281
24,75088	44702
24,75500	46025
24,75913	45437
24,76325	46058
24,76737	46902
24,77150	46926
24,77562	45185
24,77973	43133
24,78387	44398
24,78798	44313
24,79210	45271
24,79622	47948
24,80035	47647
24,80447	47650
24,80858	47204
24,81272	46241
24,81683	48503
24,82095	45987
24,82508	46091
24,82920	44354
24,83332	45121
24,83745	45797
24,84157	46497
24,84568	45280
24,84982	45418
24,85393	46924
24,85805	46452
24,86218	47003
24,86630	46127
24,87042	49844
24,87455	44256
24,87867	46101
24,88278	46218
