D:\MassHunter\GCMS\1\data\Amal\Constant flow\90C\90C_1ml-min_10C-min_2.D Thu Sep 05 14:52:05 2024
Start of data points
5,59093,347797
5,59507,330848
5,59918,313562
5,60330,298612
5,60743,286864
5,61155,270884
5,61567,261441
5,61980,248278
5,62392,239742
5,62803,231604
5,63217,219786
5,63628,211723
5,64040,200004
5,64453,190254
5,64865,183120
5,65277,169942
5,65690,160237
5,66102,150556
5,66513,146188
5,66925,135786
5,67338,131395
5,67750,125566
5,68162,122920
5,68575,116497
5,68987,111906
5,69398,108481
5,69812,104040
5,70223,99744
5,70635,99146
5,71048,93883
5,71460,95125
5,71872,86310
5,72285,88051
5,72697,86487
5,73108,84740
5,73522,82026
5,73933,78698
5,74345,80624
5,74758,78911
5,75170,78456
5,75582,76644
5,75993,74408
5,76407,75400
5,76818,74620
5,77230,74638
5,77643,73897
5,78055,70097
5,78467,70961
5,78880,72721
5,79292,71580
5,79703,72646
5,80117,64106
5,80528,67452
5,80940,68124
5,81353,67076
5,81765,64866
5,82177,64806
5,82590,66888
5,83002,65941
5,83413,64379
5,83827,64817
5,84238,66564
5,84650,63822
5,85062,63763
5,85475,64238
5,85887,62559
5,86298,63771
5,86712,63826
5,87123,62931
5,87535,60833
5,87948,61461
5,88360,61444
5,88772,60490
5,89185,62207
5,89597,62881
5,90008,60258
5,90422,63042
5,90833,60169
5,91245,60565
5,91658,60034
5,92070,59886
5,92482,57679
5,92895,58948
5,93307,59500
5,93718,57505
5,94130,58720
5,94543,56691
5,94955,57565
5,95367,54746
5,95780,56770
5,96192,57868
5,96603,56812
5,97017,56339
5,97428,55974
5,97840,52935
5,98253,56825
5,98665,55111
5,99077,56023
5,99490,54219
5,99902,56161
6,00313,53441
6,00727,53717
6,01138,53264
6,01550,53331
6,01963,53617
6,02375,53493
6,02787,53518
6,03198,53811
6,03612,51942
6,04023,52900
6,04435,51661
6,04848,53042
6,05260,51408
6,05672,50861
6,06085,52459
6,06497,52677
6,06908,53220
6,07322,52642
6,07733,49765
6,08145,51118
6,08558,52986
6,08970,49873
6,09382,51023
6,09795,49869
6,10207,49868
6,10618,49965
6,11032,49671
6,11443,50587
6,11855,49515
6,12267,49776
6,12680,51120
6,13092,51309
6,13503,49374
6,13917,49149
6,14328,49030
6,14740,49233
6,15153,49267
6,15565,47438
6,15977,46174
6,16390,49208
6,16802,46425
6,17213,47518
6,17627,46867
6,18038,48316
6,18450,45891
6,18863,44925
6,19275,47748
6,19687,46342
6,20100,46052
6,20512,46058
6,20923,46483
6,21335,44809
6,21748,44779
6,22160,44283
6,22572,45677
6,22985,47135
6,23397,46114
6,23808,45407
6,24222,44241
6,24633,44840
6,25045,44145
6,25458,43198
6,25870,45988
6,26282,46190
6,26695,46919
6,27107,47533
6,27518,48674
6,27932,49907
6,28343,49756
6,28755,51761
6,29168,52874
6,29580,50580
6,29992,51634
6,30403,53402
6,30817,52034
6,31228,51436
6,31640,50856
6,32053,49685
6,32465,51922
6,32877,52012
6,33290,54334
6,33702,52141
6,34113,55241
6,34527,56755
6,34938,56169
6,35350,55185
6,35763,57423
6,36175,56743
6,36587,56546
6,37000,55665
6,37412,56575
6,37823,56750
6,38237,57575
6,38648,54012
6,39060,52260
6,39472,54571
6,39885,53692
6,40297,54827
6,40708,51830
6,41122,50454
6,41533,50964
6,41945,50904
6,42358,51860
6,42770,48289
6,43182,48392
6,43595,46791
6,44007,47355
6,44418,46849
6,44832,46806
6,45243,46839
6,45655,45599
6,46068,45594
6,46480,44280
6,46892,44394
6,47305,44693
6,47717,44216
6,48128,43372
6,48540,43209
6,48953,43764
6,49365,39945
6,49777,42688
6,50190,42042
6,50602,40497
6,51013,40701
6,51427,40143
6,51838,40026
6,52250,40216
6,52663,38114
6,53075,38486
6,53487,38292
6,53900,39679
6,54312,38163
6,54723,36320
6,55137,35582
6,55548,38212
6,55960,38104
6,56373,36797
6,56785,35924
6,57197,34746
6,57608,33430
6,58022,33972
6,58433,35004
6,58845,35560
6,59258,33934
6,59670,34076
6,60082,35049
6,60495,35865
6,60907,43401
6,61318,54029
6,61732,82527
6,62143,135955
6,62555,225613
6,62968,345582
6,63380,514484
6,63792,694449
6,64205,879037
6,64617,1049676
6,65028,1167910
6,65442,1223514
6,65853,1231194
6,66265,1193170
6,66677,1135316
6,67090,1061688
6,67502,973086
6,67913,889024
6,68327,818224
6,68738,737569
6,69150,669305
6,69563,607796
6,69975,543490
6,70387,493217
6,70800,450186
6,71212,408907
6,71623,368727
6,72037,317644
6,72448,288755
6,72860,259584
6,73273,226425
6,73685,199166
6,74097,178354
6,74510,157670
6,74922,140655
6,75333,123098
6,75745,112628
6,76158,101602
6,76570,89319
6,76982,81878
6,77395,74437
6,77807,69122
6,78218,64687
6,78632,60304
6,79043,56148
6,79455,53065
6,79868,51968
6,80280,48627
6,80692,46055
6,81105,43731
6,81517,43212
6,81928,41061
6,82342,41558
6,82753,40116
6,83165,38976
6,83578,38351
6,83990,38042
6,84402,37258
6,84815,36704
6,85227,36434
6,85638,35034
6,86050,34502
6,86463,33963
6,86875,32329
6,87287,33110
6,87700,32381
6,88112,33771
6,88523,31369
6,88937,32294
6,89348,30179
6,89760,30395
6,90173,30422
6,90585,30982
6,90997,30515
6,91410,31798
6,91822,29877
6,92233,31132
6,92647,30388
6,93058,30218
6,93470,28352
6,93883,29023
6,94295,28765
6,94707,29206
6,95118,29341
6,95532,27593
6,95943,27910
6,96355,29447
6,96768,29207
6,97180,26587
6,97592,27077
6,98005,27147
6,98417,28269
6,98828,27375
6,99242,28052
6,99653,28055
7,00065,26861
7,00478,27616
7,00890,26535
7,01302,26748
7,01715,25490
7,02127,26064
7,02538,27599
7,02952,24766
7,03363,27197
7,03775,26719
7,04187,25926
7,04600,25669
7,05012,26288
7,05423,25580
7,05837,26936
7,06248,25776
7,06660,25709
7,07073,25474
7,07485,26865
7,07897,24846
7,08310,26516
7,08722,24387
7,09133,25675
7,09547,26300
7,09958,24553
7,10370,25964
7,10783,24578
7,11195,26204
7,11607,24901
7,12020,25678
7,12432,23967
7,12843,25156
7,13255,24594
7,13668,24251
7,14080,24431
7,14492,25899
7,14905,24962
7,15317,26123
7,15728,25500
7,16142,25842
7,16553,24750
7,16965,26771
7,17378,27436
7,17790,26689
7,18202,28213
7,18615,27176
7,19027,26609
7,19438,27200
7,19852,27368
7,20263,25689
7,20675,26629
7,21088,27281
7,21500,24866
7,21912,25440
7,22323,25295
7,22737,24976
7,23148,24070
7,23560,25211
7,23973,24632
7,24385,24935
7,24797,22817
7,25210,23244
7,25622,24266
7,26033,23720
7,26447,22383
7,26858,22926
7,27270,23824
7,27683,23912
7,28095,24251
7,28507,22042
7,28920,22505
7,29332,23732
7,29743,21298
7,30157,22422
7,30568,21498
7,30980,22521
7,31392,21819
7,31805,21483
7,32217,21251
7,32628,22480
7,33042,22970
7,33453,22546
7,33865,21805
7,34278,22073
7,34690,23283
7,35102,23714
7,35515,23900
7,35927,24466
7,36338,23589
7,36752,22526
7,37163,23833
7,37575,25088
7,37988,24373
7,38400,22010
7,38812,23543
7,39225,23407
7,39637,22393
7,40048,22144
7,40460,21769
7,40873,22521
7,41285,22037
7,41697,24177
7,42110,21306
7,42522,21856
7,42933,21560
7,43347,21828
7,43758,21129
7,44170,21798
7,44583,21867
7,44995,21161
7,45407,21652
7,45820,22743
7,46232,23774
7,46643,22856
7,47057,23839
7,47468,22096
7,47880,23163
7,48293,22811
7,48705,22864
7,49117,24060
7,49528,21520
7,49942,20882
7,50353,21889
7,50765,22540
7,51178,21238
7,51590,23413
7,52002,22958
7,52415,23134
7,52827,22872
7,53238,22294
7,53652,24712
7,54063,23537
7,54475,24686
7,54888,23066
7,55300,23117
7,55712,23774
7,56125,21878
7,56537,22520
7,56948,24131
7,57362,22235
7,57773,21151
7,58185,21853
7,58597,21672
7,59010,20769
7,59422,22244
7,59833,21371
7,60247,18933
7,60658,21511
7,61070,20528
7,61483,21706
7,61895,21246
7,62307,20490
7,62720,20826
7,63132,20660
7,63543,20671
7,63957,18757
7,64368,20153
7,64780,19344
7,65193,18225
7,65605,19694
7,66017,19760
7,66430,18121
7,66842,18150
7,67253,18997
7,67665,18748
7,68078,18470
7,68490,19329
7,68902,18295
7,69315,19140
7,69727,18666
7,70138,17253
7,70552,17971
7,70963,19009
7,71375,18741
7,71788,18754
7,72200,20166
7,72612,18339
7,73025,19624
7,73437,18736
7,73848,18832
7,74262,16773
7,74673,20344
7,75085,17503
7,75498,18690
7,75910,17851
7,76322,19351
7,76733,18287
7,77147,17541
7,77558,17791
7,77970,19182
7,78383,17598
7,78795,18503
7,79207,17849
7,79620,17786
7,80032,18887
7,80443,17058
7,80857,18968
7,81268,17422
7,81680,17692
7,82093,17202
7,82505,17907
7,82917,16978
7,83330,18562
7,83742,18506
7,84153,16315
7,84567,18170
7,84978,18123
7,85390,16563
7,85802,16023
7,86215,17304
7,86627,18854
7,87038,17660
7,87452,19308
7,87863,17330
7,88275,18044
7,88688,17887
7,89100,17263
7,89512,17888
7,89925,16451
7,90337,18566
7,90748,16707
7,91162,17961
7,91573,17421
7,91985,17827
7,92398,18253
7,92810,18066
7,93222,18804
7,93635,19242
7,94047,19124
7,94458,19432
7,94870,18667
7,95283,19333
7,95695,18255
7,96107,18436
7,96520,17847
7,96932,19395
7,97343,18226
7,97757,19340
7,98168,18928
7,98580,18226
7,98993,18425
7,99405,17694
7,99817,18527
8,00230,16743
8,00642,16558
8,01053,17220
8,01467,15778
8,01878,15780
8,02290,16414
8,02703,16661
8,03115,16475
8,03527,16547
8,03938,18223
8,04352,16302
8,04763,17204
8,05175,16866
8,05588,17282
8,06000,15821
8,06412,17308
8,06825,15908
8,07237,17934
8,07648,17236
8,08062,16915
8,08473,17242
8,08885,23391
8,09298,36406
8,09710,62451
8,10122,111912
8,10535,206333
8,10947,359984
8,11358,572626
8,11772,850291
8,12183,1157028
8,12595,1460397
8,13007,1704121
8,13420,1870876
8,13832,1947795
8,14243,1913909
8,14657,1808196
8,15068,1640201
8,15480,1457947
8,15893,1247159
8,16305,1056909
8,16717,883226
8,17130,719915
8,17542,595063
8,17953,473233
8,18367,382513
8,18778,308319
8,19190,252314
8,19603,210051
8,20015,173360
8,20427,144143
8,20840,123349
8,21252,107383
8,21663,95282
8,22075,84962
8,22488,76611
8,22900,69099
8,23312,62745
8,23725,57053
8,24137,53711
8,24548,52034
8,24962,48612
8,25373,45116
8,25785,41325
8,26198,39630
8,26610,38847
8,27022,36671
8,27435,35331
8,27847,33405
8,28258,30670
8,28672,31515
8,29083,29240
8,29495,29445
8,29908,28399
8,30320,27722
8,30732,27334
8,31143,26155
8,31557,25312
8,31968,24953
8,32380,23894
8,32793,22473
8,33205,23763
8,33617,23167
8,34030,23381
8,34442,21834
8,34853,22234
8,35267,22091
8,35678,20855
8,36090,20065
8,36503,20821
8,36915,20437
8,37327,20219
8,37740,20438
8,38152,20744
8,38563,19279
8,38977,19106
8,39388,18630
8,39800,18883
8,40213,17880
8,40625,19424
8,41037,19088
8,41448,18153
8,41862,19379
8,42273,18952
8,42685,18480
8,43098,18747
8,43510,19276
8,43922,19324
8,44335,18934
8,44747,18367
8,45158,20738
8,45572,18895
8,45983,19270
8,46395,20246
8,46808,18832
8,47220,18598
8,47632,20088
8,48045,19170
8,48457,19410
8,48868,19950
8,49282,19865
8,49693,19540
8,50105,19026
8,50517,19013
8,50930,18008
8,51342,17908
8,51753,17101
8,52167,16135
8,52578,16837
8,52990,16927
8,53403,16928
8,53815,16367
8,54227,17393
8,54640,15887
8,55052,16171
8,55463,16705
8,55877,15419
8,56288,16678
8,56700,15002
8,57113,15862
8,57525,14377
8,57937,15944
8,58350,15355
8,58762,14828
8,59173,14392
8,59585,15893
8,59998,14080
8,60410,14468
8,60822,13476
8,61235,14755
8,61647,14617
8,62058,14880
8,62472,14811
8,62883,15296
8,63295,16506
8,63708,15791
8,64120,14891
8,64532,16438
8,64945,15584
8,65357,16211
8,65768,16585
8,66182,15073
8,66593,15732
8,67005,16295
8,67418,15755
8,67830,15809
8,68242,15396
8,68653,16160
8,69067,15353
8,69478,16089
8,69890,15533
8,70303,13208
8,70715,15627
8,71127,14854
8,71540,14221
8,71952,14430
8,72363,15326
8,72777,13779
8,73188,14279
8,73600,15059
8,74013,15030
8,74425,15618
8,74837,15177
8,75250,16117
8,75662,15318
8,76073,14659
8,76487,14690
8,76898,13520
8,77310,14235
8,77722,14608
8,78135,14573
8,78547,13934
8,78958,14739
8,79372,15999
8,79783,14787
8,80195,16607
8,80608,14857
8,81020,15368
8,81432,14381
8,81845,15432
8,82257,15535
8,82668,14632
8,83082,14915
8,83493,14844
8,83905,14323
8,84318,14524
8,84730,14334
8,85142,13453
8,85555,14075
8,85967,14842
8,86378,13410
8,86790,13633
8,87203,13422
8,87615,13662
8,88027,13117
8,88440,13782
8,88852,16383
8,89263,20263
8,89677,32366
8,90088,56734
8,90500,101627
8,90913,183933
8,91325,301392
8,91737,465283
8,92150,654459
8,92562,846414
8,92973,1022054
8,93387,1134395
8,93798,1178956
8,94210,1156107
8,94623,1049590
8,95035,928437
8,95447,787824
8,95858,631199
8,96272,512647
8,96683,407313
8,97095,322730
8,97508,254899
8,97920,202621
8,98332,159584
8,98745,135352
8,99157,106346
8,99568,89139
8,99982,76805
9,00393,62683
9,00805,59812
9,01218,52100
9,01630,45783
9,02042,44185
9,02455,40779
9,02867,37028
9,03278,34935
9,03692,32064
9,04103,30940
9,04515,30553
9,04927,29535
9,05340,28173
9,05752,26618
9,06163,26788
9,06577,25172
9,06988,24004
9,07400,25784
9,07813,23273
9,08225,22594
9,08637,23158
9,09050,24688
9,09462,22390
9,09873,23088
9,10287,21704
9,10698,20911
9,11110,21327
9,11523,19527
9,11935,18070
9,12347,18664
9,12760,18214
9,13172,18069
9,13583,16604
9,13995,16348
9,14408,17299
9,14820,16345
9,15232,16481
9,15645,15740
9,16057,16482
9,16468,17096
9,16882,15950
9,17293,15280
9,17705,15349
9,18118,14773
9,18530,15882
9,18942,14654
9,19355,14078
9,19767,14704
9,20178,14030
9,20592,12830
9,21003,14252
9,21415,15356
9,21828,14624
9,22240,16399
9,22652,17859
9,23063,20256
9,23477,18214
9,23888,18025
9,24300,19546
9,24713,20086
9,25125,18657
9,25537,18313
9,25950,16110
9,26362,14916
9,26773,14724
9,27187,14719
9,27598,14062
9,28010,14039
9,28423,14225
9,28835,12488
9,29247,13376
9,29660,12941
9,30072,12979
9,30483,12299
9,30897,12927
9,31308,13077
9,31720,13294
9,32132,12433
9,32545,12755
9,32957,12489
9,33368,11803
9,33782,11935
9,34193,12622
9,34605,11780
9,35018,12430
9,35430,11911
9,35842,11969
9,36255,12373
9,36667,11999
9,37078,12429
9,37492,10894
9,37903,11890
9,38315,12513
9,38728,11398
9,39140,10949
9,39552,13074
9,39965,10813
9,40377,11662
9,40788,12196
9,41200,10226
9,41613,11605
9,42025,11774
9,42437,12520
9,42850,10602
9,43262,12362
9,43673,12776
9,44087,11551
9,44498,11764
9,44910,10692
9,45323,10865
9,45735,10272
9,46147,12682
9,46560,10864
9,46972,11697
9,47383,11182
9,47797,11641
9,48208,12512
9,48620,12359
9,49033,11456
9,49445,11043
9,49857,10828
9,50268,12304
9,50682,11764
9,51093,10988
9,51505,11270
9,51918,11626
9,52330,11684
9,52742,11283
9,53155,11395
9,53567,11857
9,53978,11170
9,54392,12229
9,54803,11515
9,55215,11742
9,55628,12564
9,56040,12546
9,56452,10930
9,56865,12262
9,57277,12492
9,57688,11659
9,58102,11735
9,58513,12079
9,58925,12144
9,59337,14278
9,59750,11075
9,60162,11910
9,60573,12971
9,60987,11138
9,61398,11765
9,61810,10540
9,62223,12246
9,62635,12666
9,63047,9787
9,63460,10026
9,63872,11051
9,64283,10997
9,64697,10706
9,65108,10516
9,65520,11727
9,65933,10443
9,66345,12122
9,66757,12375
9,67170,10931
9,67582,11914
9,67993,12470
9,68405,11752
9,68818,12140
9,69230,14249
9,69642,26941
9,70055,47790
9,70467,96631
9,70878,195492
9,71292,361046
9,71703,640072
9,72115,1012255
9,72528,1471952
9,72940,1952203
9,73352,2380158
9,73765,2657360
9,74177,2711429
9,74588,2626725
9,75002,2394511
9,75413,2030432
9,75825,1642364
9,76238,1277461
9,76650,986800
9,77062,739775
9,77473,560670
9,77887,427222
9,78298,331342
9,78710,264774
9,79123,217524
9,79535,176279
9,79947,149995
9,80360,128332
9,80772,107741
9,81183,93936
9,81597,81719
9,82008,75094
9,82420,66481
9,82833,62059
9,83245,57273
9,83657,51885
9,84070,49608
9,84482,45499
9,84893,41033
9,85307,40868
9,85718,35817
9,86130,34084
9,86542,31664
9,86955,31283
9,87367,29148
9,87778,29053
9,88192,27014
9,88603,26577
9,89015,26365
9,89428,22947
9,89840,24152
9,90252,23276
9,90665,21400
9,91077,21179
9,91488,20900
9,91902,20122
9,92313,19303
9,92725,18385
9,93138,20092
9,93550,17267
9,93962,16954
9,94375,18414
9,94787,16884
9,95198,15257
9,95612,16979
9,96023,17435
9,96435,16041
9,96847,15981
9,97260,14972
9,97672,15801
9,98083,14280
9,98497,14956
9,98908,15190
9,99320,14703
9,99733,14137
10,00145,13743
10,00557,13943
10,00970,13705
10,01382,13838
10,01793,13308
10,02207,14484
10,02618,13031
10,03030,13958
10,03443,13926
10,03855,11688
10,04267,13082
10,04680,11799
10,05092,12066
10,05503,12322
10,05915,12338
10,06328,9920
10,06740,11047
10,07152,10839
10,07565,13456
10,07977,12560
10,08388,13333
10,08802,12690
10,09213,12948
10,09625,13931
10,10038,12601
10,10450,12893
10,10862,11333
10,11275,12680
10,11687,12636
10,12098,11465
10,12512,11182
10,12923,11810
10,13335,10764
10,13748,11299
10,14160,12520
10,14572,11200
10,14983,11756
10,15397,12479
10,15808,11078
10,16220,12013
10,16633,11462
10,17045,12431
10,17457,12742
10,17870,11850
10,18282,11769
10,18693,11359
10,19107,12387
10,19518,11907
10,19930,11595
10,20343,12666
10,20755,11726
10,21167,10483
10,21580,10309
10,21992,12103
10,22403,11854
10,22817,11266
10,23228,10352
10,23640,10685
10,24052,10923
10,24465,10050
10,24877,12714
10,25288,12028
10,25702,13568
10,26113,16261
10,26525,16323
10,26938,16249
10,27350,20185
10,27762,19000
10,28175,18763
10,28587,20002
10,28998,17312
10,29412,17642
10,29823,16691
10,30235,17068
10,30648,14843
10,31060,14461
10,31472,13955
10,31885,14683
10,32297,11882
10,32708,12378
10,33120,12089
10,33533,12249
10,33945,10058
10,34357,10610
10,34770,10841
10,35182,9945
10,35593,10560
10,36007,10153
10,36418,9762
10,36830,9990
10,37243,10085
10,37655,10108
10,38067,9950
10,38480,10086
10,38892,9731
10,39303,10354
10,39717,10423
10,40128,10815
10,40540,9679
10,40953,11007
10,41365,9707
10,41777,9558
10,42188,9725
10,42602,9825
10,43013,9066
10,43425,9010
10,43838,9010
10,44250,9344
10,44662,8935
10,45075,9905
10,45487,10236
10,45898,9311
10,46312,10155
10,46723,10405
10,47135,9695
10,47548,8663
10,47960,9912
10,48372,13121
10,48785,17940
10,49197,31419
10,49608,63686
10,50022,121065
10,50433,227775
10,50845,399255
10,51257,622895
10,51670,884385
10,52082,1171463
10,52493,1387251
10,52907,1505325
10,53318,1482721
10,53730,1368976
10,54143,1190790
10,54555,968476
10,54967,755256
10,55380,584768
10,55792,431334
10,56203,327058
10,56617,245480
10,57028,190829
10,57440,152807
10,57853,121842
10,58265,102166
10,58677,85821
10,59090,72121
10,59502,63338
10,59913,58032
10,60325,51628
10,60738,45672
10,61150,40404
10,61562,37744
10,61975,33085
10,62387,31798
10,62798,30522
10,63212,25751
10,63623,25050
10,64035,23483
10,64448,22348
10,64860,21025
10,65272,19792
10,65685,20248
10,66097,19521
10,66508,17683
10,66922,16823
10,67333,17248
10,67745,17505
10,68158,16356
10,68570,15610
10,68982,15629
10,69393,14510
10,69807,15060
10,70218,14779
10,70630,13655
10,71043,14339
10,71455,13813
10,71867,13283
10,72280,13386
10,72692,13908
10,73103,13080
10,73517,12154
10,73928,13227
10,74340,11445
10,74753,12295
10,75165,13031
10,75577,11963
10,75990,11181
10,76402,11317
10,76813,11830
10,77227,11756
10,77638,11939
10,78050,10771
10,78462,10706
10,78875,9787
10,79287,10111
10,79698,10966
10,80112,10392
10,80523,9595
10,80935,10112
10,81348,10327
10,81760,10255
10,82172,9334
10,82585,9338
10,82997,10808
10,83408,11573
10,83822,9450
10,84233,10808
10,84645,10149
10,85058,9206
10,85470,9988
10,85882,9137
10,86295,10233
10,86707,11558
10,87118,10500
10,87530,10674
10,87943,9823
10,88355,9286
10,88767,10551
10,89180,10843
10,89592,10750
10,90003,12414
10,90417,13098
10,90828,14961
10,91240,15728
10,91653,15507
10,92065,16421
10,92477,14986
10,92890,13652
10,93302,13457
10,93713,12528
10,94127,11092
10,94538,11959
10,94950,10864
10,95363,10904
10,95775,11567
10,96187,8880
10,96598,10492
10,97012,9317
10,97423,10802
10,97835,9207
10,98248,9181
10,98660,9265
10,99072,9471
10,99485,8664
10,99897,8551
11,00308,8577
11,00722,8091
11,01133,8212
11,01545,9187
11,01958,7717
11,02370,8761
11,02782,10090
11,03195,9161
11,03607,8541
11,04018,10921
11,04432,12060
11,04843,12684
11,05255,14340
11,05667,16059
11,06080,17568
11,06492,18721
11,06903,18533
11,07317,17546
11,07728,17029
11,08140,17259
11,08553,15474
11,08965,13587
11,09377,13472
11,09790,11703
11,10202,12404
11,10613,10586
11,11027,11965
11,11438,9633
11,11850,11228
11,12263,10610
11,12675,10721
11,13087,11016
11,13500,11607
11,13912,10811
11,14323,11421
11,14735,10874
11,15148,10782
11,15560,9278
11,15972,10372
11,16385,9733
11,16797,9831
11,17208,10612
11,17622,9527
11,18033,8792
11,18445,9553
11,18858,9349
11,19270,8736
11,19682,7677
11,20095,8399
11,20507,9048
11,20918,9577
11,21332,9324
11,21743,7534
11,22155,9593
11,22568,8643
11,22980,8334
11,23392,7889
11,23803,9125
11,24217,9440
11,24628,9523
11,25040,11273
11,25453,17665
11,25865,36398
11,26277,72201
11,26690,167396
11,27102,338268
11,27513,636108
11,27927,1081378
11,28338,1645453
11,28750,2268989
11,29163,2838337
11,29575,3196805
11,29987,3294813
11,30400,3132414
11,30812,2774916
11,31223,2287479
11,31637,1799582
11,32048,1346834
11,32460,994256
11,32872,731639
11,33285,548725
11,33697,416590
11,34108,329862
11,34522,265896
11,34933,216829
11,35345,184967
11,35758,157163
11,36170,136598
11,36582,119932
11,36995,107507
11,37407,93083
11,37818,82455
11,38232,76298
11,38643,66031
11,39055,60339
11,39468,55134
11,39880,46541
11,40292,46229
11,40705,43600
11,41117,38267
11,41528,38785
11,41940,36207
11,42353,32773
11,42765,31001
11,43177,29440
11,43590,27690
11,44002,26709
11,44413,24563
11,44827,24284
11,45238,22896
11,45650,24474
11,46063,22622
11,46475,21650
11,46887,21069
11,47300,21723
11,47712,20113
11,48123,19639
11,48537,20631
11,48948,20843
11,49360,21263
11,49773,22425
11,50185,23229
11,50597,23818
11,51008,23355
11,51422,23229
11,51833,22683
11,52245,22621
11,52658,19615
11,53070,18782
11,53482,17657
11,53895,17332
11,54307,15137
11,54718,15026
11,55132,14309
11,55543,13166
11,55955,12130
11,56368,13443
11,56780,13112
11,57192,13047
11,57605,12611
11,58017,12331
11,58428,11280
11,58842,11432
11,59253,12919
11,59665,11283
11,60078,10948
11,60490,11823
11,60902,11209
11,61313,10863
11,61727,11538
11,62138,10183
11,62550,10766
11,62963,10726
11,63375,12326
11,63787,12197
11,64200,11681
11,64612,13481
11,65023,13624
11,65437,14330
11,65848,15065
11,66260,15499
11,66673,16176
11,67085,15121
11,67497,16135
11,67910,15124
11,68322,13580
11,68733,12036
11,69147,10949
11,69558,12017
11,69970,11097
11,70382,10672
11,70795,10789
11,71207,9117
11,71618,10509
11,72032,10298
11,72443,10626
11,72855,10532
11,73268,9659
11,73680,9873
11,74092,9874
11,74505,8581
11,74917,9410
11,75328,7834
11,75742,8723
11,76153,8824
11,76565,9550
11,76978,8224
11,77390,9121
11,77802,9262
11,78215,8736
11,78627,9463
11,79038,13206
11,79450,18058
11,79863,31690
11,80275,62379
11,80687,124897
11,81100,245732
11,81512,429149
11,81923,671026
11,82337,953500
11,82748,1223084
11,83160,1446621
11,83573,1535065
11,83985,1515125
11,84397,1362349
11,84810,1168780
11,85222,936405
11,85633,730640
11,86047,544746
11,86458,405317
11,86870,311245
11,87283,236100
11,87695,188155
11,88107,151857
11,88518,129738
11,88932,113414
11,89343,101722
11,89755,88211
11,90168,79130
11,90580,71691
11,90992,64717
11,91405,54851
11,91817,49728
11,92228,44132
11,92642,38796
11,93053,35233
11,93465,32862
11,93878,31519
11,94290,30138
11,94702,26127
11,95115,26465
11,95527,23610
11,95938,22244
11,96352,22336
11,96763,20436
11,97175,18517
11,97587,19587
11,98000,17500
11,98412,18207
11,98823,16680
11,99237,17573
11,99648,22050
12,00060,34093
12,00473,67968
12,00885,129737
12,01297,256285
12,01710,456278
12,02122,738746
12,02533,1062449
12,02947,1368768
12,03358,1620862
12,03770,1737395
12,04183,1727004
12,04595,1559765
12,05007,1330204
12,05420,1058266
12,05832,811051
12,06243,601376
12,06655,441240
12,07068,330318
12,07480,250846
12,07892,190759
12,08305,156043
12,08717,124769
12,09128,104758
12,09542,88061
12,09953,75085
12,10365,66113
12,10778,56877
12,11190,52354
12,11602,46169
12,12015,41759
12,12427,36951
12,12838,37077
12,13252,34477
12,13663,31432
12,14075,30298
12,14488,26565
12,14900,27266
12,15312,24072
12,15723,24473
12,16137,21951
12,16548,19888
12,16960,20108
12,17373,18960
12,17785,18316
12,18197,16842
12,18610,17828
12,19022,17961
12,19433,15426
12,19847,18252
12,20258,15952
12,20670,14848
12,21083,15105
12,21495,15227
12,21907,15020
12,22320,14286
12,22732,14200
12,23143,14088
12,23557,13339
12,23968,14206
12,24380,13293
12,24792,12845
12,25205,12510
12,25617,11488
12,26028,12233
12,26442,11825
12,26853,10684
12,27265,12977
12,27678,10914
12,28090,12492
12,28502,11584
12,28915,11836
12,29327,10117
12,29738,11457
12,30152,10149
12,30563,11095
12,30975,10682
12,31388,10290
12,31800,10123
12,32212,11242
12,32625,11450
12,33037,9668
12,33448,11009
12,33860,10405
12,34273,9252
12,34685,8934
12,35097,9752
12,35510,9390
12,35922,10583
12,36333,11076
12,36747,8903
12,37158,10090
12,37570,10174
12,37983,10304
12,38395,11177
12,38807,10438
12,39220,9711
12,39632,9679
12,40043,10228
12,40457,11254
12,40868,9973
12,41280,9033
12,41693,9639
12,42105,9779
12,42517,9423
12,42928,8656
12,43342,10439
12,43753,10701
12,44165,10437
12,44578,9347
12,44990,9824
12,45402,11144
12,45815,9423
12,46227,10848
12,46638,9972
12,47052,10250
12,47463,9401
12,47875,10183
12,48288,9174
12,48700,9437
12,49112,7571
12,49525,8071
12,49937,8598
12,50348,9006
12,50762,8577
12,51173,9300
12,51585,9294
12,51997,11681
12,52410,17187
12,52822,32467
12,53233,68048
12,53647,136328
12,54058,261264
12,54470,461628
12,54883,732479
12,55295,1054990
12,55707,1372097
12,56120,1578041
12,56532,1658079
12,56943,1607302
12,57357,1440158
12,57768,1192763
12,58180,952440
12,58593,734204
12,59005,548044
12,59417,404768
12,59830,306462
12,60242,233560
12,60653,183007
12,61065,146237
12,61478,121968
12,61890,98932
12,62302,84170
12,62715,73329
12,63127,63244
12,63538,56720
12,63952,49670
12,64363,47766
12,64775,41999
12,65188,39772
12,65600,35835
12,66012,33786
12,66425,29885
12,66837,28991
12,67248,27780
12,67662,25499
12,68073,25185
12,68485,22101
12,68898,23934
12,69310,21678
12,69722,22371
12,70133,22191
12,70547,26392
12,70958,40256
12,71370,78421
12,71783,162449
12,72195,341701
12,72607,695544
12,73020,1233885
12,73432,2011742
12,73843,2964745
12,74257,4011069
12,74668,4865124
12,75080,5463554
12,75493,5653857
12,75905,5310323
12,76317,4560163
12,76730,3703130
12,77142,2824980
12,77553,2085986
12,77967,1500821
12,78378,1094068
12,78790,825355
12,79202,616981
12,79615,486358
12,80027,394403
12,80438,319296
12,80852,265928
12,81263,227104
12,81675,197087
12,82088,173177
12,82500,151423
12,82912,133534
12,83325,116233
12,83737,108106
12,84148,97580
12,84562,93723
12,84973,85148
12,85385,75407
12,85798,69698
12,86210,65477
12,86622,58863
12,87035,56520
12,87447,56156
12,87858,49565
12,88270,47945
12,88683,41464
12,89095,42434
12,89507,41398
12,89920,38749
12,90332,35854
12,90743,34461
12,91157,32727
12,91568,31954
12,91980,29663
12,92393,28046
12,92805,29293
12,93217,27092
12,93630,27813
12,94042,27192
12,94453,23284
12,94867,23523
12,95278,22314
12,95690,21788
12,96103,22786
12,96515,21791
12,96927,20541
12,97338,20529
12,97752,19511
12,98163,19911
12,98575,18140
12,98988,19260
12,99400,18001
12,99812,16253
13,00225,17170
13,00637,17259
13,01048,18222
13,01462,18140
13,01873,17768
13,02285,17726
13,02698,19135
13,03110,17769
13,03522,17121
13,03935,17525
13,04347,17715
13,04758,17072
13,05172,15017
13,05583,16642
13,05995,16485
13,06407,14700
13,06820,13682
13,07232,13166
13,07643,14779
13,08057,12984
13,08468,14146
13,08880,14254
13,09293,15340
13,09705,15152
13,10117,16836
13,10530,16712
13,10942,15258
13,11353,15247
13,11767,13641
13,12178,15985
13,12590,14432
13,13003,19374
13,13415,28853
13,13827,52826
13,14240,100278
13,14652,195727
13,15063,361179
13,15475,607519
13,15888,914117
13,16300,1247677
13,16712,1533217
13,17125,1722113
13,17537,1738537
13,17948,1623791
13,18362,1403067
13,18773,1130094
13,19185,886409
13,19598,670411
13,20010,500386
13,20422,379496
13,20835,286150
13,21247,227452
13,21658,181229
13,22072,146489
13,22483,122741
13,22895,103028
13,23308,88204
13,23720,77542
13,24132,73048
13,24545,65396
13,24957,60878
13,25368,58894
13,25780,57022
13,26193,54905
13,26605,49902
13,27017,45579
13,27430,43810
13,27842,41771
13,28253,39833
13,28667,39483
13,29078,38566
13,29490,38479
13,29903,39555
13,30315,41309
13,30727,38126
13,31140,37055
13,31552,36988
13,31963,32560
13,32377,30885
13,32788,30142
13,33200,26759
13,33613,24033
13,34025,22491
13,34437,22000
13,34848,19825
13,35262,20502
13,35673,19119
13,36085,19076
13,36498,19217
13,36910,17510
13,37322,17221
13,37735,19012
13,38147,19417
13,38558,20129
13,38972,23437
13,39383,34335
13,39795,59928
13,40208,107010
13,40620,219474
13,41032,412787
13,41445,702283
13,41857,1070424
13,42268,1477958
13,42682,1806686
13,43093,2002971
13,43505,1995710
13,43917,1843618
13,44330,1566283
13,44742,1257751
13,45153,955091
13,45567,728762
13,45978,536671
13,46390,402737
13,46803,303778
13,47215,234952
13,47627,191620
13,48040,155645
13,48452,129184
13,48863,107928
13,49277,96489
13,49688,85483
13,50100,75769
13,50513,68623
13,50925,64803
13,51337,56654
13,51750,51324
13,52162,46830
13,52573,43544
13,52985,41460
13,53398,39819
13,53810,35336
13,54222,34597
13,54635,30666
13,55047,30202
13,55458,27598
13,55872,28488
13,56283,25646
13,56695,25560
13,57108,25462
13,57520,22823
13,57932,20840
13,58345,23252
13,58757,22026
13,59168,21860
13,59582,21524
13,59993,20032
13,60405,21517
13,60818,21856
13,61230,20106
13,61642,20257
13,62053,19909
13,62467,20650
13,62878,17805
13,63290,16745
13,63703,17992
13,64115,18513
13,64527,16931
13,64940,16211
13,65352,16553
13,65763,15370
13,66177,15127
13,66588,15638
13,67000,15562
13,67413,14243
13,67825,15465
13,68237,16592
13,68650,13984
13,69062,15932
13,69473,14394
13,69887,14966
13,70298,15375
13,70710,15026
13,71122,15604
13,71535,13616
13,71947,13152
13,72358,14643
13,72772,13602
13,73183,12863
13,73595,13604
13,74008,15384
13,74420,14003
13,74832,14880
13,75245,13052
13,75657,12897
13,76068,12888
13,76482,13429
13,76893,13809
13,77305,14461
13,77718,12719
13,78130,12197
13,78542,14099
13,78955,13774
13,79367,13271
13,79778,15090
13,80190,20740
13,80603,30418
13,81015,54948
13,81427,111752
13,81840,226413
13,82252,413479
13,82663,686637
13,83077,1008805
13,83488,1385800
13,83900,1706475
13,84313,1900302
13,84725,1909692
13,85137,1757879
13,85550,1494036
13,85962,1199940
13,86373,920912
13,86787,695990
13,87198,517970
13,87610,391781
13,88023,297332
13,88435,237734
13,88847,190849
13,89258,154411
13,89672,131596
13,90083,111653
13,90495,93645
13,90908,85714
13,91320,73516
13,91732,66769
13,92145,63646
13,92557,56987
13,92968,52205
13,93382,47540
13,93793,45800
13,94205,42673
13,94618,39092
13,95030,36291
13,95442,34918
13,95855,33902
13,96267,31355
13,96678,30427
13,97092,30633
13,97503,27999
13,97915,26751
13,98327,25343
13,98740,24363
13,99152,24982
13,99563,24273
13,99977,23184
14,00388,22571
14,00800,22503
14,01213,21547
14,01625,21424
14,02037,19238
14,02450,20076
14,02862,18526
14,03273,19776
14,03687,19557
14,04098,20738
14,04510,24638
14,04923,34308
14,05335,62197
14,05747,126637
14,06160,265965
14,06572,516833
14,06983,931541
14,07395,1542757
14,07808,2296758
14,08220,3126348
14,08632,3883332
14,09045,4344858
14,09457,4408481
14,09868,4143149
14,10282,3590235
14,10693,2888732
14,11105,2206461
14,11518,1627538
14,11930,1208788
14,12342,895720
14,12755,682586
14,13167,528851
14,13578,421847
14,13992,344631
14,14403,292499
14,14815,246999
14,15228,210784
14,15640,187939
14,16052,165698
14,16463,148444
14,16877,130739
14,17288,120872
14,17700,109566
14,18113,99195
14,18525,89019
14,18937,87092
14,19350,77425
14,19762,72581
14,20173,69133
14,20587,64888
14,20998,61666
14,21410,58526
14,21823,55638
14,22235,53478
14,22647,50855
14,23060,47957
14,23472,46526
14,23883,45335
14,24297,41924
14,24708,40267
14,25120,41002
14,25532,36448
14,25945,35176
14,26357,35478
14,26768,36284
14,27182,38032
14,27593,42678
14,28005,55086
14,28418,89378
14,28830,158672
14,29242,296271
14,29655,525198
14,30067,830930
14,30478,1206092
14,30892,1584663
14,31303,1878549
14,31715,2041361
14,32128,2011637
14,32540,1843165
14,32952,1577033
14,33365,1282402
14,33777,1007443
14,34188,768414
14,34600,582835
14,35013,446086
14,35425,344919
14,35837,276146
14,36250,226575
14,36662,183924
14,37073,158525
14,37487,135652
14,37898,120878
14,38310,108780
14,38723,99105
14,39135,91756
14,39547,94483
14,39960,117858
14,40372,174072
14,40783,295865
14,41197,541237
14,41608,947287
14,42020,1543804
14,42433,2272081
14,42845,3028272
14,43257,3694239
14,43668,4142728
14,44082,4167159
14,44493,3860333
14,44905,3334785
14,45318,2668039
14,45730,2071423
14,46142,1551941
14,46555,1170908
14,46967,870568
14,47378,666824
14,47792,529399
14,48203,419897
14,48615,344639
14,49028,290237
14,49440,256399
14,49852,214690
14,50265,190661
14,50677,170153
14,51088,153871
14,51502,137985
14,51913,124392
14,52325,117120
14,52737,107879
14,53150,97645
14,53562,94793
14,53973,84578
14,54387,81372
14,54798,76432
14,55210,73236
14,55623,69883
14,56035,64691
14,56447,62200
14,56860,57779
14,57272,57010
14,57683,53161
14,58097,50644
14,58508,47405
14,58920,48416
14,59333,49557
14,59745,44382
14,60157,40909
14,60570,40295
14,60982,38494
14,61393,38160
14,61805,38767
14,62218,36637
14,62630,36936
14,63042,36925
14,63455,35354
14,63867,34755
14,64278,37380
14,64692,42828
14,65103,61052
14,65515,96904
14,65928,180981
14,66340,333545
14,66752,578304
14,67165,911878
14,67577,1270524
14,67988,1670552
14,68402,1972994
14,68813,2207764
14,69225,2405045
14,69638,2601202
14,70050,2889031
14,70462,3390863
14,70873,3946909
14,71287,4493279
14,71698,4843089
14,72110,4789032
14,72523,4370850
14,72935,3672768
14,73347,2923754
14,73760,2221741
14,74172,1656676
14,74583,1249646
14,74997,953174
14,75408,736613
14,75820,595231
14,76233,487421
14,76645,408379
14,77057,349031
14,77470,300267
14,77882,267144
14,78293,236470
14,78707,211559
14,79118,195515
14,79530,171792
14,79942,161900
14,80355,145389
14,80767,132884
14,81178,126816
14,81592,116865
14,82003,115089
14,82415,108280
14,82828,100294
14,83240,94544
14,83652,90701
14,84065,90172
14,84477,84520
14,84888,78974
14,85302,77359
14,85713,71522
14,86125,68806
14,86538,67392
14,86950,66407
14,87362,62618
14,87775,61036
14,88187,59697
14,88598,54897
14,89012,54966
14,89423,53256
14,89835,49676
14,90247,48773
14,90660,47473
14,91072,46390
14,91483,47913
14,91897,52591
14,92308,66423
14,92720,102049
14,93133,167432
14,93545,305231
14,93957,516009
14,94370,806890
14,94782,1158143
14,95193,1493661
14,95607,1709063
14,96018,1830506
14,96430,1772348
14,96843,1577109
14,97255,1328915
14,97667,1047242
14,98080,810968
14,98492,631818
14,98903,483401
14,99315,380706
14,99728,299871
15,00140,238146
15,00552,198246
15,00965,168278
15,01377,143117
15,01788,128851
15,02202,113883
15,02613,104607
15,03025,94777
15,03438,86953
15,03850,80669
15,04262,79522
15,04675,73197
15,05087,71074
15,05498,66726
15,05912,64190
15,06323,60273
15,06735,57913
15,07148,54301
15,07560,50130
15,07972,49812
15,08383,46668
15,08797,45030
15,09208,44549
15,09620,43970
15,10033,41433
15,10445,40380
15,10857,41356
15,11270,38056
15,11682,39539
15,12093,37953
15,12507,37042
15,12918,34949
15,13330,37423
15,13743,32005
15,14155,34017
15,14567,33031
15,14980,32867
15,15392,33350
15,15803,32838
15,16217,31749
15,16628,30754
15,17040,30639
15,17452,31687
15,17865,31633
15,18277,32557
15,18688,31799
15,19102,30312
15,19513,29296
15,19925,29732
15,20338,30009
15,20750,29294
15,21162,30553
15,21575,30177
15,21987,28890
15,22398,28834
15,22812,28429
15,23223,28534
15,23635,26293
15,24048,25609
15,24460,28814
15,24872,27541
15,25285,25341
15,25697,27649
15,26108,27411
15,26520,25172
15,26933,25988
15,27345,27085
15,27757,31874
15,28170,44434
15,28582,79820
15,28993,162524
15,29407,344994
15,29818,695228
15,30230,1259484
15,30643,2101825
15,31055,3187841
15,31467,4394634
15,31880,5487991
15,32292,6242201
15,32703,6473160
15,33117,6118097
15,33528,5385322
15,33940,4399205
15,34353,3447028
15,34765,2627712
15,35177,1974675
15,35588,1500536
15,36002,1161362
15,36413,905515
15,36825,731731
15,37238,603586
15,37650,511627
15,38062,437064
15,38475,377412
15,38887,334948
15,39298,298340
15,39712,265374
15,40123,240056
15,40535,217955
15,40948,197060
15,41360,185287
15,41772,168281
15,42185,157298
15,42597,148428
15,43008,139265
15,43422,126450
15,43833,122982
15,44245,112740
15,44657,108598
15,45070,104444
15,45482,98560
15,45893,93296
15,46307,86999
15,46718,83076
15,47130,84059
15,47543,78561
15,47955,77585
15,48367,77461
15,48780,73593
15,49192,68913
15,49603,66199
15,50017,66114
15,50428,65173
15,50840,63746
15,51253,67992
15,51665,76767
15,52077,92127
15,52490,131072
15,52902,205467
15,53313,341419
15,53725,551030
15,54138,817804
15,54550,1111001
15,54962,1377869
15,55375,1553755
15,55787,1615682
15,56198,1541070
15,56612,1391425
15,57023,1158999
15,57435,931852
15,57848,733024
15,58260,565754
15,58672,438918
15,59085,345484
15,59497,278177
15,59908,226290
15,60322,199848
15,60733,182263
15,61145,185029
15,61558,219736
15,61970,314193
15,62382,493823
15,62793,767527
15,63207,1129775
15,63618,1546586
15,64030,1940864
15,64443,2209729
15,64855,2273548
15,65267,2173136
15,65680,1934221
15,66092,1599581
15,66503,1278108
15,66917,1008002
15,67328,782956
15,67740,620579
15,68153,486491
15,68565,402221
15,68977,330779
15,69390,285607
15,69802,247219
15,70213,219200
15,70627,195474
15,71038,178074
15,71450,157769
15,71862,146858
15,72275,132427
15,72687,125766
15,73098,115940
15,73512,111096
15,73923,100628
15,74335,98694
15,74748,93731
15,75160,88955
15,75572,82263
15,75985,80569
15,76397,77865
15,76808,75644
15,77222,72520
15,77633,66445
15,78045,65657
15,78458,67712
15,78870,65526
15,79282,60894
15,79695,59307
15,80107,58719
15,80518,53877
15,80930,55312
15,81343,54279
15,81755,55287
15,82167,50804
15,82580,52966
15,82992,51382
15,83403,50446
15,83817,48021
15,84228,50264
15,84640,50219
15,85053,48685
15,85465,51191
15,85877,55449
15,86290,76754
15,86702,118076
15,87113,209157
15,87527,382044
15,87938,666857
15,88350,1071766
15,88763,1546223
15,89175,2000007
15,89587,2333807
15,89998,2489497
15,90412,2402970
15,90823,2138804
15,91235,1793904
15,91648,1432418
15,92060,1121778
15,92472,880134
15,92885,689971
15,93297,549007
15,93708,449063
15,94122,377060
15,94533,327652
15,94945,277563
15,95358,246838
15,95770,220417
15,96182,200817
15,96595,179039
15,97007,163553
15,97418,154860
15,97832,139827
15,98243,134814
15,98655,126152
15,99067,119404
15,99480,112190
15,99892,110421
16,00303,102991
16,00717,102900
16,01128,98973
16,01540,94325
16,01953,91847
16,02365,89159
16,02777,84727
16,03190,78535
16,03602,79978
16,04013,76013
16,04427,72225
16,04838,70327
16,05250,69426
16,05663,68503
16,06075,66768
16,06487,64735
16,06900,64389
16,07312,67004
16,07723,61404
16,08135,62044
16,08548,55025
16,08960,56452
16,09372,57088
16,09785,61804
16,10197,65058
16,10608,81762
16,11022,124258
16,11433,211291
16,11845,362311
16,12258,606547
16,12670,940585
16,13082,1328017
16,13495,1663813
16,13907,1889862
16,14318,1969926
16,14732,1879943
16,15143,1661485
16,15555,1396940
16,15968,1137249
16,16380,889330
16,16792,702987
16,17203,552846
16,17617,453621
16,18028,361565
16,18440,303475
16,18853,257478
16,19265,220382
16,19677,200227
16,20090,177979
16,20502,159149
16,20913,144282
16,21327,134391
16,21738,127628
16,22150,117913
16,22563,113508
16,22975,103049
16,23387,96068
16,23800,95524
16,24212,88322
16,24623,82740
16,25037,81667
16,25448,79487
16,25860,76343
16,26272,75142
16,26685,71436
16,27097,70442
16,27508,68566
16,27922,65049
16,28333,66205
16,28745,63226
16,29158,61809
16,29570,61864
16,29982,59215
16,30395,56711
16,30807,57755
16,31218,58068
16,31632,55813
16,32043,57720
16,32455,55151
16,32868,54885
16,33280,52502
16,33692,54306
16,34105,53832
16,34517,51852
16,34928,53122
16,35340,49821
16,35753,50897
16,36165,50748
16,36577,50309
16,36990,47209
16,37402,50373
16,37813,49481
16,38227,48383
16,38638,48317
16,39050,49620
16,39463,49105
16,39875,47449
16,40287,47804
16,40700,46473
16,41112,45781
16,41523,46872
16,41937,48498
16,42348,48282
16,42760,60746
16,43173,77020
16,43585,123118
16,43997,213527
16,44410,381653
16,44822,690042
16,45233,1139686
16,45645,1778992
16,46058,2557690
16,46470,3438439
16,46882,4258215
16,47295,4885747
16,47707,5161368
16,48118,5120412
16,48532,4835608
16,48943,4412509
16,49355,3995768
16,49768,3606671
16,50180,3249614
16,50592,2916488
16,51005,2539494
16,51417,2165982
16,51828,1790889
16,52242,1471382
16,52653,1207424
16,53065,998296
16,53478,822259
16,53890,696497
16,54302,586848
16,54713,519743
16,55127,461297
16,55538,413149
16,55950,372161
16,56363,338398
16,56775,310457
16,57187,282893
16,57600,265534
16,58012,251712
16,58423,224374
16,58837,217454
16,59248,204185
16,59660,190510
16,60073,184234
16,60485,176823
16,60897,162393
16,61310,156820
16,61722,151013
16,62133,144316
16,62547,139356
16,62958,138265
16,63370,129654
16,63782,125750
16,64195,123156
16,64607,118952
16,65018,117866
16,65432,114724
16,65843,110805
16,66255,107588
16,66668,106060
16,67080,108255
16,67492,109350
16,67905,109595
16,68317,121263
16,68728,154956
16,69142,208077
16,69553,315639
16,69965,474046
16,70378,703712
16,70790,997982
16,71202,1297931
16,71615,1532919
16,72027,1682515
16,72438,1717443
16,72850,1631918
16,73263,1466277
16,73675,1256970
16,74087,1059555
16,74500,913168
16,74912,831270
16,75323,832786
16,75737,935801
16,76148,1142864
16,76560,1430124
16,76973,1794683
16,77385,2178581
16,77797,2576519
16,78210,2934202
16,78622,3190130
16,79033,3298679
16,79447,3246371
16,79858,3075589
16,80270,2766876
16,80683,2392487
16,81095,2006330
16,81507,1638114
16,81918,1349322
16,82332,1104059
16,82743,912814
16,83155,775070
16,83568,661421
16,83980,574374
16,84392,507172
16,84805,451195
16,85217,405326
16,85628,367809
16,86042,336742
16,86453,311920
16,86865,286692
16,87278,265336
16,87690,248454
16,88102,231057
16,88515,214695
16,88927,202004
16,89338,196067
16,89752,182843
16,90163,172941
16,90575,165664
16,90987,159999
16,91400,151803
16,91812,145098
16,92223,141875
16,92637,136468
16,93048,131978
16,93460,126150
16,93873,125073
16,94285,119414
16,94697,116003
16,95110,113407
16,95522,107261
16,95933,103388
16,96347,102785
16,96758,102220
16,97170,100089
16,97583,96308
16,97995,95585
16,98407,88764
16,98820,90768
16,99232,96116
16,99643,98180
17,00055,115129
17,00468,148426
17,00880,203557
17,01292,311783
17,01705,484626
17,02117,745369
17,02528,1088811
17,02942,1458972
17,03353,1795021
17,03765,2041303
17,04178,2186954
17,04590,2129021
17,05002,1955924
17,05415,1706581
17,05827,1424892
17,06238,1191052
17,06652,985574
17,07063,822892
17,07475,694632
17,07888,599776
17,08300,510151
17,08712,448785
17,09123,398486
17,09537,357899
17,09948,323241
17,10360,303455
17,10773,283473
17,11185,257435
17,11597,242854
17,12010,220995
17,12422,208322
17,12833,196346
17,13247,187413
17,13658,175858
17,14070,168769
17,14483,165338
17,14895,158644
17,15307,157292
17,15720,153626
17,16132,152349
17,16543,146912
17,16957,140004
17,17368,139113
17,17780,133975
17,18192,128671
17,18605,121878
17,19017,119530
17,19428,115510
17,19842,111153
17,20253,105624
17,20665,104476
17,21078,103556
17,21490,98789
17,21902,95215
17,22315,93318
17,22727,91096
17,23138,93247
17,23552,85824
17,23963,89073
17,24375,85086
17,24788,86523
17,25200,88209
17,25612,84768
17,26025,88459
17,26437,98322
17,26848,116201
17,27260,154700
17,27673,231837
17,28085,355639
17,28497,546310
17,28910,797705
17,29322,1086072
17,29733,1379769
17,30147,1608214
17,30558,1765877
17,30970,1782194
17,31383,1687322
17,31795,1528536
17,32207,1330042
17,32620,1131411
17,33032,943603
17,33443,794697
17,33857,663993
17,34268,565954
17,34680,483274
17,35093,414045
17,35505,369507
17,35917,329899
17,36328,300578
17,36742,279977
17,37153,277611
17,37565,300682
17,37978,349423
17,38390,440923
17,38802,574381
17,39215,743591
17,39627,943135
17,40038,1127317
17,40452,1272314
17,40863,1350050
17,41275,1358054
17,41688,1299629
17,42100,1195466
17,42512,1049902
17,42925,899368
17,43337,765488
17,43748,640891
17,44162,539340
17,44573,455182
17,44985,393088
17,45397,340239
17,45810,298052
17,46222,264523
17,46633,239846
17,47047,215110
17,47458,199800
17,47870,187398
17,48283,173760
17,48695,163162
17,49107,152562
17,49520,146010
17,49932,140093
17,50343,132755
17,50757,128824
17,51168,123147
17,51580,116868
17,51993,113789
17,52405,111104
17,52817,106706
17,53230,104031
17,53642,101647
17,54053,104296
17,54465,97427
17,54878,92338
17,55290,95179
17,55702,88454
17,56115,90055
17,56527,85898
17,56938,84896
17,57352,88844
17,57763,85918
17,58175,91499
17,58588,96962
17,59000,114264
17,59412,145072
17,59825,200388
17,60237,311897
17,60648,478135
17,61062,746606
17,61473,1088763
17,61885,1554713
17,62298,2102896
17,62710,2694671
17,63122,3248494
17,63533,3630456
17,63947,3854706
17,64358,3780388
17,64770,3522283
17,65183,3095205
17,65595,2632080
17,66007,2204529
17,66420,1831467
17,66832,1520892
17,67243,1270913
17,67657,1090177
17,68068,945397
17,68480,827187
17,68893,725419
17,69305,653151
17,69717,589978
17,70130,538158
17,70542,491236
17,70953,445264
17,71367,418143
17,71778,388978
17,72190,361152
17,72602,339882
17,73015,319136
17,73427,301020
17,73838,284364
17,74252,273701
17,74663,255704
17,75075,243730
17,75488,237206
17,75900,224292
17,76312,218258
17,76725,208260
17,77137,196791
17,77548,191036
17,77962,184842
17,78373,178644
17,78785,172124
17,79198,168497
17,79610,164023
17,80022,158052
17,80435,151094
17,80847,150592
17,81258,144229
17,81670,142760
17,82083,136980
17,82495,134741
17,82907,133204
17,83320,131041
17,83732,124466
17,84143,124184
17,84557,119775
17,84968,117185
17,85380,118070
17,85793,116515
17,86205,112599
17,86617,107457
17,87030,110081
17,87442,105730
17,87853,103165
17,88267,101480
17,88678,99672
17,89090,98302
17,89503,97067
17,89915,95479
17,90327,97652
17,90738,94716
17,91152,95724
17,91563,93745
17,91975,93148
17,92388,93682
17,92800,90427
17,93212,95898
17,93625,96232
17,94037,108757
17,94448,128056
17,94862,172393
17,95273,228142
17,95685,329356
17,96098,472363
17,96510,670038
17,96922,911384
17,97335,1168235
17,97747,1400444
17,98158,1596488
17,98572,1703364
17,98983,1723089
17,99395,1630752
17,99807,1510769
18,00220,1351489
18,00632,1185092
18,01043,1016458
18,01457,880825
18,01868,763533
18,02280,654308
18,02693,579987
18,03105,519597
18,03517,462288
18,03930,418925
18,04342,384543
18,04753,350051
18,05167,323526
18,05578,300440
18,05990,276233
18,06403,265263
18,06815,251052
18,07227,232027
18,07640,221528
18,08052,212404
18,08463,201080
18,08877,190285
18,09288,182166
18,09700,176029
18,10112,170738
18,10525,165875
18,10937,158447
18,11348,158252
18,11762,148719
18,12173,143682
18,12585,140060
18,12998,140295
18,13410,133441
18,13822,129577
18,14235,131231
18,14647,125654
18,15058,119229
18,15472,119791
18,15883,115881
18,16295,114282
18,16708,114371
18,17120,106502
18,17532,107428
18,17945,102151
18,18357,101283
18,18768,102521
18,19180,99200
18,19593,100016
18,20005,96185
18,20417,91113
18,20830,94510
18,21242,93814
18,21653,91481
18,22067,89163
18,22478,90589
18,22890,85506
18,23303,88479
18,23715,87217
18,24127,83986
18,24540,84626
18,24952,81713
18,25363,83987
18,25777,82063
18,26188,81445
18,26600,79393
18,27013,80304
18,27425,76891
18,27837,77281
18,28248,75868
18,28662,75184
18,29073,71514
18,29485,74479
18,29898,74698
18,30310,71598
18,30722,71555
18,31135,73235
18,31547,71268
18,31958,73820
18,32372,71694
18,32783,73055
18,33195,69486
18,33608,70241
18,34020,69945
18,34432,68228
18,34845,68020
18,35257,67631
18,35668,65738
18,36082,66778
18,36493,64546
18,36905,65229
18,37317,65654
18,37730,65799
18,38142,63686
18,38553,65753
18,38967,63370
18,39378,62138
18,39790,63956
18,40203,62659
18,40615,62314
18,41027,62920
18,41440,62210
18,41852,63824
18,42263,62320
18,42677,62105
18,43088,63206
18,43500,69404
18,43913,72577
18,44325,76150
18,44737,84492
18,45150,93880
18,45562,101344
18,45973,107874
18,46385,120079
18,46798,125152
18,47210,129992
18,47622,129670
18,48035,130869
18,48447,128687
18,48858,122903
18,49272,114506
18,49683,105938
18,50095,102190
18,50508,89644
18,50920,86825
18,51332,84460
18,51745,77857
18,52157,75410
18,52568,71948
18,52982,70131
18,53393,68277
18,53805,65948
18,54218,64971
18,54630,64395
18,55042,61559
18,55453,62722
18,55867,59215
18,56278,61414
18,56690,62957
18,57103,59829
18,57515,60223
18,57927,59144
18,58340,59633
18,58752,60034
18,59163,55399
18,59577,58068
18,59988,58366
18,60400,57459
18,60813,53910
18,61225,56535
18,61637,56017
18,62050,54640
18,62462,54810
18,62873,54665
18,63287,55724
18,63698,57933
18,64110,54962
18,64522,57914
18,64935,53043
18,65347,55614
18,65758,54582
18,66172,55114
18,66583,52963
18,66995,54813
18,67408,54795
18,67820,50620
18,68232,51540
18,68645,53379
18,69057,54575
18,69468,52341
18,69882,54411
18,70293,53203
18,70705,53375
18,71118,51866
18,71530,51386
18,71942,51726
18,72355,51742
18,72767,49909
18,73178,50461
18,73590,50569
18,74003,51195
18,74415,51844
18,74827,49005
18,75240,50753
18,75652,52764
18,76063,52756
18,76477,51069
18,76888,52495
18,77300,52170
18,77713,51871
18,78125,51942
18,78537,51365
18,78950,50233
18,79362,51740
18,79773,51153
18,80187,51896
18,80598,47335
18,81010,51838
18,81423,53075
18,81835,51534
18,82247,49766
18,82658,50934
18,83072,52378
18,83483,51402
18,83895,52352
18,84308,52353
18,84720,50066
18,85132,49356
18,85545,49702
18,85957,48451
18,86368,49132
18,86782,50993
18,87193,50593
18,87605,50867
18,88018,51096
18,88430,51983
18,88842,49428
18,89255,49970
18,89667,49706
18,90078,49395
18,90492,48294
18,90903,49606
18,91315,48954
18,91727,49832
18,92140,48316
18,92552,50680
18,92963,51329
18,93377,49056
18,93788,48693
18,94200,44500
18,94613,49756
18,95025,50175
18,95437,49833
18,95850,46990
18,96262,48626
18,96673,49819
18,97087,50150
18,97498,48811
18,97910,49342
18,98323,50183
18,98735,47886
18,99147,52307
18,99560,50371
18,99972,50218
19,00383,52348
19,00795,54488
19,01208,60406
19,01620,67270
19,02032,77648
19,02445,97588
19,02857,129607
19,03268,184488
19,03682,254529
19,04093,342068
19,04505,445755
19,04918,552886
19,05330,652772
19,05742,751236
19,06155,804834
19,06567,849780
19,06978,851065
19,07392,821110
19,07803,771834
19,08215,712453
19,08628,643417
19,09040,581162
19,09452,513266
19,09863,458857
19,10277,401840
19,10688,357847
19,11100,321769
19,11513,289244
19,11925,257184
19,12337,235389
19,12750,219208
19,13162,198235
19,13573,184405
19,13987,168680
19,14398,162014
19,14810,147852
19,15223,145340
19,15635,132828
19,16047,133306
19,16460,122566
19,16872,119440
19,17283,118008
19,17697,109045
19,18108,103690
19,18520,102571
19,18932,98142
19,19345,97855
19,19757,93398
19,20168,90709
19,20582,89165
19,20993,86514
19,21405,87648
19,21818,84189
19,22230,81156
19,22642,80643
19,23055,80282
19,23467,76377
19,23878,75967
19,24292,73139
19,24703,76601
19,25115,72913
19,25528,70385
19,25940,71697
19,26352,67062
19,26765,70930
19,27177,65972
19,27588,68895
19,28000,66264
19,28413,67194
19,28825,67310
19,29237,66727
19,29650,65292
19,30062,65230
19,30473,62679
19,30887,63455
19,31298,64145
19,31710,61338
19,32123,59905
19,32535,60260
19,32947,61157
19,33360,59429
19,33772,60864
19,34183,59692
19,34597,58700
19,35008,57685
19,35420,59336
19,35833,58917
19,36245,55390
19,36657,56669
19,37068,56442
19,37482,58215
19,37893,57905
19,38305,58179
19,38718,56943
19,39130,54800
19,39542,55071
19,39955,53733
19,40367,55757
19,40778,53413
19,41192,54141
19,41603,54307
19,42015,55365
19,42428,53315
19,42840,52389
19,43252,52545
19,43665,50737
19,44077,52067
19,44488,54715
19,44902,52842
