D:\MassHunter\GCMS\1\data\Amal\Constant flow\120C\120C_1ml-min_8C-min_2.D Tue Sep 03 13:20:59 2024
Start of data points
5,19105	209792
5,19518	196740
5,19930	194840
5,20342	191847
5,20755	182394
5,21167	179476
5,21578	173498
5,21992	168585
5,22403	166508
5,22815	162373
5,23228	159125
5,23640	155868
5,24052	151129
5,24465	148272
5,24877	147916
5,25288	141822
5,25700	140649
5,26113	140426
5,26525	137432
5,26937	140455
5,27350	137042
5,27762	133180
5,28173	132022
5,28587	132608
5,28998	126076
5,29410	126175
5,29823	129768
5,30235	126576
5,30647	128076
5,31060	122814
5,31472	126196
5,31883	123885
5,32297	124486
5,32708	122484
5,33120	121599
5,33533	121265
5,33945	120214
5,34357	117998
5,34768	117444
5,35182	118027
5,35593	113297
5,36005	111402
5,36418	112340
5,36830	112213
5,37242	114134
5,37655	110670
5,38067	110982
5,38478	119074
5,38892	135125
5,39303	179618
5,39715	249952
5,40128	359218
5,40540	481220
5,40952	631305
5,41365	764903
5,41777	849203
5,42188	905883
5,42602	908796
5,43013	882448
5,43425	859955
5,43837	821117
5,44250	796977
5,44662	749572
5,45073	723066
5,45487	686533
5,45898	661580
5,46310	630814
5,46723	603185
5,47135	569190
5,47547	545592
5,47960	515649
5,48372	490595
5,48783	469742
5,49197	456935
5,49608	433542
5,50020	415040
5,50433	400802
5,50845	376498
5,51257	354785
5,51670	346943
5,52082	334463
5,52493	317563
5,52905	304541
5,53318	285852
5,53730	275449
5,54142	267613
5,54555	252863
5,54967	241033
5,55378	231232
5,55792	220574
5,56203	204032
5,56615	193526
5,57028	183609
5,57440	173319
5,57852	162540
5,58265	152959
5,58677	141958
5,59088	140103
5,59502	129446
5,59913	126982
5,60325	117562
5,60738	113511
5,61150	109134
5,61562	103507
5,61975	102967
5,62387	96762
5,62798	94051
5,63210	90425
5,63623	87583
5,64035	86211
5,64447	84898
5,64860	86196
5,65272	81053
5,65683	78380
5,66097	73926
5,66508	75139
5,66920	73971
5,67333	72404
5,67745	72299
5,68157	68615
5,68570	69053
5,68982	68776
5,69393	69443
5,69807	67885
5,70218	66498
5,70630	66230
5,71043	65428
5,71455	66092
5,71867	63831
5,72278	65232
5,72692	64227
5,73103	63395
5,73515	63728
5,73928	60972
5,74340	60204
5,74752	63296
5,75165	58744
5,75577	60444
5,75988	61449
5,76402	59782
5,76813	59897
5,77225	58950
5,77638	59822
5,78050	58396
5,78462	60596
5,78875	58174
5,79287	59297
5,79698	60111
5,80112	58786
5,80523	57995
5,80935	59903
5,81347	57880
5,81760	57992
5,82172	58427
5,82583	57327
5,82997	57952
5,83408	56175
5,83820	55495
5,84233	56673
5,84645	55345
5,85057	58811
5,85470	56903
5,85882	59544
5,86293	58006
5,86707	58778
5,87118	58611
5,87530	56167
5,87943	56993
5,88355	58765
5,88767	55318
5,89180	54925
5,89592	54532
5,90003	54219
5,90415	54823
5,90828	55083
5,91240	57119
5,91652	53766
5,92065	53973
5,92477	56440
5,92888	52729
5,93302	51484
5,93713	53708
5,94125	51593
5,94538	52427
5,94950	52875
5,95362	51675
5,95775	47925
5,96187	51074
5,96598	51321
5,97012	51686
5,97423	49345
5,97835	49634
5,98248	50321
5,98660	48893
5,99072	51767
5,99483	47716
5,99897	48970
6,00308	49794
6,00720	49639
6,01133	49988
6,01545	47305
6,01957	48188
6,02370	47570
6,02782	45296
6,03193	46480
6,03607	48001
6,04018	47822
6,04430	46340
6,04843	47457
6,05255	46596
6,05667	47445
6,06080	47359
6,06492	47306
6,06903	47800
6,07317	47820
6,07728	47409
6,08140	46858
6,08552	51846
6,08965	49799
6,09377	49282
6,09788	50812
6,10202	47203
6,10613	47889
6,11025	48417
6,11438	50041
6,11850	49188
6,12262	46381
6,12675	48335
6,13087	47127
6,13498	46844
6,13912	46298
6,14323	47383
6,14735	44230
6,15148	42953
6,15560	43286
6,15972	44304
6,16385	44347
6,16797	46320
6,17208	43297
6,17620	44631
6,18033	43490
6,18445	44103
6,18857	42283
6,19270	43716
6,19682	43585
6,20093	42370
6,20507	42750
6,20918	44337
6,21330	39838
6,21743	42328
6,22155	39903
6,22567	40616
6,22980	41294
6,23392	41077
6,23803	41496
6,24217	39480
6,24628	39641
6,25040	41269
6,25453	38425
6,25865	40294
6,26277	41309
6,26688	38710
6,27102	38284
6,27513	41337
6,27925	41638
6,28338	38394
6,28750	38717
6,29162	38892
6,29575	37949
6,29987	38893
6,30398	39368
6,30812	38353
6,31223	36925
6,31635	39585
6,32048	38551
6,32460	39094
6,32872	37500
6,33285	37586
6,33697	39047
6,34108	38580
6,34522	38585
6,34933	37326
6,35345	39274
6,35757	39421
6,36170	42102
6,36582	54279
6,36993	74652
6,37407	117279
6,37818	189837
6,38230	296365
6,38643	461315
6,39055	630781
6,39467	809904
6,39880	971557
6,40292	1093353
6,40703	1168606
6,41117	1192803
6,41528	1183738
6,41940	1145276
6,42353	1102454
6,42765	1045017
6,43177	983392
6,43590	921906
6,44002	866032
6,44413	815213
6,44825	760145
6,45238	710388
6,45650	669612
6,46062	620786
6,46475	589142
6,46887	539738
6,47298	502839
6,47712	472569
6,48123	438972
6,48535	402780
6,48948	375578
6,49360	346518
6,49772	316988
6,50185	283105
6,50597	261635
6,51008	236933
6,51422	216658
6,51833	193878
6,52245	178330
6,52658	157177
6,53070	143911
6,53482	129566
6,53893	116288
6,54307	107489
6,54718	97840
6,55130	93691
6,55543	84161
6,55955	77699
6,56367	74173
6,56780	68211
6,57192	64919
6,57603	60394
6,58017	57838
6,58428	55612
6,58840	54159
6,59253	50956
6,59665	47222
6,60077	47278
6,60490	45510
6,60902	44315
6,61313	44458
6,61727	42981
6,62138	40487
6,62550	40754
6,62962	40602
6,63375	39920
6,63787	39885
6,64198	38387
6,64612	36509
6,65023	37441
6,65435	36093
6,65848	35599
6,66260	34905
6,66672	35495
6,67085	34246
6,67497	35161
6,67908	34786
6,68322	36487
6,68733	35025
6,69145	34205
6,69558	34094
6,69970	31760
6,70382	34375
6,70795	34881
6,71207	35856
6,71618	32108
6,72030	33801
6,72443	33118
6,72855	34906
6,73267	33241
6,73680	33420
6,74092	33248
6,74503	32172
6,74917	32782
6,75328	32689
6,75740	32377
6,76153	33336
6,76565	31367
6,76977	30535
6,77390	32068
6,77802	31383
6,78213	31945
6,78627	33680
6,79038	30379
6,79450	31184
6,79863	31909
6,80275	31641
6,80687	31944
6,81098	30697
6,81512	30241
6,81923	30773
6,82335	31657
6,82748	29718
6,83160	29453
6,83572	28991
6,83985	29438
6,84397	29577
6,84808	30675
6,85222	28956
6,85633	28262
6,86045	29087
6,86458	29875
6,86870	27223
6,87282	29658
6,87695	27269
6,88107	28274
6,88518	27876
6,88932	27796
6,89343	29592
6,89755	27375
6,90167	29099
6,90580	29100
6,90992	27794
6,91403	26708
6,91817	28403
6,92228	27581
6,92640	28657
6,93053	28867
6,93465	28101
6,93877	26204
6,94290	28008
6,94702	27439
6,95113	28677
6,95527	28706
6,95938	27740
6,96350	27064
6,96763	27401
6,97175	28032
6,97587	27766
6,98000	27327
6,98412	26579
6,98823	25118
6,99235	27986
6,99648	28313
7,00060	30651
7,00472	38463
7,00885	51690
7,01297	77100
7,01708	122954
7,02122	189600
7,02533	275175
7,02945	373944
7,03358	480401
7,03770	566994
7,04182	646305
7,04595	673111
7,05007	698848
7,05418	696756
7,05832	675434
7,06243	648010
7,06655	604879
7,07068	568032
7,07480	526754
7,07892	487468
7,08303	454065
7,08717	424815
7,09128	389088
7,09540	358508
7,09953	330475
7,10365	297492
7,10777	269259
7,11190	245447
7,11602	225088
7,12013	200224
7,12427	181256
7,12838	163406
7,13250	144257
7,13663	127702
7,14075	113099
7,14487	103751
7,14900	89002
7,15312	81711
7,15723	75716
7,16137	66845
7,16548	62989
7,16960	57820
7,17373	54567
7,17785	50790
7,18197	46830
7,18608	43104
7,19022	41230
7,19433	40315
7,19845	36337
7,20258	37117
7,20670	34176
7,21082	33786
7,21495	33618
7,21907	32781
7,22318	30428
7,22732	32721
7,23143	30806
7,23555	29571
7,23968	29029
7,24380	27639
7,24792	28531
7,25205	28092
7,25617	26028
7,26028	27727
7,26442	27234
7,26853	26234
7,27265	29167
7,27677	27780
7,28090	28385
7,28502	26919
7,28913	27053
7,29327	29949
7,29738	29677
7,30150	30052
7,30563	29612
7,30975	27466
7,31387	29996
7,31800	28556
7,32212	29732
7,32623	29444
7,33037	28487
7,33448	28649
7,33860	26929
7,34273	27789
7,34685	26126
7,35097	26488
7,35510	25576
7,35922	24378
7,36333	27161
7,36745	26266
7,37158	25103
7,37570	24494
7,37982	24501
7,38395	23539
7,38807	22893
7,39218	23690
7,39632	23613
7,40043	22024
7,40455	23553
7,40868	22873
7,41280	22465
7,41692	21492
7,42105	22585
7,42517	21760
7,42928	20851
7,43342	21770
7,43753	21113
7,44165	22360
7,44578	22037
7,44990	21383
7,45402	22928
7,45813	21355
7,46227	19762
7,46638	21394
7,47050	21474
7,47463	20146
7,47875	21810
7,48287	20871
7,48700	21164
7,49112	20275
7,49523	20673
7,49937	20079
7,50348	20140
7,50760	20420
7,51173	21136
7,51585	21249
7,51997	20629
7,52410	22255
7,52822	20842
7,53233	20534
7,53647	21274
7,54058	21415
7,54470	21603
7,54882	21459
7,55295	19676
7,55707	19110
7,56118	19805
7,56532	20014
7,56943	19808
7,57355	19213
7,57768	20719
7,58180	20519
7,58592	19575
7,59005	20246
7,59417	20932
7,59828	20297
7,60242	20089
7,60653	21499
7,61065	21648
7,61478	21057
7,61890	21704
7,62302	21245
7,62715	19133
7,63127	20336
7,63538	21200
7,63950	20610
7,64363	21178
7,64775	19216
7,65187	20370
7,65600	20592
7,66012	20715
7,66423	19669
7,66837	19392
7,67248	19983
7,67660	19335
7,68073	19577
7,68485	20500
7,68897	19958
7,69310	21208
7,69722	20351
7,70133	20939
7,70547	18967
7,70958	20616
7,71370	22694
7,71783	29355
7,72195	44720
7,72607	76584
7,73018	132771
7,73432	226187
7,73843	371303
7,74255	571137
7,74668	801313
7,75080	1057890
7,75492	1285842
7,75905	1476975
7,76317	1595713
7,76728	1652278
7,77142	1637587
7,77553	1585874
7,77965	1500257
7,78378	1378050
7,78790	1280765
7,79202	1169800
7,79615	1055620
7,80027	949550
7,80438	844855
7,80852	743787
7,81263	659765
7,81675	572166
7,82087	497210
7,82500	427358
7,82912	368269
7,83323	314434
7,83737	268126
7,84148	227594
7,84560	197366
7,84973	166877
7,85385	147627
7,85797	124388
7,86210	113245
7,86622	98287
7,87033	85445
7,87447	77328
7,87858	71838
7,88270	63698
7,88683	59446
7,89095	55487
7,89507	49427
7,89920	47146
7,90332	47039
7,90743	43666
7,91155	41031
7,91568	36984
7,91980	34642
7,92392	35776
7,92805	33605
7,93217	33622
7,93628	31743
7,94042	30929
7,94453	31942
7,94865	28528
7,95278	28463
7,95690	27670
7,96102	27383
7,96515	26687
7,96927	28091
7,97338	26591
7,97752	25117
7,98163	24071
7,98575	24982
7,98988	23013
7,99400	25587
7,99812	25397
8,00223	22288
8,00637	23217
8,01048	24231
8,01460	23212
8,01873	23214
8,02285	22430
8,02697	22281
8,03110	20111
8,03522	21069
8,03933	21529
8,04347	19927
8,04758	21202
8,05170	19703
8,05583	20141
8,05995	19574
8,06407	19375
8,06820	20748
8,07232	20425
8,07643	18949
8,08057	20878
8,08468	19923
8,08880	18310
8,09292	19510
8,09705	18193
8,10117	19442
8,10528	18508
8,10942	19538
8,11353	17023
8,11765	18236
8,12178	19739
8,12590	17958
8,13002	18816
8,13415	19029
8,13827	19105
8,14238	18298
8,14652	18116
8,15063	18343
8,15475	17386
8,15888	18174
8,16300	17656
8,16712	18390
8,17125	17771
8,17537	18528
8,17948	19181
8,18360	17730
8,18773	17856
8,19185	17110
8,19597	17353
8,20010	17485
8,20422	16017
8,20833	17048
8,21247	17189
8,21658	17752
8,22070	17433
8,22483	16994
8,22895	17824
8,23307	17367
8,23720	17359
8,24132	17204
8,24543	16472
8,24957	15940
8,25368	16624
8,25780	16813
8,26193	16203
8,26605	17827
8,27017	17510
8,27428	16719
8,27842	17333
8,28253	18516
8,28665	17936
8,29078	17959
8,29490	16624
8,29902	15589
8,30315	15937
8,30727	17906
8,31138	16036
8,31552	16924
8,31963	17872
8,32375	15227
8,32788	16256
8,33200	17087
8,33612	17025
8,34025	16734
8,34437	17174
8,34848	17300
8,35262	16693
8,35673	16374
8,36085	16682
8,36497	15429
8,36910	16116
8,37322	16327
8,37733	16676
8,38147	17405
8,38558	16114
8,38970	18484
8,39383	20007
8,39795	18924
8,40207	19003
8,40620	20541
8,41032	20740
8,41443	19730
8,41857	19583
8,42268	20746
8,42680	20797
8,43093	20047
8,43505	17831
8,43917	18841
8,44330	17738
8,44742	19664
8,45153	19207
8,45565	17654
8,45978	17787
8,46390	16928
8,46802	17186
8,47215	17203
8,47627	18034
8,48038	16843
8,48452	17338
8,48863	19148
8,49275	23967
8,49688	31066
8,50100	51025
8,50512	81971
8,50925	135252
8,51337	215177
8,51748	334702
8,52162	470778
8,52573	617218
8,52985	758201
8,53398	872325
8,53810	944125
8,54222	975233
8,54633	955472
8,55047	909079
8,55458	836902
8,55870	766076
8,56283	689966
8,56695	599914
8,57107	515120
8,57520	442157
8,57932	374192
8,58343	317382
8,58757	267601
8,59168	218486
8,59580	185382
8,59993	154124
8,60405	132216
8,60817	110646
8,61230	97889
8,61642	80956
8,62053	75559
8,62467	65123
8,62878	57761
8,63290	49561
8,63702	47792
8,64115	42952
8,64527	40174
8,64938	37282
8,65352	35603
8,65763	33486
8,66175	31474
8,66588	30750
8,67000	26969
8,67412	25845
8,67825	26448
8,68237	23958
8,68648	24881
8,69062	24004
8,69473	22979
8,69885	22088
8,70298	20660
8,70710	21724
8,71122	19991
8,71535	20260
8,71947	20368
8,72358	18747
8,72770	20498
8,73183	19267
8,73595	19707
8,74007	19340
8,74420	19055
8,74832	18889
8,75243	17832
8,75657	18634
8,76068	16981
8,76480	16268
8,76893	16477
8,77305	15880
8,77717	16449
8,78130	17424
8,78542	17044
8,78953	17311
8,79367	16158
8,79778	14975
8,80190	15894
8,80603	15950
8,81015	13595
8,81427	15797
8,81840	14721
8,82252	13428
8,82663	16279
8,83075	15361
8,83488	15476
8,83900	15058
8,84312	14503
8,84725	15819
8,85137	15300
8,85548	13398
8,85962	14194
8,86373	14173
8,86785	14302
8,87198	14672
8,87610	14617
8,88022	14940
8,88435	14154
8,88847	13342
8,89258	15043
8,89672	13703
8,90083	13623
8,90495	14632
8,90908	15026
8,91320	15441
8,91732	15501
8,92143	16934
8,92557	18081
8,92968	18868
8,93380	17759
8,93793	19307
8,94205	18982
8,94617	18848
8,95030	16884
8,95442	18564
8,95853	16805
8,96267	15245
8,96678	15866
8,97090	15089
8,97503	16301
8,97915	15524
8,98327	15375
8,98740	14868
8,99152	14370
8,99563	13931
8,99977	14751
9,00388	15309
9,00800	12948
9,01212	15034
9,01625	14311
9,02037	14351
9,02448	13750
9,02862	13206
9,03273	13095
9,03685	13654
9,04098	13643
9,04510	14407
9,04922	12812
9,05335	13127
9,05747	13212
9,06158	13987
9,06572	12568
9,06983	12470
9,07395	13798
9,07808	13306
9,08220	12581
9,08632	14176
9,09045	12840
9,09457	13026
9,09868	13573
9,10280	12822
9,10693	11627
9,11105	14810
9,11517	12901
9,11930	13488
9,12342	14317
9,12753	12761
9,13167	13724
9,13578	13896
9,13990	13666
9,14403	14874
9,14815	14458
9,15227	17555
9,15640	18116
9,16052	18447
9,16463	17705
9,16877	17678
9,17288	18822
9,17700	17658
9,18113	19590
9,18525	18131
9,18937	18177
9,19348	17158
9,19762	17004
9,20173	16503
9,20585	15983
9,20998	16510
9,21410	15371
9,21822	13825
9,22235	14765
9,22647	14318
9,23058	12930
9,23472	13247
9,23883	13123
9,24295	13156
9,24708	12923
9,25120	14027
9,25532	14686
9,25945	12408
9,26357	13310
9,26768	12899
9,27182	12926
9,27593	12829
9,28005	13135
9,28417	11862
9,28830	12718
9,29242	13847
9,29653	15801
9,30067	23417
9,30478	37631
9,30890	69298
9,31303	127714
9,31715	230889
9,32127	397861
9,32540	631425
9,32952	944684
9,33363	1279676
9,33777	1631439
9,34188	1915245
9,34600	2126878
9,35013	2209113
9,35425	2214041
9,35837	2106019
9,36250	1917633
9,36662	1696068
9,37073	1446502
9,37485	1202428
9,37898	982781
9,38310	795991
9,38722	639090
9,39135	516956
9,39547	408079
9,39958	337313
9,40372	276662
9,40783	225782
9,41195	188311
9,41608	157849
9,42020	136602
9,42432	121415
9,42845	100595
9,43257	91343
9,43668	82374
9,44082	74814
9,44493	67519
9,44905	64492
9,45318	58992
9,45730	57078
9,46142	53500
9,46553	50880
9,46967	49565
9,47378	49078
9,47790	46325
9,48203	42956
9,48615	43461
9,49027	39211
9,49440	35760
9,49852	37749
9,50263	33669
9,50677	32237
9,51088	30299
9,51500	28300
9,51913	28328
9,52325	26578
9,52737	26418
9,53150	24286
9,53562	22867
9,53973	22361
9,54387	22777
9,54798	21296
9,55210	19972
9,55622	20479
9,56035	21010
9,56447	18494
9,56858	19271
9,57272	17866
9,57683	17240
9,58095	19097
9,58508	17153
9,58920	18801
9,59332	18231
9,59745	16542
9,60157	18176
9,60568	16158
9,60982	16182
9,61393	17313
9,61805	16694
9,62218	17528
9,62630	16746
9,63042	16818
9,63455	18260
9,63867	16738
9,64278	18757
9,64690	20776
9,65103	19315
9,65515	18835
9,65927	20328
9,66340	18527
9,66752	17601
9,67163	18740
9,67577	17860
9,67988	17186
9,68400	17637
9,68813	15582
9,69225	16486
9,69637	15504
9,70050	14915
9,70462	14576
9,70873	14393
9,71287	14507
9,71698	13974
9,72110	13877
9,72523	15486
9,72935	13506
9,73347	13842
9,73758	15330
9,74172	15235
9,74583	16482
9,74995	16567
9,75408	16285
9,75820	16853
9,76232	16033
9,76645	16661
9,77057	16642
9,77468	16480
9,77882	13838
9,78293	15025
9,78705	14606
9,79118	16165
9,79530	14554
9,79942	14479
9,80355	13203
9,80767	13273
9,81178	11418
9,81592	13457
9,82003	11876
9,82415	12648
9,82827	11676
9,83240	11973
9,83652	12056
9,84063	12615
9,84477	13288
9,84888	12456
9,85300	12041
9,85713	12729
9,86125	11978
9,86537	11788
9,86950	12882
9,87362	12446
9,87773	11552
9,88187	12514
9,88598	11380
9,89010	11489
9,89423	13161
9,89835	14879
9,90247	15834
9,90660	20581
9,91072	35271
9,91483	60344
9,91895	105957
9,92308	174076
9,92720	280043
9,93132	415134
9,93545	569379
9,93957	736390
9,94368	895974
9,94782	1010741
9,95193	1071980
9,95605	1067329
9,96018	1022283
9,96430	938790
9,96842	831392
9,97255	706402
9,97667	592417
9,98078	488076
9,98492	398655
9,98903	326281
9,99315	256600
9,99728	210429
10,00140	174820
10,00552	143302
10,00963	120390
10,01377	99275
10,01788	84655
10,02200	75984
10,02613	65247
10,03025	57463
10,03437	53430
10,03850	48018
10,04262	44027
10,04673	40547
10,05087	35610
10,05498	32996
10,05910	32323
10,06323	31154
10,06735	27577
10,07147	26130
10,07560	26305
10,07972	25410
10,08383	23278
10,08797	22286
10,09208	22431
10,09620	21855
10,10032	20662
10,10445	20969
10,10857	21651
10,11268	19801
10,11682	21259
10,12093	21847
10,12505	25246
10,12918	34790
10,13330	58108
10,13742	95347
10,14155	166690
10,14567	272719
10,14978	421303
10,15392	596339
10,15803	794345
10,16215	988012
10,16628	1120437
10,17040	1208774
10,17452	1224395
10,17865	1162956
10,18277	1059980
10,18688	926716
10,19100	774652
10,19513	634471
10,19925	510771
10,20337	406258
10,20750	322632
10,21162	252184
10,21573	204151
10,21987	162028
10,22398	134281
10,22810	110383
10,23223	95799
10,23635	80921
10,24047	72258
10,24460	64718
10,24872	54996
10,25283	50477
10,25697	47270
10,26108	42354
10,26520	39882
10,26933	37227
10,27345	33564
10,27757	32432
10,28168	29867
10,28582	29461
10,28993	27470
10,29405	26229
10,29818	25805
10,30230	26060
10,30642	24311
10,31055	24506
10,31467	22400
10,31878	20976
10,32292	21897
10,32703	19969
10,33115	19028
10,33528	18623
10,33940	19192
10,34352	18467
10,34765	17929
10,35177	17177
10,35588	15974
10,36002	16033
10,36413	16192
10,36825	14864
10,37238	14448
10,37650	16517
10,38062	15657
10,38473	15443
10,38887	14189
10,39298	13146
10,39710	14565
10,40123	13715
10,40535	13169
10,40947	13668
10,41360	13101
10,41772	13829
10,42183	14562
10,42597	12213
10,43008	13008
10,43420	13213
10,43833	12531
10,44245	12332
10,44657	12293
10,45070	12161
10,45482	12620
10,45893	12317
10,46307	11160
10,46718	12875
10,47130	11453
10,47542	13499
10,47955	11764
10,48367	12545
10,48778	12136
10,49192	11675
10,49603	10932
10,50015	10911
10,50428	12010
10,50840	11210
10,51252	11902
10,51665	12267
10,52077	12046
10,52488	12629
10,52902	10535
10,53313	10166
10,53725	11716
10,54138	11446
10,54550	10941
10,54962	10304
10,55375	12127
10,55787	10697
10,56198	11303
10,56610	11289
10,57023	11800
10,57435	11222
10,57847	12008
10,58260	11407
10,58672	10795
10,59083	10290
10,59497	10296
10,59908	12041
10,60320	12917
10,60733	12147
10,61145	11565
10,61557	11589
10,61970	12107
10,62382	12231
10,62793	10452
10,63207	11029
10,63618	9396
10,64030	11269
10,64443	11084
10,64855	11402
10,65267	12140
10,65678	10386
10,66092	11764
10,66503	11664
10,66915	12126
10,67328	11503
10,67740	11175
10,68152	10942
10,68565	10752
10,68977	11339
10,69388	11517
10,69802	10740
10,70213	10706
10,70625	11974
10,71038	12673
10,71450	10012
10,71862	11390
10,72275	10165
10,72687	10721
10,73098	12393
10,73512	17082
10,73923	27410
10,74335	45149
10,74747	82481
10,75160	143891
10,75572	241280
10,75983	372429
10,76397	539168
10,76808	723261
10,77220	904074
10,77633	1057309
10,78045	1153363
10,78457	1175832
10,78870	1129962
10,79282	1014172
10,79693	887200
10,80107	748325
10,80518	611575
10,80930	484685
10,81343	386129
10,81755	307971
10,82167	240576
10,82580	195031
10,82992	158905
10,83403	132201
10,83815	110939
10,84228	96443
10,84640	82333
10,85052	67743
10,85465	63626
10,85877	57154
10,86288	51348
10,86702	46090
10,87113	40709
10,87525	39130
10,87938	36583
10,88350	32471
10,88762	31411
10,89175	31666
10,89587	30246
10,89998	25969
10,90412	23220
10,90823	24216
10,91235	21192
10,91648	23847
10,92060	22201
10,92472	20561
10,92883	20349
10,93297	21141
10,93708	21159
10,94120	22926
10,94533	29207
10,94945	52013
10,95357	89670
10,95770	179316
10,96182	328888
10,96593	581525
10,97007	961057
10,97418	1475756
10,97830	2040654
10,98243	2680715
10,98655	3280150
10,99067	3725775
10,99480	3992667
10,99892	3966467
11,00303	3713600
11,00717	3284498
11,01128	2759172
11,01540	2213486
11,01952	1763754
11,02365	1363596
11,02777	1054914
11,03188	826401
11,03602	640503
11,04013	514514
11,04425	418156
11,04838	342011
11,05250	281077
11,05662	243088
11,06075	208838
11,06487	181726
11,06898	162731
11,07312	137379
11,07723	127441
11,08135	115701
11,08548	102466
11,08960	95382
11,09372	87239
11,09785	80698
11,10197	75803
11,10608	69775
11,11020	63235
11,11433	59314
11,11845	58430
11,12257	52958
11,12670	49545
11,13082	48119
11,13493	45417
11,13907	41251
11,14318	40923
11,14730	39432
11,15143	36792
11,15555	36479
11,15967	34957
11,16380	31940
11,16792	31190
11,17203	29359
11,17617	30519
11,18028	26849
11,18440	27860
11,18853	25448
11,19265	24624
11,19677	26206
11,20088	23053
11,20502	23728
11,20913	22476
11,21325	20502
11,21738	20186
11,22150	21117
11,22562	21132
11,22975	19305
11,23387	19468
11,23798	19918
11,24212	18895
11,24623	19091
11,25035	17923
11,25448	19657
11,25860	17779
11,26272	17917
11,26685	18537
11,27097	18162
11,27508	16241
11,27922	18256
11,28333	15455
11,28745	16509
11,29157	16659
11,29570	16026
11,29982	16108
11,30393	15703
11,30807	15243
11,31218	16356
11,31630	17091
11,32043	16486
11,32455	17235
11,32867	16699
11,33280	16572
11,33692	15923
11,34103	17247
11,34517	15502
11,34928	15215
11,35340	13517
11,35753	14786
11,36165	13951
11,36577	13963
11,36990	13041
11,37402	12219
11,37813	13970
11,38225	12641
11,38638	13575
11,39050	13568
11,39462	14015
11,39875	14492
11,40287	13913
11,40698	14451
11,41112	14802
11,41523	15442
11,41935	13800
11,42348	15440
11,42760	14942
11,43172	14693
11,43585	14844
11,43997	13770
11,44408	15868
11,44822	19657
11,45233	28538
11,45645	47331
11,46058	86969
11,46470	151872
11,46882	246773
11,47293	391228
11,47707	578468
11,48118	773364
11,48530	959095
11,48943	1120094
11,49355	1203425
11,49767	1217851
11,50180	1169313
11,50592	1047341
11,51003	903356
11,51417	748480
11,51828	604802
11,52240	480189
11,52653	377810
11,53065	300646
11,53477	239154
11,53890	189651
11,54302	158514
11,54713	132790
11,55127	111566
11,55538	92610
11,55950	81565
11,56362	74551
11,56775	64465
11,57187	60564
11,57598	53865
11,58012	50851
11,58423	48213
11,58835	45855
11,59248	45478
11,59660	44311
11,60072	43569
11,60485	40304
11,60897	38423
11,61308	37077
11,61722	35672
11,62133	33325
11,62545	34058
11,62958	33647
11,63370	32837
11,63782	33484
11,64195	31662
11,64607	31827
11,65018	32015
11,65430	28678
11,65843	28008
11,66255	27598
11,66667	24896
11,67080	22725
11,67492	22168
11,67903	20232
11,68317	21168
11,68728	18647
11,69140	18591
11,69553	17481
11,69965	16371
11,70377	15893
11,70790	16983
11,71202	16284
11,71613	15295
11,72027	15088
11,72438	13785
11,72850	15042
11,73263	16120
11,73675	15691
11,74087	16444
11,74498	16772
11,74912	18304
11,75323	20413
11,75735	22751
11,76148	34640
11,76560	61638
11,76972	101302
11,77385	181363
11,77797	308151
11,78208	480323
11,78622	698064
11,79033	926841
11,79445	1138361
11,79858	1298287
11,80270	1385759
11,80682	1369583
11,81095	1266290
11,81507	1115508
11,81918	934020
11,82332	755390
11,82743	603271
11,83155	465392
11,83567	364112
11,83980	287890
11,84392	234468
11,84803	189178
11,85217	157088
11,85628	129233
11,86040	111673
11,86453	93653
11,86865	83392
11,87277	74089
11,87690	64773
11,88102	59135
11,88513	53145
11,88927	50602
11,89338	46639
11,89750	41531
11,90163	38643
11,90575	36910
11,90987	35171
11,91400	33505
11,91812	30983
11,92223	29726
11,92635	28200
11,93048	26625
11,93460	25401
11,93872	25922
11,94285	24223
11,94697	21679
11,95108	22562
11,95522	20671
11,95933	21201
11,96345	22248
11,96758	18907
11,97170	18918
11,97582	18257
11,97995	17145
11,98407	18283
11,98818	16726
11,99232	16456
11,99643	15992
12,00055	17327
12,00468	17370
12,00880	16967
12,01292	15959
12,01705	17042
12,02117	16472
12,02528	15121
12,02940	15814
12,03353	14789
12,03765	14007
12,04177	15133
12,04590	14436
12,05002	14032
12,05413	15306
12,05827	11988
12,06238	13829
12,06650	13513
12,07063	12940
12,07475	12776
12,07887	13235
12,08300	13874
12,08712	12918
12,09123	12811
12,09537	13122
12,09948	12547
12,10360	13726
12,10773	12774
12,11185	14604
12,11597	15133
12,12008	12136
12,12422	11813
12,12833	13348
12,13245	12609
12,13658	13340
12,14070	13060
12,14482	11889
12,14895	13648
12,15307	12060
12,15718	11640
12,16132	11743
12,16543	12144
12,16955	12571
12,17368	11825
12,17780	13375
12,18192	11062
12,18605	13498
12,19017	12012
12,19428	11322
12,19842	13565
12,20253	11507
12,20665	11490
12,21077	11973
12,21490	10912
12,21902	10742
12,22313	10237
12,22727	10122
12,23138	10921
12,23550	12220
12,23963	12568
12,24375	12504
12,24787	15782
12,25200	18906
12,25612	27595
12,26023	47529
12,26437	86885
12,26848	158482
12,27260	257139
12,27673	420921
12,28085	622507
12,28497	837691
12,28910	1044786
12,29322	1210946
12,29733	1310580
12,30145	1316680
12,30558	1258021
12,30970	1119695
12,31382	950482
12,31795	777050
12,32207	626158
12,32618	492690
12,33032	391933
12,33443	304520
12,33855	242024
12,34268	198778
12,34680	164288
12,35092	136370
12,35505	116650
12,35917	103761
12,36328	89105
12,36742	78808
12,37153	69499
12,37565	62386
12,37978	57753
12,38390	53517
12,38802	48177
12,39213	44887
12,39627	40699
12,40038	39760
12,40450	35152
12,40863	35166
12,41275	31574
12,41687	30326
12,42100	29637
12,42512	27145
12,42923	25855
12,43337	24814
12,43748	24148
12,44160	23422
12,44573	22980
12,44985	21393
12,45397	21086
12,45810	22332
12,46222	19912
12,46633	21185
12,47047	19188
12,47458	18566
12,47870	19140
12,48282	18945
12,48695	17028
12,49107	18028
12,49518	16580
12,49932	18188
12,50343	16222
12,50755	16167
12,51168	17847
12,51580	15734
12,51992	15259
12,52405	16602
12,52817	15961
12,53228	14091
12,53642	15791
12,54053	14853
12,54465	18867
12,54878	25694
12,55290	39587
12,55702	75163
12,56115	141839
12,56527	257228
12,56938	465932
12,57350	771024
12,57763	1162194
12,58175	1659473
12,58587	2173551
12,59000	2613051
12,59412	2926780
12,59823	3052725
12,60237	3002657
12,60648	2743677
12,61060	2366667
12,61473	1959916
12,61885	1548067
12,62297	1217658
12,62710	949139
12,63122	746738
12,63533	583401
12,63947	464093
12,64358	379441
12,64770	315008
12,65183	260887
12,65595	226955
12,66007	197295
12,66418	173108
12,66832	148767
12,67243	135217
12,67655	120396
12,68068	107503
12,68480	99488
12,68892	91233
12,69305	81738
12,69717	76324
12,70128	70939
12,70542	66389
12,70953	60901
12,71365	57084
12,71778	55923
12,72190	50761
12,72602	47458
12,73015	48577
12,73427	45080
12,73838	45697
12,74252	41361
12,74663	40760
12,75075	36516
12,75487	36960
12,75900	33960
12,76312	32033
12,76723	32690
12,77137	29729
12,77548	27998
12,77960	28858
12,78373	28452
12,78785	25626
12,79197	26255
12,79610	24770
12,80022	24183
12,80433	24195
12,80847	23104
12,81258	24654
12,81670	23226
12,82083	23040
12,82495	26018
12,82907	30956
12,83320	45800
12,83732	71230
12,84143	123657
12,84555	211148
12,84968	346488
12,85380	534770
12,85792	758386
12,86205	983677
12,86617	1211559
12,87028	1368310
12,87442	1428440
12,87853	1414955
12,88265	1300091
12,88678	1126457
12,89090	954104
12,89502	760838
12,89915	611049
12,90327	482877
12,90738	381421
12,91152	306050
12,91563	249826
12,91975	204225
12,92388	172259
12,92800	149448
12,93212	123822
12,93623	109926
12,94037	94015
12,94448	88638
12,94860	74577
12,95273	72023
12,95685	65549
12,96097	61020
12,96510	58417
12,96922	59844
12,97333	73168
12,97747	95991
12,98158	150890
12,98570	253656
12,98983	429040
12,99395	698017
12,99807	1055233
13,00220	1504200
13,00632	1985743
13,01043	2403427
13,01457	2731972
13,01868	2897351
13,02280	2874599
13,02692	2659797
13,03105	2308988
13,03517	1925609
13,03928	1563338
13,04342	1227393
13,04753	970025
13,05165	756452
13,05578	598859
13,05990	478458
13,06402	391813
13,06815	326908
13,07227	281620
13,07638	238540
13,08052	208165
13,08463	179752
13,08875	160258
13,09288	142630
13,09700	127517
13,10112	117478
13,10525	108004
13,10937	99777
13,11348	87776
13,11760	86840
13,12173	77687
13,12585	72833
13,12997	70585
13,13410	66947
13,13822	61097
13,14233	59185
13,14647	55407
13,15058	53237
13,15470	50292
13,15883	49820
13,16295	44999
13,16707	44773
13,17120	44310
13,17532	40928
13,17943	41603
13,18357	36245
13,18768	34547
13,19180	34209
13,19593	34009
13,20005	33869
13,20417	31665
13,20828	30042
13,21242	29075
13,21653	28779
13,22065	28641
13,22478	26747
13,22890	26732
13,23302	27218
13,23715	27354
13,24127	26308
13,24538	25599
13,24952	25224
13,25363	24371
13,25775	22872
13,26188	26682
13,26600	22236
13,27012	24037
13,27425	23672
13,27837	25215
13,28248	27737
13,28662	40355
13,29073	61134
13,29485	106907
13,29897	182620
13,30310	302323
13,30722	467372
13,31133	668093
13,31547	897634
13,31958	1119610
13,32370	1271093
13,32783	1386153
13,33195	1481383
13,33607	1530725
13,34020	1647354
13,34432	1813173
13,34843	2065291
13,35257	2393148
13,35668	2738119
13,36080	3100904
13,36493	3274612
13,36905	3272894
13,37317	3062048
13,37730	2739221
13,38142	2297596
13,38553	1870306
13,38965	1475809
13,39378	1152957
13,39790	912980
13,40202	719959
13,40615	580608
13,41027	477063
13,41438	398362
13,41852	341899
13,42263	293255
13,42675	252979
13,43088	221691
13,43500	198539
13,43912	179477
13,44325	165170
13,44737	146544
13,45148	140165
13,45562	123835
13,45973	116739
13,46385	106353
13,46798	103098
13,47210	94988
13,47622	87255
13,48033	84985
13,48447	79970
13,48858	71285
13,49270	72767
13,49683	68872
13,50095	66405
13,50507	63378
13,50920	60778
13,51332	57376
13,51743	53057
13,52157	52751
13,52568	50988
13,52980	49854
13,53393	47618
13,53805	45226
13,54217	44345
13,54630	41616
13,55042	41538
13,55453	39305
13,55867	40671
13,56278	37157
13,56690	38814
13,57102	37599
13,57515	33924
13,57927	34763
13,58338	32668
13,58752	32862
13,59163	31400
13,59575	30276
13,59988	32007
13,60400	29499
13,60812	33457
13,61225	40759
13,61637	56669
13,62048	84152
13,62462	141669
13,62873	233632
13,63285	376610
13,63698	546340
13,64110	747691
13,64522	947132
13,64935	1106111
13,65347	1222777
13,65758	1254651
13,66172	1212967
13,66583	1094169
13,66995	944061
13,67407	793404
13,67820	641167
13,68232	518288
13,68643	410042
13,69057	328197
13,69468	264147
13,69880	218488
13,70293	184377
13,70705	154367
13,71117	132947
13,71530	118039
13,71942	104107
13,72353	94098
13,72767	83274
13,73178	76309
13,73590	69158
13,74003	65267
13,74415	60608
13,74827	55572
13,75240	51443
13,75652	49421
13,76063	47133
13,76475	45797
13,76888	45784
13,77300	46291
13,77712	44491
13,78125	40354
13,78537	38381
13,78948	37311
13,79362	35125
13,79773	34504
13,80185	33430
13,80598	30601
13,81010	31512
13,81422	30310
13,81835	28377
13,82247	29091
13,82658	28403
13,83072	26890
13,83483	26600
13,83895	26391
13,84308	27174
13,84720	25312
13,85132	26685
13,85543	26276
13,85957	23636
13,86368	24689
13,86780	25847
13,87193	24584
13,87605	23782
13,88017	23976
13,88430	22684
13,88842	22572
13,89253	23169
13,89667	22364
13,90078	23247
13,90490	22217
13,90903	22707
13,91315	21714
13,91727	20379
13,92140	22236
13,92552	19147
13,92963	19729
13,93377	20085
13,93788	18098
13,94200	21848
13,94612	19767
13,95025	19175
13,95437	19596
13,95848	20445
13,96262	20011
13,96673	20442
13,97085	18106
13,97498	19128
13,97910	18925
13,98322	18842
13,98735	18977
13,99147	18443
13,99558	18888
13,99972	20674
14,00383	18282
14,00795	18918
14,01208	18365
14,01620	18131
14,02032	18054
14,02445	16997
14,02857	18495
14,03268	18771
14,03680	17618
14,04093	17922
14,04505	17021
14,04917	18152
14,05330	18988
14,05742	23003
14,06153	30824
14,06567	48421
14,06978	83355
14,07390	166486
14,07803	313668
14,08215	564218
14,08627	948461
14,09040	1485063
14,09452	2159516
14,09863	2864317
14,10277	3599869
14,10688	4186228
14,11100	4470230
14,11513	4488363
14,11925	4196893
14,12337	3683639
14,12748	3081212
14,13162	2496295
14,13573	1991837
14,13985	1572286
14,14398	1228922
14,14810	991635
14,15222	788725
14,15635	656759
14,16047	545950
14,16458	463889
14,16872	397984
14,17283	339357
14,17695	300804
14,18108	269387
14,18520	234802
14,18932	216626
14,19345	197876
14,19757	178296
14,20168	161554
14,20582	152629
14,20993	140966
14,21405	128735
14,21817	120346
14,22230	115160
14,22642	103275
14,23053	97173
14,23467	93456
14,23878	89783
14,24290	83842
14,24703	81731
14,25115	74912
14,25527	71737
14,25940	69019
14,26352	67188
14,26763	63228
14,27177	61469
14,27588	59933
14,28000	59755
14,28413	55957
14,28825	55805
14,29237	54247
14,29650	53429
14,30062	56790
14,30473	56236
14,30885	56839
14,31298	59947
14,31710	60704
14,32122	59805
14,32535	56910
14,32947	57725
14,33358	52105
14,33772	54428
14,34183	54969
14,34595	58834
14,35008	75271
14,35420	105398
14,35832	165042
14,36245	254282
14,36657	390887
14,37068	554948
14,37482	744757
14,37893	901243
14,38305	1030448
14,38718	1099598
14,39130	1097752
14,39542	1041426
14,39953	927994
14,40367	795696
14,40778	660555
14,41190	538902
14,41603	435110
14,42015	349845
14,42427	282171
14,42840	230853
14,43252	192252
14,43663	164284
14,44077	140669
14,44488	125045
14,44900	111681
14,45313	100443
14,45725	91639
14,46137	88476
14,46550	87684
14,46962	100271
14,47373	129230
14,47787	186325
14,48198	288412
14,48610	437593
14,49022	656981
14,49435	906152
14,49847	1150734
14,50258	1376303
14,50672	1522501
14,51083	1568952
14,51495	1512344
14,51908	1377939
14,52320	1199715
14,52732	1006616
14,53145	819927
14,53557	659420
14,53968	535015
14,54382	440813
14,54793	360891
14,55205	303321
14,55618	254816
14,56030	220149
14,56442	196614
14,56855	172329
14,57267	150303
14,57678	137147
14,58090	131943
14,58503	114980
14,58915	104981
14,59327	98367
14,59740	91042
14,60152	85536
14,60563	80135
14,60977	76456
14,61388	72485
14,61800	69053
14,62213	67180
14,62625	62355
14,63037	59420
14,63450	56347
14,63862	55387
14,64273	52654
14,64687	50351
14,65098	49057
14,65510	49650
14,65923	45787
14,66335	45548
14,66747	43176
14,67158	43485
14,67572	42522
14,67983	41490
14,68395	41787
14,68808	37974
14,69220	37312
14,69632	38952
14,70045	36938
14,70457	34937
14,70868	34150
14,71282	34680
14,71693	33749
14,72105	32162
14,72518	34350
14,72930	32832
14,73342	34940
14,73755	30857
14,74167	31044
14,74578	28759
14,74992	31146
14,75403	29450
14,75815	30915
14,76227	29442
14,76640	30358
14,77052	28614
14,77463	29719
14,77877	30431
14,78288	33399
14,78700	41351
14,79113	57990
14,79525	90727
14,79937	153396
14,80350	271395
14,80762	448878
14,81173	678720
14,81587	958682
14,81998	1258326
14,82410	1515760
14,82823	1668225
14,83235	1716549
14,83647	1651063
14,84060	1473198
14,84472	1268014
14,84883	1056620
14,85295	860177
14,85708	696529
14,86120	569825
14,86532	459257
14,86945	379061
14,87357	318282
14,87768	270312
14,88182	239833
14,88593	209612
14,89005	183020
14,89418	165587
14,89830	150575
14,90242	133806
14,90655	126140
14,91067	115263
14,91478	106754
14,91892	102088
14,92303	92515
14,92715	89982
14,93128	84963
14,93540	81174
14,93952	73990
14,94363	73262
14,94777	72388
14,95188	65677
14,95600	66258
14,96013	64328
14,96425	62771
14,96837	60542
14,97250	56210
14,97662	56156
14,98073	54660
14,98487	52513
14,98898	48974
14,99310	47424
14,99723	47460
15,00135	45253
15,00547	45379
15,00960	45043
15,01372	42941
15,01783	42272
15,02197	40805
15,02608	42734
15,03020	41083
15,03432	39617
15,03845	38373
15,04257	38594
15,04668	37910
15,05082	36001
15,05493	37137
15,05905	34997
15,06318	34432
15,06730	39162
15,07142	39493
15,07555	48030
15,07967	65862
15,08378	99791
15,08792	158151
15,09203	254682
15,09615	404859
15,10028	601673
15,10440	814707
15,10852	1039710
15,11265	1223362
15,11677	1323144
15,12088	1352789
15,12500	1287529
15,12913	1153784
15,13325	997095
15,13737	843451
15,14150	689703
15,14562	557982
15,14973	453491
15,15387	373647
15,15798	308442
15,16210	263919
15,16623	224892
15,17035	189852
15,17447	167771
15,17860	148864
15,18272	133339
15,18683	122727
15,19097	111051
15,19508	104513
15,19920	94533
15,20333	89277
15,20745	80430
15,21157	80864
15,21570	73556
15,21982	69312
15,22393	65815
15,22805	62676
15,23218	62028
15,23630	60002
15,24042	58319
15,24455	56035
15,24867	54832
15,25278	55786
15,25692	52623
15,26103	48337
15,26515	49058
15,26928	47875
15,27340	47368
15,27752	45426
15,28165	44102
15,28577	45517
15,28988	41861
15,29402	42027
15,29813	43846
15,30225	38731
15,30638	40686
15,31050	39164
15,31462	40340
15,31873	37252
15,32287	38102
15,32698	36215
15,33110	39243
15,33523	35125
15,33935	34947
15,34347	35482
15,34760	34430
15,35172	34613
15,35583	34785
15,35997	35969
15,36408	34477
15,36820	35241
15,37233	33560
15,37645	33914
15,38057	32419
15,38470	32549
15,38882	32426
15,39293	31846
15,39707	29862
15,40118	33379
15,40530	30652
15,40942	32821
15,41355	31998
15,41767	32869
15,42178	32013
15,42592	32909
15,43003	32847
15,43415	31117
15,43828	30760
15,44240	32165
15,44652	31613
15,45065	28255
15,45477	30228
15,45888	31927
15,46302	32227
15,46713	28997
15,47125	31036
15,47538	31960
15,47950	34258
15,48362	40926
15,48775	53029
15,49187	86055
15,49598	143016
15,50010	247057
15,50423	426530
15,50835	701432
15,51247	1119370
15,51660	1664703
15,52072	2301265
15,52483	2989678
15,52897	3635905
15,53308	4159178
15,53720	4483711
15,54133	4489124
15,54545	4269387
15,54957	3816072
15,55370	3316912
15,55782	2806182
15,56193	2315766
15,56607	1889324
15,57018	1538315
15,57430	1259081
15,57843	1041657
15,58255	865922
15,58667	738951
15,59078	622566
15,59492	535738
15,59903	465472
15,60315	416086
15,60728	367334
15,61140	333116
15,61552	304097
15,61965	274865
15,62377	257417
15,62788	238569
15,63202	220985
15,63613	203398
15,64025	190758
15,64438	179617
15,64850	171890
15,65262	161763
15,65675	154408
15,66087	147338
15,66498	136954
15,66912	132461
15,67323	125211
15,67735	122318
15,68147	118543
15,68560	113233
15,68972	111786
15,69383	107378
15,69797	103165
15,70208	99325
15,70620	97643
15,71033	93191
15,71445	91946
15,71857	85350
15,72270	85984
15,72682	84282
15,73093	80452
15,73507	81040
15,73918	77876
15,74330	75001
15,74743	73793
15,75155	73894
15,75567	72212
15,75980	73498
15,76392	76958
15,76803	85904
15,77215	106410
15,77628	142070
15,78040	205459
15,78452	308654
15,78865	464204
15,79277	640154
15,79688	841753
15,80102	1033490
15,80513	1182276
15,80925	1240620
15,81338	1243039
15,81750	1171729
15,82162	1060570
15,82575	922772
15,82987	797178
15,83398	695811
15,83812	635679
15,84223	632694
15,84635	694278
15,85048	788633
15,85460	926506
15,85872	1080165
15,86283	1196274
15,86697	1299500
15,87108	1317830
15,87520	1318432
15,87933	1305708
15,88345	1298104
15,88757	1324111
15,89170	1431511
15,89582	1578638
15,89993	1740726
15,90407	1853419
15,90818	1913035
15,91230	1866866
15,91643	1749964
15,92055	1572030
15,92467	1354000
15,92880	1147679
15,93292	952139
15,93703	791326
15,94117	663767
15,94528	562809
15,94940	490036
15,95352	418535
15,95765	373289
15,96177	331525
15,96588	295699
15,97002	268702
15,97413	249450
15,97825	233472
15,98238	213183
15,98650	195552
15,99062	183445
15,99475	174585
15,99887	162303
16,00298	155651
16,00712	150800
16,01123	137957
16,01535	131044
16,01948	130455
16,02360	121452
16,02772	114541
16,03185	110484
16,03597	107236
16,04008	104546
16,04420	100407
16,04833	98993
16,05245	93015
16,05657	89423
16,06070	88498
16,06482	86659
16,06893	82300
16,07307	80001
16,07718	79071
16,08130	80170
16,08543	73971
16,08955	75129
16,09367	76102
16,09780	72960
16,10192	69206
16,10603	65701
16,11017	69789
16,11428	67487
16,11840	67938
16,12253	63680
16,12665	64170
16,13077	64078
16,13488	63331
16,13902	61613
16,14313	61874
16,14725	64107
16,15138	65690
16,15550	67059
16,15962	84373
16,16375	106848
16,16787	154262
16,17198	231439
16,17612	362325
16,18023	553758
16,18435	798173
16,18848	1084906
16,19260	1365634
16,19672	1614253
16,20085	1747475
16,20497	1754711
16,20908	1644098
16,21322	1467681
16,21733	1265396
16,22145	1053045
16,22557	883837
16,22970	726567
16,23382	612993
16,23793	524978
16,24207	447245
16,24618	396030
16,25030	345361
16,25443	311132
16,25855	282802
16,26267	252239
16,26680	236644
16,27092	219354
16,27503	201685
16,27917	194260
16,28328	179219
16,28740	167365
16,29153	159971
16,29565	150634
16,29977	142206
16,30390	134013
16,30802	131584
16,31213	124299
16,31625	124388
16,32038	117538
16,32450	117054
16,32862	112870
16,33275	108864
16,33687	103648
16,34098	99211
16,34512	99498
16,34923	94715
16,35335	91744
16,35748	89669
16,36160	84822
16,36572	84161
16,36985	81471
16,37397	83222
16,37808	81979
16,38222	80345
16,38633	78313
16,39045	78808
16,39458	75478
16,39870	74770
16,40282	76861
16,40693	72210
16,41107	72454
16,41518	72171
16,41930	69619
16,42343	68323
16,42755	73363
16,43167	68412
16,43580	67935
16,43992	73206
16,44403	79437
16,44817	98364
16,45228	130302
16,45640	187880
16,46053	286752
16,46465	430456
16,46877	619486
16,47290	842397
16,47702	1072917
16,48113	1267995
16,48527	1391806
16,48938	1426233
16,49350	1376710
16,49762	1266392
16,50175	1114871
16,50587	949692
16,50998	799651
16,51412	673614
16,51823	563222
16,52235	477854
16,52648	406852
16,53060	359345
16,53472	320805
16,53885	294892
16,54297	292299
16,54708	307326
16,55122	345205
16,55533	414214
16,55945	520556
16,56358	669525
16,56770	817345
16,57182	943392
16,57595	1055127
16,58007	1098408
16,58418	1068292
16,58830	1026017
16,59243	931505
16,59655	825906
16,60067	703190
16,60480	598281
16,60892	507484
16,61303	429836
16,61717	364517
16,62128	315336
16,62540	282907
16,62953	244590
16,63365	220104
16,63777	201311
16,64190	180387
16,64602	165006
16,65013	153238
16,65427	149581
16,65838	137941
16,66250	125729
16,66663	124259
16,67075	115411
16,67487	113865
16,67898	105617
16,68312	105228
16,68723	102334
16,69135	98878
16,69548	90960
16,69960	92154
16,70372	90101
16,70785	85366
16,71197	86037
16,71608	83448
16,72022	86638
16,72433	81730
16,72845	78779
16,73258	76887
16,73670	74045
16,74082	75324
16,74495	75082
16,74907	73163
16,75318	70665
16,75732	69591
16,76143	70930
16,76555	69246
16,76967	68652
16,77380	67772
16,77792	69312
16,78203	63300
16,78617	64583
16,79028	64479
16,79440	63275
16,79853	63157
16,80265	62528
16,80677	58904
16,81090	61436
16,81502	59882
16,81913	64718
16,82327	67494
16,82738	77160
16,83150	98415
16,83563	132401
16,83975	191255
16,84387	299492
16,84800	451691
16,85212	680713
16,85623	995710
16,86037	1379891
16,86448	1822957
16,86860	2299370
16,87272	2765564
16,87685	3120932
16,88097	3296733
16,88508	3265204
16,88922	3043946
16,89333	2710381
16,89745	2306434
16,90158	1933388
16,90570	1605983
16,90982	1326305
16,91395	1123197
16,91807	954447
16,92218	827263
16,92632	712979
16,93043	633533
16,93455	563643
16,93868	503897
16,94280	461954
16,94692	420470
16,95105	391432
16,95517	355207
16,95928	330826
16,96340	309500
16,96753	288418
16,97165	273193
16,97577	257913
16,97990	237067
16,98402	228865
16,98813	221089
16,99227	207982
16,99638	201696
17,00050	191767
17,00463	185377
17,00875	176219
17,01287	171225
17,01700	163243
17,02112	158132
17,02523	152836
17,02937	143815
17,03348	145258
17,03760	140017
17,04173	134982
17,04585	132760
17,04997	130973
17,05408	126701
17,05822	125415
17,06233	116713
17,06645	117574
17,07058	113859
17,07470	112271
17,07882	110113
17,08295	108321
17,08707	108384
17,09118	104962
17,09532	99686
17,09943	102762
17,10355	101140
17,10768	99767
17,11180	98729
17,11592	97355
17,12005	94324
17,12417	91690
17,12828	90969
17,13242	87812
17,13653	91564
17,14065	87240
17,14477	85450
17,14890	87212
17,15302	86876
17,15713	82323
17,16127	80071
17,16538	80671
17,16950	81327
17,17363	79348
17,17775	79573
17,18187	75208
17,18600	78114
17,19012	75302
17,19423	78819
17,19837	74555
17,20248	74959
17,20660	78532
17,21073	85835
17,21485	96254
17,21897	114151
17,22310	148936
17,22722	201408
17,23133	290070
17,23545	413050
17,23958	566846
17,24370	765959
17,24782	978566
17,25195	1183654
17,25607	1349333
17,26018	1456989
17,26432	1475690
17,26843	1428605
17,27255	1313961
17,27668	1178612
17,28080	1043791
17,28492	901116
17,28905	787332
17,29317	685652
17,29728	592361
17,30142	520804
17,30553	452281
17,30965	414131
17,31378	369237
17,31790	342647
17,32202	310854
17,32613	289303
17,33027	262390
17,33438	244996
17,33850	229241
17,34263	216485
17,34675	200217
17,35087	187573
17,35500	185579
17,35912	171711
17,36323	170270
17,36737	165029
17,37148	153732
17,37560	147417
17,37973	141283
17,38385	138698
17,38797	131826
17,39210	130727
17,39622	126641
17,40033	122714
17,40447	119637
17,40858	115923
17,41270	110823
17,41682	109766
17,42095	108387
17,42507	106369
17,42918	100708
17,43332	103196
17,43743	101087
17,44155	96896
17,44568	96862
17,44980	97779
17,45392	93804
17,45805	91135
17,46217	86874
17,46628	87608
17,47042	90624
17,47453	84171
17,47865	87719
17,48278	83914
17,48690	81616
17,49102	79451
17,49515	82755
17,49927	80985
17,50338	76893
17,50750	77581
17,51163	74812
17,51575	75788
17,51987	75891
17,52400	71631
17,52812	73584
17,53223	77694
17,53637	75742
17,54048	73479
17,54460	71067
17,54873	71776
17,55285	74365
17,55697	72926
17,56110	71811
17,56522	70468
17,56933	72319
17,57347	72223
17,57758	72168
17,58170	70940
17,58583	69946
17,58995	71426
17,59407	69817
17,59818	70312
17,60232	68308
17,60643	67431
17,61055	66827
17,61468	65813
17,61880	64822
17,62292	63942
17,62705	63316
17,63117	63537
17,63528	62119
17,63942	64004
17,64353	60002
17,64765	59575
17,65178	64514
17,65590	60748
17,66002	64724
17,66415	65472
17,66827	67150
17,67238	71111
17,67652	77444
17,68063	82280
17,68475	89419
17,68887	97822
17,69300	103759
17,69712	111619
17,70123	113509
17,70537	119261
17,70948	121346
17,71360	118308
17,71773	116097
17,72185	108843
17,72597	99915
17,73010	98179
17,73422	93988
17,73833	85387
17,74247	85257
17,74658	78902
17,75070	75722
17,75483	71364
17,75895	70961
17,76307	66002
17,76720	66301
17,77132	65076
17,77543	64239
17,77955	65520
17,78368	60049
17,78780	59233
17,79192	61452
17,79605	59601
17,80017	59959
17,80428	58834
17,80842	58396
17,81253	59107
17,81665	58851
17,82078	56804
17,82490	57025
17,82902	57456
17,83315	57662
17,83727	57623
17,84138	59646
17,84552	57146
17,84963	55275
17,85375	54463
17,85788	55881
17,86200	53248
17,86612	54754
17,87023	52470
17,87437	56543
17,87848	57079
17,88260	56437
17,88673	54573
17,89085	54288
17,89497	56137
17,89910	57484
17,90322	52162
17,90733	55938
17,91147	54384
17,91558	55260
17,91970	55074
17,92383	54467
17,92795	54173
17,93207	56434
17,93620	54751
17,94032	54461
17,94443	53404
17,94857	55845
17,95268	56185
17,95680	54926
17,96092	54808
17,96505	52578
17,96917	54441
17,97328	54990
17,97742	53712
17,98153	53251
17,98565	53704
17,98978	54071
17,99390	56932
17,99802	53371
18,00215	55968
18,00627	52930
18,01038	54043
18,01452	53268
18,01863	53104
18,02275	53058
18,02688	53615
18,03100	55748
18,03512	53661
18,03925	51703
18,04337	52685
18,04748	54690
18,05160	55934
18,05573	52892
18,05985	55063
18,06397	52786
18,06810	55071
18,07222	52457
18,07633	55190
18,08047	50513
18,08458	52950
18,08870	53080
18,09283	56195
18,09695	54009
18,10107	55479
18,10520	55878
18,10932	54873
18,11343	53841
18,11757	53168
18,12168	53763
18,12580	56809
18,12993	53969
18,13405	53920
18,13817	52702
18,14228	53540
18,14642	55159
18,15053	53977
18,15465	54353
18,15878	55733
18,16290	55299
18,16702	55854
18,17115	55765
18,17527	54367
18,17938	55794
18,18352	56696
18,18763	54929
18,19175	53988
18,19588	57449
18,20000	55491
18,20412	54104
18,20825	53040
18,21237	49460
18,21648	54599
18,22062	52301
18,22473	53820
18,22885	51484
18,23297	51567
18,23710	52821
18,24122	55456
18,24533	53552
18,24947	53060
18,25358	54078
18,25770	52547
18,26183	51250
18,26595	54485
18,27007	53569
18,27420	54871
18,27832	52705
18,28243	53980
18,28657	51725
18,29068	52100
18,29480	53043
18,29893	52004
18,30305	52694
18,30717	54848
18,31130	55672
18,31542	52077
18,31953	54429
18,32365	54112
18,32778	53345
18,33190	50790
18,33602	53864
18,34015	51628
18,34427	55814
18,34838	54280
18,35252	57806
18,35663	63340
18,36075	74333
18,36488	85707
18,36900	116406
18,37312	145740
18,37725	199161
18,38137	261977
18,38548	333269
18,38962	418538
18,39373	507058
18,39785	581418
18,40198	643289
18,40610	693955
18,41022	705659
18,41435	698750
18,41847	670054
18,42258	622897
18,42670	573585
18,43083	517582
18,43495	464863
18,43907	413107
18,44320	364173
18,44732	330617
18,45143	291769
18,45557	262529
18,45968	235440
18,46380	216600
18,46793	200958
18,47205	181393
18,47617	171006
18,48030	154956
18,48442	151674
18,48853	137566
18,49267	135929
18,49678	126776
18,50090	121058
18,50503	114723
18,50915	110701
18,51327	106740
18,51738	103075
18,52152	101031
18,52563	95963
18,52975	97105
18,53388	92551
18,53800	88889
18,54212	87032
18,54625	85770
18,55037	85654
18,55448	83195
18,55862	82715
18,56273	82623
18,56685	78388
18,57098	78697
18,57510	76976
18,57922	75089
18,58335	77003
18,58747	74289
18,59158	72625
18,59572	75040
18,59983	74968
18,60395	71580
18,60807	68754
18,61220	69573
18,61632	65682
18,62043	71085
18,62457	68072
18,62868	66549
18,63280	67003
18,63693	65413
18,64105	64200
18,64517	63703
18,64930	64721
18,65342	63036
18,65753	62981
18,66167	64161
18,66578	59934
18,66990	64249
18,67403	60803
18,67815	60805
18,68227	64156
18,68640	63301
18,69052	59430
18,69463	57945
18,69875	59482
18,70288	62471
18,70700	60175
18,71112	61239
18,71525	59965
18,71937	60448
18,72348	57245
18,72762	58120
18,73173	59366
18,73585	60328
18,73998	59147
18,74410	58520
18,74822	56242
18,75235	56079
18,75647	56389
18,76058	55619
18,76472	59053
18,76883	55058
18,77295	57598
18,77708	57179
18,78120	60189
18,78532	57688
18,78943	55497
18,79357	57827
18,79768	57724
18,80180	56642
18,80593	52680
18,81005	56509
18,81417	55064
18,81830	58119
18,82242	54544
18,82653	55431
18,83067	55598
18,83478	56122
18,83890	56376
18,84303	54319
18,84715	55280
18,85127	52541
18,85540	56521
18,85952	57702
18,86363	55318
18,86777	56555
18,87188	56575
18,87600	54818
18,88012	56566
18,88425	57320
18,88837	54251
18,89248	54684
18,89662	55022
18,90073	55528
18,90485	55841
18,90898	53403
18,91310	55907
18,91722	54759
18,92135	52559
18,92547	56507
18,92958	54062
18,93372	52433
18,93783	49421
18,94195	54870
18,94608	53713
18,95020	51681
18,95432	51135
18,95845	52303
18,96257	52122
18,96668	51854
18,97080	56010
18,97493	50110
18,97905	52099
18,98317	52179
18,98730	54520
18,99142	51793
18,99553	52314
18,99967	50692
19,00378	51699
19,00790	52714
19,01203	55684
19,01615	55469
19,02027	53285
