D:\MassHunter\GCMS\1\data\Amal\Constant flow\90C\90C_1ml-min_8C-min_2.D Thu Sep 05 15:42:47 2024
Start of data points
5,59093	120391
5,59505	119857
5,59917	118360
5,60330	113113
5,60742	114172
5,61153	111933
5,61567	111172
5,61978	109995
5,62390	107301
5,62803	107095
5,63215	108467
5,63627	102837
5,64040	104769
5,64452	105569
5,64863	103217
5,65277	102248
5,65688	104383
5,66100	112027
5,66513	130924
5,66925	164137
5,67337	208669
5,67748	277771
5,68162	350841
5,68573	440158
5,68985	517738
5,69398	576210
5,69810	615274
5,70222	640400
5,70635	638494
5,71047	631973
5,71458	609751
5,71872	583911
5,72283	555629
5,72695	530979
5,73108	511880
5,73520	486087
5,73932	462368
5,74345	442639
5,74757	418347
5,75168	401444
5,75582	382065
5,75993	363184
5,76405	349188
5,76817	333320
5,77230	316667
5,77642	305393
5,78053	293239
5,78467	282804
5,78878	274554
5,79290	259882
5,79703	247853
5,80115	236981
5,80527	228765
5,80940	220628
5,81352	208431
5,81763	199921
5,82177	188473
5,82588	178922
5,83000	168827
5,83413	160286
5,83825	150867
5,84237	146248
5,84650	138013
5,85062	131860
5,85473	128009
5,85885	122164
5,86298	117247
5,86710	113206
5,87122	106450
5,87535	105255
5,87947	100295
5,88358	97341
5,88772	96913
5,89183	91698
5,89595	90733
5,90008	91891
5,90420	86986
5,90832	84005
5,91245	80559
5,91657	82191
5,92068	81642
5,92482	80049
5,92893	77022
5,93305	76186
5,93718	74920
5,94130	73586
5,94542	70194
5,94953	73947
5,95367	70988
5,95778	71176
5,96190	71273
5,96603	69419
5,97015	69879
5,97427	68842
5,97840	67660
5,98252	67496
5,98663	66996
5,99077	67756
5,99488	66230
5,99900	67596
6,00313	61717
6,00725	64944
6,01137	64132
6,01550	64338
6,01962	63727
6,02373	63027
6,02787	62907
6,03198	62015
6,03610	63768
6,04022	60576
6,04435	62208
6,04847	61807
6,05258	60321
6,05672	60537
6,06083	60292
6,06495	60208
6,06908	59395
6,07320	60783
6,07732	62212
6,08145	59994
6,08557	58132
6,08968	58909
6,09382	57198
6,09793	60490
6,10205	58470
6,10618	56972
6,11030	55854
6,11442	56417
6,11855	55559
6,12267	57253
6,12678	56732
6,13090	58378
6,13503	55171
6,13915	57272
6,14327	56588
6,14740	56876
6,15152	57695
6,15563	57194
6,15977	58270
6,16388	57827
6,16800	57627
6,17213	56959
6,17625	55757
6,18037	53760
6,18450	56113
6,18862	55328
6,19273	54597
6,19687	54890
6,20098	54313
6,20510	54711
6,20923	53746
6,21335	52468
6,21747	55701
6,22158	53197
6,22572	53090
6,22983	52496
6,23395	53120
6,23808	51428
6,24220	51532
6,24632	53250
6,25045	49552
6,25457	49820
6,25868	49513
6,26282	50106
6,26693	52032
6,27105	51638
6,27518	50411
6,27930	50321
6,28342	50096
6,28755	51018
6,29167	49854
6,29578	51171
6,29992	49583
6,30403	49986
6,30815	49246
6,31227	49993
6,31640	53114
6,32052	48070
6,32463	49047
6,32877	50863
6,33288	49260
6,33700	48470
6,34113	48925
6,34525	48208
6,34937	49000
6,35350	49145
6,35762	47201
6,36173	47000
6,36587	48064
6,36998	45315
6,37410	46511
6,37823	45444
6,38235	45840
6,38647	46300
6,39060	43981
6,39472	44405
6,39883	45781
6,40295	45515
6,40708	43760
6,41120	43972
6,41532	45294
6,41945	45525
6,42357	43373
6,42768	43538
6,43182	42651
6,43593	44293
6,44005	44956
6,44418	44074
6,44830	42922
6,45242	43364
6,45655	43958
6,46067	44067
6,46478	42916
6,46892	42513
6,47303	44087
6,47715	42697
6,48128	44096
6,48540	41442
6,48952	41223
6,49363	42009
6,49777	42517
6,50188	41867
6,50600	40524
6,51013	42187
6,51425	40526
6,51837	40240
6,52250	43064
6,52662	42444
6,53073	42951
6,53487	40864
6,53898	40907
6,54310	39839
6,54723	41072
6,55135	41702
6,55547	42664
6,55960	43046
6,56372	43010
6,56783	44463
6,57197	46792
6,57608	44905
6,58020	45359
6,58433	44071
6,58845	45245
6,59257	46192
6,59668	45846
6,60082	45173
6,60493	45351
6,60905	44240
6,61318	44136
6,61730	45779
6,62142	45382
6,62555	45824
6,62967	46273
6,63378	46916
6,63792	47810
6,64203	47370
6,64615	49944
6,65028	51109
6,65440	50004
6,65852	50250
6,66265	51179
6,66677	49526
6,67088	51425
6,67502	51781
6,67913	50545
6,68325	51502
6,68737	51483
6,69150	47736
6,69562	48928
6,69973	49274
6,70387	49541
6,70798	49086
6,71210	46777
6,71623	46653
6,72035	46936
6,72447	46136
6,72860	46080
6,73272	45199
6,73683	43626
6,74097	42939
6,74508	42061
6,74920	41872
6,75333	40743
6,75745	42000
6,76157	41800
6,76570	40172
6,76982	39738
6,77393	41244
6,77805	40021
6,78218	40851
6,78630	39437
6,79042	38720
6,79455	39206
6,79867	39256
6,80278	37587
6,80692	37179
6,81103	37839
6,81515	38779
6,81928	36521
6,82340	37119
6,82752	37305
6,83165	35811
6,83577	38020
6,83988	36370
6,84402	36884
6,84813	36035
6,85225	34279
6,85638	35613
6,86050	35505
6,86462	35584
6,86873	36515
6,87287	35511
6,87698	34406
6,88110	35861
6,88523	36127
6,88935	35283
6,89347	33335
6,89760	34985
6,90172	35063
6,90583	35892
6,90997	34027
6,91408	33510
6,91820	34460
6,92233	34760
6,92645	34007
6,93057	33516
6,93470	34195
6,93882	33799
6,94293	34775
6,94707	32376
6,95118	32150
6,95530	32410
6,95942	32710
6,96355	32749
6,96767	30452
6,97178	31648
6,97592	32617
6,98003	30114
6,98415	32526
6,98828	32802
6,99240	36741
6,99652	45676
7,00065	60619
7,00477	88567
7,00888	132645
7,01302	206730
7,01713	300625
7,02125	429767
7,02538	571901
7,02950	710130
7,03362	837506
7,03775	959920
7,04187	1031869
7,04598	1065493
7,05010	1078833
7,05423	1067770
7,05835	1019161
7,06247	980007
7,06660	915176
7,07072	859128
7,07483	796120
7,07897	738322
7,08308	682417
7,08720	624752
7,09133	577899
7,09545	525098
7,09957	484452
7,10370	441938
7,10782	396867
7,11193	367740
7,11607	325456
7,12018	300616
7,12430	270917
7,12843	241094
7,13255	210190
7,13667	188958
7,14078	166266
7,14492	154072
7,14903	136672
7,15315	127746
7,15728	113960
7,16140	103815
7,16552	93621
7,16965	84868
7,17377	79304
7,17788	71327
7,18202	67172
7,18613	62693
7,19025	60089
7,19438	55664
7,19850	52142
7,20262	49838
7,20675	48371
7,21087	46637
7,21498	44741
7,21912	44435
7,22323	42659
7,22735	40625
7,23147	42221
7,23560	39051
7,23972	38819
7,24383	37625
7,24797	37351
7,25208	37298
7,25620	36013
7,26033	36617
7,26445	34419
7,26857	33599
7,27270	33445
7,27682	33878
7,28093	34047
7,28507	31578
7,28918	31471
7,29330	32279
7,29743	31293
7,30155	31685
7,30567	31181
7,30980	32197
7,31392	31664
7,31803	29282
7,32215	29965
7,32628	28174
7,33040	28780
7,33452	28644
7,33865	30212
7,34277	29020
7,34688	27319
7,35102	27798
7,35513	27685
7,35925	27183
7,36338	26844
7,36750	26957
7,37162	28874
7,37575	28067
7,37987	27480
7,38398	27142
7,38812	26694
7,39223	27601
7,39635	25493
7,40048	27141
7,40460	27410
7,40872	25687
7,41283	26735
7,41697	26487
7,42108	27923
7,42520	26472
7,42933	27453
7,43345	26330
7,43757	28616
7,44170	24721
7,44582	27909
7,44993	26825
7,45407	24533
7,45818	25655
7,46230	25894
7,46643	25188
7,47055	25503
7,47467	26849
7,47880	23869
7,48292	25312
7,48703	25625
7,49117	25086
7,49528	25591
7,49940	24623
7,50352	24500
7,50765	24816
7,51177	25787
7,51588	23709
7,52002	24951
7,52413	26409
7,52825	24657
7,53238	24832
7,53650	23627
7,54062	23814
7,54475	25099
7,54887	24429
7,55298	24371
7,55712	23893
7,56123	24291
7,56535	24172
7,56948	24620
7,57360	22373
7,57772	23978
7,58185	23883
7,58597	21741
7,59008	23049
7,59420	25218
7,59833	23490
7,60245	23291
7,60657	23003
7,61070	24259
7,61482	23329
7,61893	22883
7,62307	22497
7,62718	22700
7,63130	23982
7,63543	22533
7,63955	23507
7,64367	24391
7,64780	24151
7,65192	22532
7,65603	24204
7,66017	23189
7,66428	23513
7,66840	24125
7,67253	25043
7,67665	24266
7,68077	25212
7,68488	23738
7,68902	23698
7,69313	22055
7,69725	21300
7,70138	24699
7,70550	24989
7,70962	23005
7,71375	23354
7,71787	25049
7,72198	24646
7,72612	24287
7,73023	25843
7,73435	24358
7,73848	23957
7,74260	23733
7,74672	22165
7,75085	23789
7,75497	23650
7,75908	22142
7,76322	22347
7,76733	22686
7,77145	22465
7,77557	20837
7,77970	21241
7,78382	21584
7,78793	22047
7,79207	21940
7,79618	22356
7,80030	23187
7,80443	21649
7,80855	22093
7,81267	21648
7,81680	21002
7,82092	21569
7,82503	21157
7,82917	20249
7,83328	20939
7,83740	21750
7,84153	21667
7,84565	20201
7,84977	20438
7,85390	20560
7,85802	20332
7,86213	20227
7,86625	21396
7,87038	20920
7,87450	21694
7,87862	19112
7,88275	20779
7,88687	22075
7,89098	21757
7,89512	21625
7,89923	22550
7,90335	21639
7,90748	22502
7,91160	21888
7,91572	22558
7,91985	22782
7,92397	21650
7,92808	21837
7,93222	21659
7,93633	22525
7,94045	22074
7,94458	22284
7,94870	20995
7,95282	20987
7,95693	21669
7,96107	20115
7,96518	20843
7,96930	20593
7,97343	19766
7,97755	20265
7,98167	20059
7,98580	19840
7,98992	19061
7,99403	20687
7,99817	19961
8,00228	19678
8,00640	21068
8,01053	20341
8,01465	19542
8,01877	20455
8,02290	20458
8,02702	19252
8,03113	20303
8,03527	20310
8,03938	19272
8,04350	20196
8,04762	20429
8,05175	21149
8,05587	21993
8,05998	23023
8,06412	23064
8,06823	23256
8,07235	24565
8,07648	24212
8,08060	26734
8,08472	25791
8,08885	24641
8,09297	23784
8,09708	23586
8,10122	24483
8,10533	23048
8,10945	21514
8,11358	22172
8,11770	20688
8,12182	19586
8,12595	21442
8,13007	19584
8,13418	20399
8,13832	19985
8,14243	21413
8,14655	20119
8,15067	19583
8,15480	20273
8,15892	19324
8,16303	19480
8,16717	18555
8,17128	18127
8,17540	19740
8,17953	18857
8,18365	19625
8,18777	20587
8,19190	18231
8,19602	17984
8,20013	18247
8,20427	18684
8,20838	18115
8,21250	18129
8,21663	19438
8,22075	18180
8,22487	19087
8,22900	20396
8,23312	19740
8,23723	19007
8,24135	18902
8,24548	19029
8,24960	18634
8,25372	17510
8,25785	17718
8,26197	18059
8,26608	18718
8,27022	19468
8,27433	18794
8,27845	18669
8,28258	18331
8,28670	18021
8,29082	17918
8,29495	17196
8,29907	18498
8,30318	17308
8,30732	17727
8,31143	17434
8,31555	17753
8,31968	17486
8,32380	16222
8,32792	16517
8,33203	17898
8,33617	17049
8,34028	18928
8,34440	17473
8,34853	17818
8,35265	17760
8,35677	18709
8,36090	16848
8,36502	17381
8,36913	17459
8,37327	17169
8,37738	17823
8,38150	17880
8,38563	16612
8,38975	17230
8,39387	17011
8,39800	17223
8,40212	17414
8,40623	16888
8,41037	17219
8,41448	17087
8,41860	18226
8,42272	16819
8,42685	17109
8,43097	16145
8,43508	17093
8,43922	17767
8,44333	16936
8,44745	16845
8,45158	17393
8,45570	16720
8,45982	16554
8,46395	16017
8,46807	17456
8,47218	16678
8,47632	16406
8,48043	16940
8,48455	15825
8,48868	17674
8,49280	15731
8,49692	16672
8,50105	16902
8,50517	15907
8,50928	16318
8,51340	16991
8,51753	17726
8,52165	16071
8,52577	17747
8,52990	16561
8,53402	17087
8,53813	17724
8,54227	16005
8,54638	16472
8,55050	14869
8,55463	15404
8,55875	17056
8,56287	18770
8,56700	15947
8,57112	17052
8,57523	17310
8,57937	18435
8,58348	17225
8,58760	16293
8,59173	15479
8,59585	18149
8,59997	14720
8,60408	16792
8,60822	18018
8,61233	16796
8,61645	17527
8,62058	15991
8,62470	18164
8,62882	17185
8,63295	16492
8,63707	17365
8,64118	17192
8,64532	17707
8,64943	16965
8,65355	15552
8,65768	16652
8,66180	16878
8,66592	15613
8,67005	15192
8,67417	16934
8,67828	17112
8,68242	16157
8,68653	16158
8,69065	16038
8,69477	16577
8,69890	14874
8,70302	15054
8,70713	16126
8,71127	15292
8,71538	16190
8,71950	16778
8,72363	15570
8,72775	16647
8,73187	16477
8,73600	14346
8,74012	15031
8,74423	14797
8,74837	16582
8,75248	15560
8,75660	15787
8,76073	16354
8,76485	15807
8,76897	15874
8,77310	16037
8,77722	15844
8,78133	16293
8,78545	14883
8,78958	15992
8,79370	16496
8,79782	17399
8,80195	18453
8,80607	24294
8,81018	36807
8,81432	59288
8,81843	98943
8,82255	168874
8,82668	272376
8,83080	422204
8,83492	616577
8,83905	841806
8,84317	1074413
8,84728	1301174
8,85142	1481885
8,85553	1618809
8,85965	1685335
8,86378	1692672
8,86790	1651990
8,87202	1559868
8,87613	1443299
8,88027	1279530
8,88438	1130926
8,88850	983464
8,89263	832441
8,89675	706652
8,90087	591109
8,90500	492371
8,90912	414318
8,91323	347062
8,91737	288423
8,92148	243331
8,92560	204202
8,92973	178059
8,93385	153979
8,93797	133863
8,94210	115746
8,94622	103048
8,95033	93614
8,95447	86274
8,95858	77190
8,96270	66320
8,96682	62852
8,97095	58812
8,97507	56177
8,97918	51511
8,98332	48595
8,98743	48959
8,99155	42137
8,99568	41017
8,99980	40157
9,00392	38362
9,00805	35750
9,01217	35815
9,01628	34330
9,02042	30240
9,02453	30555
9,02865	30473
9,03278	30175
9,03690	30231
9,04102	29193
9,04515	27931
9,04927	27299
9,05338	25306
9,05750	24959
9,06163	24716
9,06575	24962
9,06987	24117
9,07400	22952
9,07812	22809
9,08223	22627
9,08637	22860
9,09048	22857
9,09460	23000
9,09873	20795
9,10285	22414
9,10697	20265
9,11110	21229
9,11522	20588
9,11933	20493
9,12347	19384
9,12758	19418
9,13170	18976
9,13583	19374
9,13995	18933
9,14407	17618
9,14818	19377
9,15232	19315
9,15643	19393
9,16055	19110
9,16468	18414
9,16880	18555
9,17292	20321
9,17705	19296
9,18117	18912
9,18528	19219
9,18942	19274
9,19353	20385
9,19765	18740
9,20178	18491
9,20590	18289
9,21002	18730
9,21415	18213
9,21827	18089
9,22238	17401
9,22652	17318
9,23063	18260
9,23475	17173
9,23887	16686
9,24300	17396
9,24712	16343
9,25123	16643
9,25537	17603
9,25948	17004
9,26360	14962
9,26773	16864
9,27185	15578
9,27597	15580
9,28010	16652
9,28422	16733
9,28833	17426
9,29247	17020
9,29658	16874
9,30070	16573
9,30483	18301
9,30895	15696
9,31307	17206
9,31720	16919
9,32132	17077
9,32543	17080
9,32955	15998
9,33368	15280
9,33780	14581
9,34192	14928
9,34605	16077
9,35017	15017
9,35428	15360
9,35842	15664
9,36253	14254
9,36665	14657
9,37078	15523
9,37490	15448
9,37902	14709
9,38315	14464
9,38727	14054
9,39138	14599
9,39552	13982
9,39963	14836
9,40375	14882
9,40788	15411
9,41200	14860
9,41612	14957
9,42023	15029
9,42437	14855
9,42848	14669
9,43260	15301
9,43673	16424
9,44085	15165
9,44497	14548
9,44910	14607
9,45322	15391
9,45733	13916
9,46147	15259
9,46558	14181
9,46970	13413
9,47383	14567
9,47795	14423
9,48207	14071
9,48620	13995
9,49032	14041
9,49443	12869
9,49857	13764
9,50268	14197
9,50680	13631
9,51092	14028
9,51505	12650
9,51917	14067
9,52328	13173
9,52742	13732
9,53153	13797
9,53565	14011
9,53978	14286
9,54390	14135
9,54802	15349
9,55215	13504
9,55627	12916
9,56038	14488
9,56452	13409
9,56863	15524
9,57275	14870
9,57688	13502
9,58100	13437
9,58512	14280
9,58925	13858
9,59337	15396
9,59748	13575
9,60160	14735
9,60573	13939
9,60985	15781
9,61397	14556
9,61810	14621
9,62222	14937
9,62633	15910
9,63047	15563
9,63458	16342
9,63870	16207
9,64283	16158
9,64695	14585
9,65107	15295
9,65520	14434
9,65932	13736
9,66343	14148
9,66757	13609
9,67168	13730
9,67580	13399
9,67993	13689
9,68405	13128
9,68817	14632
9,69228	14590
9,69642	14550
9,70053	12799
9,70465	12174
9,70878	13344
9,71290	12762
9,71702	12084
9,72115	12549
9,72527	12663
9,72938	12604
9,73352	12018
9,73763	12176
9,74175	12015
9,74588	13113
9,75000	12470
9,75412	11711
9,75825	12403
9,76237	12294
9,76648	12461
9,77062	12425
9,77473	12190
9,77885	12006
9,78298	13224
9,78710	12314
9,79122	13438
9,79533	14946
9,79947	19167
9,80358	28361
9,80770	45104
9,81183	74248
9,81595	121088
9,82007	194749
9,82420	292325
9,82832	426428
9,83243	573381
9,83657	719470
9,84068	849833
9,84480	949127
9,84893	1001930
9,85305	1011801
9,85717	987176
9,86130	911377
9,86542	815295
9,86953	712047
9,87367	596566
9,87778	503736
9,88190	414424
9,88602	341365
9,89015	274023
9,89427	224733
9,89838	183621
9,90252	154851
9,90663	127512
9,91075	109065
9,91488	92155
9,91900	82265
9,92312	72937
9,92725	64292
9,93137	59679
9,93548	52769
9,93962	50145
9,94373	46217
9,94785	45356
9,95198	41547
9,95610	37816
9,96022	37517
9,96435	34201
9,96847	32853
9,97258	33533
9,97670	30788
9,98083	29212
9,98495	26952
9,98907	26521
9,99320	25550
9,99732	26150
10,00143	23697
10,00557	23305
10,00968	22371
10,01380	22571
10,01793	20459
10,02205	20318
10,02617	20822
10,03030	19270
10,03442	21054
10,03853	18599
10,04267	18244
10,04678	18226
10,05090	16791
10,05503	17707
10,05915	16750
10,06327	16678
10,06738	15218
10,07152	16692
10,07563	14814
10,07975	15794
10,08388	15009
10,08800	15512
10,09212	15419
10,09625	15617
10,10037	14610
10,10448	15467
10,10862	14565
10,11273	14342
10,11685	14853
10,12098	13762
10,12510	14232
10,12922	14054
10,13335	13960
10,13747	12541
10,14158	13426
10,14572	12493
10,14983	12384
10,15395	13154
10,15807	14522
10,16220	14593
10,16632	14378
10,17043	12899
10,17457	12813
10,17868	13658
10,18280	13016
10,18693	12813
10,19105	13234
10,19517	13076
10,19930	13352
10,20342	12894
10,20753	14057
10,21167	14418
10,21578	15992
10,21990	14833
10,22403	15480
10,22815	17946
10,23227	18424
10,23640	17756
10,24052	16492
10,24463	17335
10,24875	16976
10,25288	16073
10,25700	14134
10,26112	14203
10,26525	12478
10,26937	12954
10,27348	11728
10,27762	12951
10,28173	11848
10,28585	12363
10,28998	13592
10,29410	12830
10,29822	11655
10,30235	12968
10,30647	12128
10,31058	12319
10,31472	11486
10,31883	12002
10,32295	11786
10,32708	11987
10,33120	12685
10,33532	11689
10,33943	12474
10,34357	12279
10,34768	11924
10,35180	12198
10,35593	10802
10,36005	11011
10,36417	11439
10,36830	11717
10,37242	11656
10,37653	11637
10,38067	11376
10,38478	10814
10,38890	11694
10,39303	11346
10,39715	12411
10,40127	11139
10,40540	11479
10,40952	10191
10,41363	11314
10,41777	12427
10,42188	11640
10,42600	11251
10,43012	11807
10,43425	12439
10,43837	10710
10,44248	9837
10,44662	11230
10,45073	10613
10,45485	11147
10,45898	10873
10,46310	11229
10,46722	11853
10,47135	11580
10,47547	11450
10,47958	10752
10,48372	11231
10,48783	10360
10,49195	11474
10,49608	12622
10,50020	10863
10,50432	11196
10,50845	10681
10,51257	11427
10,51668	10526
10,52080	11762
10,52493	10315
10,52905	10995
10,53317	10221
10,53730	11740
10,54142	10086
10,54553	10969
10,54967	11720
10,55378	9722
10,55790	10323
10,56203	10857
10,56615	10829
10,57027	11237
10,57440	10915
10,57852	11208
10,58263	10227
10,58677	10705
10,59088	11977
10,59500	11504
10,59913	10377
10,60325	11771
10,60737	11672
10,61148	11387
10,61562	11651
10,61973	11668
10,62385	11092
10,62798	12300
10,63210	11414
10,63622	10649
10,64035	10292
10,64447	11253
10,64858	11925
10,65272	10568
10,65683	11111
10,66095	11002
10,66508	11397
10,66920	10137
10,67332	11057
10,67745	10738
10,68157	11601
10,68568	10754
10,68982	11924
10,69393	10786
10,69805	11568
10,70217	10525
10,70630	10845
10,71042	11896
10,71453	11928
10,71867	11749
10,72278	12071
10,72690	10856
10,73103	12510
10,73515	12635
10,73927	10358
10,74340	10546
10,74752	10285
10,75163	10697
10,75577	10265
10,75988	10026
10,76400	10800
10,76813	11405
10,77225	9331
10,77637	11017
10,78050	9852
10,78462	11388
10,78873	10800
10,79285	12218
10,79698	17671
10,80110	27250
10,80522	45550
10,80935	87158
10,81347	156802
10,81758	276174
10,82172	465797
10,82583	718931
10,82995	1043167
10,83408	1378895
10,83820	1710850
10,84232	2008443
10,84645	2232729
10,85057	2319871
10,85468	2267888
10,85882	2136798
10,86293	1910516
10,86705	1632027
10,87118	1355568
10,87530	1099960
10,87942	881341
10,88353	695034
10,88767	555532
10,89178	442256
10,89590	354222
10,90003	292620
10,90415	238294
10,90827	200926
10,91240	167827
10,91652	150932
10,92063	129764
10,92477	115124
10,92888	97404
10,93300	88274
10,93713	81477
10,94125	76639
10,94537	67755
10,94950	62284
10,95362	60393
10,95773	52995
10,96187	50526
10,96598	46404
10,97010	42616
10,97422	41850
10,97835	39171
10,98247	36454
10,98658	35251
10,99072	34466
10,99483	32377
10,99895	32438
11,00308	29783
11,00720	29409
11,01132	26523
11,01545	25897
11,01957	25804
11,02368	24330
11,02782	23462
11,03193	22441
11,03605	22929
11,04018	22128
11,04430	22696
11,04842	20741
11,05255	21401
11,05667	20360
11,06078	18768
11,06490	18724
11,06903	18248
11,07315	17716
11,07727	18530
11,08140	17664
11,08552	16679
11,08963	17152
11,09377	16379
11,09788	16753
11,10200	14609
11,10613	16602
11,11025	15401
11,11437	14687
11,11850	14581
11,12262	15262
11,12673	14218
11,13087	14708
11,13498	14528
11,13910	13112
11,14323	14245
11,14735	14035
11,15147	14738
11,15558	13759
11,15972	12637
11,16383	13269
11,16795	13990
11,17208	14037
11,17620	12436
11,18032	12806
11,18445	12995
11,18857	12351
11,19268	11568
11,19682	12048
11,20093	13330
11,20505	11575
11,20918	11681
11,21330	12989
11,21742	13658
11,22155	12726
11,22567	11128
11,22978	12616
11,23392	11952
11,23803	11613
11,24215	11917
11,24627	11578
11,25040	12702
11,25452	11779
11,25863	11483
11,26277	11982
11,26688	10932
11,27100	11044
11,27513	12099
11,27925	11964
11,28337	11357
11,28750	11355
11,29162	9997
11,29573	12142
11,29987	11361
11,30398	12082
11,30810	11619
11,31223	12123
11,31635	12273
11,32047	12271
11,32460	12779
11,32872	11093
11,33283	10930
11,33695	12025
11,34108	11713
11,34520	12529
11,34932	12037
11,35345	11850
11,35757	11838
11,36168	11677
11,36582	10778
11,36993	10840
11,37405	11488
11,37818	11657
11,38230	11831
11,38642	11308
11,39055	10523
11,39467	11553
11,39878	12005
11,40292	13624
11,40703	13734
11,41115	16358
11,41528	16247
11,41940	16823
11,42352	17978
11,42765	16316
11,43177	18471
11,43588	16616
11,44000	15011
11,44413	15575
11,44825	13885
11,45237	14245
11,45650	12380
11,46062	12621
11,46473	13719
11,46887	12800
11,47298	11275
11,47710	11108
11,48123	11399
11,48535	10324
11,48947	11946
11,49360	9973
11,49772	10570
11,50183	9373
11,50597	9974
11,51008	10696
11,51420	10362
11,51833	8796
11,52245	11250
11,52657	9306
11,53068	10335
11,53482	10590
11,53893	9880
11,54305	10349
11,54718	9724
11,55130	10098
11,55542	10570
11,55955	9343
11,56367	8681
11,56778	9134
11,57192	9460
11,57603	8694
11,58015	9410
11,58428	9783
11,58840	8685
11,59252	8887
11,59665	8793
11,60077	9133
11,60488	9657
11,60902	8317
11,61313	8543
11,61725	10209
11,62137	10180
11,62550	8304
11,62962	9853
11,63373	9327
11,63787	9268
11,64198	9449
11,64610	8243
11,65023	8702
11,65435	8978
11,65847	8870
11,66260	9632
11,66672	9261
11,67083	9515
11,67497	8806
11,67908	9173
11,68320	9289
11,68733	9635
11,69145	8531
11,69557	11522
11,69970	9794
11,70382	8687
11,70793	8561
11,71205	9696
11,71618	9467
11,72030	9718
11,72442	9954
11,72855	10600
11,73267	10197
11,73678	9249
11,74092	8361
11,74503	9344
11,74915	8687
11,75328	8426
11,75740	9304
11,76152	8530
11,76565	9089
11,76977	8196
11,77388	8968
11,77802	9767
11,78213	10488
11,78625	12933
11,79038	22055
11,79450	39337
11,79862	67696
11,80273	122734
11,80687	207921
11,81098	326945
11,81510	489872
11,81923	672846
11,82335	886965
11,82747	1065891
11,83160	1202489
11,83572	1258028
11,83983	1257450
11,84397	1173389
11,84808	1041030
11,85220	891535
11,85633	740430
11,86045	592162
11,86457	462016
11,86870	373174
11,87282	290266
11,87693	230886
11,88107	186371
11,88518	152648
11,88930	125091
11,89342	109185
11,89755	90945
11,90167	79298
11,90578	69178
11,90992	62027
11,91403	54576
11,91815	49435
11,92228	43238
11,92640	40865
11,93052	38033
11,93465	34961
11,93877	33258
11,94288	29987
11,94702	28232
11,95113	27578
11,95525	25471
11,95938	24599
11,96350	24056
11,96762	21081
11,97175	21958
11,97587	19371
11,97998	19855
11,98410	19129
11,98823	19346
11,99235	16946
11,99647	16046
12,00060	15822
12,00472	15577
12,00883	16776
12,01297	15659
12,01708	15535
12,02120	15219
12,02533	15090
12,02945	15245
12,03357	13534
12,03770	14416
12,04182	12342
12,04593	13892
12,05007	12115
12,05418	12229
12,05830	12108
12,06243	12087
12,06655	12014
12,07067	11668
12,07478	11784
12,07892	13680
12,08303	11890
12,08715	11546
12,09128	11100
12,09540	11949
12,09952	11613
12,10365	10651
12,10777	11603
12,11188	11292
12,11602	10211
12,12013	10886
12,12425	11210
12,12838	10947
12,13250	10718
12,13662	11628
12,14075	10471
12,14487	10522
12,14898	10505
12,15312	11738
12,15723	11349
12,16135	11342
12,16547	10348
12,16960	8794
12,17372	11011
12,17783	9088
12,18197	9019
12,18608	9010
12,19020	8360
12,19433	9960
12,19845	9215
12,20257	9346
12,20670	9747
12,21082	9459
12,21493	9584
12,21907	8695
12,22318	8953
12,22730	8755
12,23143	8413
12,23555	9622
12,23967	8550
12,24380	8475
12,24792	8922
12,25203	9854
12,25615	10376
12,26028	8928
12,26440	7946
12,26852	9022
12,27265	8940
12,27677	9696
12,28088	8532
12,28502	9026
12,28913	9611
12,29325	9866
12,29738	10304
12,30150	11559
12,30562	10888
12,30975	12511
12,31387	13434
12,31798	14599
12,32212	13364
12,32623	13678
12,33035	11500
12,33448	12734
12,33860	11505
12,34272	12127
12,34683	10782
12,35097	10872
12,35508	9935
12,35920	8664
12,36333	9495
12,36745	8793
12,37157	8821
12,37570	8760
12,37982	8903
12,38393	9202
12,38807	8760
12,39218	9615
12,39630	10081
12,40043	9478
12,40455	10023
12,40867	10859
12,41280	11810
12,41692	13524
12,42103	13925
12,42517	13680
12,42928	14108
12,43340	15253
12,43752	14787
12,44165	14381
12,44577	14812
12,44988	14522
12,45402	13386
12,45813	12463
12,46225	11113
12,46638	11329
12,47050	10081
12,47462	9780
12,47875	9810
12,48287	9086
12,48698	8987
12,49112	9472
12,49523	9220
12,49935	7820
12,50348	10034
12,50760	9208
12,51172	9247
12,51585	7977
12,51997	9562
12,52408	9593
12,52820	9089
12,53233	8910
12,53645	8031
12,54057	9506
12,54470	7952
12,54882	8770
12,55293	8716
12,55707	9082
12,56118	7597
12,56530	10430
12,56943	9686
12,57355	8777
12,57767	9975
12,58180	9403
12,58592	9171
12,59003	9668
12,59417	8524
12,59828	9164
12,60240	8022
12,60653	7716
12,61065	7903
12,61477	8325
12,61888	8566
12,62302	7257
12,62713	8209
12,63125	7735
12,63538	8071
12,63950	8402
12,64362	7979
12,64775	8875
12,65187	7925
12,65598	7668
12,66012	7490
12,66423	7933
12,66835	7344
12,67248	7469
12,67660	8633
12,68072	8323
12,68485	9568
12,68897	7799
12,69308	8059
12,69722	6016
12,70133	7282
12,70545	7578
12,70957	7014
12,71370	7638
12,71782	7140
12,72193	7710
12,72607	7854
12,73018	8365
12,73430	8319
12,73843	8049
12,74255	10209
12,74667	15196
12,75080	28867
12,75492	53737
12,75903	110033
12,76317	203020
12,76728	367055
12,77140	619852
12,77553	943313
12,77965	1355826
12,78377	1817891
12,78790	2233611
12,79202	2584529
12,79613	2771894
12,80025	2787616
12,80438	2636489
12,80850	2326190
12,81262	2003344
12,81675	1648836
12,82087	1297411
12,82498	1019374
12,82912	786875
12,83323	612999
12,83735	487710
12,84148	381419
12,84560	309210
12,84972	256221
12,85385	216328
12,85797	180678
12,86208	154766
12,86622	137114
12,87033	118953
12,87445	106387
12,87858	93941
12,88270	85204
12,88682	77729
12,89093	68494
12,89507	66882
12,89918	58760
12,90330	55454
12,90743	51139
12,91155	49667
12,91567	45941
12,91980	43525
12,92392	39535
12,92803	38641
12,93217	36608
12,93628	35463
12,94040	36048
12,94453	34058
12,94865	31914
12,95277	34160
12,95690	33147
12,96102	31215
12,96513	30484
12,96927	28007
12,97338	26075
12,97750	25610
12,98163	25953
12,98575	22189
12,98987	22061
12,99398	20560
12,99812	20042
13,00223	19943
13,00635	18401
13,01048	17566
13,01460	16994
13,01872	17480
13,02285	16540
13,02697	14826
13,03108	15481
13,03522	14712
13,03933	13297
13,04345	13687
13,04758	13424
13,05170	15154
13,05582	13362
13,05995	13628
13,06407	13129
13,06818	13193
13,07232	13016
13,07643	12642
13,08055	11454
13,08467	13414
13,08880	11605
13,09292	11460
13,09703	12739
13,10117	10470
13,10528	11435
13,10940	11477
13,11353	10867
13,11765	11478
13,12177	10258
13,12590	10956
13,13002	10028
13,13413	11032
13,13827	11421
13,14238	11481
13,14650	11040
13,15063	11099
13,15475	10445
13,15887	10645
13,16300	11522
13,16712	10388
13,17123	10351
13,17535	9898
13,17948	10579
13,18360	9460
13,18772	10399
13,19185	9288
13,19597	7784
13,20008	9518
13,20422	9631
13,20833	8933
13,21245	9696
13,21658	9882
13,22070	8169
13,22482	8947
13,22895	8605
13,23307	9690
13,23718	10022
13,24132	10094
13,24543	11238
13,24955	12963
13,25368	12260
13,25780	14201
13,26192	13671
13,26603	13937
13,27017	12405
13,27428	10218
13,27840	10435
13,28253	11009
13,28665	9996
13,29077	10558
13,29490	9513
13,29902	8460
13,30313	7984
13,30727	8975
13,31138	8342
13,31550	7456
13,31963	9145
13,32375	7974
13,32787	9324
13,33200	8306
13,33612	9328
13,34023	8229
13,34437	7469
13,34848	7634
13,35260	7813
13,35672	8184
13,36085	7325
13,36497	8225
13,36908	7431
13,37322	7654
13,37733	8881
13,38145	8238
13,38558	7394
13,38970	7261
13,39382	6712
13,39795	7990
13,40207	7743
13,40618	9269
13,41032	12412
13,41443	21140
13,41855	39240
13,42268	70664
13,42680	120896
13,43092	214966
13,43505	348953
13,43917	526926
13,44328	735610
13,44740	938975
13,45153	1121961
13,45565	1235616
13,45977	1291720
13,46390	1244338
13,46802	1155110
13,47213	1015866
13,47627	867032
13,48038	715671
13,48450	568485
13,48863	456654
13,49275	354190
13,49687	273434
13,50100	222675
13,50512	178341
13,50923	148000
13,51337	123286
13,51748	103821
13,52160	90204
13,52573	82730
13,52985	70020
13,53397	63145
13,53808	60128
13,54222	56447
13,54633	51161
13,55045	52164
13,55458	47678
13,55870	46991
13,56282	46009
13,56695	44582
13,57107	41883
13,57518	39501
13,57932	37246
13,58343	34885
13,58755	30336
13,59168	29166
13,59580	26130
13,59992	25184
13,60405	22892
13,60817	20493
13,61228	19536
13,61642	19176
13,62053	18066
13,62465	17013
13,62877	17519
13,63290	15368
13,63702	16795
13,64113	14733
13,64527	14538
13,64938	14573
13,65350	12762
13,65763	12901
13,66175	13215
13,66587	11713
13,67000	14384
13,67412	15271
13,67823	20051
13,68237	33497
13,68648	56493
13,69060	109274
13,69473	193351
13,69885	313915
13,70297	493747
13,70710	720890
13,71122	958144
13,71533	1197970
13,71945	1382948
13,72358	1484399
13,72770	1465658
13,73182	1379154
13,73595	1224346
13,74007	1032341
13,74418	838969
13,74832	670231
13,75243	514116
13,75655	406406
13,76068	311317
13,76480	250813
13,76892	196089
13,77305	157509
13,77717	134360
13,78128	113517
13,78542	96654
13,78953	85363
13,79365	72719
13,79778	65738
13,80190	58987
13,80602	52678
13,81013	47578
13,81427	45329
13,81838	41592
13,82250	38082
13,82663	34556
13,83075	32256
13,83487	32364
13,83900	29781
13,84312	28224
13,84723	25073
13,85137	24358
13,85548	23533
13,85960	21159
13,86373	21196
13,86785	21401
13,87197	19946
13,87610	17947
13,88022	17323
13,88433	16602
13,88847	17010
13,89258	17856
13,89670	14769
13,90082	13980
13,90495	16006
13,90907	14279
13,91318	13431
13,91732	13783
13,92143	13757
13,92555	12468
13,92968	13041
13,93380	13310
13,93792	13663
13,94205	11905
13,94617	11447
13,95028	12027
13,95442	11322
13,95853	12001
13,96265	12513
13,96678	13480
13,97090	11944
13,97502	11425
13,97915	9487
13,98327	9824
13,98738	10927
13,99150	11024
13,99563	10110
13,99975	9527
14,00387	10036
14,00800	9834
14,01212	9679
14,01623	10045
14,02037	9428
14,02448	10263
14,02860	9156
14,03273	10073
14,03685	9288
14,04097	9280
14,04510	9221
14,04922	10731
14,05333	9791
14,05747	9665
14,06158	7869
14,06570	8503
14,06983	9706
14,07395	8475
14,07807	8540
14,08218	9222
14,08632	8955
14,09043	9480
14,09455	8602
14,09868	8939
14,10280	8644
14,10692	8358
14,11105	8750
14,11517	8277
14,11928	8414
14,12342	9650
14,12753	8625
14,13165	10209
14,13578	10379
14,13990	10086
14,14402	9527
14,14815	9626
14,15227	10167
14,15638	9220
14,16052	10482
14,16463	9603
14,16875	8288
14,17287	8363
14,17700	9117
14,18112	8688
14,18523	9420
14,18937	9691
14,19348	8796
14,19760	8037
14,20173	8916
14,20585	8124
14,20997	8555
14,21410	8970
14,21822	8143
14,22233	7362
14,22647	8376
14,23058	7941
14,23470	8314
14,23883	8737
14,24295	7816
14,24707	7825
14,25120	7459
14,25532	7832
14,25943	7834
14,26355	8150
14,26768	8596
14,27180	9339
14,27592	9568
14,28005	8349
14,28417	8537
14,28828	8857
14,29242	9397
14,29653	8396
14,30065	8942
14,30478	8932
14,30890	9339
14,31302	8595
14,31715	9306
14,32127	11752
14,32538	15269
14,32952	22696
14,33363	41096
14,33775	79339
14,34188	144658
14,34600	241625
14,35012	397268
14,35423	579968
14,35837	799833
14,36248	1033824
14,36660	1223734
14,37073	1354442
14,37485	1374704
14,37897	1333594
14,38310	1226265
14,38722	1055915
14,39133	882578
14,39547	711660
14,39958	565755
14,40370	448078
14,40783	342762
14,41195	273057
14,41607	217659
14,42020	175627
14,42432	145727
14,42843	125058
14,43257	104986
14,43668	89939
14,44080	80539
14,44492	69230
14,44905	63263
14,45317	56682
14,45728	50914
14,46142	46052
14,46553	43114
14,46965	40166
14,47378	37805
14,47790	35735
14,48202	31592
14,48615	30066
14,49027	27461
14,49438	28022
14,49852	25681
14,50263	24652
14,50675	23035
14,51088	21605
14,51500	21491
14,51912	20732
14,52325	18342
14,52737	18845
14,53148	18916
14,53562	16302
14,53973	16349
14,54385	14575
14,54797	15069
14,55210	15056
14,55622	15431
14,56033	14653
14,56447	17906
14,56858	24823
14,57270	42108
14,57683	74292
14,58095	151857
14,58507	297924
14,58920	529554
14,59332	907600
14,59743	1450867
14,60157	2100635
14,60568	2819720
14,60980	3562496
14,61393	4190559
14,61805	4630197
14,62217	4698060
14,62630	4534777
14,63042	4126624
14,63453	3487774
14,63865	2859106
14,64278	2260311
14,64690	1743926
14,65102	1338656
14,65515	1027536
14,65927	800754
14,66338	631084
14,66752	505870
14,67163	420600
14,67575	350732
14,67988	294942
14,68400	256097
14,68812	222009
14,69225	192873
14,69637	173144
14,70048	153919
14,70462	139355
14,70873	124326
14,71285	114481
14,71698	101293
14,72110	97759
14,72522	88466
14,72933	81910
14,73347	75315
14,73758	68521
14,74170	64895
14,74583	59561
14,74995	54898
14,75407	52580
14,75820	51709
14,76232	49689
14,76643	46309
14,77057	43744
14,77468	41558
14,77880	39145
14,78293	36340
14,78705	34669
14,79117	34195
14,79530	32915
14,79942	31946
14,80353	30397
14,80767	27087
14,81178	26965
14,81590	27164
14,82002	26147
14,82415	24061
14,82827	24749
14,83238	22431
14,83652	21699
14,84063	22952
14,84475	21400
14,84888	21503
14,85300	18061
14,85712	19370
14,86125	18737
14,86537	19838
14,86948	18471
14,87362	18847
14,87773	15386
14,88185	16735
14,88598	16795
14,89010	16482
14,89422	14533
14,89835	15982
14,90247	16460
14,90658	13697
14,91070	16119
14,91483	16012
14,91895	15132
14,92307	13572
14,92720	15329
14,93132	13970
14,93543	14328
14,93957	13840
14,94368	14495
14,94780	13485
14,95193	14665
14,95605	14189
14,96017	14089
14,96430	15248
14,96842	14093
14,97253	13012
14,97667	12756
14,98078	13297
14,98490	12461
14,98903	12505
14,99315	10936
14,99727	11548
15,00138	12798
15,00552	11642
15,00963	10967
15,01375	11121
15,01788	11176
15,02200	10492
15,02612	12059
15,03025	11611
15,03437	11615
15,03848	13652
15,04262	13295
15,04673	13112
15,05085	14432
15,05498	14686
15,05910	14420
15,06322	12711
15,06735	12961
15,07147	12328
15,07558	12444
15,07972	12084
15,08383	13725
15,08795	16712
15,09207	24208
15,09620	41889
15,10032	74692
15,10443	138247
15,10857	235798
15,11268	386831
15,11680	580242
15,12093	820881
15,12505	1057932
15,12917	1259816
15,13330	1406132
15,13742	1448152
15,14153	1406544
15,14567	1269937
15,14978	1109206
15,15390	925335
15,15803	753205
15,16215	599348
15,16627	471359
15,17040	374245
15,17452	294066
15,17863	238623
15,18275	190796
15,18688	161446
15,19100	140127
15,19512	118654
15,19925	106710
15,20337	95512
15,20748	88066
15,21162	78866
15,21573	72197
15,21985	68714
15,22398	62630
15,22810	57657
15,23222	54506
15,23635	51765
15,24047	49640
15,24458	48325
15,24872	44426
15,25283	45675
15,25695	41556
15,26108	37629
15,26520	36638
15,26932	32424
15,27343	30041
15,27757	28019
15,28168	26242
15,28580	24312
15,28993	22781
15,29405	20834
15,29817	24367
15,30230	21160
15,30642	19917
15,31053	19389
15,31467	20628
15,31878	17056
15,32290	19711
15,32703	18930
15,33115	18578
15,33527	16822
15,33940	16795
15,34352	16130
15,34763	15945
15,35177	15292
15,35588	14560
15,36000	14646
15,36412	15330
15,36825	13347
15,37237	11479
15,37648	12784
15,38062	12654
15,38473	12914
15,38885	11882
15,39298	12841
15,39710	11548
15,40122	11013
15,40535	12143
15,40947	13031
15,41358	12548
15,41772	12469
15,42183	13498
15,42595	19053
15,43008	28630
15,43420	48488
15,43832	88990
15,44245	169108
15,44657	295904
15,45068	471245
15,45480	706496
15,45893	967454
15,46305	1222883
15,46717	1477311
15,47130	1633387
15,47542	1670896
15,47953	1593480
15,48367	1427573
15,48778	1223676
15,49190	992059
15,49603	787944
15,50015	614062
15,50427	483121
15,50840	375582
15,51252	295142
15,51663	238747
15,52077	192961
15,52488	157415
15,52900	137540
15,53313	115554
15,53725	102062
15,54137	87442
15,54548	78441
15,54962	71384
15,55373	62794
15,55785	56688
15,56198	53379
15,56610	48864
15,57022	43515
15,57435	40955
15,57847	38456
15,58258	37708
15,58672	33855
15,59083	32605
15,59495	32462
15,59908	28764
15,60320	26995
15,60732	25128
15,61145	24572
15,61557	25114
15,61968	22094
15,62382	22452
15,62793	22131
15,63205	20759
15,63617	19593
15,64030	20127
15,64442	20999
15,64853	19988
15,65267	19519
15,65678	18558
15,66090	17631
15,66503	17917
15,66915	16595
15,67327	15944
15,67740	16407
15,68152	15175
15,68563	17345
15,68977	15508
15,69388	14291
15,69800	14780
15,70213	14527
15,70625	13779
15,71037	14423
15,71450	14456
15,71862	13271
15,72273	13038
15,72685	13081
15,73098	13238
15,73510	13136
15,73922	15244
15,74335	14416
15,74747	12733
15,75158	13089
15,75572	14108
15,75983	12765
15,76395	12351
15,76808	12871
15,77220	12466
15,77632	11381
15,78045	12164
15,78457	12182
15,78868	12852
15,79282	11772
15,79693	11382
15,80105	10699
15,80518	11319
15,80930	11285
15,81342	11272
15,81753	11830
15,82167	10829
15,82578	9416
15,82990	9910
15,83403	10166
15,83815	9042
15,84227	11550
15,84640	10922
15,85052	10160
15,85463	9319
15,85877	10518
15,86288	9759
15,86700	10192
15,87113	9730
15,87525	11949
15,87937	9361
15,88350	9486
15,88762	10385
15,89173	10947
15,89587	10870
15,89998	10186
15,90410	11131
15,90822	12892
15,91235	11492
15,91647	12148
15,92058	11946
15,92472	12867
15,92883	14559
15,93295	20238
15,93708	32576
15,94120	58253
15,94532	106399
15,94945	195005
15,95357	334533
15,95768	526459
15,96182	773874
15,96593	1022860
15,97005	1264858
15,97418	1445505
15,97830	1541884
15,98242	1551372
15,98655	1449033
15,99067	1295532
15,99478	1097653
15,99890	895018
16,00303	720997
16,00715	565243
16,01127	445846
16,01540	347814
16,01952	285988
16,02363	228081
16,02777	187319
16,03188	158847
16,03600	134027
16,04013	116334
16,04425	100684
16,04837	89841
16,05250	79790
16,05662	69532
16,06073	65245
16,06487	59443
16,06898	56885
16,07310	50215
16,07723	46506
16,08135	42819
16,08547	40450
16,08960	40179
16,09372	36991
16,09783	35283
16,10195	34020
16,10608	31537
16,11020	30355
16,11432	28060
16,11845	27765
16,12257	25643
16,12668	24947
16,13082	23763
16,13493	24252
16,13905	24770
16,14318	21213
16,14730	20790
16,15142	21062
16,15555	19649
16,15967	19799
16,16378	18934
16,16792	18500
16,17203	18804
16,17615	17544
16,18028	20228
16,18440	20201
16,18852	22418
16,19263	24411
16,19677	26085
16,20088	30913
16,20500	32176
16,20913	32454
16,21325	34997
16,21737	33534
16,22150	32411
16,22562	29740
16,22973	29185
16,23387	25872
16,23798	23326
16,24210	23867
16,24623	24588
16,25035	29743
16,25447	44340
16,25860	75213
16,26272	140995
16,26683	269770
16,27097	468640
16,27508	790060
16,27920	1212731
16,28332	1702967
16,28745	2239074
16,29157	2776407
16,29568	3252431
16,29982	3512820
16,30393	3550961
16,30805	3355256
16,31218	2958766
16,31630	2475424
16,32042	2000349
16,32455	1569764
16,32867	1207754
16,33278	943264
16,33692	746807
16,34103	585663
16,34515	473643
16,34928	387730
16,35340	324665
16,35752	279608
16,36165	236630
16,36577	205644
16,36988	179546
16,37400	162845
16,37813	147045
16,38225	132365
16,38637	120232
16,39050	108381
16,39462	97078
16,39873	91299
16,40287	83847
16,40698	79909
16,41110	75145
16,41523	67925
16,41935	66124
16,42347	60739
16,42760	55164
16,43172	54332
16,43583	48369
16,43997	47192
16,44408	42461
16,44820	44172
16,45233	42447
16,45645	41175
16,46057	36919
16,46468	36757
16,46882	35379
16,47293	34920
16,47705	32806
16,48118	30404
16,48530	30522
16,48942	26925
16,49355	29503
16,49767	29080
16,50178	27100
16,50592	23818
16,51003	26405
16,51415	25217
16,51828	24785
16,52240	25340
16,52652	24137
16,53065	30348
16,53477	41167
16,53888	60725
16,54302	103411
16,54713	174599
16,55125	293828
16,55537	477973
16,55950	713667
16,56362	970255
16,56773	1249979
16,57187	1471046
16,57598	1625251
16,58010	1661758
16,58423	1614103
16,58835	1464940
16,59247	1270386
16,59660	1067984
16,60072	860855
16,60483	685072
16,60897	542906
16,61308	429933
16,61720	349836
16,62133	285413
16,62545	230463
16,62957	192365
16,63370	166208
16,63782	137279
16,64193	123718
16,64605	106202
16,65018	97990
16,65430	89135
16,65842	78148
16,66255	72832
16,66667	71100
16,67078	66919
16,67492	70859
16,67903	83899
16,68315	124040
16,68728	195997
16,69140	327724
16,69552	546841
16,69965	860181
16,70377	1281478
16,70788	1785683
16,71202	2338681
16,71613	2815147
16,72025	3178537
16,72438	3352915
16,72850	3288169
16,73262	3076428
16,73673	2714907
16,74087	2296264
16,74498	1842529
16,74910	1449973
16,75323	1130550
16,75735	895803
16,76147	709733
16,76560	561800
16,76972	461293
16,77383	384102
16,77797	325044
16,78208	275248
16,78620	242121
16,79033	210570
16,79445	188002
16,79857	165669
16,80270	150200
16,80682	137045
16,81093	124995
16,81507	111942
16,81918	106151
16,82330	93415
16,82742	90980
16,83155	85299
16,83567	79519
16,83978	75407
16,84392	71701
16,84803	66840
16,85215	62647
16,85628	61894
16,86040	55868
16,86452	53423
16,86865	51641
16,87277	49862
16,87688	48164
16,88102	43516
16,88513	42663
16,88925	41055
16,89338	39296
16,89750	37532
16,90162	37357
16,90575	37162
16,90987	34651
16,91398	33619
16,91810	34203
16,92223	31330
16,92635	30748
16,93047	29171
16,93460	29211
16,93872	27093
16,94283	26854
16,94697	26822
16,95108	29238
16,95520	25149
16,95933	24940
16,96345	26255
16,96757	23463
16,97170	24196
16,97582	23569
16,97993	22133
16,98407	22583
16,98818	23633
16,99230	26029
16,99643	34061
17,00055	47716
17,00467	80769
17,00878	136274
17,01292	238540
17,01703	388220
17,02115	589932
17,02528	840033
17,02940	1096573
17,03352	1321329
17,03765	1483358
17,04177	1578396
17,04588	1578952
17,05002	1529989
17,05413	1488481
17,05825	1512935
17,06238	1654748
17,06650	1918196
17,07062	2320159
17,07475	2787539
17,07887	3237701
17,08298	3587770
17,08712	3714383
17,09123	3650047
17,09535	3310934
17,09947	2883290
17,10360	2389264
17,10772	1933948
17,11183	1519105
17,11597	1185120
17,12008	940471
17,12420	756101
17,12833	601822
17,13245	503541
17,13657	427037
17,14070	360340
17,14482	313393
17,14893	274707
17,15307	242461
17,15718	215465
17,16130	194954
17,16543	176535
17,16955	160184
17,17367	144839
17,17780	134605
17,18192	126224
17,18603	117821
17,19015	108437
17,19428	102117
17,19840	96949
17,20252	93898
17,20665	85395
17,21077	80369
17,21488	79530
17,21902	76844
17,22313	71781
17,22725	68498
17,23138	64157
17,23550	61118
17,23962	58158
17,24375	57462
17,24787	56887
17,25198	55341
17,25612	49804
17,26023	49679
17,26435	47343
17,26848	45764
17,27260	47003
17,27672	43803
17,28083	42081
17,28497	42321
17,28908	40823
17,29320	37099
17,29733	37110
17,30145	34848
17,30557	36296
17,30970	33620
17,31382	33769
17,31793	33224
17,32207	35943
17,32618	40895
17,33030	54905
17,33443	86509
17,33855	139965
17,34267	228853
17,34680	373392
17,35092	566790
17,35503	807794
17,35917	1044190
17,36328	1284461
17,36740	1431879
17,37152	1485814
17,37565	1441683
17,37977	1320462
17,38388	1171067
17,38802	984241
17,39213	800531
17,39625	645988
17,40038	519813
17,40450	404498
17,40862	327055
17,41275	267350
17,41687	225289
17,42098	184923
17,42512	160210
17,42923	142532
17,43335	119871
17,43748	109411
17,44160	96051
17,44572	86917
17,44985	79221
17,45397	75862
17,45808	70994
17,46220	63684
17,46633	61011
17,47045	59248
17,47457	56114
17,47870	54974
17,48282	49882
17,48693	52326
17,49107	48084
17,49518	45251
17,49930	44322
17,50343	43236
17,50755	41692
17,51167	38294
17,51580	37529
17,51992	36185
17,52403	36110
17,52817	32975
17,53228	32287
17,53640	31394
17,54053	31635
17,54465	30097
17,54877	30964
17,55288	30535
17,55702	28788
17,56113	27590
17,56525	28048
17,56938	27228
17,57350	27640
17,57762	27271
17,58175	26098
17,58587	26091
17,58998	23710
17,59412	24181
17,59823	24825
17,60235	25350
17,60648	22883
17,61060	23656
17,61472	23698
17,61885	22657
17,62297	23150
17,62708	23345
17,63122	23651
17,63533	21348
17,63945	21042
17,64357	21955
17,64770	20746
17,65182	21957
17,65593	20061
17,66007	22058
17,66418	21534
17,66830	19765
17,67243	19402
17,67655	20699
17,68067	20035
17,68480	20965
17,68892	21360
17,69303	19315
17,69717	20210
17,70128	20150
17,70540	19925
17,70953	19011
17,71365	18622
17,71777	20069
17,72190	19349
17,72602	19787
17,73013	19281
17,73427	20474
17,73838	19139
17,74250	18533
17,74662	16637
17,75075	18589
17,75487	17179
17,75898	18968
17,76312	17132
17,76723	17945
17,77135	17996
17,77548	19339
17,77960	21778
17,78372	29251
17,78785	45659
17,79197	78851
17,79608	134576
17,80022	245395
17,80433	407675
17,80845	648578
17,81258	963657
17,81670	1386064
17,82082	1876380
17,82495	2442259
17,82907	3000095
17,83318	3573525
17,83730	4034670
17,84143	4420536
17,84555	4620822
17,84967	4536808
17,85380	4215689
17,85792	3726465
17,86203	3130320
17,86617	2546755
17,87028	2011799
17,87440	1577949
17,87853	1256332
17,88265	994407
17,88677	809758
17,89090	667736
17,89502	560776
17,89913	478757
17,90327	412733
17,90738	361043
17,91150	315823
17,91563	281817
17,91975	253790
17,92387	231928
17,92798	212859
17,93212	191218
17,93623	177591
17,94035	164074
17,94448	150413
17,94860	144776
17,95272	132322
17,95685	124032
17,96097	113280
17,96508	108865
17,96922	101799
17,97333	95702
17,97745	91757
17,98158	91098
17,98570	85826
17,98982	82254
17,99395	80747
17,99807	82793
18,00218	79159
18,00632	79929
18,01043	80155
18,01455	78523
18,01867	77411
18,02280	76699
18,02692	74902
18,03103	72187
18,03517	67170
18,03928	66032
18,04340	61598
18,04753	55243
18,05165	52541
18,05577	50031
18,05990	51610
18,06402	51342
18,06813	53492
18,07227	66067
18,07638	87627
18,08050	129967
18,08463	208156
18,08875	329902
18,09287	493691
18,09700	677273
18,10112	889942
18,10523	1077171
18,10935	1222816
18,11348	1290695
18,11760	1272368
18,12172	1190652
18,12585	1057594
18,12997	904189
18,13408	750598
18,13822	607230
18,14233	491521
18,14645	389422
18,15058	317011
18,15470	265160
18,15882	218401
18,16295	183904
18,16707	156443
18,17118	142467
18,17532	123718
18,17943	112291
18,18355	100063
18,18768	92428
18,19180	86004
18,19592	85188
18,20003	95254
18,20417	117945
18,20828	163668
18,21240	243135
18,21653	378579
18,22065	568028
18,22477	820558
18,22890	1109711
18,23302	1389698
18,23713	1625983
18,24127	1753187
18,24538	1777115
18,24950	1677439
18,25363	1503858
18,25775	1299862
18,26187	1075314
18,26600	872262
18,27012	708209
18,27423	581231
18,27837	472019
18,28248	384109
18,28660	321054
18,29072	273730
18,29485	238672
18,29897	204856
18,30308	183641
18,30722	161020
18,31133	147728
18,31545	131064
18,31958	125333
18,32370	114106
18,32782	104934
18,33195	102153
18,33607	91108
18,34018	88638
18,34432	81959
18,34843	78902
18,35255	74521
18,35668	68136
18,36080	66385
18,36492	65215
18,36905	61564
18,37317	57380
18,37728	54706
18,38140	52884
18,38553	51183
18,38965	46746
18,39377	50027
18,39790	48790
18,40202	48472
18,40613	46449
18,41027	44237
18,41438	42922
18,41850	40635
18,42263	42750
18,42675	38089
18,43087	39632
18,43500	37166
18,43912	37455
18,44323	36835
18,44737	35125
18,45148	35639
18,45560	35618
18,45973	34779
18,46385	32246
18,46797	32931
18,47208	33019
18,47622	33219
18,48033	31583
18,48445	29963
18,48858	30127
18,49270	31515
18,49682	30771
18,50095	30065
18,50507	29579
18,50918	31038
18,51332	29669
18,51743	31161
18,52155	34774
18,52568	41467
18,52980	56990
18,53392	92629
18,53805	157670
18,54217	268569
18,54628	444020
18,55042	697964
18,55453	990753
18,55865	1323504
18,56277	1615336
18,56690	1827723
18,57102	1917886
18,57513	1862140
18,57927	1711412
18,58338	1475940
18,58750	1235572
18,59163	1011370
18,59575	823858
18,59987	660071
18,60400	542390
18,60812	448574
18,61223	369457
18,61637	319428
18,62048	275284
18,62460	234841
18,62873	208574
18,63285	186531
18,63697	170804
18,64110	151128
18,64522	139275
18,64933	131877
18,65345	120509
18,65758	110473
18,66170	105406
18,66582	95220
18,66995	91115
18,67407	89340
18,67818	83139
18,68232	77941
18,68643	77796
18,69055	74026
18,69468	70231
18,69880	72988
18,70292	66780
18,70705	65056
18,71117	64350
18,71528	58450
18,71942	56932
18,72353	54838
18,72765	51954
18,73178	51942
18,73590	50398
18,74002	48398
18,74413	47626
18,74827	45809
18,75238	44819
18,75650	42430
18,76063	44464
18,76475	43424
18,76887	40027
18,77300	40350
18,77712	39514
18,78123	40191
18,78537	37261
18,78948	37338
18,79360	37052
18,79773	37004
18,80185	36415
18,80597	38596
18,81010	44359
18,81422	56096
18,81833	79950
18,82247	126163
18,82658	208161
18,83070	335447
18,83482	515636
18,83895	739712
18,84307	1004589
18,84718	1235519
18,85132	1427192
18,85543	1538556
18,85955	1541659
18,86368	1443659
18,86780	1290824
18,87192	1105261
18,87605	916486
18,88017	748120
18,88428	605607
18,88842	491619
18,89253	400283
18,89665	333769
18,90078	280449
18,90490	235890
18,90902	208539
18,91315	182930
18,91727	163634
18,92138	143614
18,92550	131544
18,92963	118966
18,93375	111190
18,93787	105618
18,94200	95310
18,94612	87167
18,95023	84727
18,95437	79450
18,95848	76493
18,96260	69342
18,96673	69286
18,97085	64055
18,97497	63691
18,97910	61155
18,98322	57016
18,98733	57809
18,99147	56429
18,99558	55554
18,99970	52872
19,00383	50933
19,00795	46779
19,01207	47701
19,01618	46786
19,02032	43062
19,02443	43776
19,02855	44600
19,03268	43629
19,03680	40684
19,04092	41693
19,04505	39306
19,04917	40074
19,05328	41822
19,05742	37902
19,06153	37203
19,06565	36946
19,06978	36603
19,07390	37601
19,07802	35534
19,08215	33752
19,08627	35129
19,09038	34373
19,09452	34013
19,09863	33656
19,10275	32847
19,10687	32194
19,11100	32833
19,11512	30936
19,11923	33165
19,12337	32037
19,12748	31926
19,13160	30386
19,13573	31000
19,13985	34235
19,14397	30566
19,14810	32032
19,15222	33344
19,15633	33019
19,16047	32748
19,16458	31391
19,16870	30303
19,17283	31158
19,17695	30420
19,18107	29449
19,18520	30522
19,18932	30164
19,19343	27831
19,19755	29621
19,20168	29627
19,20580	30705
19,20992	29273
19,21405	30723
19,21817	31407
19,22228	31930
19,22642	38457
19,23053	50542
19,23465	76696
19,23878	129895
19,24290	225113
19,24702	394794
19,25115	662258
19,25527	1073259
19,25938	1625417
19,26352	2338543
19,26763	3168426
19,27175	3988118
19,27588	4639452
19,28000	5066984
19,28412	5158483
19,28825	4975304
19,29237	4487888
19,29648	3879536
19,30060	3232246
19,30473	2629996
19,30885	2115733
19,31297	1710409
19,31710	1379569
19,32122	1123361
19,32533	941656
19,32947	792456
19,33358	677142
19,33770	579615
19,34183	519095
19,34595	456877
19,35007	407956
19,35420	376957
19,35832	336320
19,36243	306268
19,36657	282321
19,37068	260782
19,37480	241597
19,37893	229039
19,38305	212635
19,38717	202212
19,39128	189816
19,39542	176732
19,39953	167795
19,40365	162268
19,40778	151661
19,41190	145451
19,41602	142200
19,42015	132390
19,42427	127596
19,42838	120126
19,43252	118622
19,43663	112579
19,44075	106113
19,44488	106290
19,44900	103472
19,45312	96424
19,45725	96965
19,46137	93170
19,46548	92198
19,46962	86750
19,47373	85330
19,47785	81081
19,48197	80426
19,48610	78600
19,49022	75917
19,49433	74035
19,49847	76597
19,50258	79436
19,50670	87682
19,51083	100972
19,51495	132774
19,51907	195713
19,52320	284695
19,52732	426458
19,53143	616556
19,53557	838692
19,53968	1065216
19,54380	1250543
19,54793	1390831
19,55205	1433066
19,55617	1393730
19,56030	1282710
19,56442	1149804
19,56853	987071
19,57265	871244
19,57678	776306
19,58090	752234
19,58502	788635
19,58915	881871
19,59327	1023508
19,59738	1176693
19,60152	1311647
19,60563	1416846
19,60975	1475340
19,61388	1454989
19,61800	1405262
19,62212	1347017
19,62625	1319084
19,63037	1344335
19,63448	1453047
19,63862	1606381
19,64273	1795451
19,64685	1947454
19,65098	2047951
19,65510	2041564
19,65922	1934393
19,66333	1762355
19,66747	1535477
19,67158	1306190
19,67570	1093516
19,67983	913100
19,68395	759010
19,68807	640858
19,69220	548123
19,69632	471349
19,70043	411471
19,70457	369592
19,70868	330848
19,71280	305228
19,71693	277224
19,72105	253439
19,72517	232387
19,72930	216207
19,73342	204452
19,73753	189498
19,74167	179260
19,74578	169463
19,74990	159642
19,75402	150512
19,75815	145725
19,76227	139367
19,76638	131860
19,77052	122211
19,77463	117302
19,77875	117858
19,78288	108669
19,78700	105419
19,79112	101779
19,79525	102589
19,79937	95281
19,80348	95004
19,80762	91401
19,81173	88233
19,81585	85877
19,81998	83409
19,82410	81844
19,82822	80857
19,83235	77232
19,83647	75530
19,84058	76215
19,84470	73576
19,84883	71246
19,85295	72000
19,85707	69206
19,86120	68566
19,86532	68741
19,86943	64469
19,87357	65414
19,87768	65667
19,88180	63863
19,88593	60802
19,89005	61926
19,89417	64074
19,89830	67668
19,90242	73744
19,90653	89247
19,91067	116739
19,91478	171907
19,91890	265266
19,92303	414249
19,92715	618126
19,93127	890543
19,93538	1198613
19,93952	1489069
19,94363	1735292
19,94775	1875009
19,95188	1883992
19,95600	1759880
19,96012	1568170
19,96425	1338368
19,96837	1127564
19,97248	938803
19,97662	780803
19,98073	651928
19,98485	561364
19,98898	485852
19,99310	424270
19,99722	371979
20,00135	329496
20,00547	299152
20,00958	271564
20,01372	251623
20,01783	230229
20,02195	215804
20,02607	198422
20,03020	187516
20,03432	177441
20,03843	165498
20,04257	157487
20,04668	150604
20,05080	143050
20,05493	136163
20,05905	128649
20,06317	128171
20,06730	121359
20,07142	118954
20,07553	115950
20,07967	113717
20,08378	106091
20,08790	105381
20,09203	99220
20,09615	94145
20,10027	95913
20,10440	92865
20,10852	90774
20,11263	90370
20,11675	86838
20,12088	87083
20,12500	82389
20,12912	81986
20,13325	79998
20,13737	81209
20,14148	79879
20,14562	75352
20,14973	76441
20,15385	75787
20,15798	73610
20,16210	72451
20,16622	68505
20,17035	66133
20,17447	69021
20,17858	66154
20,18272	69625
20,18683	75415
20,19095	86521
20,19508	112571
20,19920	154680
20,20332	237687
20,20743	360250
20,21157	533265
20,21568	746307
20,21980	987956
20,22393	1211680
20,22805	1427963
20,23217	1546821
20,23630	1557333
20,24042	1481623
20,24453	1341614
20,24867	1162817
20,25278	989702
20,25690	847995
20,26103	689797
20,26515	584398
20,26927	500195
20,27340	422060
20,27752	378343
20,28163	351819
20,28577	342167
20,28988	353261
20,29400	399317
20,29812	489667
20,30225	612645
20,30637	752037
20,31048	916846
20,31462	1063654
20,31873	1171346
20,32285	1229768
20,32698	1236067
20,33110	1160675
20,33522	1064600
20,33935	939735
20,34347	808542
20,34758	693075
20,35172	581394
20,35583	487350
20,35995	416418
20,36408	353170
20,36820	307913
20,37232	276080
20,37645	242628
20,38057	217393
20,38468	201135
20,38880	180731
20,39293	168760
20,39705	158446
20,40117	144929
20,40530	135758
20,40942	135184
20,41353	124552
20,41767	119821
20,42178	111107
20,42590	111201
20,43003	106195
20,43415	103532
20,43827	96502
20,44240	94813
20,44652	91453
20,45063	87363
20,45477	89049
20,45888	86922
20,46300	82730
20,46713	82121
20,47125	82963
20,47537	77869
20,47948	79381
20,48362	74991
20,48773	77917
20,49185	72461
20,49598	72393
20,50010	73652
20,50422	68805
20,50835	66171
20,51247	68890
20,51658	70779
20,52072	66168
20,52483	66357
20,52895	66711
20,53308	65284
20,53720	64357
20,54132	62511
20,54545	60943
20,54957	59396
20,55368	59303
20,55782	60487
20,56193	57392
20,56605	62094
20,57017	65562
20,57430	74736
20,57842	93361
20,58253	128138
20,58667	182143
20,59078	278297
20,59490	429158
20,59903	640708
20,60315	949308
20,60727	1331061
20,61140	1787291
20,61552	2308663
20,61963	2773665
20,62377	3177743
20,62788	3425301
20,63200	3475049
20,63613	3291293
20,64025	2974156
20,64437	2573658
20,64850	2158426
20,65262	1783819
20,65673	1486801
20,66085	1235159
20,66498	1058808
20,66910	894919
20,67322	775620
20,67735	694472
20,68147	610896
20,68558	552095
20,68972	492065
20,69383	452059
20,69795	414241
20,70208	386153
20,70620	354113
20,71032	330873
20,71445	305221
20,71857	287655
20,72268	271270
20,72682	260769
20,73093	246686
20,73505	228773
20,73918	221281
20,74330	210186
20,74742	200245
20,75153	188081
20,75567	186869
20,75978	175640
20,76390	168032
20,76803	167831
20,77215	159725
20,77627	150316
20,78040	150820
20,78452	142710
20,78863	138587
20,79277	138478
20,79688	132186
20,80100	127526
20,80513	129126
20,80925	123916
20,81337	118410
20,81750	116471
20,82162	112298
20,82573	116720
20,82987	108871
20,83398	109151
20,83810	105380
20,84222	104674
20,84635	107278
20,85047	98712
20,85458	98958
20,85872	99052
20,86283	96169
20,86695	94485
20,87108	94835
20,87520	92000
20,87932	91759
20,88345	86338
20,88757	85076
20,89168	83214
20,89582	85326
20,89993	84377
20,90405	84031
20,90818	81710
20,91230	75390
20,91642	76871
20,92055	76693
20,92467	79392
20,92878	78610
20,93290	75733
20,93703	76663
20,94115	75584
20,94527	75439
20,94940	72520
20,95352	78411
20,95763	81950
20,96177	92923
20,96588	106200
20,97000	141209
20,97413	190235
20,97825	271620
20,98237	393508
20,98650	559713
20,99062	768173
20,99473	1008872
20,99887	1229779
21,00298	1414573
21,00710	1525668
21,01123	1547563
21,01535	1513359
21,01947	1410420
21,02360	1268492
21,02772	1125717
21,03183	977455
21,03595	842831
21,04008	728780
21,04420	633661
21,04832	561203
21,05245	486370
21,05657	440428
21,06068	394567
21,06482	362110
21,06893	327609
21,07305	299046
21,07718	277257
21,08130	256948
21,08542	240796
21,08955	226910
21,09367	213764
21,09778	199985
21,10192	188118
21,10603	182056
21,11015	176116
21,11428	169548
21,11840	158836
21,12252	155172
21,12663	148007
21,13077	140742
21,13488	136318
21,13900	133807
21,14313	128586
21,14725	125054
21,15137	123321
21,15550	119750
21,15962	117918
21,16373	110760
21,16787	107585
21,17198	106387
21,17610	107722
21,18023	105168
21,18435	101998
21,18847	96796
21,19260	98941
21,19672	98588
21,20083	94353
21,20497	92946
21,20908	89982
21,21320	87100
21,21732	85456
21,22145	83391
21,22557	82491
21,22968	82167
21,23382	82050
21,23793	83315
21,24205	79208
21,24618	80088
21,25030	80009
21,25442	77271
21,25855	71163
21,26267	76620
21,26678	73431
21,27092	77275
21,27503	75345
21,27915	72963
21,28328	69140
21,28740	71527
21,29152	72139
21,29565	73435
21,29977	73940
21,30388	71033
21,30800	70583
21,31213	69261
21,31625	71244
21,32037	74493
21,32450	73322
21,32862	69667
21,33273	72034
21,33687	67893
21,34098	68686
21,34510	66048
21,34923	63379
21,35335	64402
21,35747	64141
21,36160	65188
21,36572	60851
21,36983	62563
21,37397	60976
21,37808	60017
21,38220	56527
21,38633	59914
21,39045	59959
21,39457	61021
21,39868	60213
21,40282	63733
21,40693	65515
21,41105	67240
21,41518	72598
21,41930	79267
21,42342	85820
21,42755	97191
21,43167	107012
21,43578	115993
21,43992	120656
21,44403	123534
21,44815	128840
21,45228	123725
21,45640	123533
21,46052	119671
21,46465	111358
21,46877	107031
21,47288	97193
21,47702	92822
21,48113	87653
21,48525	77897
21,48937	75650
21,49350	70728
21,49762	68377
21,50173	67105
21,50587	66899
21,50998	62187
21,51410	60482
21,51823	60814
21,52235	60182
21,52647	59590
21,53060	60388
21,53472	56051
21,53883	56608
21,54297	57577
21,54708	52825
21,55120	53989
21,55533	54124
21,55945	53599
21,56357	54818
21,56770	55048
21,57182	55045
21,57593	50682
21,58005	53030
21,58418	53940
21,58830	53370
21,59242	53789
21,59655	54373
21,60067	55514
21,60478	52597
21,60892	54041
21,61303	53434
21,61715	50883
21,62128	49903
21,62540	51501
21,62952	51964
21,63365	51067
21,63777	48117
21,64188	49656
21,64602	54218
21,65013	51007
21,65425	50695
21,65838	52347
21,66250	48801
21,66662	47878
21,67073	49424
21,67487	48468
21,67898	51504
21,68310	50039
21,68723	49096
21,69135	49205
21,69547	48940
21,69960	49575
21,70372	50777
21,70783	50816
21,71197	49621
21,71608	52412
21,72020	49701
21,72433	49231
21,72845	50908
21,73257	51054
21,73670	49670
21,74082	51095
21,74493	50865
21,74907	47394
21,75318	48911
21,75730	47319
21,76142	46075
21,76555	46371
21,76967	50919
21,77378	46618
21,77792	48652
21,78203	47202
21,78615	46929
21,79028	46561
21,79440	44615
21,79852	49224
21,80265	48812
21,80677	48048
21,81088	48204
21,81502	44946
21,81913	44672
21,82325	49073
21,82738	46272
21,83150	47112
21,83562	49178
21,83975	49849
21,84387	45672
21,84798	48447
21,85210	45613
21,85623	47670
21,86035	47860
21,86447	45023
21,86860	43966
21,87272	44748
21,87683	49557
21,88097	47610
21,88508	47640
21,88920	47720
21,89333	48104
21,89745	47849
21,90157	47479
21,90570	50856
21,90982	48810
21,91393	47962
21,91807	46544
21,92218	47028
21,92630	48149
21,93043	48483
21,93455	46136
21,93867	48159
21,94278	46426
21,94692	45553
21,95103	46485
21,95515	46056
21,95928	48065
21,96340	47944
21,96752	46346
21,97165	46513
21,97577	45513
21,97988	46864
21,98402	47262
21,98813	44329
21,99225	43664
21,99638	48318
22,00050	48549
22,00462	46689
22,00875	45580
22,01287	43827
22,01698	45741
22,02112	45660
22,02523	45310
22,02935	49169
22,03347	44535
22,03760	46978
22,04172	45393
22,04583	46605
22,04997	48677
22,05408	44794
22,05820	45288
22,06233	45720
22,06645	45342
22,07057	46693
22,07470	46800
22,07882	45106
22,08293	46560
22,08707	44809
22,09118	48632
22,09530	49842
22,09943	52893
22,10355	55992
22,10767	66922
22,11180	80802
22,11592	103941
22,12003	141265
22,12415	189881
22,12828	252062
22,13240	330306
22,13652	415466
22,14065	515351
22,14477	603773
22,14888	672830
22,15302	730655
22,15713	764760
22,16125	774528
22,16538	740475
22,16950	703312
22,17362	654261
22,17775	589766
22,18187	525697
22,18598	459766
22,19012	407891
22,19423	366108
22,19835	324360
22,20248	293175
22,20660	256084
22,21072	232401
22,21483	213029
22,21897	196869
22,22308	180909
22,22720	165374
22,23133	153099
22,23545	144269
22,23957	134378
22,24370	128851
22,24782	123183
22,25193	114841
22,25607	115585
22,26018	106727
22,26430	105175
22,26843	102086
22,27255	97464
22,27667	95836
22,28080	91984
22,28492	90052
22,28903	87129
22,29317	84976
22,29728	84449
22,30140	81257
22,30552	80994
22,30965	77558
22,31377	76062
22,31788	75581
22,32202	77324
22,32613	72687
22,33025	72554
22,33438	68104
22,33850	67315
22,34262	70533
22,34675	66734
22,35087	66472
22,35498	67089
22,35912	62995
22,36323	63812
22,36735	63360
22,37148	64021
22,37560	61897
22,37972	60414
22,38385	60773
22,38797	61854
22,39208	61878
22,39620	58354
22,40033	58305
22,40445	59338
22,40857	59535
22,41270	55529
22,41682	53891
22,42093	57259
22,42507	58549
22,42918	57642
22,43330	55529
22,43743	56554
22,44155	56912
22,44567	54830
22,44980	56190
22,45392	57287
22,45803	55255
22,46217	52969
22,46628	55808
22,47040	51695
22,47453	50169
22,47865	53574
22,48277	53483
22,48688	51050
22,49102	51819
22,49513	52171
22,49925	52037
22,50338	54682
22,50750	51737
22,51162	51207
22,51575	52664
22,51987	50645
22,52398	46696
22,52812	49890
22,53223	54053
22,53635	50661
22,54048	51880
22,54460	50359
22,54872	49611
22,55285	49275
22,55697	50139
22,56108	52591
22,56522	53936
22,56933	51946
22,57345	51338
22,57757	50975
22,58170	50402
22,58582	49411
22,58993	47355
22,59407	51618
22,59818	54552
22,60230	48889
22,60643	53632
22,61055	52506
22,61467	50040
22,61880	49358
22,62292	53073
22,62703	52351
22,63117	51692
22,63528	50064
22,63940	49157
22,64353	53067
22,64765	50438
22,65177	50607
22,65590	49936
22,66002	49259
22,66413	48381
22,66825	52350
22,67238	47485
22,67650	50530
22,68062	50471
22,68475	49967
22,68887	48826
22,69298	48644
22,69712	47109
22,70123	48816
22,70535	49376
22,70948	46481
22,71360	47893
22,71772	46927
22,72185	48494
22,72597	45997
22,73008	48510
22,73422	49712
22,73833	50044
22,74245	46786
22,74658	47650
22,75070	48307
22,75482	50668
22,75895	46565
22,76307	48227
22,76718	47388
22,77130	47782
22,77543	47446
22,77955	48069
22,78367	47808
22,78780	48972
22,79192	46923
22,79603	48966
22,80017	49714
22,80428	47346
22,80840	49486
22,81253	47377
22,81665	46588
22,82077	49325
22,82490	47145
22,82902	49365
22,83313	50548
22,83727	50200
22,84138	49116
22,84550	46941
22,84963	47611
22,85375	49591
22,85787	48955
22,86198	48826
22,86612	49598
22,87023	47380
22,87435	45150
22,87848	49881
22,88260	48071
22,88672	45614
22,89085	46238
22,89497	48740
22,89908	48159
22,90322	48635
