D:\MassHunter\GCMS\1\data\Amal\Constant flow\90C\90C_1ml-min_8C-min_3.D Wed Sep 18 20:54:35 2024
Start of data points
5,74097,456415
5,74508,435899
5,74920,416139
5,75332,397325
5,75745,390497
5,76157,377201
5,76568,357929
5,76982,355937
5,77393,350837
5,77805,344048
5,78218,330469
5,78630,331528
5,79042,318257
5,79455,308357
5,79867,298855
5,80278,287666
5,80692,269256
5,81103,260397
5,81515,252673
5,81928,233787
5,82340,222398
5,82752,214752
5,83165,202485
5,83577,192023
5,83988,181050
5,84402,174145
5,84813,166233
5,85225,157709
5,85637,151643
5,86050,146624
5,86462,141982
5,86873,135375
5,87287,130342
5,87698,123658
5,88110,121634
5,88523,115277
5,88935,110640
5,89347,109947
5,89760,107057
5,90172,103136
5,90583,100391
5,90997,98640
5,91408,96712
5,91820,95361
5,92233,91904
5,92645,91179
5,93057,87721
5,93470,87618
5,93882,84373
5,94293,84334
5,94705,83276
5,95118,79795
5,95530,81806
5,95942,79368
5,96355,79642
5,96767,80752
5,97178,81262
5,97592,76050
5,98003,76669
5,98415,74681
5,98828,73775
5,99240,74748
5,99652,72846
6,00065,72107
6,00477,75077
6,00888,72245
6,01302,70024
6,01713,69504
6,02125,68377
6,02538,66865
6,02950,68132
6,03362,68620
6,03773,66279
6,04187,66546
6,04598,65504
6,05010,66788
6,05423,64260
6,05835,65663
6,06247,66394
6,06660,66285
6,07072,67482
6,07483,65873
6,07897,68303
6,08308,66149
6,08720,65727
6,09133,64088
6,09545,66924
6,09957,66403
6,10370,64344
6,10782,60890
6,11193,62558
6,11607,63731
6,12018,63253
6,12430,62568
6,12842,61407
6,13255,62814
6,13667,64748
6,14078,61740
6,14492,61620
6,14903,62039
6,15315,62893
6,15728,63829
6,16140,63883
6,16552,61292
6,16965,59915
6,17377,61834
6,17788,58912
6,18202,58746
6,18613,60644
6,19025,61264
6,19438,57805
6,19850,59490
6,20262,60310
6,20675,57918
6,21087,59012
6,21498,57805
6,21910,58349
6,22323,58521
6,22735,56729
6,23147,58226
6,23560,56867
6,23972,54861
6,24383,57913
6,24797,56127
6,25208,56566
6,25620,54973
6,26033,54638
6,26445,56322
6,26857,55260
6,27270,54989
6,27682,56549
6,28093,56221
6,28507,56013
6,28918,54228
6,29330,56845
6,29743,55249
6,30155,56788
6,30567,55152
6,30978,55029
6,31392,57800
6,31803,56176
6,32215,53706
6,32628,56391
6,33040,52603
6,33452,53425
6,33865,55452
6,34277,53235
6,34688,54209
6,35102,52357
6,35513,52107
6,35925,50400
6,36338,49075
6,36750,50083
6,37162,49061
6,37575,49759
6,37987,46580
6,38398,47851
6,38812,48175
6,39223,46306
6,39635,45278
6,40047,47115
6,40460,46329
6,40872,45499
6,41283,46234
6,41697,45320
6,42108,45915
6,42520,47028
6,42933,46046
6,43345,45793
6,43757,45804
6,44170,45770
6,44582,46930
6,44993,44766
6,45407,46151
6,45818,45081
6,46230,48240
6,46643,46680
6,47055,43835
6,47467,45151
6,47880,45046
6,48292,44765
6,48703,46243
6,49115,45232
6,49528,46726
6,49940,43714
6,50352,47393
6,50765,44776
6,51177,46427
6,51588,45200
6,52002,46121
6,52413,45183
6,52825,45080
6,53238,44846
6,53650,44469
6,54062,44795
6,54475,44451
6,54887,47132
6,55298,44889
6,55712,44528
6,56123,47506
6,56535,45165
6,56948,48292
6,57360,48957
6,57772,47825
6,58183,51392
6,58597,48583
6,59008,51209
6,59420,49976
6,59833,48027
6,60245,48646
6,60657,48705
6,61070,48066
6,61482,48357
6,61893,49497
6,62307,50325
6,62718,50432
6,63130,50518
6,63543,51494
6,63955,52946
6,64367,51949
6,64780,53835
6,65192,52380
6,65603,52214
6,66017,54402
6,66428,52294
6,66840,54076
6,67252,55481
6,67665,53692
6,68077,52664
6,68488,51756
6,68902,55190
6,69313,54636
6,69725,52007
6,70138,53927
6,70550,51581
6,70962,50439
6,71375,52666
6,71787,49885
6,72198,50448
6,72612,50143
6,73023,50864
6,73435,51934
6,73848,48389
6,74260,48577
6,74672,50102
6,75085,48478
6,75497,46719
6,75908,48449
6,76320,48005
6,76733,46222
6,77145,49314
6,77557,47849
6,77970,46364
6,78382,46758
6,78793,47214
6,79207,45545
6,79618,46097
6,80030,46715
6,80443,44280
6,80855,46108
6,81267,45847
6,81680,44288
6,82092,45243
6,82503,43634
6,82917,43250
6,83328,43714
6,83740,44516
6,84153,43181
6,84565,42716
6,84977,41497
6,85388,41636
6,85802,44189
6,86213,42208
6,86625,42971
6,87038,44497
6,87450,41699
6,87862,42712
6,88275,41503
6,88687,41991
6,89098,41179
6,89512,41999
6,89923,40537
6,90335,39950
6,90748,41286
6,91160,40835
6,91572,39379
6,91985,38890
6,92397,38080
6,92808,40070
6,93222,39521
6,93633,39499
6,94045,39233
6,94457,37341
6,94870,38296
6,95282,37803
6,95693,38454
6,96107,39952
6,96518,38736
6,96930,39897
6,97343,38685
6,97755,39918
6,98167,38054
6,98580,40591
6,98992,45531
6,99403,56210
6,99817,72041
7,00228,109014
7,00640,163814
7,01053,239545
7,01465,339923
7,01877,465550
7,02290,599396
7,02702,741099
7,03113,875019
7,03525,983183
7,03938,1048749
7,04350,1087768
7,04762,1087144
7,05175,1075249
7,05587,1044082
7,05998,1003128
7,06412,942743
7,06823,891749
7,07235,838971
7,07648,786119
7,08060,729776
7,08472,674438
7,08885,618490
7,09297,573378
7,09708,531742
7,10122,475184
7,10533,435144
7,10945,394186
7,11358,356828
7,11770,322534
7,12182,288734
7,12593,259720
7,13007,235660
7,13418,206195
7,13830,188240
7,14243,167456
7,14655,151753
7,15067,135770
7,15480,121384
7,15892,112837
7,16303,103112
7,16717,94432
7,17128,87949
7,17540,80713
7,17953,74542
7,18365,75252
7,18777,67537
7,19190,63262
7,19602,62207
7,20013,59984
7,20427,55559
7,20838,52518
7,21250,52468
7,21662,52928
7,22075,50220
7,22487,48930
7,22898,48216
7,23312,48527
7,23723,46241
7,24135,47018
7,24548,43669
7,24960,43375
7,25372,41859
7,25785,42748
7,26197,41087
7,26608,41597
7,27022,42208
7,27433,41174
7,27845,38906
7,28258,40107
7,28670,38977
7,29082,37950
7,29495,37792
7,29907,39508
7,30318,36698
7,30730,38147
7,31143,34770
7,31555,36432
7,31967,36399
7,32380,35928
7,32792,34153
7,33203,35781
7,33617,35220
7,34028,35670
7,34440,34661
7,34853,32863
7,35265,34064
7,35677,32758
7,36090,34714
7,36502,35717
7,36913,33151
7,37327,32841
7,37738,34271
7,38150,33063
7,38563,31620
7,38975,32686
7,39387,32056
7,39798,32619
7,40212,33046
7,40623,30266
7,41035,31810
7,41448,31998
7,41860,34343
7,42272,29891
7,42685,31948
7,43097,33198
7,43508,32436
7,43922,32842
7,44333,31057
7,44745,31213
7,45158,31316
7,45570,31847
7,45982,30256
7,46395,30167
7,46807,31515
7,47218,30604
7,47632,29489
7,48043,28638
7,48455,30313
7,48867,31180
7,49280,30035
7,49692,30912
7,50103,28732
7,50517,31295
7,50928,29790
7,51340,30683
7,51753,27916
7,52165,30925
7,52577,31151
7,52990,28003
7,53402,27891
7,53813,27751
7,54227,30440
7,54638,28352
7,55050,27914
7,55463,29317
7,55875,27989
7,56287,28984
7,56700,28043
7,57112,30086
7,57523,29875
7,57937,29033
7,58348,28153
7,58760,28301
7,59172,28402
7,59585,27579
7,59997,28661
7,60408,28298
7,60822,28040
7,61233,27448
7,61645,27990
7,62058,29396
7,62470,26739
7,62882,27400
7,63295,28955
7,63707,26910
7,64118,28690
7,64532,28622
7,64943,28980
7,65355,29674
7,65768,29558
7,66180,28682
7,66592,28540
7,67005,29834
7,67417,28361
7,67828,29701
7,68240,28926
7,68653,28659
7,69065,28015
7,69477,29685
7,69890,27875
7,70302,28813
7,70713,27254
7,71127,28658
7,71538,29917
7,71950,28506
7,72363,27700
7,72775,28305
7,73187,28735
7,73600,28471
7,74012,26794
7,74423,26682
7,74837,27636
7,75248,27160
7,75660,26194
7,76073,27076
7,76485,24781
7,76897,27179
7,77308,24896
7,77722,24554
7,78133,25278
7,78545,25284
7,78958,24336
7,79370,24146
7,79782,25566
7,80195,24961
7,80607,24316
7,81018,23374
7,81432,24446
7,81843,25030
7,82255,25420
7,82668,23922
7,83080,23333
7,83492,24699
7,83905,24926
7,84317,22287
7,84728,25011
7,85142,24608
7,85553,24516
7,85965,24930
7,86377,22754
7,86790,23687
7,87202,23615
7,87613,25284
7,88027,25117
7,88438,24296
7,88850,25468
7,89263,23865
7,89675,24752
7,90087,24732
7,90500,26012
7,90912,24350
7,91323,24953
7,91737,25183
7,92148,26311
7,92560,24448
7,92973,25786
7,93385,24954
7,93797,24967
7,94210,23670
7,94622,23230
7,95033,21696
7,95445,22321
7,95858,25118
7,96270,24645
7,96682,23350
7,97095,23481
7,97507,23225
7,97918,23525
7,98332,24102
7,98743,24490
7,99155,22551
7,99568,22877
7,99980,23400
8,00392,23095
8,00805,22637
8,01217,23918
8,01628,22846
8,02042,22796
8,02453,21555
8,02865,22339
8,03278,23656
8,03690,22360
8,04102,24085
8,04513,24140
8,04927,24879
8,05338,25139
8,05750,25793
8,06163,25352
8,06575,28565
8,06987,27255
8,07400,27386
8,07812,27042
8,08223,25226
8,08637,27657
8,09048,28663
8,09460,25560
8,09873,25774
8,10285,27294
8,10697,25049
8,11110,22563
8,11522,25093
8,11933,23644
8,12347,22821
8,12758,24985
8,13170,23795
8,13582,23658
8,13995,23923
8,14407,22477
8,14818,21859
8,15232,23566
8,15643,22691
8,16055,23816
8,16468,21500
8,16880,22505
8,17292,21892
8,17705,20706
8,18117,21475
8,18528,21539
8,18942,21694
8,19353,20249
8,19765,21414
8,20178,21908
8,20590,21130
8,21002,19972
8,21415,22731
8,21827,21660
8,22238,21976
8,22650,19646
8,23063,20081
8,23475,21547
8,23887,21506
8,24300,22240
8,24712,22113
8,25123,21619
8,25537,20720
8,25948,21990
8,26360,21064
8,26773,20811
8,27185,20937
8,27597,19995
8,28010,20996
8,28422,20083
8,28833,19402
8,29247,20808
8,29658,19365
8,30070,19795
8,30483,20551
8,30895,21394
8,31307,21700
8,31718,20495
8,32132,19342
8,32543,20111
8,32955,19150
8,33368,20267
8,33780,19012
8,34192,20445
8,34605,19877
8,35017,18741
8,35428,19663
8,35842,18970
8,36253,20127
8,36665,19427
8,37078,19864
8,37490,19185
8,37902,21141
8,38315,19253
8,38727,20742
8,39138,19438
8,39552,18601
8,39963,19548
8,40375,19441
8,40787,20530
8,41200,19034
8,41612,19311
8,42023,17808
8,42437,20458
8,42848,19010
8,43260,19751
8,43673,18231
8,44085,19549
8,44497,17504
8,44910,18755
8,45322,18902
8,45733,18141
8,46147,19644
8,46558,18827
8,46970,18926
8,47383,18637
8,47795,19437
8,48207,17816
8,48620,19606
8,49032,17757
8,49443,18758
8,49855,18360
8,50268,18294
8,50680,19419
8,51092,18092
8,51505,19094
8,51917,18201
8,52328,20471
8,52742,19532
8,53153,20060
8,53565,18982
8,53978,18332
8,54390,18539
8,54802,19226
8,55215,18704
8,55627,18829
8,56038,19372
8,56452,19109
8,56863,19642
8,57275,18143
8,57688,20307
8,58100,18725
8,58512,19871
8,58923,20507
8,59337,19987
8,59748,20098
8,60160,18547
8,60573,19796
8,60985,18831
8,61397,19149
8,61810,19033
8,62222,19362
8,62633,20008
8,63047,19463
8,63458,19201
8,63870,19675
8,64283,18791
8,64695,19293
8,65107,18829
8,65520,19838
8,65932,19313
8,66343,20115
8,66757,17666
8,67168,18005
8,67580,19510
8,67992,17863
8,68405,19774
8,68817,17338
8,69228,18439
8,69642,17132
8,70053,18159
8,70465,18325
8,70878,17434
8,71290,17757
8,71702,17564
8,72115,17317
8,72527,17827
8,72938,17468
8,73352,17766
8,73763,17146
8,74175,16869
8,74588,17709
8,75000,18664
8,75412,17470
8,75825,17888
8,76237,17460
8,76648,17408
8,77060,16774
8,77473,16935
8,77885,18007
8,78297,17083
8,78710,17973
8,79122,19093
8,79533,19526
8,79947,25123
8,80358,32734
8,80770,51505
8,81183,84052
8,81595,142005
8,82007,223493
8,82420,360374
8,82832,534117
8,83243,738779
8,83657,965252
8,84068,1195298
8,84480,1402395
8,84893,1577609
8,85305,1702839
8,85717,1761107
8,86128,1737097
8,86542,1672455
8,86953,1580698
8,87365,1454535
8,87778,1297279
8,88190,1140703
8,88602,998394
8,89015,851381
8,89427,736384
8,89838,618609
8,90252,518966
8,90663,439294
8,91075,366841
8,91488,309981
8,91900,268189
8,92312,226365
8,92725,196796
8,93137,169939
8,93548,148180
8,93962,132080
8,94373,118441
8,94785,108148
8,95197,99193
8,95610,88779
8,96022,80971
8,96433,76199
8,96847,70594
8,97258,64817
8,97670,60157
8,98083,55818
8,98495,53836
8,98907,52140
8,99320,47666
8,99732,46153
9,00143,44127
9,00557,41980
9,00968,40563
9,01380,37700
9,01793,36852
9,02205,36998
9,02617,36027
9,03030,35774
9,03442,33806
9,03853,32670
9,04265,29083
9,04678,31556
9,05090,31048
9,05502,29868
9,05915,29574
9,06327,27773
9,06738,27109
9,07152,27150
9,07563,25751
9,07975,25486
9,08388,24254
9,08800,26052
9,09212,23733
9,09625,25946
9,10037,23379
9,10448,23018
9,10862,24231
9,11273,23162
9,11685,23884
9,12098,22181
9,12510,22997
9,12922,22297
9,13335,21832
9,13747,20182
9,14158,20267
9,14570,23153
9,14983,20412
9,15395,22174
9,15807,20965
9,16220,18651
9,16632,23003
9,17043,21161
9,17457,21030
9,17868,20411
9,18280,21805
9,18693,21643
9,19105,20407
9,19517,21040
9,19930,21450
9,20342,20722
9,20753,20695
9,21167,19907
9,21578,19020
9,21990,20507
9,22403,19689
9,22815,19770
9,23227,20468
9,23638,20102
9,24052,19039
9,24463,19802
9,24875,18614
9,25288,18878
9,25700,19277
9,26112,17697
9,26525,19201
9,26937,17440
9,27348,18834
9,27762,19795
9,28173,19359
9,28585,19812
9,28998,18662
9,29410,21392
9,29822,20101
9,30235,17621
9,30647,19983
9,31058,19834
9,31472,19462
9,31883,18529
9,32295,16871
9,32707,17770
9,33120,18479
9,33532,18381
9,33943,17264
9,34357,17962
9,34768,17922
9,35180,16770
9,35593,15906
9,36005,17051
9,36417,16144
9,36830,17688
9,37242,17112
9,37653,15442
9,38067,16112
9,38478,17654
9,38890,15651
9,39303,15816
9,39715,15857
9,40127,16145
9,40540,16388
9,40952,16500
9,41363,16608
9,41775,16287
9,42188,17128
9,42600,17593
9,43012,16760
9,43425,15712
9,43837,16416
9,44248,16104
9,44662,16534
9,45073,17066
9,45485,16931
9,45898,17592
9,46310,15636
9,46722,15623
9,47135,16674
9,47547,14918
9,47958,16049
9,48372,15275
9,48783,15273
9,49195,15711
9,49608,16316
9,50020,15786
9,50432,14992
9,50843,15507
9,51257,15065
9,51668,15740
9,52080,15322
9,52493,14597
9,52905,16376
9,53317,15535
9,53730,14622
9,54142,14795
9,54553,15447
9,54967,15275
9,55378,14889
9,55790,16426
9,56203,16456
9,56615,14857
9,57027,13910
9,57440,16054
9,57852,15599
9,58263,17737
9,58677,15883
9,59088,17124
9,59500,16649
9,59912,16180
9,60325,17104
9,60737,16183
9,61148,16235
9,61562,18100
9,61973,17063
9,62385,18202
9,62798,17714
9,63210,16998
9,63622,16955
9,64035,18930
9,64447,18477
9,64858,16867
9,65272,16297
9,65683,16869
9,66095,16227
9,66508,16193
9,66920,15989
9,67332,15144
9,67745,16133
9,68157,15956
9,68568,13895
9,68980,15096
9,69393,13375
9,69805,14420
9,70217,14924
9,70630,14277
9,71042,13566
9,71453,13996
9,71867,14912
9,72278,14449
9,72690,13903
9,73103,14084
9,73515,15072
9,73927,12168
9,74340,14383
9,74752,14241
9,75163,13944
9,75577,12909
9,75988,13978
9,76400,14168
9,76813,14047
9,77225,13038
9,77637,13576
9,78048,13368
9,78462,15230
9,78873,16280
9,79285,19848
9,79698,26365
9,80110,39828
9,80522,64059
9,80935,101839
9,81347,167304
9,81758,253432
9,82172,366850
9,82583,511897
9,82995,661198
9,83408,799102
9,83820,915770
9,84232,1014572
9,84645,1046984
9,85057,1043199
9,85468,998505
9,85882,913142
9,86293,814099
9,86705,713195
9,87117,613651
9,87530,510047
9,87942,427038
9,88353,355042
9,88767,290852
9,89178,237777
9,89590,198320
9,90003,167310
9,90415,145521
9,90827,122489
9,91240,106778
9,91652,93907
9,92063,88048
9,92477,77928
9,92888,71033
9,93300,65737
9,93713,59692
9,94125,58147
9,94537,54700
9,94950,50120
9,95362,47568
9,95773,44344
9,96185,41743
9,96598,40034
9,97010,36740
9,97422,36324
9,97835,35775
9,98247,31607
9,98658,32920
9,99072,30992
9,99483,29480
9,99895,29063
10,00308,28018
10,00720,26024
10,01132,26021
10,01545,24263
10,01957,24452
10,02368,21621
10,02782,24617
10,03193,23092
10,03605,21931
10,04018,22074
10,04430,23099
10,04842,21880
10,05253,20499
10,05667,20317
10,06078,19343
10,06490,18681
10,06903,18491
10,07315,19364
10,07727,17320
10,08140,19555
10,08552,18260
10,08963,18446
10,09377,17650
10,09788,18939
10,10200,17668
10,10613,17152
10,11025,16751
10,11437,17007
10,11850,18439
10,12262,17290
10,12673,15557
10,13087,15998
10,13498,15535
10,13910,17185
10,14322,16249
10,14735,17443
10,15147,16205
10,15558,16539
10,15972,15019
10,16383,13983
10,16795,15121
10,17208,16325
10,17620,14955
10,18032,15116
10,18445,15200
10,18857,15127
10,19268,16127
10,19682,14341
10,20093,15868
10,20505,16755
10,20918,17096
10,21330,19759
10,21742,19011
10,22155,19952
10,22567,20236
10,22978,19529
10,23390,17665
10,23803,18885
10,24215,17833
10,24627,17149
10,25040,16964
10,25452,17504
10,25863,15949
10,26277,16283
10,26688,14634
10,27100,15028
10,27513,14217
10,27925,13636
10,28337,12983
10,28750,15074
10,29162,14206
10,29573,12966
10,29987,14535
10,30398,14485
10,30810,14411
10,31223,13045
10,31635,13595
10,32047,13114
10,32458,13905
10,32872,12108
10,33283,12964
10,33695,12976
10,34108,13864
10,34520,13769
10,34932,13677
10,35345,13725
10,35757,12518
10,36168,14230
10,36582,13294
10,36993,14374
10,37405,12995
10,37818,13878
10,38230,13022
10,38642,12068
10,39055,13562
10,39467,13264
10,39878,13520
10,40292,13102
10,40703,11947
10,41115,13082
10,41527,13872
10,41940,12705
10,42352,13160
10,42763,12150
10,43177,12499
10,43588,13018
10,44000,11118
10,44413,12598
10,44825,12602
10,45237,12982
10,45650,12191
10,46062,13045
10,46473,12521
10,46887,13549
10,47298,13858
10,47710,13019
10,48123,13048
10,48535,13141
10,48947,12718
10,49360,12227
10,49772,13150
10,50183,13631
10,50595,12990
10,51008,14212
10,51420,13182
10,51832,13689
10,52245,12211
10,52657,11620
10,53068,13442
10,53482,12511
10,53893,11889
10,54305,12692
10,54718,12572
10,55130,13160
10,55542,12647
10,55955,13705
10,56367,11751
10,56778,11977
10,57192,12806
10,57603,12381
10,58015,12053
10,58428,12190
10,58840,12124
10,59252,12820
10,59663,12847
10,60077,12049
10,60488,13351
10,60900,13745
10,61313,13585
10,61725,12692
10,62137,14683
10,62550,13276
10,62962,12742
10,63373,12926
10,63787,12889
10,64198,13305
10,64610,14719
10,65023,13384
10,65435,14632
10,65847,12193
10,66260,13125
10,66672,11434
10,67083,12667
10,67497,13571
10,67908,12726
10,68320,12938
10,68732,14004
10,69145,13194
10,69557,12637
10,69968,13936
10,70382,13033
10,70793,13808
10,71205,13103
10,71618,13306
10,72030,12730
10,72442,14251
10,72855,13562
10,73267,13407
10,73678,13260
10,74092,12132
10,74503,12749
10,74915,12761
10,75328,12482
10,75740,12584
10,76152,11982
10,76565,11917
10,76977,11035
10,77388,12800
10,77800,11600
10,78213,13156
10,78625,12842
10,79037,17186
10,79450,24873
10,79862,41130
10,80273,75489
10,80687,136759
10,81098,232138
10,81510,390954
10,81923,628901
10,82335,926631
10,82747,1267164
10,83160,1637021
10,83572,1967007
10,83983,2237304
10,84397,2389701
10,84808,2417963
10,85220,2340501
10,85633,2151860
10,86045,1908880
10,86457,1642565
10,86870,1368478
10,87282,1130669
10,87693,913561
10,88105,740151
10,88518,598601
10,88930,487208
10,89342,400752
10,89755,329400
10,90167,276290
10,90578,238682
10,90992,204997
10,91403,176022
10,91815,156900
10,92228,134592
10,92640,122905
10,93052,110006
10,93465,98308
10,93877,90948
10,94288,85199
10,94702,76040
10,95113,71125
10,95525,65045
10,95938,61337
10,96350,55955
10,96762,52888
10,97173,50263
10,97587,49566
10,97998,42779
10,98410,44591
10,98823,40388
10,99235,38337
10,99647,38015
11,00060,36849
11,00472,34300
11,00883,33787
11,01297,34195
11,01708,32514
11,02120,29638
11,02533,29303
11,02945,27345
11,03357,29366
11,03770,27160
11,04182,24947
11,04593,26555
11,05007,24299
11,05418,24429
11,05830,22832
11,06242,23130
11,06655,24291
11,07067,21742
11,07478,21706
11,07892,20916
11,08303,21338
11,08715,21001
11,09128,20121
11,09540,20721
11,09952,21295
11,10365,19074
11,10777,20981
11,11188,19026
11,11602,17999
11,12013,17943
11,12425,18818
11,12838,19920
11,13250,17783
11,13662,16316
11,14075,16518
11,14487,17016
11,14898,18123
11,15310,17275
11,15723,16833
11,16135,16301
11,16547,17158
11,16960,17369
11,17372,15653
11,17783,15928
11,18197,16252
11,18608,14804
11,19020,14762
11,19433,15100
11,19845,13864
11,20257,16288
11,20670,14536
11,21082,14676
11,21493,14799
11,21907,13434
11,22318,14468
11,22730,15474
11,23143,13730
11,23555,14560
11,23967,14303
11,24378,14290
11,24792,12981
11,25203,12916
11,25615,13223
11,26028,14621
11,26440,15246
11,26852,13326
11,27265,13408
11,27677,14610
11,28088,13752
11,28502,13613
11,28913,13348
11,29325,14248
11,29738,13771
11,30150,14159
11,30562,13935
11,30975,13648
11,31387,13457
11,31798,14857
11,32212,14118
11,32623,13396
11,33035,15797
11,33447,14643
11,33860,15413
11,34272,15755
11,34683,16163
11,35097,15291
11,35508,15925
11,35920,15840
11,36333,15325
11,36745,13612
11,37157,15795
11,37570,14761
11,37982,14191
11,38393,15255
11,38807,15833
11,39218,17460
11,39630,18749
11,40043,20034
11,40455,20988
11,40867,20797
11,41280,24887
11,41692,23503
11,42103,24846
11,42515,25640
11,42928,25413
11,43340,24607
11,43752,23493
11,44165,22018
11,44577,21307
11,44988,18891
11,45402,17795
11,45813,17814
11,46225,16806
11,46638,16910
11,47050,15490
11,47462,13367
11,47875,14248
11,48287,14423
11,48698,13770
11,49112,13210
11,49523,13572
11,49935,13653
11,50348,12321
11,50760,12445
11,51172,13204
11,51583,11516
11,51997,12701
11,52408,11443
11,52820,12739
11,53233,13458
11,53645,13165
11,54057,12897
11,54470,12398
11,54882,11424
11,55293,12116
11,55707,12364
11,56118,12384
11,56530,11359
11,56943,10970
11,57355,11787
11,57767,12535
11,58180,11364
11,58592,12234
11,59003,11173
11,59417,10372
11,59828,10982
11,60240,11807
11,60652,12335
11,61065,11390
11,61477,12022
11,61888,11441
11,62302,12176
11,62713,11850
11,63125,11977
11,63538,11293
11,63950,10745
11,64362,11375
11,64775,12286
11,65187,10940
11,65598,11542
11,66012,11652
11,66423,10482
11,66835,11182
11,67248,11253
11,67660,11227
11,68072,12455
11,68485,11809
11,68897,12398
11,69308,10716
11,69720,10989
11,70133,11213
11,70545,12248
11,70957,11591
11,71370,12532
11,71782,11703
11,72193,11827
11,72607,12160
11,73018,10489
11,73430,11869
11,73843,10730
11,74255,11010
11,74667,11025
11,75080,10524
11,75492,10657
11,75903,9907
11,76317,10599
11,76728,11200
11,77140,10318
11,77553,12445
11,77965,14485
11,78377,20599
11,78788,36187
11,79202,59697
11,79613,106541
11,80025,182249
11,80438,294810
11,80850,453894
11,81262,633553
11,81675,837735
11,82087,1036215
11,82498,1206150
11,82912,1300476
11,83323,1343679
11,83735,1289023
11,84148,1184067
11,84560,1056992
11,84972,895148
11,85385,752704
11,85797,605200
11,86208,495329
11,86622,394243
11,87033,320656
11,87445,252968
11,87857,212156
11,88270,177157
11,88682,148405
11,89093,128453
11,89507,107383
11,89918,96249
11,90330,85726
11,90743,74946
11,91155,66430
11,91567,62367
11,91980,55771
11,92392,52107
11,92803,46777
11,93217,44743
11,93628,40516
11,94040,37656
11,94453,36115
11,94865,33910
11,95277,31272
11,95690,30076
11,96102,29149
11,96513,27674
11,96925,27306
11,97338,26471
11,97750,24068
11,98162,22547
11,98575,22488
11,98987,21708
11,99398,20649
11,99812,20672
12,00223,21015
12,00635,20909
12,01048,19907
12,01460,18285
12,01872,19666
12,02285,17330
12,02697,17430
12,03108,17352
12,03522,18614
12,03933,16808
12,04345,15982
12,04758,16610
12,05170,16909
12,05582,14778
12,05993,14655
12,06407,15125
12,06818,15501
12,07230,15147
12,07643,14953
12,08055,14748
12,08467,14355
12,08880,15071
12,09292,13255
12,09703,13011
12,10117,14948
12,10528,14547
12,10940,14276
12,11353,13901
12,11765,13735
12,12177,13681
12,12590,14190
12,13002,13257
12,13413,12907
12,13827,14765
12,14238,13445
12,14650,14726
12,15062,12090
12,15475,11515
12,15887,12533
12,16298,12907
12,16712,13132
12,17123,13195
12,17535,12873
12,17948,12089
12,18360,11442
12,18772,11759
12,19185,12056
12,19597,11954
12,20008,12694
12,20422,11932
12,20833,11950
12,21245,10556
12,21658,12376
12,22070,11129
12,22482,11649
12,22895,10736
12,23307,11013
12,23718,11444
12,24130,11154
12,24543,11326
12,24955,11027
12,25367,11222
12,25780,10147
12,26192,11820
12,26603,11044
12,27017,11096
12,27428,12681
12,27840,10654
12,28253,10070
12,28665,12119
12,29077,12989
12,29490,11710
12,29902,13598
12,30313,15263
12,30727,15257
12,31138,15750
12,31550,16784
12,31963,16582
12,32375,15032
12,32787,15988
12,33198,14871
12,33612,15066
12,34023,13165
12,34435,14139
12,34848,11787
12,35260,14063
12,35672,13099
12,36085,12869
12,36497,11300
12,36908,11563
12,37322,11715
12,37733,10460
12,38145,11353
12,38558,11837
12,38970,13009
12,39382,11422
12,39795,12759
12,40207,12765
12,40618,12824
12,41032,13365
12,41443,15717
12,41855,14667
12,42267,15801
12,42680,17527
12,43092,16046
12,43503,15943
12,43917,16191
12,44328,16662
12,44740,14117
12,45153,14374
12,45565,12684
12,45977,14812
12,46390,12173
12,46802,12434
12,47213,10853
12,47627,11799
12,48038,11629
12,48450,11812
12,48863,11571
12,49275,10964
12,49687,10808
12,50100,11627
12,50512,11571
12,50923,10001
12,51337,10981
12,51748,10094
12,52160,11768
12,52572,11588
12,52985,11399
12,53397,10219
12,53808,11191
12,54222,11892
12,54633,11607
12,55045,9319
12,55458,10347
12,55870,10913
12,56282,11411
12,56695,11375
12,57107,10766
12,57518,11761
12,57932,11512
12,58343,11458
12,58755,11363
12,59168,11660
12,59580,10102
12,59992,9995
12,60405,10876
12,60817,10323
12,61228,10475
12,61640,10737
12,62053,11021
12,62465,10140
12,62877,10963
12,63290,9566
12,63702,10372
12,64113,10232
12,64527,8868
12,64938,9577
12,65350,9578
12,65763,11313
12,66175,9608
12,66587,8904
12,67000,10233
12,67412,9972
12,67823,11829
12,68237,11136
12,68648,10043
12,69060,10059
12,69473,10795
12,69885,9856
12,70297,9976
12,70708,9315
12,71122,9201
12,71533,10306
12,71945,9017
12,72358,9683
12,72770,11581
12,73182,10703
12,73595,11879
12,74007,15602
12,74418,25424
12,74832,48026
12,75243,85921
12,75655,167600
12,76068,301321
12,76480,513925
12,76892,813891
12,77305,1206106
12,77717,1673978
12,78128,2143567
12,78542,2561830
12,78953,2864804
12,79365,2983767
12,79777,2907659
12,80190,2720162
12,80602,2400931
12,81013,2034305
12,81427,1683256
12,81838,1352218
12,82250,1065067
12,82663,857427
12,83075,677769
12,83487,546254
12,83900,441241
12,84312,363236
12,84723,305639
12,85137,259244
12,85548,226638
12,85960,191336
12,86373,168798
12,86785,148440
12,87197,132280
12,87610,118786
12,88022,106043
12,88433,99314
12,88845,87766
12,89258,81456
12,89670,75141
12,90082,69860
12,90495,66434
12,90907,61274
12,91318,58040
12,91732,54272
12,92143,53310
12,92555,49023
12,92968,48579
12,93380,47902
12,93792,47675
12,94205,46791
12,94617,45592
12,95028,44220
12,95442,41954
12,95853,40867
12,96265,39839
12,96678,39845
12,97090,36298
12,97502,37203
12,97913,32493
12,98327,31394
12,98738,30184
12,99150,28807
12,99563,26452
12,99975,24495
13,00387,24755
13,00800,22803
13,01212,22294
13,01623,24171
13,02037,23416
13,02448,22021
13,02860,21031
13,03273,20475
13,03685,20469
13,04097,19986
13,04510,19752
13,04922,19333
13,05333,17451
13,05747,16832
13,06158,16884
13,06570,16941
13,06982,16421
13,07395,17244
13,07807,15730
13,08218,17103
13,08632,16485
13,09043,16825
13,09455,16071
13,09868,15793
13,10280,14813
13,10692,15770
13,11105,14571
13,11517,14643
13,11928,15077
13,12342,14449
13,12753,14288
13,13165,14428
13,13578,15330
13,13990,13800
13,14402,15850
13,14815,14922
13,15227,13745
13,15638,13918
13,16050,13979
13,16463,13265
13,16875,14154
13,17287,13345
13,17700,12820
13,18112,13211
13,18523,13696
13,18937,12724
13,19348,13403
13,19760,12867
13,20173,12945
13,20585,13554
13,20997,11996
13,21410,12213
13,21822,13715
13,22233,12256
13,22647,12035
13,23058,13692
13,23470,13206
13,23883,13271
13,24295,13841
13,24707,16771
13,25118,16424
13,25532,17730
13,25943,16803
13,26355,16129
13,26768,16859
13,27180,15809
13,27592,15450
13,28005,12249
13,28417,12661
13,28828,13853
13,29242,11301
13,29653,12451
13,30065,12461
13,30478,10638
13,30890,11558
13,31302,11584
13,31715,11575
13,32127,11194
13,32538,11647
13,32952,9246
13,33363,10433
13,33775,10652
13,34187,10787
13,34600,10363
13,35012,11510
13,35423,9531
13,35837,10547
13,36248,10136
13,36660,10626
13,37073,10668
13,37485,10818
13,37897,10736
13,38310,11251
13,38722,9615
13,39133,10329
13,39547,10599
13,39958,13163
13,40370,14979
13,40783,20692
13,41195,32452
13,41607,55168
13,42020,100045
13,42432,172836
13,42843,282965
13,43255,438494
13,43668,629458
13,44080,844076
13,44492,1057821
13,44905,1226573
13,45317,1324267
13,45728,1356036
13,46142,1327423
13,46553,1196719
13,46965,1060079
13,47378,903027
13,47790,746392
13,48202,595168
13,48615,479562
13,49027,386694
13,49438,315383
13,49852,254676
13,50263,210278
13,50675,171562
13,51088,149545
13,51500,130404
13,51912,111255
13,52323,100599
13,52737,88332
13,53148,80748
13,53560,73059
13,53973,68076
13,54385,66387
13,54797,65070
13,55210,61346
13,55622,59985
13,56033,56734
13,56447,56107
13,56858,51415
13,57270,47683
13,57683,45953
13,58095,40149
13,58507,37767
13,58920,36720
13,59332,33367
13,59743,30665
13,60157,30492
13,60568,26611
13,60980,24777
13,61392,24009
13,61805,23604
13,62217,23142
13,62628,22799
13,63042,21439
13,63453,20827
13,63865,20125
13,64278,18138
13,64690,19482
13,65102,17584
13,65515,18683
13,65927,19303
13,66338,17693
13,66752,18886
13,67163,25624
13,67575,35446
13,67988,55849
13,68400,100354
13,68812,166871
13,69225,287753
13,69637,450181
13,70048,661083
13,70460,914579
13,70873,1167124
13,71285,1371335
13,71697,1526395
13,72110,1566483
13,72522,1527257
13,72933,1407420
13,73347,1226806
13,73758,1042253
13,74170,851927
13,74583,684197
13,74995,547184
13,75407,436158
13,75820,349631
13,76232,280692
13,76643,230080
13,77057,190807
13,77468,163256
13,77880,138441
13,78293,119258
13,78705,105310
13,79117,92197
13,79528,81598
13,79942,72902
13,80353,67614
13,80765,61540
13,81178,56182
13,81590,48923
13,82002,47239
13,82415,44155
13,82827,42614
13,83238,38820
13,83652,37984
13,84063,33574
13,84475,32979
13,84888,31555
13,85300,29312
13,85712,29219
13,86125,27579
13,86537,26824
13,86948,26322
13,87362,24231
13,87773,24041
13,88185,21006
13,88597,21893
13,89010,23342
13,89422,21168
13,89833,19628
13,90247,18917
13,90658,19523
13,91070,19886
13,91483,19742
13,91895,18919
13,92307,19083
13,92720,17272
13,93132,18674
13,93543,17026
13,93957,16825
13,94368,15489
13,94780,17118
13,95193,15435
13,95605,15489
13,96017,14980
13,96430,15033
13,96842,15338
13,97253,14193
13,97665,13379
13,98078,14976
13,98490,14343
13,98902,13727
13,99315,14295
13,99727,12858
14,00138,14057
14,00552,12981
14,00963,13808
14,01375,13923
14,01788,12762
14,02200,13915
14,02612,12482
14,03025,14743
14,03437,13087
14,03848,12572
14,04262,13258
14,04673,12774
14,05085,13510
14,05498,12768
14,05910,11971
14,06322,12160
14,06735,12640
14,07147,12685
14,07558,12534
14,07970,13569
14,08383,12019
14,08795,12564
14,09207,11793
14,09620,12062
14,10032,12557
14,10443,12960
14,10857,12309
14,11268,12592
14,11680,13366
14,12093,14567
14,12505,14073
14,12917,12790
14,13330,13372
14,13742,12101
14,14153,13725
14,14567,13098
14,14978,13705
14,15390,12880
14,15803,12159
14,16215,13239
14,16627,11637
14,17038,14082
14,17452,12914
14,17863,12407
14,18275,11888
14,18688,12552
14,19100,12405
14,19512,12352
14,19925,11310
14,20337,10258
14,20748,10725
14,21162,10594
14,21573,9592
14,21985,11701
14,22398,10823
14,22810,12064
14,23222,10482
14,23635,10774
14,24047,11037
14,24458,10885
14,24872,11969
14,25283,12280
14,25695,10944
14,26107,12141
14,26520,10975
14,26932,10732
14,27343,11789
14,27757,12511
14,28168,11605
14,28580,11113
14,28993,11852
14,29405,11687
14,29817,10642
14,30230,11775
14,30642,11986
14,31053,11273
14,31467,13004
14,31878,16189
14,32290,20791
14,32703,37315
14,33115,65755
14,33527,117445
14,33940,199755
14,34352,335880
14,34763,510074
14,35175,718951
14,35588,954201
14,36000,1173904
14,36412,1333392
14,36825,1422580
14,37237,1447438
14,37648,1375299
14,38062,1255600
14,38473,1088308
14,38885,921228
14,39298,744049
14,39710,601084
14,40122,481212
14,40535,389684
14,40947,312945
14,41358,250741
14,41772,212140
14,42183,175421
14,42595,149390
14,43008,126632
14,43420,112631
14,43832,97625
14,44243,89886
14,44657,78176
14,45068,73027
14,45480,67440
14,45893,59855
14,46305,57761
14,46717,52293
14,47130,47375
14,47542,43732
14,47953,41934
14,48367,38509
14,48778,36996
14,49190,35261
14,49603,34098
14,50015,32202
14,50427,30250
14,50840,27247
14,51252,24840
14,51663,26303
14,52077,22773
14,52488,25222
14,52900,23282
14,53312,22814
14,53725,22488
14,54137,20889
14,54548,20871
14,54962,19082
14,55373,22875
14,55785,23305
14,56198,27634
14,56610,39040
14,57022,70550
14,57435,130423
14,57847,244674
14,58258,442206
14,58672,770648
14,59083,1202907
14,59495,1785704
14,59908,2507352
14,60320,3262596
14,60732,4009656
14,61145,4661607
14,61557,4981598
14,61968,5067232
14,62380,4764319
14,62793,4275225
14,63205,3614071
14,63617,2955447
14,64030,2350856
14,64442,1862516
14,64853,1457108
14,65267,1155333
14,65678,918897
14,66090,739447
14,66503,610544
14,66915,507837
14,67327,427632
14,67740,368852
14,68152,318566
14,68563,277995
14,68977,247862
14,69388,220293
14,69800,199802
14,70213,180349
14,70625,163368
14,71037,146192
14,71448,134694
14,71862,123278
14,72273,114299
14,72685,109652
14,73098,97188
14,73510,92898
14,73922,86442
14,74335,78628
14,74747,75267
14,75158,71604
14,75572,64534
14,75983,63567
14,76395,58094
14,76808,57588
14,77220,54936
14,77632,51297
14,78045,48856
14,78457,46719
14,78868,43701
14,79282,44614
14,79693,41070
14,80105,41369
14,80517,40051
14,80930,36560
14,81342,34747
14,81753,35698
14,82167,33557
14,82578,34987
14,82990,32437
14,83403,31507
14,83815,29815
14,84227,30205
14,84640,29735
14,85052,28918
14,85463,28711
14,85877,24987
14,86288,27402
14,86700,25375
14,87113,24362
14,87525,24653
14,87937,22490
14,88350,24583
14,88762,22858
14,89173,21470
14,89585,22333
14,89998,21166
14,90410,23630
14,90822,21472
14,91235,20900
14,91647,19598
14,92058,20041
14,92472,17849
14,92883,17841
14,93295,19729
14,93708,18486
14,94120,17612
14,94532,20467
14,94945,20219
14,95357,20556
14,95768,20831
14,96182,20051
14,96593,19088
14,97005,19271
14,97418,18606
14,97830,16445
14,98242,18412
14,98653,15755
14,99067,17471
14,99478,16822
14,99890,16174
15,00303,16486
15,00715,15883
15,01127,15043
15,01540,17330
15,01952,15220
15,02363,15764
15,02777,15978
15,03188,17400
15,03600,17384
15,04013,17557
15,04425,17650
15,04837,18703
15,05250,18852
15,05662,20008
15,06073,19033
15,06487,17751
15,06898,18224
15,07310,18575
15,07722,18203
15,08135,19767
15,08547,26598
15,08958,42119
15,09372,69751
15,09783,116708
15,10195,202373
15,10608,336863
15,11020,511225
15,11432,738886
15,11845,980847
15,12257,1219903
15,12668,1397665
15,13082,1514576
15,13493,1539675
15,13905,1437313
15,14318,1319556
15,14730,1134378
15,15142,946773
15,15555,772434
15,15967,625339
15,16378,504831
15,16790,405157
15,17203,322107
15,17615,270915
15,18027,228066
15,18440,192963
15,18852,165634
15,19263,151879
15,19677,134653
15,20088,118980
15,20500,111363
15,20913,101273
15,21325,95573
15,21737,86086
15,22150,80522
15,22562,75863
15,22973,72312
15,23387,68432
15,23798,64143
15,24210,59068
15,24623,56521
15,25035,52044
15,25447,50784
15,25858,46861
15,26272,43485
15,26683,41716
15,27095,39424
15,27508,35336
15,27920,35376
15,28332,32726
15,28745,31621
15,29157,31092
15,29568,28805
15,29982,28070
15,30393,27685
15,30805,25850
15,31218,26778
15,31630,26799
15,32042,24538
15,32455,24490
15,32867,24455
15,33278,23406
15,33692,21315
15,34103,22554
15,34515,20040
15,34927,20072
15,35340,20117
15,35752,19245
15,36163,18128
15,36577,18565
15,36988,16782
15,37400,18238
15,37813,16698
15,38225,18283
15,38637,17524
15,39050,18112
15,39462,15082
15,39873,17260
15,40287,16450
15,40698,16426
15,41110,16101
15,41523,18527
15,41935,19976
15,42347,29539
15,42760,45594
15,43172,82132
15,43583,143906
15,43995,259198
15,44408,420275
15,44820,641182
15,45232,918982
15,45645,1193575
15,46057,1460013
15,46468,1669422
15,46882,1754254
15,47293,1728203
15,47705,1619196
15,48118,1431744
15,48530,1211733
15,48942,996096
15,49355,804672
15,49767,634589
15,50178,506418
15,50592,400960
15,51003,326587
15,51415,271168
15,51828,221522
15,52240,189928
15,52652,161441
15,53063,139713
15,53477,120629
15,53888,108971
15,54300,99333
15,54713,89208
15,55125,79091
15,55537,72772
15,55950,67066
15,56362,61367
15,56773,57972
15,57187,52320
15,57598,50244
15,58010,48708
15,58423,45780
15,58835,41687
15,59247,40314
15,59660,36861
15,60072,36680
15,60483,34345
15,60897,32675
15,61308,33230
15,61720,30619
15,62132,28010
15,62545,30186
15,62957,30269
15,63368,28025
15,63782,29590
15,64193,27529
15,64605,27098
15,65018,27429
15,65430,26957
15,65842,25895
15,66255,25209
15,66667,24938
15,67078,24814
15,67492,23172
15,67903,23354
15,68315,21681
15,68728,21196
15,69140,21853
15,69552,20164
15,69965,21719
15,70377,20153
15,70788,20009
15,71202,16867
15,71613,19706
15,72025,18550
15,72437,18467
15,72850,18171
15,73262,17149
15,73673,17766
15,74087,16890
15,74498,17240
15,74910,17399
15,75323,18035
15,75735,15940
15,76147,17739
15,76560,18401
15,76972,16480
15,77383,17249
15,77797,15885
15,78208,15707
15,78620,16496
15,79033,15754
15,79445,17466
15,79857,14634
15,80270,15515
15,80682,16510
15,81093,15610
15,81505,14077
15,81918,14080
15,82330,12842
15,82742,14465
15,83155,14134
15,83567,13807
15,83978,13573
15,84392,14594
15,84803,13050
15,85215,13386
15,85628,13816
15,86040,13897
15,86452,14181
15,86865,14186
15,87277,14497
15,87688,13711
15,88102,13729
15,88513,13408
15,88925,12275
15,89338,15487
15,89750,15173
15,90162,14469
15,90573,15282
15,90987,14326
15,91398,14887
15,91810,14403
15,92223,18527
15,92635,21812
15,93047,31426
15,93460,53470
15,93872,93295
15,94283,162273
15,94697,279311
15,95108,442162
15,95520,661143
15,95933,911273
15,96345,1169060
15,96757,1419950
15,97170,1571419
15,97582,1642465
15,97993,1610534
15,98407,1518720
15,98818,1330552
15,99230,1131501
15,99642,933522
16,00055,762351
16,00467,608350
16,00878,487684
16,01292,391333
16,01703,316164
16,02115,261957
16,02528,216513
16,02940,183591
16,03352,158153
16,03765,138397
16,04177,119757
16,04588,106646
16,05002,95295
16,05413,88667
16,05825,81448
16,06238,73583
16,06650,66468
16,07062,63821
16,07475,58056
16,07887,54729
16,08298,49151
16,08710,48373
16,09123,45044
16,09535,44140
16,09947,40592
16,10360,39015
16,10772,37613
16,11183,35884
16,11597,32891
16,12008,30504
16,12420,32330
16,12833,30247
16,13245,28888
16,13657,28797
16,14070,28747
16,14482,26249
16,14893,26619
16,15307,25280
16,15718,23323
16,16130,24335
16,16543,23161
16,16955,23020
16,17367,24022
16,17778,25820
16,18192,28826
16,18603,30255
16,19015,35699
16,19428,39553
16,19840,42237
16,20252,45888
16,20665,48667
16,21077,49407
16,21488,48626
16,21902,44149
16,22313,45108
16,22725,38870
16,23138,38041
16,23550,34650
16,23962,36852
16,24375,37730
16,24787,49685
16,25198,73482
16,25612,129952
16,26023,230630
16,26435,401997
16,26847,656869
16,27260,1020965
16,27672,1484131
16,28083,2037999
16,28497,2610593
16,28908,3174049
16,29320,3587144
16,29733,3797212
16,30145,3781535
16,30557,3527237
16,30970,3080256
16,31382,2593374
16,31793,2113752
16,32207,1661930
16,32618,1328761
16,33030,1052353
16,33443,840850
16,33855,668128
16,34267,554353
16,34680,454089
16,35092,387987
16,35503,330944
16,35915,287594
16,36328,249879
16,36740,221643
16,37152,200802
16,37565,179950
16,37977,161349
16,38388,148909
16,38802,136919
16,39213,124088
16,39625,115529
16,40038,108330
16,40450,99663
16,40862,87484
16,41275,86876
16,41687,78354
16,42098,74934
16,42512,72354
16,42923,69387
16,43335,64405
16,43748,59690
16,44160,57955
16,44572,56889
16,44983,52914
16,45397,50528
16,45808,49987
16,46220,44216
16,46633,44882
16,47045,41428
16,47457,40399
16,47870,40864
16,48282,37932
16,48693,39782
16,49107,35178
16,49518,36231
16,49930,33687
16,50343,34744
16,50755,33840
16,51167,30810
16,51580,34448
16,51992,33159
16,52403,33754
16,52817,42296
16,53228,60278
16,53640,95497
16,54052,158123
16,54465,265021
16,54877,418277
16,55288,628918
16,55702,885690
16,56113,1156399
16,56525,1415823
16,56938,1631249
16,57350,1732395
16,57762,1745714
16,58175,1674308
16,58587,1512416
16,58998,1313383
16,59412,1092323
16,59823,892405
16,60235,725640
16,60648,587279
16,61060,470098
16,61472,383579
16,61885,314401
16,62297,264783
16,62708,223410
16,63120,195732
16,63533,166043
16,63945,148581
16,64357,133388
16,64770,118187
16,65182,106919
16,65593,100580
16,66007,91919
16,66418,88163
16,66830,87551
16,67243,91493
16,67655,123140
16,68067,174830
16,68480,278199
16,68892,462811
16,69303,725445
16,69717,1086972
16,70128,1584868
16,70540,2100449
16,70953,2649067
16,71365,3096726
16,71777,3397914
16,72188,3529892
16,72602,3467853
16,73013,3191332
16,73425,2812590
16,73838,2354116
16,74250,1920272
16,74662,1549499
16,75075,1233793
16,75487,982690
16,75898,809789
16,76312,651487
16,76723,545005
16,77135,457125
16,77548,387205
16,77960,340408
16,78372,292246
16,78785,256688
16,79197,231520
16,79608,210002
16,80022,190263
16,80433,168756
16,80845,155337
16,81257,143230
16,81670,131953
16,82082,121952
16,82493,116916
16,82907,108965
16,83318,99897
16,83730,95160
16,84143,88884
16,84555,86739
16,84967,82109
16,85380,76474
16,85792,71713
16,86203,69116
16,86617,67018
16,87028,65546
16,87440,60963
16,87853,56623
16,88265,56333
16,88677,51054
16,89090,51532
16,89502,49057
16,89913,46236
16,90325,48053
16,90738,44939
16,91150,43368
16,91562,41940
16,91975,42418
16,92387,39271
16,92798,39829
16,93212,37104
16,93623,37146
16,94035,36032
16,94448,35268
16,94860,35268
16,95272,34232
16,95685,32532
16,96097,33844
16,96508,30701
16,96922,30286
16,97333,30042
16,97745,30476
16,98158,30801
16,98570,32242
16,98982,37742
16,99393,48934
16,99807,73313
17,00218,122678
17,00630,208332
17,01043,330809
17,01455,519024
17,01867,749374
17,02280,998864
17,02692,1245216
17,03103,1441849
17,03517,1584509
17,03928,1652714
17,04340,1660455
17,04753,1652738
17,05165,1666645
17,05577,1765515
17,05990,1987081
17,06402,2335124
17,06813,2770997
17,07227,3286987
17,07638,3707238
17,08050,3965297
17,08462,4032647
17,08875,3853355
17,09287,3506062
17,09698,3016825
17,10112,2491164
17,10523,2011912
17,10935,1614122
17,11348,1277756
17,11760,1042914
17,12172,835755
17,12585,701146
17,12997,578618
17,13408,499623
17,13822,430860
17,14233,381753
17,14645,335459
17,15058,297495
17,15470,265043
17,15882,241996
17,16295,219574
17,16707,201133
17,17118,185040
17,17532,170134
17,17943,157069
17,18355,146461
17,18767,140523
17,19180,128248
17,19592,119966
17,20003,118429
17,20417,112334
17,20828,107463
17,21240,99951
17,21653,95357
17,22065,91339
17,22477,87102
17,22890,83580
17,23302,80369
17,23713,77005
17,24127,73673
17,24538,72578
17,24950,68050
17,25363,65506
17,25775,63047
17,26187,63130
17,26600,61643
17,27012,57852
17,27423,56357
17,27835,54877
17,28248,57132
17,28660,52959
17,29072,51370
17,29485,49189
17,29897,48775
17,30308,46658
17,30722,43507
17,31133,43723
17,31545,47618
17,31958,50881
17,32370,61106
17,32782,87787
17,33195,130646
17,33607,208383
17,34018,331744
17,34432,495988
17,34843,701045
17,35255,938569
17,35668,1158182
17,36080,1368183
17,36492,1503358
17,36903,1534336
17,37317,1483032
17,37728,1347449
17,38140,1189147
17,38553,1002592
17,38965,832820
17,39377,685674
17,39790,553429
17,40202,453546
17,40613,371807
17,41027,304915
17,41438,259288
17,41850,224608
17,42263,196069
17,42675,164178
17,43087,146464
17,43500,133741
17,43912,121887
17,44323,109005
17,44737,100500
17,45148,94289
17,45560,87916
17,45972,83519
17,46385,79000
17,46797,77073
17,47208,74575
17,47622,69518
17,48033,68808
17,48445,60958
17,48858,61682
17,49270,59854
17,49682,59866
17,50095,56995
17,50507,53171
17,50918,50674
17,51332,47345
17,51743,48063
17,52155,45011
17,52568,43695
17,52980,42718
17,53392,41224
17,53805,38592
17,54217,41450
17,54628,37819
17,55040,35544
17,55453,35977
17,55865,34211
17,56277,36202
17,56690,34963
17,57102,33163
17,57513,33272
17,57927,31058
17,58338,32413
17,58750,32992
17,59163,29690
17,59575,29549
17,59987,29944
17,60400,28209
17,60812,28695
17,61223,30365
17,61637,27037
17,62048,26740
17,62460,28082
17,62873,25926
17,63285,25742
17,63697,25468
17,64108,22803
17,64522,24092
17,64933,25506
17,65345,24650
17,65758,25303
17,66170,26335
17,66582,23766
17,66995,24090
17,67407,24385
17,67818,24964
17,68232,25664
17,68643,24016
17,69055,23191
17,69468,24540
17,69880,23816
17,70292,23547
17,70705,20244
17,71117,23586
17,71528,23674
17,71942,21900
17,72353,22966
17,72765,23306
17,73177,21195
17,73590,22512
17,74002,22195
17,74413,22257
17,74827,22165
17,75238,22335
17,75650,21879
17,76063,21968
17,76475,22731
17,76887,24257
17,77300,26425
17,77712,28790
17,78123,42135
17,78537,64889
17,78948,108461
17,79360,187208
17,79773,322597
17,80185,527732
17,80597,827156
17,81010,1241008
17,81422,1733117
17,81833,2289166
17,82245,2889531
17,82658,3513198
17,83070,4082401
17,83482,4546788
17,83895,4964863
17,84307,5038672
17,84718,4872365
17,85132,4470627
17,85543,3915709
17,85955,3298399
17,86368,2662352
17,86780,2128082
17,87192,1695393
17,87605,1354276
17,88017,1102077
17,88428,915795
17,88842,766079
17,89253,649220
17,89665,549050
17,90078,488618
17,90490,422479
17,90902,378681
17,91313,333967
17,91727,303246
17,92138,274534
17,92550,252905
17,92963,229085
17,93375,210384
17,93787,195144
17,94200,177910
17,94612,168178
17,95023,156260
17,95437,147104
17,95848,140348
17,96260,130585
17,96673,124908
17,97085,117183
17,97497,111004
17,97910,109081
17,98322,102784
17,98733,104822
17,99147,104436
17,99558,102707
17,99970,103749
18,00382,106366
18,00795,108199
18,01207,106646
18,01618,103717
18,02032,101855
18,02443,97030
18,02855,92014
18,03268,86908
18,03680,85962
18,04092,77994
18,04505,73844
18,04917,68722
18,05328,67276
18,05742,66364
18,06153,68455
18,06565,72876
18,06978,95510
18,07390,127781
18,07802,189451
18,08215,293841
18,08627,436961
18,09038,608175
18,09450,815023
18,09863,1002636
18,10275,1186088
18,10687,1291677
18,11100,1338604
18,11512,1290449
18,11923,1185529
18,12337,1061433
18,12748,895083
18,13160,756863
18,13573,611581
18,13985,507230
18,14397,413824
18,14810,341946
18,15222,287886
18,15633,245772
18,16047,212140
18,16458,178350
18,16870,161218
18,17283,145620
18,17695,128624
18,18107,119922
18,18518,109584
18,18932,109778
18,19343,115238
18,19755,134460
18,20168,172015
18,20580,250915
18,20992,372178
18,21405,555023
18,21817,807071
18,22228,1091489
18,22642,1408575
18,23053,1668058
18,23465,1851163
18,23878,1940921
18,24290,1891018
18,24702,1775989
18,25115,1555783
18,25527,1348022
18,25938,1119415
18,26352,914726
18,26763,752361
18,27175,613319
18,27587,511172
18,28000,424993
18,28412,364359
18,28823,311172
18,29237,273920
18,29648,240942
18,30060,212353
18,30473,188013
18,30885,176767
18,31297,157390
18,31710,145307
18,32122,135551
18,32533,126289
18,32947,114835
18,33358,111060
18,33770,103668
18,34183,100920
18,34595,94538
18,35007,91370
18,35420,83619
18,35832,78379
18,36243,75685
18,36655,72099
18,37068,69569
18,37480,67480
18,37892,67507
18,38305,65995
18,38717,63940
18,39128,61964
18,39542,60055
18,39953,57606
18,40365,57228
18,40778,55846
18,41190,53413
18,41602,51307
18,42015,50472
18,42427,48136
18,42838,46737
18,43252,45923
18,43663,47054
18,44075,44368
18,44488,45597
18,44900,43855
18,45312,42140
18,45723,41451
18,46137,40003
18,46548,42943
18,46960,40623
18,47373,40687
18,47785,37394
18,48197,38622
18,48610,38296
18,49022,41164
18,49433,37078
18,49847,38847
18,50258,37707
18,50670,37242
18,51083,38632
18,51495,41415
18,51907,49117
18,52320,66242
18,52732,105376
18,53143,173062
18,53557,292158
18,53968,476877
18,54380,737047
18,54792,1058429
18,55205,1401547
18,55617,1727727
18,56028,1996419
18,56442,2135335
18,56853,2126883
18,57265,2003047
18,57678,1791936
18,58090,1519390
18,58502,1258161
18,58915,1028444
18,59327,846172
18,59738,684802
18,60152,565145
18,60563,473701
18,60975,398824
18,61388,347373
18,61800,299353
18,62212,267457
18,62625,240100
18,63037,207955
18,63448,189920
18,63860,173325
18,64273,157270
18,64685,148784
18,65097,133700
18,65510,124804
18,65922,118138
18,66333,113340
18,66747,106795
18,67158,102493
18,67570,94323
18,67983,93047
18,68395,90935
18,68807,87109
18,69220,84908
18,69632,84732
18,70043,79309
18,70457,75687
18,70868,71684
18,71280,71669
18,71693,67040
18,72105,64952
18,72517,60274
18,72928,60194
18,73342,61152
18,73753,57196
18,74165,52281
18,74578,54151
18,74990,54676
18,75402,53612
18,75815,49329
18,76227,48383
18,76638,48120
18,77052,49006
18,77463,45963
18,77875,47476
18,78288,44536
18,78700,44644
18,79112,46830
18,79525,45164
18,79937,45416
18,80348,50263
18,80762,59227
18,81173,78611
18,81585,117634
18,81998,184772
18,82410,298943
18,82822,464751
18,83233,679380
18,83647,933804
18,84058,1198470
18,84470,1411614
18,84883,1576486
18,85295,1642939
18,85707,1613160
18,86120,1492745
18,86532,1310991
18,86943,1125214
18,87357,940659
18,87768,772273
18,88180,635873
18,88593,523174
18,89005,429345
18,89417,361393
18,89830,316132
18,90242,269455
18,90653,229000
18,91067,205508
18,91478,188691
18,91890,169537
18,92302,152379
18,92715,139775
18,93127,128474
18,93538,119431
18,93952,112999
18,94363,104277
18,94775,97879
18,95188,92760
18,95600,87038
18,96012,83025
18,96425,80414
18,96837,75366
18,97248,75092
18,97662,72791
18,98073,69200
18,98485,66454
18,98898,65651
18,99310,62613
18,99722,62092
19,00135,59129
19,00547,59226
19,00958,58283
19,01370,53497
19,01783,55378
19,02195,54630
19,02607,51354
19,03020,50907
19,03432,48634
19,03843,50300
19,04257,47114
19,04668,46049
19,05080,47062
19,05493,43670
19,05905,44926
19,06317,43856
19,06730,46339
19,07142,45052
19,07553,38419
19,07967,41666
19,08378,39633
19,08790,41024
19,09203,40205
19,09615,39946
19,10027,40049
19,10438,38733
19,10852,38806
19,11263,38092
19,11675,37488
19,12088,36180
19,12500,37474
19,12912,37604
19,13325,36543
19,13737,40035
19,14148,38393
19,14562,37669
19,14973,37315
19,15385,36309
19,15798,38321
19,16210,38382
19,16622,37769
19,17035,38382
19,17447,39014
19,17858,38214
19,18272,36024
19,18683,34701
19,19095,36924
19,19507,37161
19,19920,35528
19,20332,36494
19,20743,35256
19,21157,36063
19,21568,37169
19,21980,44237
19,22393,54519
19,22805,79805
19,23217,130953
19,23630,223537
19,24042,391282
19,24453,651691
19,24867,1045134
19,25278,1580606
19,25690,2257015
19,26103,3066431
19,26515,3940846
19,26927,4783452
19,27340,5428666
19,27752,5756264
19,28163,5712379
19,28575,5357616
19,28988,4767223
19,29400,4080620
19,29812,3372997
19,30225,2742851
19,30637,2225429
19,31048,1830693
19,31462,1510323
19,31873,1249866
19,32285,1055086
19,32698,885932
19,33110,762988
19,33522,666483
19,33935,585230
19,34347,520212
19,34758,469668
19,35172,425491
19,35583,381929
19,35995,358452
19,36408,324433
19,36820,299052
19,37232,281300
19,37643,259762
19,38057,239669
19,38468,229377
19,38880,217644
19,39293,201485
19,39705,190915
19,40117,185071
19,40530,173266
19,40942,167520
19,41353,159944
19,41767,154148
19,42178,147676
19,42590,138486
19,43003,134043
19,43415,130921
19,43827,124200
19,44240,120346
19,44652,118182
19,45063,112839
19,45477,111465
19,45888,106954
19,46300,102470
19,46712,96404
19,47125,98755
19,47537,94369
19,47948,93041
19,48362,91279
19,48773,88428
19,49185,89511
19,49598,93262
19,50010,94767
19,50422,106619
19,50835,132641
19,51247,179887
19,51658,256960
19,52072,380436
19,52483,550626
19,52895,770515
19,53308,1009732
19,53720,1232772
19,54132,1407320
19,54545,1496489
19,54957,1499227
19,55368,1426859
19,55780,1301330
19,56193,1163434
19,56605,1021965
19,57017,920237
19,57430,852612
19,57842,855906
19,58253,915525
19,58667,1034560
19,59078,1164970
19,59490,1330722
19,59903,1461434
19,60315,1527740
19,60727,1559604
19,61140,1551757
19,61552,1514925
19,61963,1503492
19,62377,1537828
19,62788,1625877
19,63200,1781608
19,63613,1993818
19,64025,2181774
19,64437,2325713
19,64848,2372354
19,65262,2302172
19,65673,2137993
19,66085,1904568
19,66498,1647408
19,66910,1391790
19,67322,1172936
19,67735,965160
19,68147,826275
19,68558,700662
19,68972,605935
19,69383,530526
19,69795,467006
19,70208,411906
19,70620,377172
19,71032,342907
19,71445,311406
19,71857,286946
19,72268,267558
19,72682,247229
19,73093,224607
19,73505,216046
19,73917,201849
19,74330,190350
19,74742,181631
19,75153,169234
19,75567,164681
19,75978,155944
19,76390,148715
19,76803,137904
19,77215,135533
19,77627,129371
19,78040,125903
19,78452,122995
19,78863,119965
19,79277,113608
19,79688,107594
19,80100,107307
19,80513,105466
19,80925,104180
19,81337,99008
19,81750,98488
19,82162,93397
19,82573,93739
19,82985,88249
19,83398,84808
19,83810,84959
19,84222,88498
19,84635,82289
19,85047,79895
19,85458,82720
19,85872,77587
19,86283,78934
19,86695,77020
19,87108,76022
19,87520,75583
19,87932,73311
19,88345,77027
19,88757,76398
19,89168,79271
19,89582,87911
19,89993,108033
19,90405,140523
19,90818,207686
19,91230,312989
19,91642,481007
19,92053,707598
19,92467,1015959
19,92878,1348347
19,93290,1684763
19,93703,1979562
19,94115,2170803
19,94527,2217435
19,94940,2114399
19,95352,1929391
19,95763,1671881
19,96177,1401494
19,96588,1174367
19,97000,971088
19,97413,804418
19,97825,686574
19,98237,583573
19,98650,502428
19,99062,444128
19,99473,398255
19,99887,355051
20,00298,323723
20,00710,297655
20,01122,270416
20,01535,248214
20,01947,232166
20,02358,220789
20,02772,204086
20,03183,189535
20,03595,180486
20,04008,171002
20,04420,162245
20,04832,154853
20,05245,147833
20,05657,147307
20,06068,139127
20,06482,136370
20,06893,126400
20,07305,128119
20,07718,122829
20,08130,116988
20,08542,113540
20,08955,110667
20,09367,105244
20,09778,101287
20,10190,102205
20,10603,97773
20,11015,97400
20,11427,94438
20,11840,95207
20,12252,93683
20,12663,90959
20,13077,89099
20,13488,91323
20,13900,87660
20,14313,83649
20,14725,82073
20,15137,82651
20,15550,81584
20,15962,80664
20,16373,78563
20,16787,73863
20,17198,74477
20,17610,77640
20,18023,82725
20,18435,95933
20,18847,118608
20,19258,160260
20,19672,233877
20,20083,350609
20,20495,514221
20,20908,743507
20,21320,1003986
20,21732,1272267
20,22145,1508196
20,22557,1667366
20,22968,1729490
20,23382,1670827
20,23793,1560936
20,24205,1393542
20,24618,1205582
20,25030,1033605
20,25442,863822
20,25855,727503
20,26267,621070
20,26678,529327
20,27092,469830
20,27503,420889
20,27915,388163
20,28327,392350
20,28740,420364
20,29152,488655
20,29563,589807
20,29977,712501
20,30388,869807
20,30800,1030983
20,31213,1151033
20,31625,1228480
20,32037,1269259
20,32450,1243361
20,32862,1173279
20,33273,1064881
20,33687,940415
20,34098,809791
20,34510,696649
20,34923,592971
20,35335,507143
20,35747,440165
20,36160,378610
20,36572,337423
20,36983,293534
20,37395,262217
20,37808,239686
20,38220,219814
20,38632,205033
20,39045,186701
20,39457,178324
20,39868,164595
20,40282,157354
20,40693,144018
20,41105,139133
20,41518,134974
20,41930,126309
20,42342,123792
20,42755,116919
20,43167,113963
20,43578,111484
20,43992,107485
20,44403,106246
20,44815,98997
20,45228,97300
20,45640,94996
20,46052,93946
20,46465,90705
20,46877,89061
20,47288,86316
20,47700,86322
20,48113,83927
20,48525,83287
20,48937,80847
20,49350,80857
20,49762,81222
20,50173,77397
20,50587,77032
20,50998,76751
20,51410,76682
20,51823,74709
20,52235,77118
20,52647,71877
20,53060,71795
20,53472,71681
20,53883,70108
20,54297,69337
20,54708,66591
20,55120,66938
20,55533,69525
20,55945,68269
20,56357,75937
20,56768,88052
20,57182,108471
20,57593,151045
20,58005,214166
20,58418,321918
20,58830,488252
20,59242,734470
20,59655,1046939
20,60067,1468338
20,60478,1952053
20,60892,2473539
20,61303,3011650
20,61715,3523627
20,62128,3873604
20,62540,4071256
20,62952,3979232
20,63365,3703484
20,63777,3280089
20,64188,2795606
20,64602,2333775
20,65013,1954056
20,65425,1624240
20,65837,1347936
20,66250,1150146
20,66662,991210
20,67073,872650
20,67487,761820
20,67898,673095
20,68310,611019
20,68723,546299
20,69135,503010
20,69547,457341
20,69960,428478
20,70372,395147
20,70783,368586
20,71197,339834
20,71608,318718
20,72020,300509
20,72433,283717
20,72845,269404
20,73257,255661
20,73670,243383
20,74082,230999
20,74493,219291
20,74905,211933
20,75318,200533
20,75730,194561
20,76142,191497
20,76555,182107
20,76967,175200
20,77378,168470
20,77792,162672
20,78203,158667
20,78615,153439
20,79028,149400
20,79440,145284
20,79852,144372
20,80265,139709
20,80677,133678
20,81088,131551
20,81502,128936
20,81913,123470
20,82325,120318
20,82738,121935
20,83150,120169
20,83562,116865
20,83973,117595
20,84387,110935
20,84798,110614
20,85210,110639
20,85623,107833
20,86035,105311
20,86447,104862
20,86860,100534
20,87272,100099
20,87683,99447
20,88097,96424
20,88508,97132
20,88920,95233
20,89333,92807
20,89745,92471
20,90157,92599
20,90570,86303
20,90982,88065
20,91393,88493
20,91807,85459
20,92218,87533
20,92630,85254
20,93042,85615
20,93455,81952
20,93867,84688
20,94278,86812
20,94692,87069
20,95103,95461
20,95515,103602
20,95928,124618
20,96340,166885
20,96752,226529
20,97165,323696
20,97577,473780
20,97988,666353
20,98402,896852
20,98813,1163653
20,99225,1416063
20,99638,1627326
21,00050,1767751
21,00462,1827495
21,00875,1784350
21,01287,1685215
21,01698,1533790
21,02110,1361942
21,02523,1184472
21,02935,1024151
21,03347,881945
21,03760,761272
21,04172,671426
21,04583,588693
21,04997,522050
21,05408,465416
21,05820,422238
21,06233,381620
21,06645,349733
21,07057,321458
21,07470,302414
21,07882,274778
21,08293,262658
21,08707,246589
21,09118,232380
21,09530,219547
21,09943,204567
21,10355,197913
21,10767,189811
21,11178,176052
21,11592,172376
21,12003,165479
21,12415,155254
21,12828,152554
21,13240,149595
21,13652,143103
21,14065,141720
21,14477,136753
21,14888,127739
21,15302,126170
21,15713,125610
21,16125,119471
21,16538,117563
21,16950,116855
21,17362,113774
21,17775,108305
21,18187,110182
21,18598,106484
21,19012,104520
21,19423,98854
21,19835,101812
21,20247,97081
21,20660,96570
21,21072,96127
21,21483,94994
21,21897,91720
21,22308,91989
21,22720,89948
21,23133,87522
21,23545,87770
21,23957,88995
21,24370,83804
21,24782,83951
21,25193,83388
21,25607,83687
21,26018,82539
21,26430,81920
21,26843,80566
21,27255,81177
21,27667,77793
21,28080,76221
21,28492,78472
21,28903,78213
21,29315,76523
21,29728,77623
21,30140,79613
21,30552,78683
21,30965,77351
21,31377,81666
21,31788,77506
21,32202,79913
21,32613,81481
21,33025,79986
21,33438,77055
21,33850,76392
21,34262,74716
21,34675,72397
21,35087,74119
21,35498,74061
21,35912,70095
21,36323,70439
21,36735,71040
21,37148,68485
21,37560,67279
21,37972,68759
21,38383,67578
21,38797,68652
21,39208,66026
21,39620,67611
21,40033,67005
21,40445,70070
21,40857,76009
21,41270,83588
21,41682,89172
21,42093,94227
21,42507,110868
21,42918,118088
21,43330,125298
21,43743,126692
21,44155,132069
21,44567,132598
21,44980,130167
21,45392,128541
21,45803,120917
21,46217,116404
21,46628,106311
21,47040,102844
21,47452,94788
21,47865,94131
21,48277,86993
21,48688,80727
21,49102,78351
21,49513,78673
21,49925,75844
21,50338,71950
21,50750,68805
21,51162,66490
21,51575,68362
21,51987,64726
21,52398,67209
21,52812,65095
21,53223,63435
21,53635,61823
21,54048,65960
21,54460,62622
21,54872,60447
21,55285,63244
21,55697,61049
21,56108,61694
21,56520,59921
21,56933,58370
21,57345,61121
21,57757,57473
21,58170,60947
21,58582,59923
21,58993,60046
21,59407,58854
21,59818,58487
21,60230,57786
21,60643,58320
21,61055,54943
21,61467,57080
21,61880,56234
21,62292,53023
21,62703,56781
21,63117,56573
21,63528,56305
21,63940,58276
21,64353,56830
21,64765,55225
21,65177,55274
21,65588,54580
21,66002,57448
21,66413,57189
21,66825,53195
21,67238,54736
21,67650,57090
21,68062,55267
21,68475,54786
21,68887,55188
21,69298,56293
21,69712,52927
21,70123,53319
21,70535,55998
21,70948,56454
21,71360,55146
21,71772,52863
21,72185,57017
21,72597,55713
21,73008,52868
21,73422,53220
21,73833,51191
21,74245,55272
21,74657,53022
21,75070,52493
21,75482,52633
21,75893,54964
21,76307,50838
21,76718,51889
21,77130,51385
21,77543,52224
21,77955,49025
21,78367,49709
21,78780,49763
21,79192,50371
21,79603,50273
21,80017,49030
21,80428,49687
21,80840,51619
21,81253,52522
21,81665,51860
21,82077,50992
21,82490,49980
21,82902,53946
21,83313,51099
21,83725,50914
21,84138,50243
21,84550,51738
21,84962,48709
21,85375,50648
21,85787,52760
21,86198,53011
21,86612,50108
21,87023,50630
21,87435,50794
21,87848,50690
21,88260,52193
21,88672,51721
21,89085,49755
21,89497,50776
21,89908,52326
21,90322,51868
21,90733,54536
21,91145,53341
21,91558,50966
21,91970,51575
21,92382,51218
21,92793,51317
21,93207,50682
21,93618,51123
21,94030,50654
21,94443,51030
21,94855,50881
21,95267,48741
21,95680,50597
21,96092,50045
21,96503,49230
21,96917,49316
21,97328,49307
21,97740,50282
21,98153,48424
21,98565,48411
21,98977,47640
21,99390,49078
21,99802,46498
22,00213,48526
22,00627,47262
22,01038,48686
22,01450,48685
22,01862,48236
22,02275,47393
22,02687,48827
22,03098,48571
22,03512,47482
22,03923,51085
22,04335,49420
22,04748,50087
22,05160,48528
22,05572,49083
22,05985,48474
22,06397,50629
22,06808,47344
22,07222,50112
22,07633,49467
22,08045,47312
22,08458,49817
22,08870,50703
22,09282,56663
22,09695,62320
22,10107,69677
22,10518,87925
22,10932,114158
22,11343,152830
22,11755,205707
22,12167,272514
22,12580,350867
22,12992,438133
22,13403,522627
22,13817,607802
22,14228,693079
22,14640,748642
22,15053,777294
22,15465,790378
22,15877,767195
22,16290,730249
22,16702,684555
22,17113,622718
22,17527,566817
22,17938,509241
22,18350,457742
22,18763,407334
22,19175,365932
22,19587,324676
22,20000,292385
22,20412,265228
22,20823,241285
22,21235,226610
22,21648,203111
22,22060,189822
22,22472,175354
22,22885,162143
22,23297,154505
22,23708,145717
22,24122,141380
22,24533,134942
22,24945,124123
22,25358,120638
22,25770,119802
22,26182,112870
22,26595,108895
22,27007,106106
22,27418,102916
22,27832,96592
22,28243,98934
22,28655,95311
22,29068,91086
22,29480,89373
22,29892,86952
22,30303,86919
22,30717,81636
22,31128,81018
22,31540,78929
22,31953,80574
22,32365,75707
22,32777,76002
22,33190,72263
22,33602,73552
22,34013,70107
22,34427,70498
22,34838,73619
22,35250,69129
22,35663,68943
22,36075,67630
22,36487,64663
22,36900,66519
22,37312,62367
22,37723,66541
22,38137,63609
22,38548,64515
22,38960,66200
22,39372,62168
22,39785,64575
22,40197,62541
22,40608,62380
22,41022,60087
22,41433,59181
22,41845,58570
22,42258,58522
22,42670,61305
22,43082,60805
22,43495,60080
22,43907,58017
22,44318,57645
22,44732,60337
22,45143,58077
22,45555,58737
22,45968,58768
22,46380,55013
22,46792,57003
22,47205,54598
22,47617,54238
22,48028,56165
22,48440,53151
22,48853,54304
22,49265,55203
22,49677,56622
22,50090,54430
22,50502,51652
22,50913,51657
22,51327,53540
22,51738,54950
22,52150,52771
22,52563,52594
22,52975,52185
22,53387,52801
22,53800,53409
22,54212,51939
22,54623,53313
22,55037,52056
22,55448,51919
22,55860,52723
22,56273,52375
